Wavelength	ABBE00441.asd
325	 0,332352858290239 
326	 0,326465759523611 
327	 0,237149363288257 
328	 2,07409107865362E-02 
329	 8,66561490496582E-02 
330	 0,221360957101877 
331	 0,178189728553864 
332	 0,113372773423943 
333	 0,070743210278094 
334	 8,27004721397869E-02 
335	 6,29821259642519E-02 
336	 0,01338305173007 
337	 2,77077911768563E-02 
338	 0,083926361648387 
339	 0,171870693753133 
340	 0,197976444860534 
341	 0,146590477960249 
342	 4,40767078781027E-02 
343	 4,27403767196837E-02 
344	 0,140978810478075 
345	 0,110475546359609 
346	 0,055988674374143 
347	 8,60648020741299E-02 
348	 9,75824296921044E-02 
349	 7,75586172246436E-02 
350	 2,92590271690333E-02 
351	 0,037061176122056 
352	 0,107890244880391 
353	 8,66691962050368E-02 
354	 0,01461811951028 
355	-3,05306948912974E-02 
356	-1,25000446481192E-02 
357	 4,88240695207211E-02 
358	 9,42343467483089E-02 
359	 0,080116493773717 
360	 4,1638905328564E-03 
361	 8,24629983832449E-03 
362	 5,24671900126733E-02 
363	 5,91921752482714E-02 
364	 0,052797581963696 
365	 4,17903398586323E-02 
366	 3,99717302888143E-02 
367	 4,06683536286177E-02 
368	 4,02023763802088E-02 
369	 4,66083117226951E-02 
370	 0,050691130587266 
371	 3,30186086349903E-02 
372	 2,62094935788589E-02 
373	 3,44899126506316E-02 
374	 3,13769396655784E-02 
375	 3,23658470678546E-02 
376	 4,65851618166641E-02 
377	 3,46476169136852E-02 
378	 1,63653921233291E-02 
379	 4,89912566070135E-02 
380	 6,01781518161136E-02 
381	 3,78965601184239E-02 
382	 4,84289024943073E-02 
383	 6,02021629787598E-02 
384	 4,30284840505253E-02 
385	 2,43483894757035E-02 
386	 1,35953523653922E-02 
387	 1,91848260934283E-02 
388	 2,92591354542045E-02 
389	 3,48010618352362E-02 
390	 1,70754433908185E-02 
391	 1,00178855455029E-03 
392	 1,69887433661825E-02 
393	 3,34623645741609E-02 
394	 0,040656977126737 
395	 3,21061820994876E-02 
396	 2,80562754885631E-02 
397	 3,73466850381593E-02 
398	 3,98157390421121E-02 
399	 0,036338761392589 
400	 3,12763734046875E-02 
401	 3,12091607918781E-02 
402	 3,40695549619401E-02 
403	 0,024551543615402 
404	 1,71295081517802E-02 
405	 2,06569843805416E-02 
406	 2,21626554771812E-02 
407	 2,17549370841643E-02 
408	 2,41146625268777E-02 
409	 2,31333711111108E-02 
410	 0,019064551258889 
411	 2,14902119155832E-02 
412	 0,025425968872431 
413	 2,58490289265881E-02 
414	 2,23123123243876E-02 
415	 1,71932508080864E-02 
416	 1,58977053014469E-02 
417	 1,89342672764481E-02 
418	 2,47346050521693E-02 
419	 2,35412593682823E-02 
420	 1,87551410094591E-02 
421	 1,57840397474143E-02 
422	 1,62644159801866E-02 
423	 1,89376543269654E-02 
424	 1,85104870408512E-02 
425	 1,70454932233273E-02 
426	 1,58136939224111E-02 
427	 1,34935920256943E-02 
428	 1,20923269110949E-02 
429	 1,56276108717507E-02 
430	 1,75651527342087E-02 
431	 1,69638037121595E-02 
432	 1,95781371192367E-02 
433	 2,06725933906674E-02 
434	 1,64347222967421E-02 
435	 1,61785050777873E-02 
436	 1,95517348269884E-02 
437	 2,13158440258766E-02 
438	 2,23556208860229E-02 
439	 2,26725411457282E-02 
440	 2,13984032119361E-02 
441	 1,98343559261562E-02 
442	 1,96389804467999E-02 
443	 1,85978267082224E-02 
444	 1,76319884287703E-02 
445	 2,22184823236231E-02 
446	 2,36685405119967E-02 
447	 1,76723942645101E-02 
448	 1,62355113406978E-02 
449	 1,84545001782362E-02 
450	 1,95744226782666E-02 
451	 0,01909826353955 
452	 0,017706187777271 
453	 2,06810257743896E-02 
454	 2,20103571748634E-02 
455	 1,64974385106877E-02 
456	 1,41722626756203E-02 
457	 1,53251814716758E-02 
458	 1,47531322756154E-02 
459	 1,65554927786998E-02 
460	 2,10554781708363E-02 
461	 0,020082452786055 
462	 1,72102006965567E-02 
463	 0,018176429474094 
464	 1,86593292870749E-02 
465	 1,76008143411439E-02 
466	 1,46781464089313E-02 
467	 0,013349129770671 
468	 1,56488857667457E-02 
469	 1,79571473322219E-02 
470	 1,92400077376807E-02 
471	 0,01859089260977 
472	 1,85443684340208E-02 
473	 1,96817768442756E-02 
474	 2,04361677747224E-02 
475	 2,03496418679189E-02 
476	 1,91583087792697E-02 
477	 1,92916433424756E-02 
478	 2,00210793142296E-02 
479	 1,75018787252546E-02 
480	 1,70421266324661E-02 
481	 2,00203076319609E-02 
482	 1,74085138081077E-02 
483	 1,33539197783833E-02 
484	 1,53017474277761E-02 
485	 1,82745723978342E-02 
486	 2,00500349070712E-02 
487	 1,75917517061652E-02 
488	 1,52497260521938E-02 
489	 0,016251572809511 
490	 1,75013859305561E-02 
491	 0,017788438988925 
492	 1,51663737253882E-02 
493	 1,49312218751998E-02 
494	 1,78443718182602E-02 
495	 1,68003451177014E-02 
496	 1,49260738469032E-02 
497	 1,62524977256125E-02 
498	 1,55109487735346E-02 
499	 1,29528553476108E-02 
500	 1,28957155478355E-02 
501	 1,32671808664352E-02 
502	 1,31913310678851E-02 
503	 1,57088955219778E-02 
504	 1,82659657710846E-02 
505	 1,57240149774314E-02 
506	 1,50528456019309E-02 
507	 1,70361776668884E-02 
508	 1,52407602458316E-02 
509	 1,33511992105011E-02 
510	 1,47752446099591E-02 
511	 1,58634215889836E-02 
512	 1,63970274524415E-02 
513	 1,79211014398225E-02 
514	 1,82917469506678E-02 
515	 1,69514660737357E-02 
516	 1,65907052843424E-02 
517	 1,70747374500879E-02 
518	 1,78182026628774E-02 
519	 1,81278065539657E-02 
520	 1,77316479355024E-02 
521	 1,64767530430803E-02 
522	 1,54935349199465E-02 
523	 1,55729496223181E-02 
524	 1,57584213703538E-02 
525	 1,62076200646391E-02 
526	 1,79592550710479E-02 
527	 1,82754289883758E-02 
528	 1,66166843745375E-02 
529	 1,58356302957896E-02 
530	 1,55372856616381E-02 
531	 1,50110922562059E-02 
532	 1,49804437368038E-02 
533	 1,53603108843418E-02 
534	 1,54414881057459E-02 
535	 1,55065360364081E-02 
536	 1,57281628887184E-02 
537	 1,61880753602279E-02 
538	 0,016573627085092 
539	 1,63498845602454E-02 
540	 0,015554687519306 
541	 1,46384819189726E-02 
542	 1,54748924940509E-02 
543	 1,65148675097488E-02 
544	 1,62203531002179E-02 
545	 1,62461152949197E-02 
546	 1,64769450434877E-02 
547	 1,55745983138345E-02 
548	 1,49774210129889E-02 
549	 1,53673377366315E-02 
550	 1,60878772397587E-02 
551	 1,67374017934206E-02 
552	 1,68801815082872E-02 
553	 1,61618501007497E-02 
554	 1,49734402893634E-02 
555	 1,52322658967262E-02 
556	 1,56449193979379E-02 
557	 1,51641212050936E-02 
558	 1,52256178035874E-02 
559	 1,56092406499773E-02 
560	 1,50048011701686E-02 
561	 1,50988480848458E-02 
562	 1,62442236813939E-02 
563	 1,62306927448591E-02 
564	 1,56505219010458E-02 
565	 1,55483024471449E-02 
566	 1,52914702038937E-02 
567	 0,015098798164697 
568	 1,63009313330368E-02 
569	 1,70694694314882E-02 
570	 1,62516048561715E-02 
571	 1,60078081492416E-02 
572	 1,62308853773314E-02 
573	 1,59143359501803E-02 
574	 0,015558125232772 
575	 1,54066716233436E-02 
576	 1,57541221254128E-02 
577	 1,64189802553258E-02 
578	 1,71564355843506E-02 
579	 0,01748976735703 
580	 1,73615847069069E-02 
581	 1,68816325624447E-02 
582	 1,70679374543711E-02 
583	 0,01826085883442 
584	 1,80745855663371E-02 
585	 1,72316654641683E-02 
586	 1,75384322037411E-02 
587	 1,80695660866905E-02 
588	 1,85446698747899E-02 
589	 1,90496492331532E-02 
590	 1,90545185665351E-02 
591	 1,81597455299199E-02 
592	 1,80224936128387E-02 
593	 1,86282043431684E-02 
594	 1,90315580627233E-02 
595	 1,90867473418718E-02 
596	 1,87702368473482E-02 
597	 1,87419142189813E-02 
598	 1,88023782831451E-02 
599	 1,85379148418685E-02 
600	 1,83365247687469E-02 
601	 1,82240890684891E-02 
602	 1,78377517092515E-02 
603	 1,75060445721041E-02 
604	 1,75158322027256E-02 
605	 1,80128010144627E-02 
606	 1,86255983281145E-02 
607	 1,84171745021374E-02 
608	 1,82421103556985E-02 
609	 1,83566847213058E-02 
610	 1,83244705884262E-02 
611	 1,79505134255096E-02 
612	 1,70498057212579E-02 
613	 1,70379602784294E-02 
614	 1,77567112586217E-02 
615	 1,73911677410862E-02 
616	 1,70890748918429E-02 
617	 1,74942446828606E-02 
618	 1,74245027188336E-02 
619	 1,70582189528659E-02 
620	 1,70561935880275E-02 
621	 0,017250226319969 
622	 1,74529284448121E-02 
623	 1,69036394276344E-02 
624	 1,66406231826332E-02 
625	 1,76915961233374E-02 
626	 1,76389237220323E-02 
627	 1,67383042489764E-02 
628	 1,73080097463074E-02 
629	 1,79241380621528E-02 
630	 1,78789918988822E-02 
631	 1,75873587785015E-02 
632	 1,74620021166595E-02 
633	 1,81264955901981E-02 
634	 1,80583862846182E-02 
635	 1,72918424176709E-02 
636	 1,79919567505712E-02 
637	 1,86426343125715E-02 
638	 1,80464790070649E-02 
639	 1,87550707920105E-02 
640	 2,02260743442542E-02 
641	 1,99163002108693E-02 
642	 1,96808196047802E-02 
643	 0,020123891880598 
644	 2,02181501186121E-02 
645	 0,020082725647795 
646	 0,019985452165923 
647	 1,99841110094894E-02 
648	 2,00326442653753E-02 
649	 1,97978689643107E-02 
650	 1,99264499259327E-02 
651	 2,07118946959438E-02 
652	 2,07552487163517E-02 
653	 2,00091890630094E-02 
654	 1,87249224637204E-02 
655	 1,80822023781298E-02 
656	 1,83462721089455E-02 
657	 1,83995501615867E-02 
658	 1,82134247676096E-02 
659	 1,78550443553184E-02 
660	 1,79750283019347E-02 
661	 1,83169498626882E-02 
662	 1,77283308561749E-02 
663	 1,70195549482972E-02 
664	 1,66461438043017E-02 
665	 0,016692248791597 
666	 1,67893264534428E-02 
667	 1,63214722830812E-02 
668	 1,63770113665124E-02 
669	 1,70234076768859E-02 
670	 1,72787359407404E-02 
671	 1,73317102336598E-02 
672	 1,73430847454567E-02 
673	 1,71494970455949E-02 
674	 1,68558071955572E-02 
675	 1,67174594273126E-02 
676	 1,67507879323222E-02 
677	 1,68957919270759E-02 
678	 1,66759218154872E-02 
679	 1,65975547689007E-02 
680	 1,72864366435354E-02 
681	 1,76858799182918E-02 
682	 1,76614093895116E-02 
683	 0,017666264925806 
684	 1,76438425534436E-02 
685	 1,75968075761997E-02 
686	 1,76319873275099E-02 
687	 1,79832481949634E-02 
688	 1,90915438039395E-02 
689	 1,95535024363935E-02 
690	 1,93012340134239E-02 
691	 2,00693431171449E-02 
692	 2,12305888141721E-02 
693	 2,21942085213794E-02 
694	 2,36796755018226E-02 
695	 2,56593339836169E-02 
696	 2,76633520517195E-02 
697	 3,02018645894064E-02 
698	 0,033418923372111 
699	 3,67554171998048E-02 
700	 4,04574394990964E-02 
701	 4,49023293794417E-02 
702	 0,049646491836377 
703	 5,46274468804901E-02 
704	 6,02388418238143E-02 
705	 6,55534310799625E-02 
706	 7,00998966002986E-02 
707	 0,07536951283842 
708	 8,10165079389373E-02 
709	 8,60016888518143E-02 
710	 9,11314343820337E-02 
711	 9,65052357810804E-02 
712	 0,101577166445857 
713	 0,106260487362548 
714	 0,110525965647384 
715	 0,114896952231059 
716	 0,119365005052391 
717	 0,123690054941692 
718	 0,127636428779227 
719	 0,130992438521308 
720	 0,13332764519098 
721	 0,135560982395878 
722	 0,138864192420457 
723	 0,141825098389155 
724	 0,144162594090371 
725	 0,146096260183768 
726	 0,148148660906207 
727	 0,150530002916036 
728	 0,152024504765411 
729	 0,152911115216744 
730	 0,153952897433763 
731	 0,155215477365337 
732	 0,156619630776037 
733	 0,157581541506398 
734	 0,158444649495249 
735	 0,159502728741267 
736	 0,160293560604997 
737	 0,160971510053306 
738	 0,16214728985332 
739	 0,163134774926505 
740	 0,163717120192455 
741	 0,164318276603503 
742	 0,164810378630885 
743	 0,165014291955342 
744	 0,165024969406878 
745	 0,16502795810046 
746	 0,165483759042747 
747	 0,165907786531655 
748	 0,166060801823929 
749	 0,166275853927572 
750	 0,166510525060926 
751	 0,166634456550148 
752	 0,166903183307031 
753	 0,167299349861409 
754	 0,167504630905111 
755	 0,167581786373924 
756	 0,167604628552451 
757	 0,167779338052955 
758	 0,168058488802808 
759	 0,168295761077228 
760	 0,168272667220065 
761	 0,168129972053315 
762	 0,168920920281961 
763	 0,169668001069445 
764	 0,16944403357367 
765	 0,169095306039393 
766	 0,169002906604352 
767	 0,169739047998773 
768	 0,170284101034756 
769	 0,170249614362476 
770	 0,170090046515988 
771	 0,170038307859603 
772	 0,170310779881092 
773	 0,17052427144803 
774	 0,170595062992999 
775	 0,170545511103443 
776	 0,170623020996032 
777	 0,170915336785784 
778	 0,171025576931071 
779	 0,171013023561409 
780	 0,171027798521988 
781	 0,171294941354232 
782	 0,171680415933484 
783	 0,171497739917312 
784	 0,171170569772566 
785	 0,171030421136554 
786	 0,171318493529232 
787	 0,171697760616922 
788	 0,17149516806704 
789	 0,171479881711592 
790	 0,171793122588776 
791	 0,17205861481173 
792	 0,172004992173722 
793	 0,171507520530508 
794	 0,171577698056032 
795	 0,172002082175554 
796	 0,171957670441783 
797	 0,171800509311872 
798	 0,171649534661366 
799	 0,17154816198989 
800	 0,171477717363776 
801	 0,17142661659385 
802	 0,171539029428026 
803	 0,171784816204937 
804	 0,172036070567957 
805	 0,172248037898692 
806	 0,172408577899735 
807	 0,172639190767277 
808	 0,172805958991233 
809	 0,17275760230572 
810	 0,172438198277303 
811	 0,172135716903057 
812	 0,172658745649666 
813	 0,173158643605734 
814	 0,17328277911357 
815	 0,173319028241434 
816	 0,173446188530603 
817	 0,173835211109445 
818	 0,174002179178767 
819	 0,173942426731572 
820	 0,173980694929407 
821	 0,174101432156381 
822	 0,174291371707042 
823	 0,17443818657703 
824	 0,174564502031648 
825	 0,174718023320405 
826	 0,175100915888451 
827	 0,175627369230253 
828	 0,175916683878801 
829	 0,17600651095765 
830	 0,175961922393856 
831	 0,176121823334736 
832	 0,176316375711698 
833	 0,176263060051433 
834	 0,176569767755789 
835	 0,177116249540824 
836	 0,177004058327347 
837	 0,176922062423642 
838	 0,177198034293232 
839	 0,177274743606211 
840	 0,17737781449317 
841	 0,177900827004375 
842	 0,177860020757522 
843	 0,177361049747102 
844	 0,177565783315239 
845	 0,17807103712129 
846	 0,17851526357524 
847	 0,178052352613166 
848	 0,177259210573775 
849	 0,177075132863739 
850	 0,177199886980085 
851	 0,177489870543065 
852	 0,177754785994949 
853	 0,17770302580592 
854	 0,177247773970189 
855	 0,176898516401731 
856	 0,177103549207429 
857	 0,178348227394529 
858	 0,178143390158916 
859	 0,176825433979614 
860	 0,177626632846351 
861	 0,178275783104607 
862	 0,177839875184517 
863	 0,178476092461506 
864	 0,179099107337636 
865	 0,178084467549368 
866	 0,178512884862609 
867	 0,180033990773548 
868	 0,179254070206783 
869	 0,178610396052476 
870	 0,179157324679954 
871	 0,179758178557858 
872	 0,180120286799593 
873	 0,180034904567168 
874	 0,180004032632857 
875	 0,180170294041553 
876	 0,180540447671358 
877	 0,181089111604172 
878	 0,181645162785891 
879	 0,181439067930219 
880	 0,181051562756448 
881	 0,181169328703864 
882	 0,181516296298064 
883	 0,181916071602895 
884	 0,182096519409273 
885	 0,181912648134445 
886	 0,181591770552366 
887	 0,182665197352942 
888	 0,183369840947045 
889	 0,18217987482849 
890	 0,182302833319187 
891	 0,183336236356237 
892	 0,183073968225741 
893	 0,183079726927905 
894	 0,18354042620929 
895	 0,183104298586864 
896	 0,182468246616788 
897	 0,182266381738167 
898	 0,182721269919754 
899	 0,183417561972846 
900	 0,18355801283274 
901	 0,183658125024006 
902	 0,183847777834184 
903	 0,184029377854887 
904	 0,184390876097935 
905	 0,184994472767168 
906	 0,185517053706669 
907	 0,185561401329335 
908	 0,184665268770281 
909	 0,184354353151108 
910	 0,184750860589366 
911	 0,184945241366763 
912	 0,184834182416733 
913	 0,184435354388943 
914	 0,184305537297227 
915	 0,184433810164582 
916	 0,184737699648343 
917	 0,185234789665561 
918	 0,185540713986847 
919	 0,184698101026433 
920	 0,184014299512685 
921	 0,184024248605398 
922	 0,184702550514628 
923	 0,185437230751988 
924	 0,185700943011034 
925	 0,185796938632614 
926	 0,185593070892556 
927	 0,184774822744175 
928	 0,184130003874149 
929	 0,1838803315436 
930	 0,183728141359841 
931	 0,184153141602655 
932	 0,18505423423882 
933	 0,183924291390475 
934	 0,182012796519269 
935	 0,18128681971208 
936	 0,181517053253206 
937	 0,182090536007174 
938	 0,181333333657467 
939	 0,180925799216285 
940	 0,181092226331433 
941	 0,179417249051075 
942	 0,178324852618611 
943	 0,179668195083845 
944	 0,178293674215244 
945	 0,175676037105948 
946	 0,176120302082187 
947	 0,176163428297898 
948	 0,175460039475436 
949	 0,176662599368883 
950	 0,176681230637673 
951	 0,174175198169966 
952	 0,172740856150388 
953	 0,172360766259395 
954	 0,172447419523714 
955	 0,171066533247115 
956	 0,168857472187986 
957	 0,168602643263825 
958	 0,168329247837414 
959	 0,167571484592596 
960	 0,167293994198533 
961	 0,167494045041429 
962	 0,167975741833679 
963	 0,16738077427468 
964	 0,166365371455002 
965	 0,166218149885889 
966	 0,165658127261089 
967	 0,164877841845026 
968	 0,165480346833569 
969	 0,165687677253169 
970	 0,164915510310052 
971	 0,16440707296001 
972	 0,164492121379673 
973	 0,165224650180903 
974	 0,164523464554282 
975	 0,163791132227778 
976	 0,166163641428703 
977	 0,1669457577962 
978	 0,165394817023316 
979	 0,163692911753453 
980	 0,162571703730655 
981	 0,162613296585789 
982	 0,164017509464029 
983	 0,16645221458777 
984	 0,169196502191238 
985	 0,16802957938117 
986	 0,165184888802628 
987	 0,166401323385312 
988	 0,168450145805988 
989	 0,170159575670503 
990	 0,170873866005026 
991	 0,171034767264317 
992	 0,17074140203609 
993	 0,169046778365251 
994	 0,167380512530705 
995	 0,167315053732461 
996	 0,16902952615421 
997	 0,171220346900115 
998	 0,17135105159098 
999	 0,172299970608849 
1000	 0,174028063901444 
1001	 0,173393793580361 
1002	 0,173009205098871 
1003	 0,174056145544441 
1004	 0,175096490199972 
1005	 0,17556445153649 
1006	 0,175209338119248 
1007	 0,176404146785852 
1008	 0,178092011225199 
1009	 0,177670786392603 
1010	 0,179213697007612 
1011	 0,181672694530075 
1012	 0,177388200434053 
1013	 0,177028605427335 
1014	 0,183184503074584 
1015	 0,183364987294997 
1016	 0,180516373238861 
1017	 0,178282405825672 
1018	 0,180245831211558 
1019	 0,183573449593949 
1020	 0,183248250408267 
1021	 0,183122735170026 
1022	 0,183820990279294 
1023	 0,184675921903903 
1024	 0,184957998686405 
1025	 0,184789952349564 
1026	 0,186361257731286 
1027	 0,186169366395401 
1028	 0,183024440576713 
1029	 0,185357072487395 
1030	 0,188597710696161 
1031	 0,186743971225651 
1032	 0,186522765778334 
1033	 0,188210945809381 
1034	 0,189726191520894 
1035	 0,190953249527825 
1036	 0,191943216739214 
1037	 0,193435395382279 
1038	 0,194988310126802 
1039	 0,195964546891353 
1040	 0,194749088255206 
1041	 0,190753546672839 
1042	 0,185677082785384 
1043	 0,196737722413765 
1044	 0,209563686732608 
1045	 0,202681640945118 
1046	 0,198037946969892 
1047	 0,197768005376656 
1048	 0,194619279843634 
1049	 0,196754071173237 
1050	 0,202824581942862 
1051	 0,197478344573524 
1052	 0,196838036723895 
1053	 0,206782108102967 
1054	 0,213456991531298 
1055	 0,210618788406666 
1056	 0,196056381046399 
1057	 0,192741843412674 
1058	 0,196719874621871 
1059	 0,197467835595707 
1060	 0,203583711271304 
1061	 0,209654311845179 
1062	 0,199480910344932 
1063	 0,205773280750196 
1064	 0,226304968752878 
1065	 0,214552719759164 
1066	 0,202079557563003 
1067	 0,200738765460502 
1068	 0,19365861108376 
1069	 0,1899863160627 
1070	 0,196402074209782 
1071	 0,202461897950689 
1072	 0,206835080613034 
1073	 0,209561905996164 
1074	 0,217868797125412 
1075	 0,221851925508151 
