Wavelength	ABBE00504.asd
325	 2,78184841268723E-02 
326	 3,91768928959012E-02 
327	 5,49772920986681E-02 
328	 2,94814772303366E-02 
329	 5,20772293591766E-03 
330	 3,56925669161468E-02 
331	 0,141311918007274 
332	 7,53800749523141E-02 
333	-4,99982751568375E-02 
334	 5,04724702626842E-02 
335	 8,24381648763298E-02 
336	 1,25889212285775E-02 
337	 3,06311219101395E-03 
338	-3,42086080927599E-03 
339	-6,25907490950523E-02 
340	-4,00101481486775E-02 
341	 4,31581147940814E-02 
342	 0,107383894748252 
343	 9,80216531702818E-02 
344	 0,029913198093402 
345	 5,46296561645641E-02 
346	 0,108337124103107 
347	 0,121182651302435 
348	 8,66442793877312E-02 
349	 3,58992270286878E-02 
350	 4,48400286111114E-02 
351	 5,47144338404892E-02 
352	 4,57536663322603E-02 
353	 4,49105059705027E-02 
354	 3,51155127315172E-02 
355	-2,87230210928065E-03 
356	-7,64947297360046E-03 
357	 1,27981952673914E-02 
358	 4,73657800998472E-03 
359	 6,27090458647099E-03 
360	 2,98215705907241E-02 
361	 3,26552988449844E-02 
362	 2,39048599968155E-02 
363	 2,29622663795532E-02 
364	 2,39574614631037E-02 
365	 0,021327922406513 
366	-5,53138256488779E-03 
367	-0,007043882193245 
368	 3,59616658596515E-02 
369	 3,36225202507979E-02 
370	 8,65806966620479E-03 
371	 2,34034642704014E-02 
372	 3,07426146403496E-02 
373	 2,28906727161679E-02 
374	 2,32943922217851E-02 
375	 2,80456322399012E-02 
376	 3,36535234502509E-02 
377	 4,56113296824236E-02 
378	 5,46928174352277E-02 
379	 3,93230494218025E-02 
380	 2,47720565454263E-02 
381	 2,03533693861894E-02 
382	 3,15317479123281E-02 
383	 3,44530404302811E-02 
384	 1,02450759056122E-02 
385	 4,88423318621293E-03 
386	 1,61018803518548E-02 
387	 1,35352004664238E-02 
388	 1,22974654991548E-02 
389	 1,70187978364344E-02 
390	 2,39068854776998E-02 
391	 2,50889559154253E-02 
392	 1,20456376088213E-02 
393	 1,70683498316614E-02 
394	 3,41684409661481E-02 
395	 2,49593932451458E-02 
396	 1,75242001735548E-02 
397	 2,46229595098777E-02 
398	 2,56057714240039E-02 
399	 2,06843584563404E-02 
400	 1,32009242771717E-02 
401	 1,02318941237193E-02 
402	 1,19820493097775E-02 
403	 1,24265340776939E-02 
404	 5,95982658619974E-03 
405	-8,55251547416152E-03 
406	-2,67023480352723E-03 
407	 1,22314385048444E-02 
408	 4,91098977954616E-03 
409	 3,2714543243901E-03 
410	 1,18970460456862E-02 
411	 0,012859939172001 
412	 1,19484740213147E-02 
413	 0,01491320526184 
414	 0,010198267476727 
415	 1,84454793173028E-03 
416	 4,37906241916321E-03 
417	 1,11722131503734E-02 
418	 1,77611019426303E-02 
419	 1,54805265231366E-02 
420	 1,01179193081708E-02 
421	 9,93622499089864E-03 
422	 9,52399816118977E-03 
423	 8,13839825593594E-03 
424	 6,68944148572885E-03 
425	 7,30535791833714E-03 
426	 1,08416949564284E-02 
427	 1,35391014630714E-02 
428	 0,014368276963896 
429	 1,22277024681081E-02 
430	 1,16540497665267E-02 
431	 0,013382513645483 
432	 1,40760523961139E-02 
433	 1,36760564434675E-02 
434	 1,21707870966808E-02 
435	 7,21515342318427E-03 
436	 3,00168484010303E-03 
437	 1,13154866149612E-02 
438	 1,67010382931422E-02 
439	 1,38745203856258E-02 
440	 0,012569098086802 
441	 1,27636908341013E-02 
442	 0,013309479991691 
443	 1,34333514130779E-02 
444	 1,35758404767242E-02 
445	 1,68201222490827E-02 
446	 1,64442513520737E-02 
447	 9,59172636396061E-03 
448	 9,69074442708506E-03 
449	 1,37848433643337E-02 
450	 1,28193078436098E-02 
451	 1,29915587242214E-02 
452	 1,50909654719858E-02 
453	 1,47412482510469E-02 
454	 0,012421704085314 
455	 0,009029468434431 
456	 0,009373154997048 
457	 0,012128387771064 
458	 1,08818749840666E-02 
459	 1,11526419247384E-02 
460	 1,42027599653259E-02 
461	 1,28950790435449E-02 
462	 1,04587464735667E-02 
463	 1,20263109907355E-02 
464	 0,011948807553717 
465	 1,00212137032105E-02 
466	 1,05875435983587E-02 
467	 1,09437033743067E-02 
468	 9,60609398705855E-03 
469	 0,010050622870067 
470	 1,21214589542089E-02 
471	 0,014718538998348 
472	 0,016166322589865 
473	 1,54907637454231E-02 
474	 1,11244586183224E-02 
475	 8,38083309365794E-03 
476	 1,22177198599921E-02 
477	 1,50061892058376E-02 
478	 1,55100657754807E-02 
479	 1,55016139613528E-02 
480	 1,39045536964677E-02 
481	 1,06801241056771E-02 
482	 8,18027875947365E-03 
483	 7,28127345846682E-03 
484	 8,78215851475343E-03 
485	 1,10474621376817E-02 
486	 1,27704650795527E-02 
487	 1,13478713590518E-02 
488	 9,85705768452605E-03 
489	 1,07159920852973E-02 
490	 1,33679059562995E-02 
491	 0,015646788441322 
492	 1,25776902479108E-02 
493	 1,20411932535336E-02 
494	 1,53387889557307E-02 
495	 1,32722435506923E-02 
496	 9,85947198769828E-03 
497	 1,02913837473119E-02 
498	 9,79260139236726E-03 
499	 8,22983542953711E-03 
500	 8,34993888631573E-03 
501	 9,01341735315389E-03 
502	 9,60807180970235E-03 
503	 1,07689540780459E-02 
504	 1,18438930345096E-02 
505	 1,16596927322035E-02 
506	 1,12049037406302E-02 
507	 1,08239668230902E-02 
508	 1,03246646448797E-02 
509	 1,06417303428946E-02 
510	 1,24498102268008E-02 
511	 1,28072380029251E-02 
512	 0,012004806270359 
513	 0,012400669946495 
514	 1,23973221124091E-02 
515	 0,011659297594991 
516	 1,25729949061858E-02 
517	 1,36087310097688E-02 
518	 1,23530381342165E-02 
519	 1,16373540669773E-02 
520	 1,19279787434541E-02 
521	 1,20712652154013E-02 
522	 1,20280004378222E-02 
523	 1,18105910838408E-02 
524	 1,18390709968959E-02 
525	 1,20179389115887E-02 
526	 1,19329758246231E-02 
527	 1,21218360534747E-02 
528	 1,25611465469982E-02 
529	 1,21946787504611E-02 
530	 1,14186128845121E-02 
531	 1,07823358754587E-02 
532	 0,010959602952092 
533	 1,16359170143771E-02 
534	 1,13167848382803E-02 
535	 1,09006193547895E-02 
536	 1,09216087058819E-02 
537	 1,10640140960183E-02 
538	 1,14292861554894E-02 
539	 1,24046337045187E-02 
540	 1,22765960250972E-02 
541	 1,10117685602439E-02 
542	 1,11299567161649E-02 
543	 1,17243119370857E-02 
544	 1,17934170172774E-02 
545	 1,18264786532772E-02 
546	 1,16441602131619E-02 
547	 1,03154178248872E-02 
548	 0,009950784087707 
549	 1,13299888085615E-02 
550	 1,18830295625826E-02 
551	 1,18869799201189E-02 
552	 1,22897916374409E-02 
553	 1,19011286273076E-02 
554	 1,09212350404451E-02 
555	 1,14833442658497E-02 
556	 1,19864089288892E-02 
557	 1,11670661721796E-02 
558	 1,10761887380113E-02 
559	 1,15091309593082E-02 
560	 1,08506093689076E-02 
561	 1,11177275387887E-02 
562	 1,26017690775574E-02 
563	 1,19098148491908E-02 
564	 1,05723383554719E-02 
565	 1,09718024723902E-02 
566	 1,19382558114232E-02 
567	 1,27900826885594E-02 
568	 1,22689036230368E-02 
569	 1,14552704983338E-02 
570	 1,11507389781694E-02 
571	 1,11594032372299E-02 
572	 1,14160945563282E-02 
573	 1,19140269212446E-02 
574	 1,17490245081469E-02 
575	 1,10291765335446E-02 
576	 1,21326063140497E-02 
577	 1,38472207216802E-02 
578	 1,46260284696445E-02 
579	 1,47534298842252E-02 
580	 1,44004119466114E-02 
581	 1,38625607255529E-02 
582	 1,38305596735235E-02 
583	 1,46056442249891E-02 
584	 1,49848554808504E-02 
585	 0,015152844284646 
586	 1,57632415971437E-02 
587	 1,61099709551018E-02 
588	 1,60370264189806E-02 
589	 0,015782612303565 
590	 1,58499739214864E-02 
591	 1,66339454654129E-02 
592	 1,69646225233698E-02 
593	 1,67205305732074E-02 
594	 1,62090671362696E-02 
595	 1,59074433905697E-02 
596	 1,60443178952986E-02 
597	 1,62465330954772E-02 
598	 1,64349133001576E-02 
599	 1,65784318351996E-02 
600	 1,63946699622356E-02 
601	 1,59247429244969E-02 
602	 1,55351455182278E-02 
603	 1,56445626061855E-02 
604	 0,016464016465099 
605	 1,65566817657734E-02 
606	 1,60062186360056E-02 
607	 1,56478920636019E-02 
608	 1,53040506623611E-02 
609	 1,49935867088765E-02 
610	 1,50081045734928E-02 
611	 1,48563770943154E-02 
612	 1,39239134787052E-02 
613	 1,34430863247506E-02 
614	 1,35565489295567E-02 
615	 1,36327219376759E-02 
616	 1,36810982118442E-02 
617	 1,36954236490714E-02 
618	 0,013651676858143 
619	 1,36891439394388E-02 
620	 1,40681205008801E-02 
621	 1,46903272566558E-02 
622	 1,52308903505045E-02 
623	 1,43625653238417E-02 
624	 1,35561971939976E-02 
625	 1,43261856145466E-02 
626	 0,014249990733809 
627	 1,34695715215336E-02 
628	 1,39714099468567E-02 
629	 0,014372465221041 
630	 1,41052334380017E-02 
631	 1,45232576764474E-02 
632	 1,51462414690589E-02 
633	 1,49544501758759E-02 
634	 1,47590042180381E-02 
635	 1,48993349408911E-02 
636	 1,58069290044783E-02 
637	 1,63391678807684E-02 
638	 1,56488067817916E-02 
639	 1,59559025952899E-02 
640	 1,70700228608391E-02 
641	 1,75400160319321E-02 
642	 1,75561858625625E-02 
643	 1,72538024025033E-02 
644	 1,72277311543322E-02 
645	 1,74982798056756E-02 
646	 1,80044854705215E-02 
647	 1,80434119793915E-02 
648	 1,76617635181252E-02 
649	 1,77132158990861E-02 
650	 1,78674148622293E-02 
651	 1,78683798472003E-02 
652	 1,75551151187854E-02 
653	 1,69927143234716E-02 
654	 1,63602114763252E-02 
655	 1,56416521608804E-02 
656	 1,50661542491199E-02 
657	 1,56780007566462E-02 
658	 1,61542739638631E-02 
659	 1,51309629012797E-02 
660	 0,014421834625323 
661	 1,41984159060366E-02 
662	 1,37261861088195E-02 
663	 0,013385359107268 
664	 1,32873206263792E-02 
665	 1,28844780565352E-02 
666	 1,23224938820298E-02 
667	 1,19064394225053E-02 
668	 1,18287332974243E-02 
669	 1,20784185194099E-02 
670	 1,24100411721151E-02 
671	 0,012438547370792 
672	 1,19426935034379E-02 
673	 1,21052756047852E-02 
674	 1,26099442002956E-02 
675	 1,21394930831252E-02 
676	 1,18842315646189E-02 
677	 1,21561522532177E-02 
678	 1,20541873863868E-02 
679	 1,20110152703963E-02 
680	 1,26060621842691E-02 
681	 1,30004472269575E-02 
682	 1,30527235444965E-02 
683	 1,29996297875453E-02 
684	 1,29489374565287E-02 
685	 1,30005680194125E-02 
686	 1,32627398984622E-02 
687	 1,36978353848155E-02 
688	 1,41813470421176E-02 
689	 1,51085522940617E-02 
690	 1,63005180627056E-02 
691	 0,01641416784735 
692	 1,67487228268617E-02 
693	 1,84601353729745E-02 
694	 0,020157949896753 
695	 0,021960373364023 
696	 2,48633650596858E-02 
697	 2,79855006298664E-02 
698	 3,10193123912042E-02 
699	 3,44311776321951E-02 
700	 3,83370171691031E-02 
701	 4,28205671163882E-02 
702	 4,79568442144001E-02 
703	 5,35673293124303E-02 
704	 5,92058201438722E-02 
705	 6,46851424708611E-02 
706	 6,99379817892928E-02 
707	 7,55777019590014E-02 
708	 8,14754249426374E-02 
709	 8,72588902164476E-02 
710	 9,29069568970467E-02 
711	 9,84442919893409E-02 
712	 0,104201644422924 
713	 0,109751026608203 
714	 0,114708696300432 
715	 0,119757888537705 
716	 0,124729753518978 
717	 0,128829254689647 
718	 0,132909966053482 
719	 0,137155717102918 
720	 0,140369083108722 
721	 0,143368275047426 
722	 0,147297423042494 
723	 0,150582459563607 
724	 0,153077015434518 
725	 0,155580085480314 
726	 0,158053042363839 
727	 0,16042471168586 
728	 0,162175132236861 
729	 0,163550448314067 
730	 0,165102999843572 
731	 0,166572661560309 
732	 0,167958788152147 
733	 0,169576809552324 
734	 0,170964245197599 
735	 0,171719738002111 
736	 0,172130844839 
737	 0,172514898864693 
738	 0,173489566454613 
739	 0,174377596914943 
740	 0,174962592127501 
741	 0,175636181701066 
742	 0,176224798731246 
743	 0,176507170777408 
744	 0,176940527412709 
745	 0,177498647188687 
746	 0,1777179064453 
747	 0,178091024652944 
748	 0,178782287762056 
749	 0,178988083731387 
750	 0,178899643109075 
751	 0,178952432924096 
752	 0,179080336591328 
753	 0,179282046402472 
754	 0,179552519208028 
755	 0,179834533769924 
756	 0,180065823910059 
757	 0,180077071067524 
758	 0,180037653382464 
759	 0,180386746124826 
760	 0,180293930790121 
761	 0,179778111934396 
762	 0,180270226951102 
763	 0,180881192874929 
764	 0,180742794596586 
765	 0,180657122765744 
766	 0,18077704003948 
767	 0,181137344108285 
768	 0,1812987980754 
769	 0,181129677410408 
770	 0,181044869200929 
771	 0,181088439095512 
772	 0,181263578259997 
773	 0,181521409596341 
774	 0,181768559774217 
775	 0,181777942869931 
776	 0,181855642886392 
777	 0,182087676228827 
778	 0,181871506498973 
779	 0,181537775009005 
780	 0,181660118286216 
781	 0,181669158972836 
782	 0,181511379319499 
783	 0,181556575676239 
784	 0,181592215731419 
785	 0,181492790979969 
786	 0,181467700324091 
787	 0,181457538688705 
788	 0,181308362484897 
789	 0,181108713131624 
790	 0,180949779090655 
791	 0,181132730142982 
792	 0,181043405635597 
793	 0,180307654046413 
794	 0,180495732323968 
795	 0,181173518092403 
796	 0,180863501717643 
797	 0,180431977078894 
798	 0,180145437907653 
799	 0,179832034240617 
800	 0,179760120635562 
801	 0,180139347623809 
802	 0,180302242962421 
803	 0,180190630451182 
804	 0,179942795238929 
805	 0,180093445955221 
806	 0,180702720883895 
807	 0,180819203424194 
808	 0,180791210908678 
809	 0,181043300777336 
810	 0,181008075182564 
811	 0,180722105292949 
812	 0,180578920121736 
813	 0,180532148997048 
814	 0,180570335858769 
815	 0,180628051036197 
816	 0,180748373195636 
817	 0,180990245250809 
818	 0,181460922925833 
819	 0,181893794721647 
820	 0,181438962562888 
821	 0,181038548247495 
822	 0,181186853489192 
823	 0,181815150248005 
824	 0,182414872568258 
825	 0,182361737267787 
826	 0,182357881770624 
827	 0,182491334373312 
828	 0,18244087893317 
829	 0,182517310458293 
830	 0,18284587789446 
831	 0,183136923075715 
832	 0,183255998453542 
833	 0,183078185414167 
834	 0,182974130665771 
835	 0,183014799624221 
836	 0,183034562433811 
837	 0,183231689441433 
838	 0,183645324950643 
839	 0,183779941228418 
840	 0,18381973098176 
841	 0,184102841834742 
842	 0,18421972536261 
843	 0,184148438284124 
844	 0,184204495357947 
845	 0,18408178463548 
846	 0,183643131118173 
847	 0,183133868978207 
848	 0,182797858313662 
849	 0,18291270436108 
850	 0,183126212629789 
851	 0,183235223820082 
852	 0,182948106640622 
853	 0,182621032236788 
854	 0,182486727564132 
855	 0,182594580504904 
856	 0,182902916518689 
857	 0,183340401134881 
858	 0,182755746904796 
859	 0,181581404767346 
860	 0,182161681755029 
861	 0,182678204631811 
862	 0,182293811356884 
863	 0,182130519859634 
864	 0,182271088625 
865	 0,182664631974789 
866	 0,18313899652529 
867	 0,183397612482755 
868	 0,18264747841673 
869	 0,182406866453958 
870	 0,183246332724418 
871	 0,183710668996234 
872	 0,183803594972142 
873	 0,183713569668101 
874	 0,183694223320462 
875	 0,183811365864116 
876	 0,183969552039753 
877	 0,184438260556347 
878	 0,185190019095601 
879	 0,185483961179841 
880	 0,185440876388035 
881	 0,185292709256498 
882	 0,185663598131269 
883	 0,186124072675723 
884	 0,184968729470145 
885	 0,185023280632773 
886	 0,186775424868558 
887	 0,187068413407644 
888	 0,186575779065573 
889	 0,186173696049605 
890	 0,18645345457886 
891	 0,187174542528717 
892	 0,187569506594992 
893	 0,187467395859167 
894	 0,186953312583467 
895	 0,186871514279143 
896	 0,186509614014782 
897	 0,185467351224677 
898	 0,185590990087889 
899	 0,186462700923363 
900	 0,186834993418887 
901	 0,18689457497423 
902	 0,186885752900054 
903	 0,187777554620899 
904	 0,187993865659332 
905	 0,18686278332272 
906	 0,187265613258191 
907	 0,188166350336684 
908	 0,187621282911479 
909	 0,186878859633217 
910	 0,186435873581713 
911	 0,186887329682758 
912	 0,187163570281124 
913	 0,186771958124751 
914	 0,186213445019798 
915	 0,185701579049714 
916	 0,185451449454847 
917	 0,186071970596895 
918	 0,186977773103548 
919	 0,186424284670709 
920	 0,185805624003538 
921	 0,185672745761464 
922	 0,186226683436873 
923	 0,186341345084575 
924	 0,185197319298911 
925	 0,184421455504778 
926	 0,184185061014838 
927	 0,184324491449219 
928	 0,183714471926991 
929	 0,182516103166587 
930	 0,18261470740993 
931	 0,182898508375891 
932	 0,182626307434584 
933	 0,18160043957392 
934	 0,180536688419934 
935	 0,180355152602436 
936	 0,1800790192578 
937	 0,179555088951172 
938	 0,179008406559097 
939	 0,178447361367691 
940	 0,177798756629179 
941	 0,176634437840216 
942	 0,175525908585587 
943	 0,174891187515475 
944	 0,173350309682212 
945	 0,171399800483886 
946	 0,170337335939386 
947	 0,169689489002466 
948	 0,169261182193027 
949	 0,168949860272326 
950	 0,167872157972914 
951	 0,165831620239815 
952	 0,165040573112958 
953	 0,16477037329029 
954	 0,163879476146054 
955	 0,163466981307799 
956	 0,16283780480052 
957	 0,159424479288274 
958	 0,157949331305235 
959	 0,159181420318428 
960	 0,158307952349114 
961	 0,157104864847505 
962	 0,156935322812421 
963	 0,156487091366376 
964	 0,155521000384494 
965	 0,153945209060363 
966	 0,153840656672473 
967	 0,155055358513922 
968	 0,155477976672503 
969	 0,155187750182205 
970	 0,154352199280974 
971	 0,154044965787612 
972	 0,153798111392853 
973	 0,153194921006582 
974	 0,153021480278975 
975	 0,153952322014841 
976	 0,157021167181024 
977	 0,156858990549325 
978	 0,153202867877278 
979	 0,150351031924687 
980	 0,150185274140874 
981	 0,15308807187842 
982	 0,154588452544225 
983	 0,155528041522567 
984	 0,157022834701976 
985	 0,157192230823968 
986	 0,156141258007587 
987	 0,154553256379968 
988	 0,155753880420516 
989	 0,158984906777618 
990	 0,157702807332434 
991	 0,156564228912891 
992	 0,15773948214548 
993	 0,158364569526501 
994	 0,158188753512487 
995	 0,15737571434838 
996	 0,158509487684063 
997	 0,160111762274832 
998	 0,158306814883497 
999	 0,159159198114519 
1000	 0,162369627982998 
1001	 0,160201117962312 
1002	 0,159518973994881 
1003	 0,162847435225831 
1004	 0,163403094528312 
1005	 0,162383968267222 
1006	 0,161611409566343 
1007	 0,162138368321132 
1008	 0,163714806509566 
1009	 0,165398932000762 
1010	 0,168329770764385 
1011	 0,171226748224872 
1012	 0,169051680046398 
1013	 0,167573931532044 
1014	 0,168952398949653 
1015	 0,170081595580102 
1016	 0,169198045561169 
1017	 0,165754998173914 
1018	 0,167465549753215 
1019	 0,17041496061921 
1020	 0,167338928804477 
1021	 0,168917191089872 
1022	 0,174024993784928 
1023	 0,172156896640477 
1024	 0,172448279357016 
1025	 0,175940918617381 
1026	 0,172364693514322 
1027	 0,170603015502202 
1028	 0,175564336728334 
1029	 0,177492867592283 
1030	 0,1784028420043 
1031	 0,181405322869977 
1032	 0,17925708213721 
1033	 0,175278124044939 
1034	 0,178836578526754 
1035	 0,178109946210686 
1036	 0,174277353667529 
1037	 0,183941090790723 
1038	 0,18998578795322 
1039	 0,185781230262892 
1040	 0,180819497935239 
1041	 0,179839252731592 
1042	 0,184965537944032 
1043	 0,183076696131719 
1044	 0,180709866599698 
1045	 0,18866374242973 
1046	 0,194676384850282 
1047	 0,195575344342119 
1048	 0,190898714969432 
1049	 0,190685740963981 
1050	 0,194666159349438 
1051	 0,187298406396058 
1052	 0,185934279390229 
1053	 0,195674180915068 
1054	 0,193386170963057 
1055	 0,189884353431296 
1056	 0,194331693297716 
1057	 0,191124371701769 
1058	 0,184119250322876 
1059	 0,181730136150435 
1060	 0,186643624385354 
1061	 0,195057744715024 
1062	 0,196760859751991 
1063	 0,199903209337724 
1064	 0,203325178380252 
1065	 0,194022459680873 
1066	 0,186918999965514 
1067	 0,186781485884215 
1068	 0,180947627679909 
1069	 0,175339524537557 
1070	 0,176618216219606 
1071	 0,192856907577888 
1072	 0,207270465532884 
1073	 0,199726476058621 
1074	 0,192734351934161 
1075	 0,184703668467578 
