Wavelength	ABBE00027.asd
325	-8,51921261395821E-02 
326	 5,63374794779753E-02 
327	 9,46862238731919E-02 
328	-4,04774885936469E-02 
329	-0,194927503568477 
330	-0,184802180948736 
331	 7,95737570541316E-02 
332	 0,112880444871309 
333	 2,464061660679E-04 
334	 6,17769464474951E-02 
335	 0,111744223488447 
336	 0,105009345446768 
337	 2,63341363576749E-02 
338	-5,00550931498025E-02 
339	-7,02446549361034E-02 
340	-4,62741286527975E-03 
341	 0,062914527730676 
342	-1,57948968433531E-02 
343	-2,97573177356393E-02 
344	 4,24189055663867E-02 
345	 4,45341112951574E-03 
346	-0,013131081742748 
347	 0,112504578025066 
348	 0,121468862627183 
349	 3,74756140952164E-02 
350	 3,13366122068757E-02 
351	 3,89715809298093E-02 
352	 3,75896228190621E-02 
353	 3,25663040903947E-02 
354	 2,07542507482195E-02 
355	 1,15391483578846E-03 
356	-1,21457171738098E-02 
357	-9,59245643778521E-03 
358	 3,70639349942351E-02 
359	 4,83848869816825E-02 
360	-3,61052486609419E-04 
361	-4,18318696019726E-03 
362	 1,38478504956237E-02 
363	 4,63209038624036E-03 
364	 1,49405354318774E-02 
365	 3,91667261182849E-02 
366	 1,46672072969977E-02 
367	 0,012198005856793 
368	 6,26908106922588E-02 
369	 6,22893989181991E-02 
370	 2,73467561431174E-02 
371	 9,50170754889527E-03 
372	 1,35436664703316E-02 
373	 3,03391210772766E-02 
374	 8,37798804947531E-03 
375	-6,49364613789344E-04 
376	 3,74907594150355E-02 
377	 4,03664968620189E-02 
378	 2,33673476438741E-02 
379	 4,84797999785356E-02 
380	 4,85718699877151E-02 
381	 0,015499348258104 
382	 2,32141610095908E-02 
383	 3,99075522169491E-02 
384	 0,033506228396022 
385	 1,62369870099625E-02 
386	-1,11778092223308E-03 
387	 7,35063000096523E-04 
388	 1,23643881705176E-02 
389	 2,63831164168941E-02 
390	 2,71268894679247E-02 
391	 2,77134686727601E-02 
392	 4,43405752538576E-02 
393	 3,71590937605545E-02 
394	 1,20181315869914E-02 
395	 7,45757760589877E-03 
396	 1,33290829399617E-02 
397	 2,33869809244017E-02 
398	 3,38306452399009E-02 
399	 3,81741522886922E-02 
400	 2,81345255540157E-02 
401	 1,99593959791781E-02 
402	 0,016962378391485 
403	 1,22649300162361E-02 
404	 9,95132038082109E-03 
405	 1,21812402341658E-02 
406	 1,28421387330192E-02 
407	 1,23011488978699E-02 
408	 1,29399190457439E-02 
409	 0,015894281220725 
410	 2,04100308593931E-02 
411	 2,14315694080175E-02 
412	 2,01089362307266E-02 
413	 1,77131920625955E-02 
414	 0,008478584858027 
415	-3,9565949574991E-04 
416	 1,17188250293289E-02 
417	 2,38663273178361E-02 
418	 2,66410187494761E-02 
419	 2,00390245823101E-02 
420	 1,24327989832992E-02 
421	 1,41547519584297E-02 
422	 1,56633364421447E-02 
423	 1,52425619085712E-02 
424	 1,44860896578191E-02 
425	 1,55086274205916E-02 
426	 1,90486446440667E-02 
427	 2,01265706017102E-02 
428	 1,97983773182257E-02 
429	 2,13619926815232E-02 
430	 2,00913449209015E-02 
431	 1,68464223536297E-02 
432	 2,15094181331771E-02 
433	 2,52225195141429E-02 
434	 2,03930087830298E-02 
435	 1,64428175891601E-02 
436	 0,015749649161273 
437	 1,98447406983809E-02 
438	 2,20859498804306E-02 
439	 2,02613075950605E-02 
440	 1,97794221905977E-02 
441	 2,01757852453364E-02 
442	 0,020242306954332 
443	 2,08918070508892E-02 
444	 2,16675202193821E-02 
445	 2,07216337976472E-02 
446	 1,84606614669974E-02 
447	 1,57341345374525E-02 
448	 1,74660640665882E-02 
449	 2,12544997545319E-02 
450	 2,16190847534702E-02 
451	 2,11095900212382E-02 
452	 2,05132423025013E-02 
453	 2,01870099828394E-02 
454	 1,94741567092634E-02 
455	 1,79499039629964E-02 
456	 1,96277714044342E-02 
457	 2,28581410734566E-02 
458	 2,12621234317872E-02 
459	 2,00050613839943E-02 
460	 2,07983201101677E-02 
461	 1,96285036597915E-02 
462	 1,81493576607456E-02 
463	 1,89844514181851E-02 
464	 2,06235314975082E-02 
465	 2,17509297225563E-02 
466	 1,92571860211781E-02 
467	 1,69710287550416E-02 
468	 1,73858102502877E-02 
469	 1,82791822091539E-02 
470	 1,92916776803356E-02 
471	 2,04964410468218E-02 
472	 2,12240903615817E-02 
473	 2,08265618856963E-02 
474	 1,71062280299069E-02 
475	 1,50598708134613E-02 
476	 1,93628805929374E-02 
477	 0,02228197053696 
478	 2,25936824032721E-02 
479	 2,17654676662293E-02 
480	 2,12908337366768E-02 
481	 2,16604756376619E-02 
482	 2,01726797768056E-02 
483	 1,82954156368781E-02 
484	 1,85812102254418E-02 
485	 1,92073326135411E-02 
486	 1,91704543787447E-02 
487	 1,64037839547949E-02 
488	 1,48212408812406E-02 
489	 1,72087248506821E-02 
490	 1,97513860740484E-02 
491	 2,12556835739373E-02 
492	 2,07204531177624E-02 
493	 2,00029667370628E-02 
494	 1,97900545505882E-02 
495	 1,97146371103088E-02 
496	 1,91677261814364E-02 
497	 1,75246828891663E-02 
498	 1,66131517951997E-02 
499	 1,65380532841598E-02 
500	 1,60953954613865E-02 
501	 1,59571060308068E-02 
502	 0,016586341215037 
503	 1,87997657862994E-02 
504	 2,06809318280761E-02 
505	 1,87232231762698E-02 
506	 1,78098143735259E-02 
507	 1,87568773735559E-02 
508	 0,018134015385423 
509	 1,71941776464784E-02 
510	 1,71821171439273E-02 
511	 1,73526987479752E-02 
512	 1,79758268413789E-02 
513	 2,05285017195555E-02 
514	 0,021000163647974 
515	 1,84387069068533E-02 
516	 1,89994546908753E-02 
517	 2,08784170492636E-02 
518	 2,07372083622427E-02 
519	 2,00798069773872E-02 
520	 1,95192888770534E-02 
521	 2,01357971763446E-02 
522	 1,98657935422323E-02 
523	 0,017571246471245 
524	 1,80401156725452E-02 
525	 2,01191192550426E-02 
526	 1,95053140548628E-02 
527	 1,89912692688327E-02 
528	 1,92807148595463E-02 
529	 1,91304573656326E-02 
530	 1,84804722832948E-02 
531	 1,73854916669562E-02 
532	 1,75172968129252E-02 
533	 1,86289684545432E-02 
534	 1,86347100531158E-02 
535	 1,87842002544787E-02 
536	 1,96570060220173E-02 
537	 1,97956268311734E-02 
538	 1,92815645193403E-02 
539	 1,85831437120757E-02 
540	 0,018041507264825 
541	 1,79183536284471E-02 
542	 1,86805868749259E-02 
543	 1,91907477511573E-02 
544	 1,84242861620702E-02 
545	 1,87793238384617E-02 
546	 1,98500429207452E-02 
547	 1,90848339289896E-02 
548	 0,018412863348771 
549	 1,86953543039575E-02 
550	 1,88719512969276E-02 
551	 1,90103805751586E-02 
552	 0,019435727301566 
553	 1,91242461997899E-02 
554	 1,82634877289012E-02 
555	 1,88855742830718E-02 
556	 0,01936979368399 
557	 1,84447899459575E-02 
558	 0,018224785927683 
559	 1,85629174185627E-02 
560	 1,80105209067163E-02 
561	 1,79998143203881E-02 
562	 1,88208224360824E-02 
563	 1,86346051921392E-02 
564	 1,79898334429119E-02 
565	 1,78125937716045E-02 
566	 1,84344832680716E-02 
567	 1,95143671215075E-02 
568	 1,95732117623884E-02 
569	 1,92632583019157E-02 
570	 1,90938395114283E-02 
571	 1,93253852685781E-02 
572	 1,96649112667804E-02 
573	 1,93521690793339E-02 
574	 1,90379415603791E-02 
575	 1,90423046563452E-02 
576	 1,96594474308153E-02 
577	 2,05056962350966E-02 
578	 2,11177892420897E-02 
579	 2,11519133461604E-02 
580	 2,08068563188792E-02 
581	 2,09619143904902E-02 
582	 2,12488705123743E-02 
583	 2,14146806108495E-02 
584	 2,11382792693477E-02 
585	 2,08461088344031E-02 
586	 2,13718286350661E-02 
587	 2,17761841930263E-02 
588	 2,17746208587475E-02 
589	 2,14220974555293E-02 
590	 2,14597731798817E-02 
591	 2,24913024091121E-02 
592	 2,29084074217096E-02 
593	 2,25816568807091E-02 
594	 2,19933505893251E-02 
595	 0,021890015061454 
596	 2,25336370176931E-02 
597	 2,28754737919704E-02 
598	 0,022791914948361 
599	 2,22823835473534E-02 
600	 2,19460105892953E-02 
601	 2,19204722311874E-02 
602	 0,021890377506304 
603	 0,021937950497673 
604	 2,20868288177587E-02 
605	 2,18031118272454E-02 
606	 2,13049953031512E-02 
607	 2,12990766184304E-02 
608	 2,15137404608999E-02 
609	 2,18036378890157E-02 
610	 2,20238779874489E-02 
611	 2,17700890452313E-02 
612	 2,05920903974128E-02 
613	 1,97950060230483E-02 
614	 1,96884206497012E-02 
615	 2,00443328363783E-02 
616	 2,03901017386211E-02 
617	 2,04194960533566E-02 
618	 2,04929177148129E-02 
619	 2,05937053676243E-02 
620	 0,020574299320458 
621	 2,07019424186609E-02 
622	 0,0209182003959 
623	 2,04657438459569E-02 
624	 2,01083073452357E-02 
625	 2,06253135827759E-02 
626	 2,04819392999576E-02 
627	 1,99299601966041E-02 
628	 2,07715885867854E-02 
629	 2,11989114796963E-02 
630	 2,04980586930682E-02 
631	 2,07767901535591E-02 
632	 2,14941983177446E-02 
633	 2,13765006599954E-02 
634	 2,12482758379559E-02 
635	 2,14005214009005E-02 
636	 2,21024083902131E-02 
637	 2,24743941152423E-02 
638	 0,021900128540934 
639	 2,26005569623709E-02 
640	 2,40787959776677E-02 
641	 0,024112352569299 
642	 2,37735838408647E-02 
643	 2,35332432443386E-02 
644	 2,36194559743033E-02 
645	 0,023894845132345 
646	 2,41401753975555E-02 
647	 2,41099636396924E-02 
648	 2,38706198061403E-02 
649	 2,38798649349308E-02 
650	 2,40626392534881E-02 
651	 2,43016930034757E-02 
652	 2,40946302682544E-02 
653	 2,34567444783873E-02 
654	 2,25100783695546E-02 
655	 0,02198753702307 
656	 2,21043481848462E-02 
657	 2,24808080117051E-02 
658	 0,022451798080184 
659	 2,14353449008378E-02 
660	 2,15164083533435E-02 
661	 2,23464682444149E-02 
662	 2,15553437265867E-02 
663	 2,07241563755396E-02 
664	 2,05738980727113E-02 
665	 2,02154484026821E-02 
666	 1,97278262788783E-02 
667	 1,93552317869552E-02 
668	 1,94545258382925E-02 
669	 1,99375854410644E-02 
670	 2,00568019731844E-02 
671	 2,00016530464559E-02 
672	 0,019938703252897 
673	 1,98108363837776E-02 
674	 1,96180817972886E-02 
675	 1,93419849481713E-02 
676	 1,91177643764409E-02 
677	 0,019048623766657 
678	 1,92674649949437E-02 
679	 1,97797891924721E-02 
680	 2,05650801688563E-02 
681	 2,07135806450095E-02 
682	 2,03118869970155E-02 
683	 0,020352448168409 
684	 2,06258983815347E-02 
685	 2,09751420723529E-02 
686	 0,021035567620862 
687	 2,11456748286499E-02 
688	 2,20241044832909E-02 
689	 2,26003490432506E-02 
690	 2,27613049944387E-02 
691	 2,35135901936321E-02 
692	 2,45322951232291E-02 
693	 2,55203588822601E-02 
694	 2,69879723645023E-02 
695	 2,89682156376542E-02 
696	 0,03130412933174 
697	 3,38705063967849E-02 
698	 3,65667617856197E-02 
699	 3,91477396613676E-02 
700	 4,22077265642545E-02 
701	 4,65141660809903E-02 
702	 5,09329552947696E-02 
703	 5,51654008373507E-02 
704	 5,94321058958637E-02 
705	 6,35450850555463E-02 
706	 6,74393653223243E-02 
707	 7,16373103383161E-02 
708	 0,07601113198571 
709	 8,02148383323618E-02 
710	 8,42105516388007E-02 
711	 8,80405223072539E-02 
712	 9,21178420336428E-02 
713	 9,59303402411739E-02 
714	 9,90166563111656E-02 
715	 0,102026236706389 
716	 0,105064495786013 
717	 0,108107397428249 
718	 0,110770723703986 
719	 0,112936701737615 
720	 0,1150445301426 
721	 0,117195489063605 
722	 0,119444373503063 
723	 0,121278719946417 
724	 0,12270589074952 
725	 0,124136932735284 
726	 0,125696402841616 
727	 0,127368166710334 
728	 0,128280610973229 
729	 0,128771710685235 
730	 0,12962339238554 
731	 0,130778280239819 
732	 0,132046100419089 
733	 0,13263259447602 
734	 0,133054113160791 
735	 0,133752987700653 
736	 0,134024425012494 
737	 0,134131319842196 
738	 0,135050940853103 
739	 0,13580751283943 
740	 0,136069778838309 
741	 0,13625058075577 
742	 0,136440994714118 
743	 0,136709585895327 
744	 0,137085002153822 
745	 0,137572350138385 
746	 0,138204743576634 
747	 0,138684302009765 
748	 0,138844958964225 
749	 0,138833459904511 
750	 0,138740826537994 
751	 0,138654937808127 
752	 0,138880261478251 
753	 0,139364161972566 
754	 0,139588656806843 
755	 0,139637741978447 
756	 0,139601700755605 
757	 0,139637924526727 
758	 0,139873224154264 
759	 0,140544708619125 
760	 0,140809350533301 
761	 0,140593955023668 
762	 0,141041889047014 
763	 0,141534787969774 
764	 0,14146114312915 
765	 0,141300896578679 
766	 0,141298265903036 
767	 0,141890113069963 
768	 0,142197926062661 
769	 0,141953000759289 
770	 0,141832131982075 
771	 0,142098337621168 
772	 0,142950962116708 
773	 0,142820885926936 
774	 0,142010745769532 
775	 0,142627800764679 
776	 0,143246725291359 
777	 0,143183452940032 
778	 0,143155880189045 
779	 0,143209014381219 
780	 0,143293212678146 
781	 0,143436021470566 
782	 0,143604649066775 
783	 0,143694303031817 
784	 0,14366510163771 
785	 0,143540321953153 
786	 0,143759810055224 
787	 0,144058623916001 
788	 0,14384805542967 
789	 0,143744713583297 
790	 0,143891468928377 
791	 0,144091385677483 
792	 0,14407563429434 
793	 0,143704145716465 
794	 0,143837448274042 
795	 0,144304689330137 
796	 0,144445746759766 
797	 0,144428995696193 
798	 0,14430732711926 
799	 0,144120507280963 
800	 0,144076948411853 
801	 0,144340378938636 
802	 0,144436050968347 
803	 0,144443724007983 
804	 0,144820831574396 
805	 0,145181140329581 
806	 0,145380962858861 
807	 0,145495248988365 
808	 0,145595713141075 
809	 0,145747399086595 
810	 0,145734893408947 
811	 0,145688661286431 
812	 0,146099716691958 
813	 0,146461072748212 
814	 0,146554169370625 
815	 0,146484168597842 
816	 0,146505519358849 
817	 0,146895600255117 
818	 0,147312513892524 
819	 0,147595710433062 
820	 0,147548722011008 
821	 0,147429635725142 
822	 0,147442157661064 
823	 0,147957952027054 
824	 0,148486640335122 
825	 0,148371301226462 
826	 0,148499333821873 
827	 0,148909769194549 
828	 0,149048059719435 
829	 0,149029865060979 
830	 0,14895599511104 
831	 0,149100121600271 
832	 0,14937851537152 
833	 0,149631046983958 
834	 0,149712868806968 
835	 0,149663636385017 
836	 0,149733940724722 
837	 0,14993433540515 
838	 0,150235462773902 
839	 0,15038240637903 
840	 0,15042500251129 
841	 0,150480398453885 
842	 0,15035343601882 
843	 0,150244439746961 
844	 0,15100132426921 
845	 0,151481155942358 
846	 0,151121870366939 
847	 0,150803075042399 
848	 0,150717839638029 
849	 0,150977494631247 
850	 0,15102131040313 
851	 0,150834294422481 
852	 0,150942088255869 
853	 0,150803889438536 
854	 0,150291690953518 
855	 0,150601832353054 
856	 0,151273289860715 
857	 0,151501622757686 
858	 0,150974712856064 
859	 0,150249606652241 
860	 0,151420043841553 
861	 0,152354671755941 
862	 0,152083664205111 
863	 0,152207451487733 
864	 0,152444773264641 
865	 0,152237214449963 
866	 0,152835601105567 
867	 0,153785510253163 
868	 0,152760888859266 
869	 0,152009419317839 
870	 0,152523895505815 
871	 0,153151287564507 
872	 0,153618782710873 
873	 0,153742265669474 
874	 0,153962246409343 
875	 0,15431029778733 
876	 0,154559876466053 
877	 0,15488268491503 
878	 0,155232189754442 
879	 0,154879045938926 
880	 0,154774007216679 
881	 0,155894272146719 
882	 0,156178774312464 
883	 0,155642368193116 
884	 0,155371546944026 
885	 0,155696299323439 
886	 0,156510586963475 
887	 0,156349492135028 
888	 0,156026857683688 
889	 0,156356426127432 
890	 0,156619184150719 
891	 0,156831859329672 
892	 0,157302592679219 
893	 0,157872172715588 
894	 0,158270387900502 
895	 0,157543555595594 
896	 0,157165402518097 
897	 0,15810201216905 
898	 0,157708922819192 
899	 0,156811130786836 
900	 0,157572784907651 
901	 0,158677845690099 
902	 0,159431148854447 
903	 0,15869996609707 
904	 0,158253050465642 
905	 0,159084691670328 
906	 0,159694121781269 
907	 0,159651879116106 
908	 0,158652319931642 
909	 0,158436162511339 
910	 0,158989585757317 
911	 0,158656881065933 
912	 0,158748187695262 
913	 0,159662298255802 
914	 0,160086420442965 
915	 0,159684618434181 
916	 0,15835044365425 
917	 0,158389090874245 
918	 0,159410391213052 
919	 0,159128549567087 
920	 0,158980209748085 
921	 0,15922567667126 
922	 0,158776329520606 
923	 0,158408814603559 
924	 0,158736789421882 
925	 0,158821568445091 
926	 0,158584548517768 
927	 0,158174913260258 
928	 0,157589850271575 
929	 0,157039542466287 
930	 0,157146737418174 
931	 0,157496830160278 
932	 0,157616946982429 
933	 0,156143555620417 
934	 0,154656745679284 
935	 0,155281244012536 
936	 0,155404923899504 
937	 0,15467199468241 
938	 0,153726738776601 
939	 0,15331092018979 
940	 0,153477701885252 
941	 0,152690805643231 
942	 0,151781511560647 
943	 0,151485091832157 
944	 0,150801969875277 
945	 0,149468386067869 
946	 0,147251249155296 
947	 0,14619725724737 
948	 0,146508842595177 
949	 0,146575106766567 
950	 0,145888797368351 
951	 0,144346875520273 
952	 0,143405615719929 
953	 0,143100740627519 
954	 0,143196164963328 
955	 0,142168658221772 
956	 0,140315674749719 
957	 0,139203927789017 
958	 0,138669778398469 
959	 0,138607889444103 
960	 0,138727374851756 
961	 0,137918261425719 
962	 0,135708569685814 
963	 0,135483865185667 
964	 0,136008232332567 
965	 0,134667624635451 
966	 0,13487927076623 
967	 0,136349144373699 
968	 0,135453891653431 
969	 0,135127880093599 
970	 0,136141125672746 
971	 0,135603958899723 
972	 0,134753755513814 
973	 0,134814955505875 
974	 0,134549403833488 
975	 0,134434240357592 
976	 0,135690585324985 
977	 0,135246020485548 
978	 0,133231147518006 
979	 0,133009285295089 
980	 0,13394369556782 
981	 0,135396622736775 
982	 0,135335008103107 
983	 0,135718009742683 
984	 0,138304019532156 
985	 0,137578869037157 
986	 0,134800411968973 
987	 0,134171497707076 
988	 0,136241030300404 
989	 0,139936789498008 
990	 0,141047658583328 
991	 0,139571269903895 
992	 0,136558772121937 
993	 0,138339085011834 
994	 0,139870010772081 
995	 0,136103617686622 
996	 0,137764570233707 
997	 0,142543083537901 
998	 0,142268918932207 
999	 0,141704959172986 
1000	 0,141832860298576 
1001	 0,141320905126875 
1002	 0,14142007798835 
1003	 0,142684957483567 
1004	 0,144647751814271 
1005	 0,145121590432336 
1006	 0,142573582495126 
1007	 0,143360320093116 
1008	 0,146592170773393 
1009	 0,148633502347351 
1010	 0,150386641016924 
1011	 0,151598915331348 
1012	 0,150950862521267 
1013	 0,151135986098497 
1014	 0,152522736917931 
1015	 0,150434367334915 
1016	 0,147124360109345 
1017	 0,145086127113907 
1018	 0,146024081642904 
1019	 0,148818508291051 
1020	 0,151288949347291 
1021	 0,152321012253828 
1022	 0,153017542503204 
1023	 0,157651087399173 
1024	 0,16041800795236 
1025	 0,159509107147379 
1026	 0,156706688343895 
1027	 0,154412489774041 
1028	 0,154432088660899 
1029	 0,157054757592607 
1030	 0,160130909394444 
1031	 0,161160736625909 
1032	 0,161462474607282 
1033	 0,161983580931208 
1034	 0,164414941977332 
1035	 0,159919564541655 
1036	 0,151730904917506 
1037	 0,159990914541061 
1038	 0,165977716152811 
1039	 0,162690523453598 
1040	 0,161786738498106 
1041	 0,163444006352984 
1042	 0,166676719706975 
1043	 0,166098567079926 
1044	 0,163760434297108 
1045	 0,163511755290842 
1046	 0,165058430748304 
1047	 0,166749633179641 
1048	 0,164447609817078 
1049	 0,168376478130291 
1050	 0,176189417791459 
1051	 0,165522135237834 
1052	 0,159947145845195 
1053	 0,169534240301528 
1054	 0,178911647660184 
1055	 0,182550407605139 
1056	 0,176978801799648 
1057	 0,169948873302843 
1058	 0,164268313226471 
1059	 0,162023839772396 
1060	 0,171017711366783 
1061	 0,182644968450583 
1062	 0,17421164033651 
1063	 0,168743538533108 
1064	 0,170784843196084 
1065	 0,169403319193498 
1066	 0,174399349119614 
1067	 0,184266735625898 
1068	 0,169038608656117 
1069	 0,157668346022353 
1070	 0,17039734376994 
1071	 0,167678462522795 
1072	 0,16307092867552 
1073	 0,176151367474832 
1074	 0,180790270855098 
1075	 0,172683202334447 
