Wavelength	ABBE00237.asd
325	 0,116240893911426 
326	 0,168361298939811 
327	 0,175134530003689 
328	 8,36638067089443E-02 
329	-8,07722935917662E-02 
330	-7,26013865280732E-02 
331	 0,250225703550209 
332	 0,187063327441533 
333	-8,09345693066623E-02 
334	-1,90992991709463E-02 
335	 0,12751825503651 
336	 0,247539962246255 
337	 0,133042610910547 
338	-2,74753775999729E-02 
339	-8,71339285549137E-02 
340	 3,37819005624361E-02 
341	 0,194733378241311 
342	 0,152543140292217 
343	 0,107099814293114 
344	 9,74425689305706E-02 
345	 3,98330973846956E-02 
346	 1,45044441573472E-02 
347	 9,18977750280889E-02 
348	 0,108258859390112 
349	 7,01585632464608E-02 
350	 7,24699596625874E-02 
351	 0,064651586008422 
352	 3,59121356784331E-02 
353	 3,25736796342386E-02 
354	 3,36694698818293E-02 
355	 1,09156560138258E-02 
356	 2,07303003568278E-02 
357	 5,40477525095343E-02 
358	 6,10685130120499E-02 
359	 5,10514983427164E-02 
360	 3,32186898633584E-02 
361	 4,56396734470116E-02 
362	 6,10917645565768E-02 
363	 3,68960167543453E-02 
364	 0,025987537572847 
365	 3,49769078853861E-02 
366	 4,23797308978333E-02 
367	 3,91859245284198E-02 
368	 2,38409150200469E-02 
369	 2,61263534330931E-02 
370	 3,73471738967404E-02 
371	 3,58170499032039E-02 
372	 1,84538493576394E-02 
373	-4,13140214640956E-03 
374	 1,21331433207237E-02 
375	 0,034499072937344 
376	 3,73439011238263E-02 
377	 4,78668977591498E-02 
378	 0,05829291002878 
379	 4,46941824743098E-02 
380	 1,96030955622356E-02 
381	-3,60710124226908E-03 
382	 2,65981130118061E-02 
383	 5,01561242605605E-02 
384	 1,56971515949475E-02 
385	-7,39744677801838E-03 
386	-6,2785371475252E-03 
387	 1,43759795978474E-02 
388	 3,62761643865399E-02 
389	 4,86428657985677E-02 
390	 4,59160427592753E-02 
391	 3,79206978240026E-02 
392	 3,64993633152777E-02 
393	 2,88273924258152E-02 
394	 1,77156943394456E-02 
395	 0,017615419882636 
396	 0,018807990669458 
397	 1,76800325345376E-02 
398	 2,76800840642491E-02 
399	 3,86093893445113E-02 
400	 3,38502577768274E-02 
401	 3,01642532589924E-02 
402	 3,05262835469642E-02 
403	 2,91188016915649E-02 
404	 2,50768574035709E-02 
405	 1,85928782366934E-02 
406	 1,73935669749056E-02 
407	 2,03166087217408E-02 
408	 2,29284752943429E-02 
409	 2,43916973079539E-02 
410	 2,44128208780949E-02 
411	 2,44463686307322E-02 
412	 2,21976827385833E-02 
413	 1,59975675677924E-02 
414	 0,014302719631819 
415	 1,68764892472643E-02 
416	 1,91139651306397E-02 
417	 2,12562431442666E-02 
418	 0,022323972950464 
419	 0,01677828851569 
420	 1,13490464954687E-02 
421	 1,49323094410585E-02 
422	 1,65354474732983E-02 
423	 1,46297292414305E-02 
424	 1,24734126912765E-02 
425	 1,28959275807125E-02 
426	 0,016848611635468 
427	 1,66762712916648E-02 
428	 1,48797515096188E-02 
429	 0,017769642966396 
430	 0,020537495262673 
431	 2,15090752010985E-02 
432	 2,03637482414193E-02 
433	 1,79165277009849E-02 
434	 0,01503910736107 
435	 0,013371352037063 
436	 1,42185645301902E-02 
437	 2,05542013653097E-02 
438	 2,37693720118202E-02 
439	 2,11062147894802E-02 
440	 1,99176678107111E-02 
441	 1,99004998581812E-02 
442	 1,98037480568711E-02 
443	 1,83202944890747E-02 
444	 1,66391402733441E-02 
445	 2,04555101849069E-02 
446	 2,15312810597632E-02 
447	 1,59709602268189E-02 
448	 1,69191237517334E-02 
449	 2,14848577765086E-02 
450	 2,10691762446224E-02 
451	 1,99414078407225E-02 
452	 1,95974835503564E-02 
453	 2,15078618343953E-02 
454	 2,19070732666293E-02 
455	 1,76620040223976E-02 
456	 1,61841858946974E-02 
457	 1,70584804670032E-02 
458	 1,46122665800287E-02 
459	 1,47147380439516E-02 
460	 1,85376103702145E-02 
461	 1,69974940344058E-02 
462	 1,47197576754487E-02 
463	 1,89223221192128E-02 
464	 2,04620222869186E-02 
465	 1,81750349905214E-02 
466	 1,60097128893574E-02 
467	 1,58533935369679E-02 
468	 1,85031339049289E-02 
469	 1,86903031684483E-02 
470	 1,77905270633068E-02 
471	 2,04220051491507E-02 
472	 0,021155288869021 
473	 1,87962048703535E-02 
474	 1,59888553378332E-02 
475	 1,51503370166288E-02 
476	 1,82820463082858E-02 
477	 2,07464775592005E-02 
478	 2,14024785750721E-02 
479	 2,02017413813479E-02 
480	 1,91754070217099E-02 
481	 1,92014678563568E-02 
482	 1,84288371013918E-02 
483	 1,75662233815497E-02 
484	 1,78801204395088E-02 
485	 1,95465221206728E-02 
486	 2,12893438074683E-02 
487	 1,83014096062638E-02 
488	 1,52544940309547E-02 
489	 1,56899057523345E-02 
490	 1,68550556475409E-02 
491	 0,017627576861244 
492	 0,016349811544636 
493	 1,64386228525349E-02 
494	 1,83514366812167E-02 
495	 1,76485554430318E-02 
496	 1,58031379677805E-02 
497	 1,48552066045987E-02 
498	 1,62678503677471E-02 
499	 1,86019228308355E-02 
500	 1,63855469707841E-02 
501	 1,38845025895479E-02 
502	 1,36322834173121E-02 
503	 1,50099478714621E-02 
504	 1,66135693682185E-02 
505	 1,61146895685678E-02 
506	 1,66841610546092E-02 
507	 1,81816454202439E-02 
508	 1,57375380529874E-02 
509	 1,32243374131283E-02 
510	 1,42094942687938E-02 
511	 1,57400728874041E-02 
512	 1,71659281451879E-02 
513	 1,87160252631652E-02 
514	 1,85978658680532E-02 
515	 1,65531641499997E-02 
516	 1,62588844757257E-02 
517	 1,70449791661699E-02 
518	 1,74226943990555E-02 
519	 1,77753850051575E-02 
520	 1,81577297813684E-02 
521	 1,88946612974635E-02 
522	 1,84180534324776E-02 
523	 1,59759523081604E-02 
524	 1,62623751934995E-02 
525	 1,82504753868946E-02 
526	 0,01796348090869 
527	 1,75293121089622E-02 
528	 1,75037811221461E-02 
529	 1,72344504501117E-02 
530	 1,65876967920088E-02 
531	 1,54820475112308E-02 
532	 1,60299631949973E-02 
533	 1,77405739840932E-02 
534	 0,017560011292037 
535	 1,71940199994513E-02 
536	 1,75656925666789E-02 
537	 0,01754347680788 
538	 1,72991417178597E-02 
539	 1,74458329165833E-02 
540	 1,71841660669506E-02 
541	 1,64788377905497E-02 
542	 1,63563173022088E-02 
543	 1,62485029513835E-02 
544	 1,56194772135467E-02 
545	 1,61608986422039E-02 
546	 1,74069212459484E-02 
547	 1,71587672205761E-02 
548	 1,68008584148734E-02 
549	 1,69621177299366E-02 
550	 1,70605086711116E-02 
551	 0,017189100233071 
552	 1,76411095692416E-02 
553	 1,69804374911537E-02 
554	 1,54512564098132E-02 
555	 1,56664799924746E-02 
556	 1,64014818249936E-02 
557	 1,65726276310812E-02 
558	 1,65631779764965E-02 
559	 1,64005123529167E-02 
560	 1,58983816282968E-02 
561	 0,016108217889646 
562	 1,71658460765243E-02 
563	 1,70769657542961E-02 
564	 1,63732611477412E-02 
565	 1,59871923730684E-02 
566	 1,63922677749897E-02 
567	 1,73563530249042E-02 
568	 1,76098093645862E-02 
569	 1,74395388058909E-02 
570	 1,71174856991946E-02 
571	 1,72645621312943E-02 
572	 1,76314972952976E-02 
573	 1,74656959107484E-02 
574	 1,70028779701248E-02 
575	 1,65855076391106E-02 
576	 1,74717670730334E-02 
577	 1,87833179755152E-02 
578	 1,94283449880577E-02 
579	 1,92416459381127E-02 
580	 1,85556305832668E-02 
581	 1,84718678593752E-02 
582	 0,018826759650137 
583	 1,95041699339658E-02 
584	 0,020255689320719 
585	 0,020919642808408 
586	 2,13666886818783E-02 
587	 2,10782775809116E-02 
588	 2,03218135619447E-02 
589	 2,08884560560499E-02 
590	 2,18801123329149E-02 
591	 2,23505074338571E-02 
592	 2,20046651827899E-02 
593	 0,021282087396455 
594	 2,15736373629147E-02 
595	 2,18345545868471E-02 
596	 2,16172908410362E-02 
597	 2,12793529156534E-02 
598	 0,021247755440199 
599	 2,21314683676354E-02 
600	 2,20801050983963E-02 
601	 2,10033072320525E-02 
602	 0,020675296465977 
603	 2,08903738255776E-02 
604	 2,13818378913175E-02 
605	 2,13054244774058E-02 
606	 2,08328892353309E-02 
607	 0,020775202577252 
608	 2,07213240257201E-02 
609	 2,06115768147823E-02 
610	 2,10060265245382E-02 
611	 2,10960670965207E-02 
612	 1,98623378520504E-02 
613	 1,93709838206509E-02 
614	 1,97634963462496E-02 
615	 1,95812046960365E-02 
616	 1,97097901956333E-02 
617	 2,05347349392717E-02 
618	 2,02929424563352E-02 
619	 1,94398629872582E-02 
620	 1,93535213929814E-02 
621	 1,94045573062164E-02 
622	 1,93795758667924E-02 
623	 1,90781599098687E-02 
624	 1,90380281549725E-02 
625	 1,97656715797391E-02 
626	 1,95811549944958E-02 
627	 1,87937514424067E-02 
628	 1,93929406383031E-02 
629	 2,00337647445536E-02 
630	 2,00653657244282E-02 
631	 2,01238290426059E-02 
632	 2,02125758522808E-02 
633	 2,02222691306496E-02 
634	 2,01997700105159E-02 
635	 2,02480551090202E-02 
636	 2,07347602796249E-02 
637	 2,11237574320858E-02 
638	 2,09971451371631E-02 
639	 2,12022924643992E-02 
640	 2,16323388272751E-02 
641	 0,021516393998939 
642	 2,19594847785749E-02 
643	 2,31030427775629E-02 
644	 2,29653604217398E-02 
645	 2,24227475756256E-02 
646	 2,28425089551758E-02 
647	 2,27606883926176E-02 
648	 0,022209095040255 
649	 0,022571185475835 
650	 2,29463643477938E-02 
651	 2,27211860599437E-02 
652	 0,022203958805347 
653	 2,15987343369334E-02 
654	 0,021240648247959 
655	 2,06687551076001E-02 
656	 0,01987566734134 
657	 1,95034425858062E-02 
658	 1,94840663055242E-02 
659	 1,96847437248271E-02 
660	 1,97338412451836E-02 
661	 1,95099312488934E-02 
662	 1,89853284831149E-02 
663	 1,83604821888252E-02 
664	 1,77914647576636E-02 
665	 1,74735009202299E-02 
666	 1,72444998208373E-02 
667	 1,67836480968746E-02 
668	 1,68756144828123E-02 
669	 1,74870520630628E-02 
670	 1,76219938265867E-02 
671	 0,017562443819916 
672	 1,75450438217348E-02 
673	 1,73502290420449E-02 
674	 1,70957508508284E-02 
675	 1,71071675238091E-02 
676	 0,017233933618677 
677	 1,73688991802652E-02 
678	 1,71944683647873E-02 
679	 1,71301833923324E-02 
680	 1,76868882516434E-02 
681	 1,77960523292896E-02 
682	 1,75476605696556E-02 
683	 1,81322541504806E-02 
684	 0,018524125213084 
685	 1,82122774798181E-02 
686	 1,82067546415295E-02 
687	 1,86819496481065E-02 
688	 1,97306017610928E-02 
689	 2,04045948329591E-02 
690	 2,05900711667919E-02 
691	 2,11511838553011E-02 
692	 2,23367384044966E-02 
693	 2,42675470227962E-02 
694	 0,025720684610422 
695	 2,71770721664748E-02 
696	 3,05576758662352E-02 
697	 3,39216834642365E-02 
698	 3,66303545662271E-02 
699	 0,040010201424515 
700	 4,40723885425244E-02 
701	 4,86628137400213E-02 
702	 5,38536736402359E-02 
703	 5,93385448798025E-02 
704	 6,42704349791805E-02 
705	 6,91289021026602E-02 
706	 7,42491894099457E-02 
707	 7,98230730824472E-02 
708	 0,085302778404866 
709	 0,089630223677856 
710	 9,41079542550513E-02 
711	 9,89973268153863E-02 
712	 0,103533820623357 
713	 0,107759610523949 
714	 0,111745683829644 
715	 0,115606850975449 
716	 0,119294436328889 
717	 0,122628456385751 
718	 0,12575468090062 
719	 0,128697639736806 
720	 0,131238538388175 
721	 0,133646522725155 
722	 0,136267989108606 
723	 0,138383580606529 
724	 0,140017806986076 
725	 0,141740682186189 
726	 0,143753811582195 
727	 0,146032201736996 
728	 0,14723352446883 
729	 0,147791392668271 
730	 0,148785724511667 
731	 0,149982640390359 
732	 0,15125889509887 
733	 0,152265750834784 
734	 0,153179077334619 
735	 0,154119914097872 
736	 0,154409503167974 
737	 0,154401531006315 
738	 0,155260184507058 
739	 0,156050573978674 
740	 0,156493321713272 
741	 0,15713375002583 
742	 0,157718503734523 
743	 0,157917830722755 
744	 0,157866870012547 
745	 0,157842456217128 
746	 0,158551524092317 
747	 0,159292358073049 
748	 0,159643824766339 
749	 0,159602012821832 
750	 0,15943023073877 
751	 0,15952439925899 
752	 0,159709861272329 
753	 0,159925330358232 
754	 0,160121432864715 
755	 0,160236992711343 
756	 0,160253248895704 
757	 0,160438275252698 
758	 0,160704285465662 
759	 0,160768508728243 
760	 0,160956708410498 
761	 0,161316132680481 
762	 0,161591867645685 
763	 0,161659700813644 
764	 0,16144204884372 
765	 0,161322081253888 
766	 0,161382285640347 
767	 0,161624080503648 
768	 0,161782011746933 
769	 0,161799022030333 
770	 0,162103966910305 
771	 0,162386247345136 
772	 0,162253181407273 
773	 0,162098445762965 
774	 0,162079495238269 
775	 0,162386103376118 
776	 0,162587487060074 
777	 0,162519210251058 
778	 0,162811925147491 
779	 0,163114437085432 
780	 0,162817413595956 
781	 0,162730656859199 
782	 0,162932198432985 
783	 0,16287964799538 
784	 0,162757376420262 
785	 0,162704438885395 
786	 0,162829645489475 
787	 0,162953338951535 
788	 0,16272262661454 
789	 0,162590269072956 
790	 0,162648146853398 
791	 0,162696426079173 
792	 0,162518411117718 
793	 0,162031346532164 
794	 0,162258932683888 
795	 0,162822269723188 
796	 0,162553639092395 
797	 0,162185912644474 
798	 0,161986310121151 
799	 0,162037703870515 
800	 0,162045404996985 
801	 0,161754960789015 
802	 0,161665100185796 
803	 0,161801226351443 
804	 0,161980859103829 
805	 0,162198911185881 
806	 0,162384249779708 
807	 0,162261950034461 
808	 0,162166588818385 
809	 0,162450549530704 
810	 0,162468359972104 
811	 0,162344131540716 
812	 0,162850729832596 
813	 0,163119050632498 
814	 0,16287987714192 
815	 0,162902362899451 
816	 0,163129865833068 
817	 0,16340497370761 
818	 0,163390238151624 
819	 0,163263232667948 
820	 0,163838920686836 
821	 0,164272815154283 
822	 0,164210836118135 
823	 0,164206330564206 
824	 0,164315462087511 
825	 0,164532794464106 
826	 0,164327006221051 
827	 0,163936012576619 
828	 0,164517468445311 
829	 0,165150269981366 
830	 0,16533622083861 
831	 0,165291685448548 
832	 0,165125430539816 
833	 0,164961439942412 
834	 0,164859161003322 
835	 0,164866587887037 
836	 0,165077500722056 
837	 0,165136898493215 
838	 0,164953031353233 
839	 0,165384451870952 
840	 0,165936734847241 
841	 0,165795461260021 
842	 0,165732822802837 
843	 0,165889139424221 
844	 0,166081060934355 
845	 0,166156597655574 
846	 0,165987038940936 
847	 0,165320694780947 
848	 0,164789608573158 
849	 0,165283072682079 
850	 0,165505069712245 
851	 0,165290833880168 
852	 0,165314667299847 
853	 0,165158040646385 
854	 0,164711613163736 
855	 0,164757837018238 
856	 0,165129180797867 
857	 0,16547236197502 
858	 0,165124757481931 
859	 0,164383395066901 
860	 0,16474338082935 
861	 0,165279900035886 
862	 0,165486437799453 
863	 0,165428001659601 
864	 0,165319075562294 
865	 0,165437959129086 
866	 0,166156565177857 
867	 0,166892908521025 
868	 0,165523966504307 
869	 0,164759805758618 
870	 0,16570465806797 
871	 0,166381290039443 
872	 0,166509099106811 
873	 0,166019110468774 
874	 0,165892451803146 
875	 0,166241694564996 
876	 0,16666108910437 
877	 0,167052593961068 
878	 0,167316097388529 
879	 0,167305979943255 
880	 0,167369660061584 
881	 0,167840173528117 
882	 0,167604523354566 
883	 0,166983216605752 
884	 0,167405097525145 
885	 0,167871696206191 
886	 0,168024007802567 
887	 0,168031300523905 
888	 0,167793082748209 
889	 0,167290611548756 
890	 0,167527370943704 
891	 0,168168492444217 
892	 0,168053295047522 
893	 0,168108046185054 
894	 0,168517945125674 
895	 0,168855624842361 
896	 0,168695180270746 
897	 0,167839232714026 
898	 0,167528663617568 
899	 0,167767908057778 
900	 0,168205013949851 
901	 0,168047944719619 
902	 0,167519627504051 
903	 0,168463365805587 
904	 0,169343018040831 
905	 0,169211469525524 
906	 0,16883959431333 
907	 0,168519128558229 
908	 0,16852084631282 
909	 0,168536650382149 
910	 0,168492917475558 
911	 0,168378756276593 
912	 0,168494349302442 
913	 0,168848493868059 
914	 0,168574569024401 
915	 0,168211528431125 
916	 0,168414640193911 
917	 0,168629787000631 
918	 0,168688693219936 
919	 0,168408868066218 
920	 0,168455440476678 
921	 0,168923702695712 
922	 0,16908436840624 
923	 0,168928516870764 
924	 0,168468447673591 
925	 0,167590855102965 
926	 0,166661963607079 
927	 0,166366669505875 
928	 0,165348838520478 
929	 0,163903360326995 
930	 0,164407006845104 
931	 0,165561258155983 
932	 0,166314014711263 
933	 0,165355321481193 
934	 0,163982845558549 
935	 0,164029444924446 
936	 0,164271477582509 
937	 0,164193394765032 
938	 0,163060359616168 
939	 0,162245027774517 
940	 0,162200054135829 
941	 0,162270798681189 
942	 0,161758055665809 
943	 0,160176268802116 
944	 0,158744720375052 
945	 0,157680755194321 
946	 0,15691234873686 
947	 0,156709281795685 
948	 0,156978666032285 
949	 0,157333749203107 
950	 0,156850842399908 
951	 0,155176195691913 
952	 0,153691358655345 
953	 0,152831688292485 
954	 0,152855519183808 
955	 0,152520110968154 
956	 0,151478044305823 
957	 0,14944219410681 
958	 0,148751726366179 
959	 0,149545731639762 
960	 0,148167979697994 
961	 0,146825344422 
962	 0,147147636707454 
963	 0,147274937557793 
964	 0,146976631064188 
965	 0,14631304447578 
966	 0,14627941861577 
967	 0,146620255435799 
968	 0,145582496128156 
969	 0,145319521590232 
970	 0,146164500395417 
971	 0,144489722296848 
972	 0,143328066794181 
973	 0,145314946164912 
974	 0,145943265687316 
975	 0,145874289077343 
976	 0,14775700111963 
977	 0,146834066985948 
978	 0,143310466670805 
979	 0,142225273499924 
980	 0,142861078470276 
981	 0,144597978279743 
982	 0,145608567231952 
983	 0,146641463089532 
984	 0,148377148369377 
985	 0,147317092845939 
986	 0,145033951687384 
987	 0,14566686284524 
988	 0,147313849711484 
989	 0,148795066485153 
990	 0,147977125735667 
991	 0,146914313088564 
992	 0,14678714062107 
993	 0,147435543280397 
994	 0,147476857707886 
995	 0,14576821018954 
996	 0,14600880147124 
997	 0,147888747036098 
998	 0,149443831810996 
999	 0,151046239730239 
1000	 0,151729032044029 
1001	 0,147593163525999 
1002	 0,146826835804504 
1003	 0,152456360102747 
1004	 0,156113623523549 
1005	 0,156056018909371 
1006	 0,151760560374828 
1007	 0,148423561177749 
1008	 0,148277863015854 
1009	 0,153122858550056 
1010	 0,15597434045338 
1011	 0,155458481718178 
1012	 0,153941740529083 
1013	 0,154573672273437 
1014	 0,157568468107775 
1015	 0,155645372593264 
1016	 0,152770649110256 
1017	 0,152810732410996 
1018	 0,155664713831449 
1019	 0,158320025029587 
1020	 0,156541073543273 
1021	 0,158744877601744 
1022	 0,163965698302652 
1023	 0,164073916033819 
1024	 0,161784128892628 
1025	 0,158638604698057 
1026	 0,157129233921375 
1027	 0,158468655478384 
1028	 0,162791533580566 
1029	 0,166635767438973 
1030	 0,168060684657588 
1031	 0,165552058944889 
1032	 0,162122220028747 
1033	 0,159891197952032 
1034	 0,161400606365793 
1035	 0,162905964160443 
1036	 0,163478169092524 
1037	 0,164210914499857 
1038	 0,165586187783216 
1039	 0,167260199703176 
1040	 0,165884239292801 
1041	 0,165554264162772 
1042	 0,169411964941542 
1043	 0,173736109311144 
1044	 0,175453058149386 
1045	 0,171718150233811 
1046	 0,173800966869142 
1047	 0,177987953688696 
1048	 0,169221011056886 
1049	 0,167841738148827 
1050	 0,174923480532735 
1051	 0,168238242094855 
1052	 0,168735975838101 
1053	 0,182350781008434 
1054	 0,182115814670776 
1055	 0,173947083846602 
1056	 0,165748645551698 
1057	 0,166995930803848 
1058	 0,170019790105379 
1059	 0,162731020822244 
1060	 0,165240845944527 
1061	 0,17399585509006 
1062	 0,170941379509659 
1063	 0,170570776472081 
1064	 0,174286110450582 
1065	 0,171912715336174 
1066	 0,165717502712185 
1067	 0,159391310462803 
1068	 0,165746789277486 
1069	 0,172140402707012 
1070	 0,169620893776419 
1071	 0,175304362234229 
1072	 0,185048357539947 
1073	 0,190549832116252 
1074	 0,180778225593825 
1075	 0,163091096709743 
