Wavelength	ABBE00492.asd
325	-7,06857923882259E-02 
326	 7,76358627598297E-02 
327	 0,13961606472706 
328	 5,60532583431375E-02 
329	-2,39200661107355E-02 
330	-9,42150868730736E-03 
331	 0,133722546566583 
332	 0,122861531921991 
333	 1,99638275748212E-02 
334	 1,87622138354803E-02 
335	 8,25601651203302E-02 
336	 0,164820204762923 
337	 0,110698286037731 
338	 3,79956264514926E-02 
339	 4,11698009207623E-02 
340	 3,40213111122228E-02 
341	 2,52398318273675E-02 
342	 6,63778070174235E-02 
343	 7,77012772085855E-02 
344	 4,98742544047196E-02 
345	 4,15135866294498E-02 
346	 5,42765854193424E-02 
347	 8,33117795430045E-02 
348	 7,77192131458522E-02 
349	 5,75110454490695E-02 
350	 0,100377315678588 
351	 0,115035656093277 
352	 7,67863601474879E-02 
353	 5,58648275884676E-02 
354	 4,47899376876645E-02 
355	 2,98443993135531E-02 
356	 1,74456275203863E-02 
357	 1,12610087657458E-02 
358	 2,33703372373072E-02 
359	 2,88777104473597E-02 
360	 1,95526671356627E-02 
361	 0,025138540020449 
362	 0,036683378407835 
363	 3,78170968826378E-02 
364	 3,43212702715053E-02 
365	 2,97435063624292E-02 
366	 2,94985473709331E-02 
367	 4,19955600050421E-02 
368	 6,54788938400287E-02 
369	 5,03750571680385E-02 
370	 1,81269840151358E-02 
371	 1,99938634180761E-02 
372	 2,41408288952581E-02 
373	 2,36468603670419E-02 
374	 2,72981382939309E-02 
375	 0,036306447737135 
376	 4,88835391226433E-02 
377	 0,04134710222767 
378	 2,67553906376863E-02 
379	 4,24152658903705E-02 
380	 4,01817567157869E-02 
381	 0,015361499923953 
382	 2,90778478501228E-02 
383	 0,047684831912771 
384	 3,91867228733718E-02 
385	 2,11887716752543E-02 
386	 3,41971670726904E-03 
387	-9,13967222342238E-04 
388	 4,94140699311342E-03 
389	 1,76734294607622E-02 
390	 3,03187532033254E-02 
391	 3,83148542843167E-02 
392	 0,03699810716972 
393	 3,88656980045969E-02 
394	 4,29474406638069E-02 
395	 3,69703371205923E-02 
396	 3,37722311253889E-02 
397	 3,82387039599874E-02 
398	 3,33086553814181E-02 
399	 2,48643299209932E-02 
400	 2,38441851825959E-02 
401	 2,76356435134512E-02 
402	 3,21102813775619E-02 
403	 2,45531801122269E-02 
404	 1,97475552492138E-02 
405	 2,60673726216764E-02 
406	 2,28416748067692E-02 
407	 1,44506997511604E-02 
408	 1,54719854782741E-02 
409	 1,60389758142018E-02 
410	 1,47137950889759E-02 
411	 1,82369130100368E-02 
412	 2,24822424752448E-02 
413	 2,35298717482649E-02 
414	 2,24592158434909E-02 
415	 2,12679976977921E-02 
416	 2,44741071564432E-02 
417	 0,027699675327783 
418	 0,028467412421022 
419	 2,33506554693587E-02 
420	 1,84845015466198E-02 
421	 2,18063911202139E-02 
422	 2,34049134715284E-02 
423	 2,17938556115371E-02 
424	 1,95226126519432E-02 
425	 0,019973567139103 
426	 2,42276451606252E-02 
427	 2,27504220364588E-02 
428	 1,90560777633735E-02 
429	 2,14950146957854E-02 
430	 0,025413368898677 
431	 0,028847767325057 
432	 3,04903816435833E-02 
433	 0,028850956116993 
434	 2,30965228992378E-02 
435	 1,95967047656672E-02 
436	 1,93248455466309E-02 
437	 2,08961006469138E-02 
438	 2,40841874204347E-02 
439	 2,76754322184912E-02 
440	 2,64239418225329E-02 
441	 2,46895360771031E-02 
442	 2,84403280513793E-02 
443	 2,85872045832878E-02 
444	 2,47571956130117E-02 
445	 2,32298682068625E-02 
446	 2,24447336009076E-02 
447	 2,16265000257668E-02 
448	 2,23630819570285E-02 
449	 2,40908880473098E-02 
450	 2,56848343062508E-02 
451	 0,025346523093428 
452	 2,37497030325189E-02 
453	 0,027248264342605 
454	 2,98307268659466E-02 
455	 2,61256833402182E-02 
456	 2,40586584938536E-02 
457	 2,36837541128775E-02 
458	 2,00172762052584E-02 
459	 2,01900961662959E-02 
460	 2,56801333148355E-02 
461	 2,58062219691037E-02 
462	 2,31587882853493E-02 
463	 0,022524570915621 
464	 2,36693833199644E-02 
465	 2,57057205361005E-02 
466	 2,51671826759179E-02 
467	 2,55271764942697E-02 
468	 2,84574817940659E-02 
469	 2,68186271996291E-02 
470	 2,34627978548006E-02 
471	 2,63088197787778E-02 
472	 2,69219772352866E-02 
473	 2,39551758893783E-02 
474	 2,43015775072426E-02 
475	 2,55991334458557E-02 
476	 2,53237824239146E-02 
477	 2,82495965598087E-02 
478	 3,22694253334944E-02 
479	 2,90446284366279E-02 
480	 2,71882482068274E-02 
481	 2,96899348835975E-02 
482	 2,68207408342356E-02 
483	 0,022876692326172 
484	 2,56535550016059E-02 
485	 2,77439443153911E-02 
486	 2,73323230850084E-02 
487	 2,54462376655612E-02 
488	 2,40605710519554E-02 
489	 2,46114149490489E-02 
490	 2,54632402675123E-02 
491	 2,60325928633853E-02 
492	 2,55039356713643E-02 
493	 2,63207646116099E-02 
494	 2,84362482364548E-02 
495	 2,68345410286702E-02 
496	 2,40602905660091E-02 
497	 2,33621554222394E-02 
498	 2,37294688414672E-02 
499	 2,44680138702135E-02 
500	 2,40825055990392E-02 
501	 2,35313951115019E-02 
502	 2,35707330896725E-02 
503	 2,56436515982667E-02 
504	 2,80668051749662E-02 
505	 2,76400042623681E-02 
506	 2,77229812088196E-02 
507	 2,86063797505602E-02 
508	 2,69271992953124E-02 
509	 2,52797550917041E-02 
510	 2,60476057705144E-02 
511	 2,73087376230759E-02 
512	 2,82639845555421E-02 
513	 2,79103771075891E-02 
514	 2,73741293917102E-02 
515	 2,73151197501736E-02 
516	 2,84111416306393E-02 
517	 2,97078110392421E-02 
518	 2,98609235058455E-02 
519	 2,91573435125733E-02 
520	 2,82189268565141E-02 
521	 2,90770189480171E-02 
522	 2,93854451267551E-02 
523	 2,76845519487246E-02 
524	 2,76155263239051E-02 
525	 2,88455787584426E-02 
526	 2,93403749163156E-02 
527	 2,99005107603536E-02 
528	 3,03787987173853E-02 
529	 2,89422536507766E-02 
530	 2,72506812605587E-02 
531	 2,73001836553328E-02 
532	 2,74912410246944E-02 
533	 2,77239267080993E-02 
534	 0,029001988024184 
535	 0,02970834781458 
536	 2,90606271523206E-02 
537	 2,91937442933372E-02 
538	 2,97584248134057E-02 
539	 2,95607038074282E-02 
540	 2,93400523503426E-02 
541	 2,93174583851094E-02 
542	 2,94316843838437E-02 
543	 2,95522611932218E-02 
544	 2,95705215619094E-02 
545	 2,99715271927085E-02 
546	 3,04448031007609E-02 
547	 2,97881283664763E-02 
548	 0,029521863799057 
549	 3,02585241040604E-02 
550	 3,06113443516279E-02 
551	 3,06449064034451E-02 
552	 3,07335599457831E-02 
553	 3,03093291717264E-02 
554	 2,97030468906476E-02 
555	 3,08840984984203E-02 
556	 3,18179456470496E-02 
557	 3,09133033434905E-02 
558	 3,07027914268405E-02 
559	 3,11586229982571E-02 
560	 3,09420628282502E-02 
561	 3,11447878867672E-02 
562	 3,19952352642797E-02 
563	 3,22450338039913E-02 
564	 3,20860777044714E-02 
565	 3,19164469054177E-02 
566	 3,24132509726267E-02 
567	 3,34087947665371E-02 
568	 0,03367010924975 
569	 3,36400236798931E-02 
570	 0,033679763323346 
571	 3,41599427490262E-02 
572	 3,47342862159909E-02 
573	 3,43854852658849E-02 
574	 3,48273861626157E-02 
575	 3,63938104950393E-02 
576	 3,73081711921984E-02 
577	 3,81410852799848E-02 
578	 3,96444239080551E-02 
579	 0,040331884369936 
580	 4,01370963842396E-02 
581	 3,98231402070048E-02 
582	 4,01913009236308E-02 
583	 4,14838613266207E-02 
584	 4,14371898253123E-02 
585	 4,08959175541706E-02 
586	 4,19193856374233E-02 
587	 4,24169584544269E-02 
588	 4,21260273560311E-02 
589	 4,28574790719623E-02 
590	 4,35800235895678E-02 
591	 4,33173327380817E-02 
592	 4,33548743268927E-02 
593	 4,36499192319492E-02 
594	 4,33459507784997E-02 
595	 4,31103192280702E-02 
596	 4,32565072295786E-02 
597	 4,37072896514352E-02 
598	 4,39722265615537E-02 
599	 4,33623395684463E-02 
600	 4,24773293212034E-02 
601	 4,17336199108949E-02 
602	 4,18584694724796E-02 
603	 4,22542981928206E-02 
604	 4,24125722067322E-02 
605	 4,24067130053046E-02 
606	 0,042292469074894 
607	 0,042222477122201 
608	 4,20290293196762E-02 
609	 4,17112740813892E-02 
610	 4,16573860399901E-02 
611	 4,14896242587565E-02 
612	 0,040715435919404 
613	 4,01575868223895E-02 
614	 3,99330771600632E-02 
615	 3,96550833258383E-02 
616	 0,039499237278821 
617	 3,95340927432736E-02 
618	 0,03931650275164 
619	 3,91099456147384E-02 
620	 3,95777891220096E-02 
621	 3,99970780827453E-02 
622	 4,00681195745265E-02 
623	 3,96485023904449E-02 
624	 3,92646764903179E-02 
625	 3,94527762055988E-02 
626	 3,97011013691197E-02 
627	 0,039867724153524 
628	 3,98960365527653E-02 
629	 3,98671097119575E-02 
630	 3,98740417008966E-02 
631	 4,02445893868523E-02 
632	 4,06540013062993E-02 
633	 4,05092012211759E-02 
634	 4,05542672038731E-02 
635	 0,040983694320037 
636	 4,17169064114931E-02 
637	 0,041973290220148 
638	 4,12541736099429E-02 
639	 4,20658912876797E-02 
640	 4,37644920904907E-02 
641	 4,35113659665863E-02 
642	 4,34614802909295E-02 
643	 4,42011813936356E-02 
644	 4,37871701340078E-02 
645	 4,33227614876776E-02 
646	 4,44362104674198E-02 
647	 4,47853416838652E-02 
648	 4,41755547883137E-02 
649	 4,40604192939687E-02 
650	 4,43011249368747E-02 
651	 4,46817940186564E-02 
652	 4,41361348179101E-02 
653	 4,29159239102332E-02 
654	 0,041795017658652 
655	 4,11215459124142E-02 
656	 4,09803224151325E-02 
657	 4,10247154796898E-02 
658	 0,040465498031319 
659	 3,86115595737811E-02 
660	 3,78832183487915E-02 
661	 3,82250926124191E-02 
662	 3,79430817628249E-02 
663	 0,037179674388862 
664	 3,60525832042139E-02 
665	 3,51486981910883E-02 
666	 3,45234240007042E-02 
667	 3,40939799248668E-02 
668	 3,42397529414055E-02 
669	 3,47856348953905E-02 
670	 3,46817775327502E-02 
671	 3,45618722027435E-02 
672	 3,49220457363773E-02 
673	 3,51920030812288E-02 
674	 3,51915666823241E-02 
675	 3,46739190934901E-02 
676	 0,034427275908502 
677	 3,46229412248497E-02 
678	 3,42549438977342E-02 
679	 3,39502572184834E-02 
680	 3,45257430975738E-02 
681	 3,48758859273904E-02 
682	 3,50134665963952E-02 
683	 3,59042162099851E-02 
684	 3,66669900968683E-02 
685	 0,036834688837521 
686	 3,70293819382043E-02 
687	 3,77190995198524E-02 
688	 0,039609750137582 
689	 4,10316644518715E-02 
690	 4,17671127254018E-02 
691	 4,33491315809878E-02 
692	 0,045300907574535 
693	 4,71612966186409E-02 
694	 0,049335225296062 
695	 5,19502555107952E-02 
696	 5,51600010641638E-02 
697	 5,84690728337132E-02 
698	 6,18232647835337E-02 
699	 6,62967285988764E-02 
700	 7,11032993444621E-02 
701	 7,51293616056429E-02 
702	 7,97917200151557E-02 
703	 8,50100887683058E-02 
704	 8,94594199325635E-02 
705	 9,36111487239269E-02 
706	 9,77892000111728E-02 
707	 0,102133336352287 
708	 0,106396921995748 
709	 0,11008654358353 
710	 0,11368867709036 
711	 0,117340281045693 
712	 0,120999170577251 
713	 0,124293445796682 
714	 0,126919609344587 
715	 0,129691047844543 
716	 0,132471650472167 
717	 0,134424733064706 
718	 0,136476208285464 
719	 0,138878325591387 
720	 0,140612134601379 
721	 0,142161323056319 
722	 0,144242967965119 
723	 0,145905173757418 
724	 0,147082649166689 
725	 0,14833705073087 
726	 0,149536517990436 
727	 0,150587337950121 
728	 0,151345813271094 
729	 0,151947872552232 
730	 0,152628007687825 
731	 0,153667241750026 
732	 0,154938609538176 
733	 0,15548723454947 
734	 0,155941856804172 
735	 0,156829657691772 
736	 0,157213277416707 
737	 0,15730092033763 
738	 0,158020692582165 
739	 0,15869120676077 
740	 0,159116912479222 
741	 0,159756441417491 
742	 0,160211418648762 
743	 0,160009256723109 
744	 0,160085804514787 
745	 0,160534686037872 
746	 0,16090815636668 
747	 0,161270982520251 
748	 0,161638417942515 
749	 0,161990307814814 
750	 0,162246751199078 
751	 0,162297113189504 
752	 0,162217571065019 
753	 0,162087227281908 
754	 0,162031137178813 
755	 0,162169420055616 
756	 0,162573609784573 
757	 0,163069857907433 
758	 0,163543721752247 
759	 0,163869021166129 
760	 0,163953366211855 
761	 0,163870590507021 
762	 0,164102468336973 
763	 0,164381802833298 
764	 0,164451093080607 
765	 0,164668835221881 
766	 0,165010597509988 
767	 0,165232355831178 
768	 0,165488068570793 
769	 0,16583145912081 
770	 0,166265469673012 
771	 0,166535880355325 
772	 0,166363117061258 
773	 0,166230365084979 
774	 0,166289384746323 
775	 0,166642664766115 
776	 0,166784234551111 
777	 0,166557888276714 
778	 0,166944124119642 
779	 0,167455868248815 
780	 0,167227838623433 
781	 0,16716342476113 
782	 0,16744420406488 
783	 0,167879641423143 
784	 0,167938660100693 
785	 0,167414614480375 
786	 0,167777588638685 
787	 0,168491122505445 
788	 0,168204320782654 
789	 0,168238504804503 
790	 0,168762509904842 
791	 0,168785273246871 
792	 0,168673573536409 
793	 0,168753414854075 
794	 0,169041379515155 
795	 0,169371850023083 
796	 0,169371178622934 
797	 0,16944143730637 
798	 0,169682299672091 
799	 0,169911029872724 
800	 0,169968051369901 
801	 0,169749744623006 
802	 0,169807499133631 
803	 0,170146113009534 
804	 0,170531709575205 
805	 0,170710831254792 
806	 0,170635271476977 
807	 0,170750398491597 
808	 0,170834517318295 
809	 0,170638880969922 
810	 0,170666048407932 
811	 0,170918308765773 
812	 0,171098694735975 
813	 0,171259353624905 
814	 0,171430336096406 
815	 0,171700890962657 
816	 0,172056151599234 
817	 0,172457015324195 
818	 0,172408791033583 
819	 0,172106926469831 
820	 0,172522414669981 
821	 0,172675370184879 
822	 0,172295903455186 
823	 0,172850994050793 
824	 0,173586583485484 
825	 0,173375394068058 
826	 0,173190994601608 
827	 0,173302569882886 
828	 0,173847235601044 
829	 0,174050840885063 
830	 0,173643123787997 
831	 0,173856865755684 
832	 0,174246083731506 
833	 0,174029879065752 
834	 0,17434208078076 
835	 0,175007493080568 
836	 0,174504113870148 
837	 0,174119619628356 
838	 0,174510394380434 
839	 0,17492134992784 
840	 0,175319680755957 
841	 0,175781575536571 
842	 0,175498746398624 
843	 0,174779161479502 
844	 0,175307364383909 
845	 0,175935111678792 
846	 0,175978152008635 
847	 0,175451798532386 
848	 0,174808254148916 
849	 0,17467070812695 
850	 0,174779880086292 
851	 0,174991704719491 
852	 0,175086753486291 
853	 0,174986437463929 
854	 0,174735173136573 
855	 0,174974507338526 
856	 0,175316377905594 
857	 0,175142344652517 
858	 0,175141781423942 
859	 0,175429153968234 
860	 0,175829213299137 
861	 0,17610812958792 
862	 0,176158698839617 
863	 0,176262852938834 
864	 0,176293181522704 
865	 0,176056461146576 
866	 0,176115275104718 
867	 0,176444224389699 
868	 0,17653533816537 
869	 0,176582934346071 
870	 0,176704701686006 
871	 0,177098496913691 
872	 0,177404964771196 
873	 0,177191144276164 
874	 0,176863066501893 
875	 0,176730460598818 
876	 0,177349128608385 
877	 0,178165841583208 
878	 0,178686721071904 
879	 0,177649587099064 
880	 0,176883281359852 
881	 0,178295150803586 
882	 0,17833522207595 
883	 0,177297891967837 
884	 0,177971331635593 
885	 0,178196602131976 
886	 0,177641239242989 
887	 0,178688171444424 
888	 0,179672671004355 
889	 0,179024416928141 
890	 0,178662731701039 
891	 0,178756593361963 
892	 0,178890202775625 
893	 0,178951835666578 
894	 0,17897160533563 
895	 0,179455714137533 
896	 0,179493326149222 
897	 0,178535213825623 
898	 0,178475927528305 
899	 0,179137636628342 
900	 0,179686389268954 
901	 0,179556549435347 
902	 0,178870895904963 
903	 0,178790438319797 
904	 0,179147196551302 
905	 0,179722578585547 
906	 0,179784593715265 
907	 0,179579489781047 
908	 0,179597192985024 
909	 0,180160126578305 
910	 0,180930703091764 
911	 0,180645851653247 
912	 0,180021796351777 
913	 0,179514140545074 
914	 0,179565542836314 
915	 0,179814867123931 
916	 0,179836143797576 
917	 0,180388914423891 
918	 0,181109404039681 
919	 0,180704011796782 
920	 0,180505184793264 
921	 0,18085840068582 
922	 0,181040119492906 
923	 0,181031282823475 
924	 0,180814811301382 
925	 0,18002299304475 
926	 0,179472667110119 
927	 0,180737004492285 
928	 0,180963394161597 
929	 0,179814706525142 
930	 0,179142119331276 
931	 0,179559314083087 
932	 0,181029620783206 
933	 0,180561721963486 
934	 0,179488444512735 
935	 0,179928259667844 
936	 0,180572185322832 
937	 0,180942912180772 
938	 0,180509832502499 
939	 0,18007865475949 
940	 0,179900138167935 
941	 0,179399743677886 
942	 0,179076587832199 
943	 0,179297267670607 
944	 0,178917498533066 
945	 0,17803032550691 
946	 0,177118231354668 
947	 0,177175171087143 
948	 0,178202131789142 
949	 0,179188848292078 
950	 0,179009148190778 
951	 0,177421795111367 
952	 0,177587209962312 
953	 0,177901202928339 
954	 0,176136915367883 
955	 0,175006034074729 
956	 0,174750636803351 
957	 0,174394003071974 
958	 0,174549913854633 
959	 0,175131854026063 
960	 0,174984015195213 
961	 0,174607826347946 
962	 0,174441155803162 
963	 0,174651005854011 
964	 0,174409997636677 
965	 0,172464569242762 
966	 0,172374652594984 
967	 0,173992721329523 
968	 0,173987017558943 
969	 0,173414682268968 
970	 0,17282263002664 
971	 0,172843176059096 
972	 0,17314566685541 
973	 0,173368476115155 
974	 0,173361564913103 
975	 0,17393140357285 
976	 0,176639378317196 
977	 0,176279879852946 
978	 0,173106709089465 
979	 0,173154418242817 
980	 0,174069067517612 
981	 0,174867382666399 
982	 0,176965881259514 
983	 0,178246851016286 
984	 0,176747992277034 
985	 0,175958981995047 
986	 0,176289904236442 
987	 0,177172404349596 
988	 0,178377103506773 
989	 0,179527770486821 
990	 0,180106956662235 
991	 0,179287142200467 
992	 0,177097959493998 
993	 0,176140278005886 
994	 0,176419301542094 
995	 0,177557216005557 
996	 0,178180921946283 
997	 0,178337108755588 
998	 0,178732409600249 
999	 0,178957316487843 
1000	 0,179278947625373 
1001	 0,180963906337041 
1002	 0,182618267262153 
1003	 0,183427341967832 
1004	 0,183628790606904 
1005	 0,182577174953948 
1006	 0,180231208463917 
1007	 0,183365566006311 
1008	 0,188387131673158 
1009	 0,186959044485313 
1010	 0,187464923449547 
1011	 0,189732346682479 
1012	 0,18529280272918 
1013	 0,183936557922118 
1014	 0,188241202446039 
1015	 0,188054278319733 
1016	 0,184097691964314 
1017	 0,178775710831766 
1018	 0,183037625028921 
1019	 0,18968692612191 
1020	 0,185958244573417 
1021	 0,185877866068725 
1022	 0,190680591324497 
1023	 0,195118780034989 
1024	 0,19493622089833 
1025	 0,189884259759112 
1026	 0,186982134547499 
1027	 0,18700434989028 
1028	 0,189712656034728 
1029	 0,190911932646319 
1030	 0,190699842779535 
1031	 0,189905167668428 
1032	 0,189651721559699 
1033	 0,191124226219692 
1034	 0,196224203670317 
1035	 0,19607735626072 
1036	 0,19169839184994 
1037	 0,196763434015052 
1038	 0,19901681702539 
1039	 0,193880633879392 
1040	 0,188343386866316 
1041	 0,185796314503703 
1042	 0,188596906515843 
1043	 0,194611365296376 
1044	 0,201282761519649 
1045	 0,20570178145418 
1046	 0,203876593551063 
1047	 0,197641556949227 
1048	 0,193027331523441 
1049	 0,195365447463225 
1050	 0,202203368342165 
1051	 0,195822787293739 
1052	 0,194242672422979 
1053	 0,204205147188529 
1054	 0,211012276478756 
1055	 0,207112566051359 
1056	 0,190305887919328 
1057	 0,19452767388347 
1058	 0,204060535117538 
1059	 0,191538494351639 
1060	 0,195241896214255 
1061	 0,209084695450263 
1062	 0,200317325902262 
1063	 0,197559054047428 
1064	 0,205551820272269 
1065	 0,209087075439074 
1066	 0,21466202961251 
1067	 0,220180955074873 
1068	 0,201263123133223 
1069	 0,182397071995105 
1070	 0,183857355741228 
1071	 0,187005227334658 
1072	 0,19892027624068 
1073	 0,227082294513954 
1074	 0,233112209103594 
1075	 0,216491631188463 
