Wavelength	ABBE00547.asd
325	 0,319040707914723 
326	 0,355622339093413 
327	 0,374582416324246 
328	 0,354340153232517 
329	 0,346774847870183 
330	 0,306388886416831 
331	 0,204841376977951 
332	 0,235160867681993 
333	 0,343992864077431 
334	 0,391457420393883 
335	 0,361292722585445 
336	 0,272894484791564 
337	 0,207290724723716 
338	 0,188744045701887 
339	 0,235635978906442 
340	 0,299629449641599 
341	 0,322879065914071 
342	 0,26133337357977 
343	 0,22792551511553 
344	 0,241752852528562 
345	 0,237590916646129 
346	 0,236807849770437 
347	 0,261422301862041 
348	 0,264125287425309 
349	 0,252206054708476 
350	 0,267527186317011 
351	 0,267956070000212 
352	 0,244828020745197 
353	 0,245653141285098 
354	 0,248534042563568 
355	 0,223585565244236 
356	 0,220748873974433 
357	 0,239948279004508 
358	 0,259831221481187 
359	 0,262669074975584 
360	 0,24484941877994 
361	 0,246748600045361 
362	 0,252140867463339 
363	 0,232586929066609 
364	 0,218323735562944 
365	 0,214978710790275 
366	 0,213813716856922 
367	 0,224453100339511 
368	 0,248009209487294 
369	 0,25316520580245 
370	 0,247850204623778 
371	 0,254283364166159 
372	 0,240506297918274 
373	 0,213921608546859 
374	 0,239389116790349 
375	 0,266463426606838 
376	 0,256532153181306 
377	 0,248913843362352 
378	 0,247828974871906 
379	 0,250390300099273 
380	 0,247656192245811 
381	 0,239496606375129 
382	 0,244784099987042 
383	 0,247015816116715 
384	 0,231731619307079 
385	 0,223890980123444 
386	 0,226683418185001 
387	 0,235760408354191 
388	 0,238999543431115 
389	 0,23472491014653 
390	 0,244684258436306 
391	 0,255524764875152 
392	 0,249731981343086 
393	 0,244549725579076 
394	 0,243715037462266 
395	 0,246604247446271 
396	 0,246875408986481 
397	 0,242426311700294 
398	 0,244262254333344 
399	 0,248612210848802 
400	 0,248266294908753 
401	 0,24826138688815 
402	 0,248121318597334 
403	 0,24204053970847 
404	 0,234727014251419 
405	 0,229436894632016 
406	 0,225353551227085 
407	 0,225182041190901 
408	 0,234472978725369 
409	 0,243215785663382 
410	 0,247075464785605 
411	 0,241869359909473 
412	 0,235133054438778 
413	 0,233663924495885 
414	 0,233042193612673 
415	 0,232841323904748 
416	 0,234221967452503 
417	 0,234734088477008 
418	 0,233726619076659 
419	 0,233874675251896 
420	 0,234497039582216 
421	 0,23443840015086 
422	 0,233813775898186 
423	 0,233547545984215 
424	 0,23641555442215 
425	 0,239845714749837 
426	 0,24172351705989 
427	 0,239618674758169 
428	 0,236361544983001 
429	 0,237541900885423 
430	 0,237784289790824 
431	 0,236825960121981 
432	 0,240969136616807 
433	 0,24375723888342 
434	 0,239754061299749 
435	 0,23645978369512 
436	 0,235984843418044 
437	 0,240348833053361 
438	 0,241258580952493 
439	 0,23696405674998 
440	 0,239608509137272 
441	 0,243949867749182 
442	 0,242176485557493 
443	 0,240900342239137 
444	 0,241675341271101 
445	 0,244373427957357 
446	 0,245987996610859 
447	 0,244929995355624 
448	 0,244730157006637 
449	 0,245367682121632 
450	 0,245860409223996 
451	 0,245671124373184 
452	 0,245771672500537 
453	 0,251896334506509 
454	 0,25604377157518 
455	 0,251345995543401 
456	 0,250319440511105 
457	 0,253320081753678 
458	 0,25485788038629 
459	 0,254226255635204 
460	 0,251717936888209 
461	 0,252499898300603 
462	 0,253907391496127 
463	 0,251722510655772 
464	 0,253159545064733 
465	 0,25717697458027 
466	 0,253257861278408 
467	 0,251623169452971 
468	 0,25790058947893 
469	 0,257829557103209 
470	 0,254219213788444 
471	 0,257113030067147 
472	 0,257506773280725 
473	 0,253844335499376 
474	 0,252230213510493 
475	 0,252617265314757 
476	 0,254521002425651 
477	 0,25599134057691 
478	 0,256738938372746 
479	 0,257685965392063 
480	 0,25769306411862 
481	 0,256284868316518 
482	 0,253982024143395 
483	 0,25200681289378 
484	 0,25195193856587 
485	 0,253204857784777 
486	 0,254928887090079 
487	 0,255090467624242 
488	 0,254277488768878 
489	 0,253107596430212 
490	 0,252779179219167 
491	 0,253089747551448 
492	 0,253103921711708 
493	 0,252885847366849 
494	 0,252480759893337 
495	 0,252299197823504 
496	 0,251947680811257 
497	 0,250974962405971 
498	 0,251295799666624 
499	 0,252708556126214 
500	 0,253284568740718 
501	 0,253352011097143 
502	 0,253416977028764 
503	 0,256324688322933 
504	 0,259333840891531 
505	 0,256938266021737 
506	 0,256452383294774 
507	 0,259185964180953 
508	 0,260781679759158 
509	 0,260930213833658 
510	 0,259785673096891 
511	 0,262109995330878 
512	 0,266527908910073 
513	 0,267251416540519 
514	 0,26700828003202 
515	 0,267074669300888 
516	 0,267963336417369 
517	 0,268918134304137 
518	 0,268771915104964 
519	 0,269601803783435 
520	 0,271271091158672 
521	 0,271439964416378 
522	 0,27086658248467 
523	 0,270244342712185 
524	 0,270547899075066 
525	 0,271343598015937 
526	 0,271248792221454 
527	 0,271335818642334 
528	 0,271760160158708 
529	 0,271501529543626 
530	 0,270727241961858 
531	 0,269730720494239 
532	 0,269421599960003 
533	 0,269798651268737 
534	 0,270091371647304 
535	 0,270457141842766 
536	 0,270899404793218 
537	 0,270757645307116 
538	 0,270523246814505 
539	 0,271263540902625 
540	 0,271935571956186 
541	 0,272176167803703 
542	 0,272004006720085 
543	 0,271699481707448 
544	 0,271567238446245 
545	 0,272358585446384 
546	 0,273475537484203 
547	 0,272725751188767 
548	 0,272650600470733 
549	 0,274145091504999 
550	 0,274149807195432 
551	 0,273408642652648 
552	 0,273582415584276 
553	 0,2740728568747 
554	 0,274518899120361 
555	 0,274127419213187 
556	 0,273502976946612 
557	 0,273152914695276 
558	 0,27268148154106 
559	 0,272058821797877 
560	 0,2712912911785 
561	 0,270808510767664 
562	 0,27071482088177 
563	 0,270362985318966 
564	 0,269990204901498 
565	 0,26998303442008 
566	 0,270080261031597 
567	 0,270267389219586 
568	 0,270672710846123 
569	 0,271375531027173 
570	 0,272410797951875 
571	 0,273433623288729 
572	 0,274763810916894 
573	 0,27730465781474 
574	 0,279474357173398 
575	 0,281029984017967 
576	 0,283910856610123 
577	 0,287466525869871 
578	 0,290797470075099 
579	 0,292969196725828 
580	 0,294263105723004 
581	 0,296401495098123 
582	 0,29835658770716 
583	 0,299608053705495 
584	 0,300876603961609 
585	 0,302262952701099 
586	 0,303737906602076 
587	 0,305330404921085 
588	 0,307067801654107 
589	 0,309160475697 
590	 0,310711097093529 
591	 0,310989480787259 
592	 0,312211609951752 
593	 0,314051744522096 
594	 0,314372413884868 
595	 0,314485186236116 
596	 0,314915024922957 
597	 0,314894220559489 
598	 0,314811781730421 
599	 0,315371225241245 
600	 0,315205253751961 
601	 0,314255046682017 
602	 0,313854657292841 
603	 0,313592783573952 
604	 0,313112269321742 
605	 0,312442890232097 
606	 0,31152697700645 
607	 0,310151215105299 
608	 0,30903472441306 
609	 0,30844330333137 
610	 0,308023695113461 
611	 0,307414395561504 
612	 0,306229414914241 
613	 0,30484925252002 
614	 0,303596791597347 
615	 0,303128176079726 
616	 0,302758930434516 
617	 0,302056828798657 
618	 0,301370928340193 
619	 0,300898988267249 
620	 0,300973895858985 
621	 0,300799288854287 
622	 0,300246742027296 
623	 0,300094947222756 
624	 0,300229133602954 
625	 0,300463063137973 
626	 0,3002205917907 
627	 0,299858107483605 
628	 0,300790962120708 
629	 0,301785516076033 
630	 0,302246970580269 
631	 0,302857414424541 
632	 0,303713678313778 
633	 0,304865922297522 
634	 0,305660496104137 
635	 0,306223035365322 
636	 0,307949516964911 
637	 0,309704353663478 
638	 0,310556489236123 
639	 0,311816543693561 
640	 0,313448260912863 
641	 0,314877177808027 
642	 0,315772809564012 
643	 0,31608050281727 
644	 0,316555929121983 
645	 0,317181281204137 
646	 0,317831185636419 
647	 0,318052692838169 
648	 0,317832551249633 
649	 0,317749367192059 
650	 0,316943516295913 
651	 0,314975326328147 
652	 0,313464835474431 
653	 0,31203199586745 
654	 0,309324920413117 
655	 0,30681377651063 
656	 0,304874573032033 
657	 0,302769555630254 
658	 0,300233324839277 
659	 0,297065560049624 
660	 0,293951571963063 
661	 0,291036201099135 
662	 0,28825881365105 
663	 0,285183362248896 
664	 0,281800387897659 
665	 0,279727108955537 
666	 0,278194391666357 
667	 0,275679170531224 
668	 0,273949558870293 
669	 0,273212072028707 
670	 0,272267839914354 
671	 0,271302675474207 
672	 0,270488860125 
673	 0,269871592120611 
674	 0,269319237194215 
675	 0,268424854621928 
676	 0,267972179379566 
677	 0,268085610004247 
678	 0,267586425947529 
679	 0,267280862906995 
680	 0,26821040254311 
681	 0,269174370174669 
682	 0,270076276390005 
683	 0,271494453833177 
684	 0,273358580713383 
685	 0,275700889909242 
686	 0,278905798312889 
687	 0,282911263932266 
688	 0,287496683723035 
689	 0,292677564309572 
690	 0,298564071030366 
691	 0,305542515172662 
692	 0,313386067651735 
693	 0,321869046648694 
694	 0,330907837668712 
695	 0,340678812906436 
696	 0,351739924929945 
697	 0,363266265450698 
698	 0,374825705231511 
699	 0,38627707709051 
700	 0,397841330164366 
701	 0,4098380210482 
702	 0,42151449531548 
703	 0,432610215300953 
704	 0,44324498397743 
705	 0,453142083838188 
706	 0,462195729977444 
707	 0,471217144507976 
708	 0,479776754454771 
709	 0,486854472097876 
710	 0,493636494999012 
711	 0,500435327135797 
712	 0,506923739893126 
713	 0,512592156782204 
714	 0,517034243753436 
715	 0,521274441448342 
716	 0,52545935265934 
717	 0,529377214137053 
718	 0,532969448738402 
719	 0,53617754173664 
720	 0,538911348148931 
721	 0,541460170182655 
722	 0,544177858556364 
723	 0,546429023886183 
724	 0,548183340527069 
725	 0,549788807029159 
726	 0,551460031167176 
727	 0,553289524954311 
728	 0,554815121787834 
729	 0,555907435065177 
730	 0,556403494648985 
731	 0,557419743282879 
732	 0,559047070411551 
733	 0,559992363286523 
734	 0,560699756009368 
735	 0,561578183669387 
736	 0,562215016901139 
737	 0,562741382131501 
738	 0,563702466399542 
739	 0,564274262117095 
740	 0,564316592834729 
741	 0,56495276964121 
742	 0,565684575351528 
743	 0,565843522076305 
744	 0,565922496686321 
745	 0,566137202625895 
746	 0,566845373397351 
747	 0,567206115329849 
748	 0,566914884171513 
749	 0,567367171027759 
750	 0,568038002769488 
751	 0,567879360687262 
752	 0,567526470042518 
753	 0,567249817516717 
754	 0,567295505715294 
755	 0,567616815251972 
756	 0,568130225245344 
757	 0,568501992421311 
758	 0,568630025735082 
759	 0,568403371627894 
760	 0,568441326565869 
761	 0,568876133539649 
762	 0,569233112378484 
763	 0,569384459763306 
764	 0,56925534976159 
765	 0,569157843974773 
766	 0,569243889532269 
767	 0,569719853559425 
768	 0,570210684043973 
769	 0,570499882338763 
770	 0,570396875942027 
771	 0,570252104922523 
772	 0,570485354822985 
773	 0,570606460990338 
774	 0,570624625425952 
775	 0,570943964191049 
776	 0,57113592145164 
777	 0,57102246355253 
778	 0,571053718721961 
779	 0,571138876449534 
780	 0,571068557813714 
781	 0,571046367467845 
782	 0,571114697322217 
783	 0,571234174053861 
784	 0,571302402112174 
785	 0,571260475843154 
786	 0,57124056576661 
787	 0,57124014620334 
788	 0,571234896314215 
789	 0,570949869049322 
790	 0,57055922467946 
791	 0,571180952494486 
792	 0,571566572140078 
793	 0,570817058153456 
794	 0,570779680641702 
795	 0,571191190727235 
796	 0,570786067977766 
797	 0,570614769768061 
798	 0,570881279880413 
799	 0,570842089233341 
800	 0,570710466480694 
801	 0,570724998510203 
802	 0,570913120978192 
803	 0,57112940308507 
804	 0,570973412017697 
805	 0,570887709600015 
806	 0,571017685874895 
807	 0,571162115044811 
808	 0,571321790648694 
809	 0,571503351270893 
810	 0,571529000301524 
811	 0,571508581268079 
812	 0,571875147247475 
813	 0,572128256975008 
814	 0,572065486051368 
815	 0,571838339002764 
816	 0,571812064562745 
817	 0,572369597496373 
818	 0,572533388799561 
819	 0,572290592469449 
820	 0,572270582954369 
821	 0,572550515899523 
822	 0,5730838246706 
823	 0,573251923249785 
824	 0,573109242561384 
825	 0,572825930935735 
826	 0,573025260639273 
827	 0,573617158338705 
828	 0,573797938699884 
829	 0,573848571876208 
830	 0,573931843615631 
831	 0,574137168616783 
832	 0,574508701341725 
833	 0,575081635505525 
834	 0,575170206813701 
835	 0,574801707143511 
836	 0,574660411312958 
837	 0,574624265961172 
838	 0,574659459475696 
839	 0,574927072615115 
840	 0,575130827164858 
841	 0,574850226798871 
842	 0,574589841946958 
843	 0,574525804461108 
844	 0,574767373844761 
845	 0,574986391175447 
846	 0,574958488879704 
847	 0,5745310970132 
848	 0,574190275044785 
849	 0,574619379908989 
850	 0,574769910126777 
851	 0,574460060619765 
852	 0,573973765535851 
853	 0,57386284936928 
854	 0,574307482726971 
855	 0,574179913442106 
856	 0,573939837223333 
857	 0,574378746141954 
858	 0,574052071140329 
859	 0,573206715660984 
860	 0,573820332376272 
861	 0,574222844815229 
862	 0,573768737556722 
863	 0,574303663289985 
864	 0,575173188838525 
865	 0,575301097095377 
866	 0,575673521838051 
867	 0,576220264016059 
868	 0,576013228990524 
869	 0,575937135936056 
870	 0,576421863408244 
871	 0,577341367213269 
872	 0,577883883535583 
873	 0,577164503791385 
874	 0,577030484502987 
875	 0,577626053096996 
876	 0,578163433635065 
877	 0,578202588453476 
878	 0,577684998894059 
879	 0,577652476082717 
880	 0,577807903072111 
881	 0,577734904883904 
882	 0,577411294740523 
883	 0,577154061364116 
884	 0,577830978637234 
885	 0,578470007705078 
886	 0,578623871641175 
887	 0,578112706301748 
888	 0,577545262537391 
889	 0,577502474745417 
890	 0,577750646490641 
891	 0,577987844826355 
892	 0,577583588862021 
893	 0,57783246426846 
894	 0,578818738115847 
895	 0,578986463498701 
896	 0,578660750861567 
897	 0,578212380838239 
898	 0,578202612110262 
899	 0,578412960856836 
900	 0,578247477564701 
901	 0,578474006264707 
902	 0,579057633528771 
903	 0,579041724025466 
904	 0,579060414791078 
905	 0,57946536065224 
906	 0,579755853061671 
907	 0,579782828369494 
908	 0,57943622448435 
909	 0,579291962607527 
910	 0,579433186948496 
911	 0,57966527842551 
912	 0,579471056815082 
913	 0,578832826913834 
914	 0,579233664360946 
915	 0,580000062309388 
916	 0,580240368373642 
917	 0,58016618715567 
918	 0,579979517808749 
919	 0,580151972784191 
920	 0,58002041178101 
921	 0,579564778689949 
922	 0,579790237907213 
923	 0,58024593054339 
924	 0,580442074159814 
925	 0,579792124743627 
926	 0,578995281431086 
927	 0,579501865533847 
928	 0,579298835419548 
929	 0,578249391608929 
930	 0,577934671929779 
931	 0,578334176588958 
932	 0,579194377846519 
933	 0,57894142111949 
934	 0,578111732676309 
935	 0,577643588723551 
936	 0,577267881426197 
937	 0,57692407942476 
938	 0,576496592305627 
939	 0,576358226838565 
940	 0,576428237731548 
941	 0,575508654338985 
942	 0,57473629321211 
943	 0,575085050946955 
944	 0,575326732461449 
945	 0,574948127032008 
946	 0,573424612857652 
947	 0,571895984017875 
948	 0,570957475306177 
949	 0,57132299142897 
950	 0,571294648008806 
951	 0,570129176801814 
952	 0,570004606926092 
953	 0,570222854814826 
954	 0,569684140158783 
955	 0,568665319530481 
956	 0,567626616579966 
957	 0,567697168993243 
958	 0,56696317031228 
959	 0,565314004533666 
960	 0,565438661636364 
961	 0,565918356717733 
962	 0,565668514606731 
963	 0,565858332667051 
964	 0,565951399209239 
965	 0,564946325572534 
966	 0,564405070079933 
967	 0,564701296982713 
968	 0,56582663433643 
969	 0,565892943942116 
970	 0,564421987483306 
971	 0,563616321121815 
972	 0,56410491024489 
973	 0,565994532422486 
974	 0,56557768499699 
975	 0,564628611650793 
976	 0,567542877972829 
977	 0,567312394506545 
978	 0,563395585919849 
979	 0,560256616861593 
980	 0,561065341424352 
981	 0,566328048662093 
982	 0,56854272188063 
983	 0,568790140491902 
984	 0,568845488150677 
985	 0,567966820886294 
986	 0,566797139531656 
987	 0,566579562362855 
988	 0,567208937504644 
989	 0,568457950087157 
990	 0,569690000047991 
991	 0,570515384063011 
992	 0,570609369828948 
993	 0,569361969677412 
994	 0,569399759124306 
995	 0,572960978848167 
996	 0,573122178609585 
997	 0,571164891380681 
998	 0,572125282285833 
999	 0,572598088796857 
1000	 0,572189778641599 
1001	 0,572559019573945 
1002	 0,574515058139011 
1003	 0,577676289335939 
1004	 0,577399036747751 
1005	 0,576781489762406 
1006	 0,579054691510066 
1007	 0,581775158140321 
1008	 0,583443760354241 
1009	 0,582321332849548 
1010	 0,580734185220024 
1011	 0,579739617106418 
1012	 0,580276444089397 
1013	 0,581104814353586 
1014	 0,581804926416982 
1015	 0,583851519790949 
1016	 0,583745856592112 
1017	 0,579744059984632 
1018	 0,58441733143037 
1019	 0,5902697482078 
1020	 0,584003121126644 
1021	 0,58368163395854 
1022	 0,58908649223344 
1023	 0,587228150206769 
1024	 0,586883276806576 
1025	 0,589595417927395 
1026	 0,588823455106438 
1027	 0,587490002565135 
1028	 0,587604509549553 
1029	 0,587821734342442 
1030	 0,589527386987563 
1031	 0,593978322359406 
1032	 0,593852070334408 
1033	 0,59206270409252 
1034	 0,597513386981542 
1035	 0,599510823344152 
1036	 0,596744805855172 
1037	 0,595993745248676 
1038	 0,596156494744838 
1039	 0,595854138460463 
1040	 0,589078586558467 
1041	 0,586787897619636 
1042	 0,596046279521746 
1043	 0,595986653233103 
1044	 0,593152002887424 
1045	 0,599875835436046 
1046	 0,604272374836187 
1047	 0,60191903143436 
1048	 0,58847049824887 
1049	 0,587316474924918 
1050	 0,600670858764701 
1051	 0,6065924415739 
1052	 0,606994193958916 
1053	 0,603840276828591 
1054	 0,60408842022201 
1055	 0,603622542216158 
1056	 0,59898137920138 
1057	 0,595937924020744 
1058	 0,593261861464943 
1059	 0,588603683721482 
1060	 0,599015801785459 
1061	 0,614969307163387 
1062	 0,606963489520905 
1063	 0,60117652779054 
1064	 0,602886900393561 
1065	 0,600347985209003 
1066	 0,605607385489137 
1067	 0,618763815904914 
1068	 0,615019209490917 
1069	 0,600739589984576 
1070	 0,58672826861168 
1071	 0,597107947405248 
1072	 0,612827663134412 
1073	 0,608699030681094 
1074	 0,608399187453442 
1075	 0,609130809626711 
