Wavelength	ABBE00264.asd
325	-2,59268131155857E-02 
326	 0,13921028466483 
327	 0,118783314463089 
328	-0,134879049614049 
329	-0,164811058523026 
330	-4,69859181669589E-02 
331	 6,44666660934513E-02 
332	 6,32225190541911E-02 
333	 2,08977069442186E-02 
334	 0,123337982026522 
335	 0,128832257664515 
336	 2,58231897265178E-02 
337	-2,65067060585771E-03 
338	-5,16688986455561E-03 
339	-2,92024807681281E-02 
340	 7,43780685643228E-03 
341	 6,28030320627473E-02 
342	 4,51537573935676E-02 
343	 1,64799070202256E-02 
344	-2,89057838142106E-03 
345	 4,76406091486935E-03 
346	 2,68831621425322E-02 
347	 4,91467802775576E-02 
348	 4,42061846743891E-02 
349	 2,35823022535424E-02 
350	 2,87919250722147E-02 
351	 2,51382863914341E-02 
352	 6,35481226054894E-03 
353	 1,83036413059957E-02 
354	 2,43518818065213E-02 
355	-2,19009252505319E-02 
356	-1,96001671625584E-02 
357	 2,24621807414947E-02 
358	 3,19619507732583E-02 
359	 0,022224065743314 
360	 6,02684691994933E-03 
361	 3,70919755339961E-02 
362	 6,32216155492636E-02 
363	 6,29480469921226E-03 
364	-6,91830768664942E-03 
365	 2,84195326494462E-02 
366	 1,18272783276166E-02 
367	 1,23370812502409E-02 
368	 5,92607874231812E-02 
369	 4,36084515635552E-02 
370	-5,22443687566595E-03 
371	-9,5571766526045E-03 
372	 4,14127249740616E-03 
373	 2,18654567664253E-02 
374	 1,70762757847223E-02 
375	 1,09199846284316E-02 
376	 1,90785137760735E-02 
377	 0,019143332256952 
378	 1,80224884862682E-02 
379	 3,89373608167208E-02 
380	 4,84767637636149E-02 
381	 0,037592790993015 
382	 2,12822041585109E-02 
383	 4,03600695325839E-03 
384	-1,18375570572679E-02 
385	-2,11238326843166E-04 
386	 2,48096307858383E-02 
387	 1,36727375068459E-02 
388	 9,96162647229877E-03 
389	 0,024786335060283 
390	 2,36166298155802E-02 
391	 1,43291651957989E-02 
392	 9,30479300332765E-03 
393	 1,06163070837776E-02 
394	 1,55460006979667E-02 
395	 1,35583959621806E-02 
396	 1,59518524689512E-02 
397	 2,62807945063572E-02 
398	 2,72662937842754E-02 
399	 2,17677407381413E-02 
400	 1,64170231859781E-02 
401	 1,61890859352787E-02 
402	 1,97703063916615E-02 
403	 1,64954788706781E-02 
404	 1,26698205942595E-02 
405	 0,012348241566954 
406	 1,06952420787343E-02 
407	 9,4772602933131E-03 
408	 1,38282161097458E-02 
409	 1,55433645336434E-02 
410	 1,36681670250105E-02 
411	 1,60098579868904E-02 
412	 1,85069328376878E-02 
413	 1,72465044878818E-02 
414	 1,39550300984669E-02 
415	 1,12087059646839E-02 
416	 1,42338860855073E-02 
417	 1,98795927431165E-02 
418	 2,44222502253878E-02 
419	 1,44194534097628E-02 
420	 3,38820624464721E-03 
421	 9,55079869359447E-03 
422	 1,24709856340171E-02 
423	 9,8519820808315E-03 
424	 9,90058001369014E-03 
425	 1,23216893904785E-02 
426	 1,60834532288595E-02 
427	 1,45225963563689E-02 
428	 1,09488540058018E-02 
429	 1,28210561847222E-02 
430	 1,42481432995255E-02 
431	 1,44701889704033E-02 
432	 1,82936052377401E-02 
433	 2,07581499075455E-02 
434	 1,76502335771088E-02 
435	 1,37669313621322E-02 
436	 1,16208603792722E-02 
437	 1,46826548482791E-02 
438	 1,87139020571784E-02 
439	 0,021062699958948 
440	 1,82151392389834E-02 
441	 1,42053860694009E-02 
442	 1,43668165226082E-02 
443	 1,66645392496558E-02 
444	 1,97962926905891E-02 
445	 2,17125635253971E-02 
446	 2,07141761951435E-02 
447	 1,64880751879307E-02 
448	 0,015898176895009 
449	 1,76351309629283E-02 
450	 1,74865818663575E-02 
451	 1,60791093714741E-02 
452	 1,44488569822465E-02 
453	 0,017213034917707 
454	 1,85836051187698E-02 
455	 1,36153635083508E-02 
456	 1,28400805441289E-02 
457	 1,57725324700231E-02 
458	 1,55265300024367E-02 
459	 1,49802841437433E-02 
460	 0,015279285641793 
461	 1,62782019361716E-02 
462	 1,75904122366087E-02 
463	 1,87118328290988E-02 
464	 0,018695620958959 
465	 1,77430262972909E-02 
466	 1,73623326802005E-02 
467	 0,017499805943267 
468	 1,78655012145979E-02 
469	 0,015761773259008 
470	 1,36679275271406E-02 
471	 0,01769291733999 
472	 1,78338357107725E-02 
473	 1,30613530091082E-02 
474	 1,46128367169467E-02 
475	 1,80886372647503E-02 
476	 1,86487110837028E-02 
477	 1,96975233027211E-02 
478	 2,06161775582053E-02 
479	 1,78065560693431E-02 
480	 1,62702122755134E-02 
481	 1,77617586847983E-02 
482	 0,016277111343281 
483	 1,43820086611435E-02 
484	 0,01678672938396 
485	 1,87895424189724E-02 
486	 1,88405415644409E-02 
487	 1,62046446053713E-02 
488	 1,37895009107683E-02 
489	 1,39205628010643E-02 
490	 1,64865264427187E-02 
491	 1,92762225984298E-02 
492	 0,01752904560366 
493	 1,58903313914075E-02 
494	 1,59079496673184E-02 
495	 0,016353079468202 
496	 1,66188317617425E-02 
497	 1,61264032223956E-02 
498	 1,43934959602833E-02 
499	 1,25531404468352E-02 
500	 1,43361254725501E-02 
501	 1,58280153589152E-02 
502	 1,50953853805121E-02 
503	 1,60169253888497E-02 
504	 1,73879437069615E-02 
505	 0,016261399667882 
506	 1,54153149768493E-02 
507	 1,54874927586429E-02 
508	 1,53115264009832E-02 
509	 1,51974639936543E-02 
510	 1,54848371491931E-02 
511	 1,64768405638044E-02 
512	 1,79587977590508E-02 
513	 1,97098162900852E-02 
514	 1,93054938077615E-02 
515	 1,64598355377488E-02 
516	 1,66829994724279E-02 
517	 1,84188873049241E-02 
518	 1,87370800303236E-02 
519	 1,86494459035233E-02 
520	 1,83643206993036E-02 
521	 1,79668359219583E-02 
522	 1,72949183170708E-02 
523	 1,63595538346978E-02 
524	 1,65055455967547E-02 
525	 1,74512673013968E-02 
526	 1,82017498553398E-02 
527	 1,85720725631951E-02 
528	 0,018371016264759 
529	 0,01727344668184 
530	 1,63913210360418E-02 
531	 1,69621562644875E-02 
532	 1,70734830916202E-02 
533	 1,65961068633902E-02 
534	 1,64874912386158E-02 
535	 1,69282961530229E-02 
536	 1,78743050573499E-02 
537	 1,79868810350609E-02 
538	 1,75828774538007E-02 
539	 0,017634117101198 
540	 1,72651826564573E-02 
541	 1,65253378130787E-02 
542	 1,67653827158177E-02 
543	 1,73058654505516E-02 
544	 1,74190877862863E-02 
545	 1,72883568036495E-02 
546	 1,68988729007189E-02 
547	 1,59742003187016E-02 
548	 0,015735696950898 
549	 1,66587560516205E-02 
550	 1,73389563328294E-02 
551	 0,017766195277546 
552	 1,82582867473142E-02 
553	 1,76961794091579E-02 
554	 1,63578136836238E-02 
555	 1,66326374962278E-02 
556	 1,69784891157077E-02 
557	 1,61878441814446E-02 
558	 1,65456870552161E-02 
559	 1,74726338500506E-02 
560	 1,63398827061393E-02 
561	 1,61319686271612E-02 
562	 1,75340500311793E-02 
563	 0,0169647125867 
564	 1,55835363827347E-02 
565	 1,53078819731139E-02 
566	 1,63203873098697E-02 
567	 1,79549664524385E-02 
568	 1,76756572584266E-02 
569	 1,71662316676058E-02 
570	 1,75532741793216E-02 
571	 1,75881072873976E-02 
572	 1,73390206243859E-02 
573	 1,73268832076566E-02 
574	 1,73895258111003E-02 
575	 1,75621018819519E-02 
576	 1,81895903320756E-02 
577	 0,018986290452031 
578	 1,95993024399536E-02 
579	 1,96397722761858E-02 
580	 1,92408730138818E-02 
581	 1,90503901122234E-02 
582	 1,92003539505442E-02 
583	 0,019709815376092 
584	 0,019939933407365 
585	 2,00549328444473E-02 
586	 2,05464101848449E-02 
587	 2,05571280710141E-02 
588	 2,01577097625226E-02 
589	 0,02086423040482 
590	 2,16449376208626E-02 
591	 2,15236309452603E-02 
592	 2,17029081723865E-02 
593	 2,20652694627272E-02 
594	 2,16247880973574E-02 
595	 2,11939558348262E-02 
596	 2,11724685872904E-02 
597	 0,021507117894324 
598	 2,17163249199498E-02 
599	 0,021087381716117 
600	 2,08634137938621E-02 
601	 2,12283288802971E-02 
602	 2,14453517736506E-02 
603	 2,14308132519244E-02 
604	 2,11350872007094E-02 
605	 2,06827661577226E-02 
606	 2,02552885410622E-02 
607	 2,01758862732387E-02 
608	 2,02196853957004E-02 
609	 2,03147763774329E-02 
610	 2,06781237270834E-02 
611	 2,07094642874108E-02 
612	 1,96795004387394E-02 
613	 1,89444952082536E-02 
614	 1,87841586939153E-02 
615	 1,87747199391344E-02 
616	 0,019153389366619 
617	 0,019908726384251 
618	 1,96652386102099E-02 
619	 1,89540096927325E-02 
620	 1,92205570050068E-02 
621	 0,019487798531281 
622	 1,94429438577047E-02 
623	 1,91002107546399E-02 
624	 1,89394482468538E-02 
625	 1,94177423362968E-02 
626	 1,94823665795488E-02 
627	 1,91626841710869E-02 
628	 1,92313776847398E-02 
629	 1,93628524342872E-02 
630	 1,94128719266898E-02 
631	 1,95115484499067E-02 
632	 1,97182542429541E-02 
633	 2,01156651205321E-02 
634	 2,03841245792934E-02 
635	 2,04916173951148E-02 
636	 2,07676892804354E-02 
637	 2,09783396027624E-02 
638	 2,09744407720926E-02 
639	 0,021675608096886 
640	 2,26030923534003E-02 
641	 0,022086699034591 
642	 2,18343589303693E-02 
643	 2,23689720713609E-02 
644	 2,22542830144445E-02 
645	 2,21752890781971E-02 
646	 2,31756009411297E-02 
647	 2,32810865581553E-02 
648	 2,25459664628545E-02 
649	 2,30547579426706E-02 
650	 2,33349964078823E-02 
651	 2,25238146768393E-02 
652	 2,23905593735521E-02 
653	 2,24726021956262E-02 
654	 2,12293199659461E-02 
655	 2,03341759323133E-02 
656	 0,020308137001496 
657	 2,07153002584822E-02 
658	 2,09211291894742E-02 
659	 2,03346192410312E-02 
660	 2,00201497929601E-02 
661	 1,99331711412138E-02 
662	 1,92647160018067E-02 
663	 1,84278230367578E-02 
664	 1,76740954241521E-02 
665	 1,71988892179569E-02 
666	 1,67984508586835E-02 
667	 1,60656544708241E-02 
668	 1,61848688778854E-02 
669	 1,71419719565848E-02 
670	 1,75492334518227E-02 
671	 0,017681772986505 
672	 1,77723195361153E-02 
673	 1,75771383402619E-02 
674	 1,72164264402034E-02 
675	 1,70393681545149E-02 
676	 1,68217866273876E-02 
677	 1,65364888647448E-02 
678	 1,63669674628099E-02 
679	 1,65440487835335E-02 
680	 1,73002835439377E-02 
681	 1,73540458835732E-02 
682	 0,016847194593526 
683	 0,017307284465782 
684	 1,77361908703694E-02 
685	 1,76214267372079E-02 
686	 1,77564552437209E-02 
687	 1,83647508603135E-02 
688	 0,01969847897016 
689	 2,05380119665249E-02 
690	 2,07580593559095E-02 
691	 2,16463571514165E-02 
692	 0,022839616461721 
693	 0,024003815017322 
694	 2,57732439356035E-02 
695	 2,81484039639501E-02 
696	 3,08389338145506E-02 
697	 3,37273619036856E-02 
698	 3,67634404013836E-02 
699	 4,00032595074177E-02 
700	 4,37706693597545E-02 
701	 4,84566336091772E-02 
702	 5,34087158763915E-02 
703	 5,83488033902249E-02 
704	 6,31160711916297E-02 
705	 0,067876233213984 
706	 7,27740551706334E-02 
707	 7,81801701971317E-02 
708	 8,34927147224592E-02 
709	 8,75072629066244E-02 
710	 0,091676239456785 
711	 9,63982074056548E-02 
712	 0,101329028935351 
713	 0,105702050722055 
714	 0,108899155316963 
715	 0,112465157063832 
716	 0,116293496022767 
717	 0,119222793563238 
718	 0,122313748052614 
719	 0,125776432404168 
720	 0,128177135927848 
721	 0,130038087779387 
722	 0,132178277583458 
723	 0,13426198164469 
724	 0,136236510573737 
725	 0,138093970024269 
726	 0,139901276465717 
727	 0,141605812809887 
728	 0,142403988045355 
729	 0,142794542657685 
730	 0,143819103180056 
731	 0,145016293648707 
732	 0,146193233808609 
733	 0,147088378425877 
734	 0,147939478443203 
735	 0,148922601173724 
736	 0,149374799414473 
737	 0,14960512218813 
738	 0,150727924632864 
739	 0,151498743481801 
740	 0,151589145452166 
741	 0,152026390475405 
742	 0,152544739567677 
743	 0,152748469557327 
744	 0,15290904234818 
745	 0,153115679919818 
746	 0,153407197531881 
747	 0,153891195641509 
748	 0,154509119537354 
749	 0,154455597104742 
750	 0,154128556445677 
751	 0,154277012982765 
752	 0,154522412210909 
753	 0,15474055166029 
754	 0,15481939470066 
755	 0,154959277639246 
756	 0,155292729792573 
757	 0,155594823725088 
758	 0,155863078274481 
759	 0,156212424275608 
760	 0,156170801747609 
761	 0,155807234685666 
762	 0,156180473299753 
763	 0,156732944253012 
764	 0,156888357595626 
765	 0,156816554314325 
766	 0,156654566741207 
767	 0,156669616545156 
768	 0,156729618688188 
769	 0,156806455274916 
770	 0,157009763111192 
771	 0,157241597666879 
772	 0,157380509700047 
773	 0,157474222370822 
774	 0,15758447216397 
775	 0,157895688359431 
776	 0,158056396348964 
777	 0,15792990410247 
778	 0,157998157873769 
779	 0,158043337904051 
780	 0,157659000925987 
781	 0,157761440900679 
782	 0,158313431281906 
783	 0,158263144583075 
784	 0,158143011076015 
785	 0,158283980790641 
786	 0,158363168797061 
787	 0,15828822085676 
788	 0,157944253810478 
789	 0,157952965424978 
790	 0,158376487743094 
791	 0,158606984320777 
792	 0,158707010520026 
793	 0,158718364094562 
794	 0,158376427868572 
795	 0,158009743152304 
796	 0,158413169305398 
797	 0,158625839693593 
798	 0,158400140233497 
799	 0,158254652683246 
800	 0,158155026571242 
801	 0,158065294043675 
802	 0,158264268447538 
803	 0,158614915002458 
804	 0,158610136749469 
805	 0,158871536238556 
806	 0,159407434567892 
807	 0,15897508015754 
808	 0,158499965242673 
809	 0,159008362899465 
810	 0,159111495604464 
811	 0,158852529718903 
812	 0,15916589980962 
813	 0,159540923411648 
814	 0,159749442628604 
815	 0,159761926501844 
816	 0,159776300363786 
817	 0,160025034722818 
818	 0,160245350418801 
819	 0,160351351838731 
820	 0,160273077499237 
821	 0,160207304591424 
822	 0,160295103107306 
823	 0,160743349795395 
824	 0,161117872755504 
825	 0,16085908574711 
826	 0,1609230613035 
827	 0,161317417433937 
828	 0,161305970060788 
829	 0,161168711696761 
830	 0,161144848894812 
831	 0,1618639578323 
832	 0,162554300295997 
833	 0,162105374074924 
834	 0,161832009490399 
835	 0,161992390646225 
836	 0,162307470136487 
837	 0,162383166589908 
838	 0,162082476928703 
839	 0,162138576177251 
840	 0,162473212270095 
841	 0,162851526738938 
842	 0,162859872048069 
843	 0,162711593751193 
844	 0,163609483730351 
845	 0,164029158085198 
846	 0,163255377377345 
847	 0,162659807176448 
848	 0,162354823002288 
849	 0,1622508683894 
850	 0,162361855421634 
851	 0,162621930837951 
852	 0,162956966466469 
853	 0,162825655453871 
854	 0,162081564849831 
855	 0,161864381375719 
856	 0,162133773039599 
857	 0,162633578710889 
858	 0,162525205351036 
859	 0,162048439417618 
860	 0,162767837271088 
861	 0,163289628248307 
862	 0,163025642790959 
863	 0,163230736675703 
864	 0,163621827148306 
865	 0,163673148944965 
866	 0,164099536270968 
867	 0,164598988798707 
868	 0,163712471942494 
869	 0,163112943443181 
870	 0,163505444893457 
871	 0,163735639163601 
872	 0,163915690157724 
873	 0,164299791983401 
874	 0,164707710085449 
875	 0,165079997051883 
876	 0,165329815560026 
877	 0,165885348901206 
878	 0,166666658617602 
879	 0,166142629025706 
880	 0,165465593391815 
881	 0,165946602435308 
882	 0,166234389278705 
883	 0,16611081666677 
884	 0,165597207677085 
885	 0,165837917023336 
886	 0,166956471937145 
887	 0,167217599065842 
888	 0,166908267036117 
889	 0,166452799454695 
890	 0,166316834813148 
891	 0,166674652644604 
892	 0,167754167012992 
893	 0,167997791551518 
894	 0,167147828382567 
895	 0,166720097474513 
896	 0,166312616374563 
897	 0,165685091789344 
898	 0,165907708033828 
899	 0,166673948353724 
900	 0,1671701885272 
901	 0,167330399676395 
902	 0,167262924622694 
903	 0,167578961914538 
904	 0,1678570678083 
905	 0,167816993998902 
906	 0,167464345649147 
907	 0,167193678540259 
908	 0,167539177845416 
909	 0,167809731122657 
910	 0,167911813214172 
911	 0,168196538660958 
912	 0,168211982010958 
913	 0,167814043296186 
914	 0,167465238753059 
915	 0,167359772072257 
916	 0,167653789647572 
917	 0,168360254128162 
918	 0,169032162478721 
919	 0,168670545598496 
920	 0,167829092800986 
921	 0,166929244503054 
922	 0,166792814035953 
923	 0,167118159728331 
924	 0,167497934907031 
925	 0,166973150600606 
926	 0,165990503122544 
927	 0,165649019754939 
928	 0,165267050117839 
929	 0,164951579749437 
930	 0,165762306851107 
931	 0,166406938156037 
932	 0,166033886894041 
933	 0,164486853235416 
934	 0,163330146287655 
935	 0,164463057178976 
936	 0,164822574491129 
937	 0,164116683336265 
938	 0,163548747459808 
939	 0,163349925838021 
940	 0,163372004697065 
941	 0,162066750369368 
942	 0,160883219431116 
943	 0,161070547279829 
944	 0,1610253906806 
945	 0,160435794887242 
946	 0,15921271564781 
947	 0,158687042922936 
948	 0,158933155301899 
949	 0,158729243642562 
950	 0,157814982705207 
951	 0,156346094216887 
952	 0,156376714117059 
953	 0,15687294178354 
954	 0,156295566305777 
955	 0,154147399455943 
956	 0,151385435945611 
957	 0,150675327244618 
958	 0,150020101942075 
959	 0,149139154887192 
960	 0,149948394896127 
961	 0,150738206741625 
962	 0,150201883387353 
963	 0,149418020812331 
964	 0,14845778056587 
965	 0,147196884723081 
966	 0,147550755644548 
967	 0,148943545159599 
968	 0,147965088921705 
969	 0,147589298043607 
970	 0,148561932374173 
971	 0,147594627714393 
972	 0,146988294128863 
973	 0,14866252965756 
974	 0,14795001782994 
975	 0,146488944954457 
976	 0,148578672023742 
977	 0,149292328746424 
978	 0,147868147593427 
979	 0,146469880236485 
980	 0,14589627533573 
981	 0,146677494899602 
982	 0,148911595905587 
983	 0,150712262071908 
984	 0,150263634492994 
985	 0,149004282453191 
986	 0,147975712698511 
987	 0,148557057641791 
988	 0,149623644097179 
989	 0,150575756215244 
990	 0,150650042472321 
991	 0,150690128169451 
992	 0,151129657955353 
993	 0,151721426898435 
994	 0,151784074865961 
995	 0,150790311501793 
996	 0,150709271333477 
997	 0,151489153268791 
998	 0,152295551492104 
999	 0,152535394469645 
1000	 0,152282319659151 
1001	 0,152429935265756 
1002	 0,153729241169363 
1003	 0,15584462322976 
1004	 0,154675759123377 
1005	 0,152782029912349 
1006	 0,153036932004087 
1007	 0,15555583254856 
1008	 0,157911404854636 
1009	 0,155916930283827 
1010	 0,154236251773978 
1011	 0,153987810192233 
1012	 0,154080308108255 
1013	 0,155895933246529 
1014	 0,159189859468794 
1015	 0,16040981150905 
1016	 0,158211581243398 
1017	 0,152995762695224 
1018	 0,156656849947127 
1019	 0,162734074245372 
1020	 0,159318600050408 
1021	 0,159284955494012 
1022	 0,163694653097611 
1023	 0,167471729627463 
1024	 0,167712363243573 
1025	 0,16394317802447 
1026	 0,159798686647044 
1027	 0,158590157630032 
1028	 0,161894665717834 
1029	 0,165490415447567 
1030	 0,166863845276429 
1031	 0,164112771600485 
1032	 0,163547897773031 
1033	 0,165892225147316 
1034	 0,1699550488079 
1035	 0,169731006092125 
1036	 0,166090473824282 
1037	 0,168761369699891 
1038	 0,172307125541718 
1039	 0,173684377304697 
1040	 0,17050897935617 
1041	 0,16886311013753 
1042	 0,172965831586325 
1043	 0,173655484041273 
1044	 0,172364751959214 
1045	 0,172774143418798 
1046	 0,175282476714573 
1047	 0,176280700052605 
1048	 0,166818426251969 
1049	 0,165999763081061 
1050	 0,174777372016945 
1051	 0,172125932941755 
1052	 0,170846031828187 
1053	 0,175838563405573 
1054	 0,176591223947818 
1055	 0,177355522452482 
1056	 0,181569106221778 
1057	 0,182427238763763 
1058	 0,178285704618459 
1059	 0,169106963683944 
1060	 0,171514775385497 
1061	 0,180298094019636 
1062	 0,17470244946556 
1063	 0,17253955375755 
1064	 0,176028198148482 
1065	 0,173004586683549 
1066	 0,173746316118493 
1067	 0,180332958955402 
1068	 0,181059420906409 
1069	 0,172755962373281 
1070	 0,157748919692573 
1071	 0,161738695152663 
1072	 0,174269111059137 
1073	 0,178910313701721 
1074	 0,178155035360872 
1075	 0,172308038863562 
