Wavelength	ABBE00206.asd
325	 0,245476898364074 
326	 0,200712357737151 
327	 0,147890137010699 
328	 6,60851100461993E-02 
329	-3,67635789948163E-02 
330	-4,93501947487548E-02 
331	 8,70112264229355E-02 
332	 7,97868190463892E-02 
333	-9,88088725932278E-03 
334	 3,46514912170543E-02 
335	 1,20520241040482E-02 
336	-6,90521578218135E-02 
337	 3,53440004417784E-02 
338	 0,117282297299588 
339	 7,6391085363801E-04 
340	-0,005006181794793 
341	 0,081326798448352 
342	 7,51286628258761E-02 
343	 4,18358452189952E-02 
344	 1,12011422193554E-02 
345	 5,81694588847558E-02 
346	 0,106616349852404 
347	 0,085021943482858 
348	 0,081645022241332 
349	 9,50949894611801E-02 
350	 8,05285787598838E-02 
351	 7,14146052436676E-02 
352	 0,076176736771991 
353	 7,21033166181656E-02 
354	 4,57751001012799E-02 
355	-9,77914448375742E-03 
356	-2,18797215386099E-02 
357	 8,37302392439931E-03 
358	 4,81213879432916E-02 
359	 6,57803939017998E-02 
360	 5,20250577870088E-02 
361	 5,48665782889079E-02 
362	 6,21375948371237E-02 
363	 4,99132299361263E-02 
364	 3,06433942560493E-02 
365	 1,44580805256961E-02 
366	 2,39045351937928E-02 
367	 4,65027486923267E-02 
368	 6,91853219039283E-02 
369	 6,48164874862336E-02 
370	 4,17205006802338E-02 
371	 2,00093547893823E-02 
372	 2,19435195887315E-02 
373	 4,45302426586782E-02 
374	 4,80454309249825E-02 
375	 3,55009364127584E-02 
376	 0,013556461832386 
377	 6,00576852529167E-03 
378	 1,45990319136807E-02 
379	 3,91071476483057E-02 
380	 3,71520628083165E-02 
381	 6,34856522509711E-03 
382	 0,019267898958576 
383	 3,01346441547339E-02 
384	-2,53613152672538E-03 
385	-5,92251061603217E-03 
386	 1,58075739230646E-02 
387	 1,39297797392029E-02 
388	 1,88582652556514E-02 
389	 3,55638782391676E-02 
390	 0,030012688409282 
391	 1,72847198782013E-02 
392	 1,79155382524555E-02 
393	 0,027180780353948 
394	 3,60702197817757E-02 
395	 1,91187827034835E-02 
396	 1,63510495545759E-02 
397	 4,21735013475126E-02 
398	 4,00267769587535E-02 
399	 2,23920986575009E-02 
400	 1,60103558521942E-02 
401	 1,85904895463816E-02 
402	 2,75015866753117E-02 
403	 3,55432791018742E-02 
404	 0,033058474287527 
405	 1,58945082341514E-02 
406	 6,28867618369499E-03 
407	 5,84014259746219E-03 
408	 1,00627769106573E-02 
409	 0,01573311469808 
410	 2,04889639854247E-02 
411	 2,03601345210759E-02 
412	 1,94049796653236E-02 
413	 2,13166412803045E-02 
414	 2,02151841675536E-02 
415	 1,76085373024757E-02 
416	 1,98623096055751E-02 
417	 2,30572789941287E-02 
418	 2,41082811617755E-02 
419	 1,43035698186332E-02 
420	 5,40518702468401E-03 
421	 1,29332051721925E-02 
422	 1,40850479039574E-02 
423	 8,0951624955407E-03 
424	 9,66096422541064E-03 
425	 1,48560585905726E-02 
426	 0,020016752809265 
427	 0,017126718266243 
428	 1,12721121038123E-02 
429	 1,32693865318442E-02 
430	 1,63454676342786E-02 
431	 1,80991027877154E-02 
432	 1,72931127883706E-02 
433	 1,58908243844018E-02 
434	 1,56464108581856E-02 
435	 1,53624420519278E-02 
436	 1,57401984703257E-02 
437	 1,94947639300904E-02 
438	 2,09692939302858E-02 
439	 1,86264228969089E-02 
440	 1,83652520213563E-02 
441	 0,019563516057854 
442	 2,07753707987173E-02 
443	 1,79732637142167E-02 
444	 1,33697443105121E-02 
445	 1,80124515392386E-02 
446	 2,15190302293706E-02 
447	 1,82186120337061E-02 
448	 1,81888516130268E-02 
449	 1,98392029973834E-02 
450	 1,75764755294126E-02 
451	 1,61502887092069E-02 
452	 0,016714828907638 
453	 1,75895847321553E-02 
454	 1,75622554641602E-02 
455	 1,57439777109723E-02 
456	 1,48778038044861E-02 
457	 1,53395352981439E-02 
458	 1,64988353086743E-02 
459	 1,80962133785327E-02 
460	 1,94194780442067E-02 
461	 1,75276021408648E-02 
462	 0,015432855331232 
463	 1,74303663002497E-02 
464	 1,87250375004551E-02 
465	 1,82173459857387E-02 
466	 1,65075128738223E-02 
467	 1,53101991394845E-02 
468	 1,55455284405362E-02 
469	 1,39899620344633E-02 
470	 0,012567432477847 
471	 1,63388376887295E-02 
472	 0,017506885609692 
473	 1,46136047822015E-02 
474	 1,32744908781738E-02 
475	 0,014273895636827 
476	 1,79078561418528E-02 
477	 2,13002563123654E-02 
478	 2,27711181927664E-02 
479	 1,97100911030238E-02 
480	 1,76908880268026E-02 
481	 1,88148357601602E-02 
482	 1,69605948006922E-02 
483	 1,44508216679118E-02 
484	 1,56139101967518E-02 
485	 1,73569377871625E-02 
486	 1,81941350942491E-02 
487	 1,59971437922617E-02 
488	 1,35670093000903E-02 
489	 1,31234641916405E-02 
490	 1,37565240820655E-02 
491	 1,51657708562234E-02 
492	 1,73678750230017E-02 
493	 1,82507474286064E-02 
494	 1,73333875391154E-02 
495	 1,70627802588927E-02 
496	 1,65100676329996E-02 
497	 1,44619850701765E-02 
498	 1,39149481269146E-02 
499	 1,47345481639786E-02 
500	 1,41882276390496E-02 
501	 0,014010615825476 
502	 1,50156587198361E-02 
503	 1,56165922778723E-02 
504	 1,56740267361837E-02 
505	 0,015298064956247 
506	 1,51798083887628E-02 
507	 1,54571786753144E-02 
508	 1,55987448835257E-02 
509	 1,57321634145473E-02 
510	 1,59654120498101E-02 
511	 1,57429427834787E-02 
512	 1,54023450969454E-02 
513	 1,61177535821166E-02 
514	 1,66128864447563E-02 
515	 1,64382900810918E-02 
516	 1,65441714828077E-02 
517	 1,68412940700481E-02 
518	 1,71180796467163E-02 
519	 1,60792909324166E-02 
520	 1,45055008885508E-02 
521	 1,64977401258814E-02 
522	 1,82231344639949E-02 
523	 0,016987925801304 
524	 1,55678241601493E-02 
525	 1,46883118892711E-02 
526	 1,48343121625413E-02 
527	 1,53277169263801E-02 
528	 1,58021113298177E-02 
529	 1,59880093373793E-02 
530	 0,015649195942853 
531	 1,45812810233362E-02 
532	 1,40429160945931E-02 
533	 1,42674290570746E-02 
534	 1,49427130236068E-02 
535	 1,56173918439761E-02 
536	 1,59510547057235E-02 
537	 1,56889672634397E-02 
538	 1,53724885132564E-02 
539	 1,60950419250517E-02 
540	 1,63896165871454E-02 
541	 1,58756268087678E-02 
542	 1,50868692297434E-02 
543	 1,44862652308244E-02 
544	 1,44921195976019E-02 
545	 1,52419406845385E-02 
546	 1,60027612431572E-02 
547	 1,46376169675495E-02 
548	 1,37378092245204E-02 
549	 1,44873858997867E-02 
550	 1,53605287186001E-02 
551	 1,60690658786457E-02 
552	 1,65206133664279E-02 
553	 1,58200088812806E-02 
554	 1,43361909630261E-02 
555	 1,45334983125786E-02 
556	 0,014986128023528 
557	 0,014497440440096 
558	 1,41526688040977E-02 
559	 1,39883861648464E-02 
560	 1,34763905200569E-02 
561	 1,37275901195061E-02 
562	 0,014909373458485 
563	 1,51865499905794E-02 
564	 1,48598156632435E-02 
565	 1,45525191718184E-02 
566	 1,48629217626734E-02 
567	 1,55393241483012E-02 
568	 1,50895804477759E-02 
569	 1,43463158226177E-02 
570	 1,39557002877548E-02 
571	 1,41089209320919E-02 
572	 1,45500431036197E-02 
573	 0,014621016857665 
574	 1,48499829162891E-02 
575	 1,53937838069948E-02 
576	 1,61172762091836E-02 
577	 1,67920115235545E-02 
578	 1,71750678494075E-02 
579	 1,70837372709711E-02 
580	 1,67705561609979E-02 
581	 1,71366741922519E-02 
582	 1,74551559245829E-02 
583	 1,73342005810251E-02 
584	 1,71044046892491E-02 
585	 1,71727241060992E-02 
586	 1,82496110492413E-02 
587	 1,84266741418762E-02 
588	 1,75721241582711E-02 
589	 1,79225267736102E-02 
590	 1,86768589697443E-02 
591	 1,90024574442644E-02 
592	 1,93969443510035E-02 
593	 1,95849413139174E-02 
594	 1,84631843017855E-02 
595	 1,79820125913966E-02 
596	 1,88395562174712E-02 
597	 1,88901426362644E-02 
598	 1,84985873735758E-02 
599	 0,01856541209919 
600	 1,84907569155385E-02 
601	 1,82306136954988E-02 
602	 1,81812073205799E-02 
603	 1,82835825914254E-02 
604	 1,84435766513892E-02 
605	 1,82065195051823E-02 
606	 1,77370222778005E-02 
607	 1,75685034168936E-02 
608	 1,77264288058177E-02 
609	 1,81063022848087E-02 
610	 1,80025773770981E-02 
611	 1,76039201287339E-02 
612	 1,72268331830627E-02 
613	 1,69175569029583E-02 
614	 1,67486373923146E-02 
615	 1,68217938706761E-02 
616	 1,70549679678831E-02 
617	 1,73237794937913E-02 
618	 1,71077521614171E-02 
619	 1,66594022818166E-02 
620	 0,016622312976077 
621	 1,65760745702902E-02 
622	 1,64446090389737E-02 
623	 1,64728502188511E-02 
624	 1,66466405211134E-02 
625	 1,69129895788944E-02 
626	 1,65856823519606E-02 
627	 1,60412503489429E-02 
628	 1,68402506455041E-02 
629	 1,75165883362866E-02 
630	 1,73690493308766E-02 
631	 1,72661529102053E-02 
632	 1,73446024673659E-02 
633	 1,76626667502415E-02 
634	 1,78320174142782E-02 
635	 0,01779098369432 
636	 1,78079761306579E-02 
637	 1,79340996578565E-02 
638	 1,82199106922089E-02 
639	 0,018866463266193 
640	 1,95858397934598E-02 
641	 1,95858610593636E-02 
642	 1,96547131563859E-02 
643	 1,99951525756642E-02 
644	 1,97803610549963E-02 
645	 1,93915573462756E-02 
646	 1,94056534953701E-02 
647	 0,019706041431677 
648	 2,00935083354709E-02 
649	 0,020007802523236 
650	 0,019808614544054 
651	 1,97161845367908E-02 
652	 1,93751567304825E-02 
653	 1,89238192843187E-02 
654	 1,87315912701978E-02 
655	 1,85520648117028E-02 
656	 1,82987163807811E-02 
657	 1,79482179165002E-02 
658	 1,76285125667371E-02 
659	 1,74685497850212E-02 
660	 1,73375261655405E-02 
661	 1,71724669077703E-02 
662	 1,69062712969205E-02 
663	 1,65303330699187E-02 
664	 1,60958648316911E-02 
665	 1,60332962973574E-02 
666	 1,59104481398776E-02 
667	 1,49462793816577E-02 
668	 1,46260902506928E-02 
669	 0,015163911790756 
670	 1,56172471737242E-02 
671	 1,58728399887668E-02 
672	 1,58473544093389E-02 
673	 1,54997269533304E-02 
674	 1,50943013362324E-02 
675	 0,015239031445788 
676	 0,015455854208048 
677	 1,54961028023342E-02 
678	 1,49698066947844E-02 
679	 1,46676971803405E-02 
680	 1,55323330948736E-02 
681	 1,60601154168307E-02 
682	 1,60600694878902E-02 
683	 1,61650109327211E-02 
684	 1,63369330637519E-02 
685	 1,65269093723714E-02 
686	 1,63425929553935E-02 
687	 0,016270513649524 
688	 1,72855400713483E-02 
689	 1,79214710441771E-02 
690	 1,80376841656831E-02 
691	 1,90899574954006E-02 
692	 0,020511363473174 
693	 2,17522044344774E-02 
694	 2,30650678391522E-02 
695	 2,47791774147143E-02 
696	 2,76030995891138E-02 
697	 3,07323857390584E-02 
698	 3,38438952519802E-02 
699	 3,72299047972379E-02 
700	 4,09217565313172E-02 
701	 4,49244417644507E-02 
702	 4,97171380020805E-02 
703	 5,50540649629578E-02 
704	 0,059877342103175 
705	 6,44832167725143E-02 
706	 6,91378903945103E-02 
707	 0,074541374585065 
708	 8,00361617352021E-02 
709	 8,41947969609169E-02 
710	 8,87695081421036E-02 
711	 9,40087538390647E-02 
712	 9,85110751267621E-02 
713	 0,102483501144578 
714	 0,106200785141991 
715	 0,110106892273962 
716	 0,113981844037324 
717	 0,116961789800055 
718	 0,120012472029695 
719	 0,123347372105902 
720	 0,125682943303949 
721	 0,127644012814811 
722	 0,130154704235331 
723	 0,132256556757753 
724	 0,133875220074988 
725	 0,135419706662691 
726	 0,137263905389056 
727	 0,139508148367748 
728	 0,140916683290817 
729	 0,141666900955497 
730	 0,142346147442682 
731	 0,143439828015094 
732	 0,144925413234731 
733	 0,1458673705337 
734	 0,146600895196955 
735	 0,147428976004617 
736	 0,147947419603748 
737	 0,148369466049856 
738	 0,149420550312902 
739	 0,150233771865755 
740	 0,150534555295991 
741	 0,150816371524603 
742	 0,151137975394623 
743	 0,151517796468119 
744	 0,151782889196218 
745	 0,152033002852308 
746	 0,1527228453959 
747	 0,153303931734951 
748	 0,153498403138692 
749	 0,153661816441585 
750	 0,153792245478545 
751	 0,1538103811136 
752	 0,153999389091961 
753	 0,154357832688252 
754	 0,154546515679139 
755	 0,154751543193447 
756	 0,155078627733787 
757	 0,155154357247844 
758	 0,155106312215722 
759	 0,155317525444877 
760	 0,155408052934449 
761	 0,155371525661041 
762	 0,155743096090622 
763	 0,156215577499371 
764	 0,156478126285839 
765	 0,156649490799007 
766	 0,156840783508594 
767	 0,157318704385011 
768	 0,157674011803222 
769	 0,157715870743138 
770	 0,157383698203821 
771	 0,157191515008999 
772	 0,15771531831912 
773	 0,157799567174497 
774	 0,157496833941439 
775	 0,157851292247249 
776	 0,158092308385827 
777	 0,157920313160728 
778	 0,158208855933084 
779	 0,15860186161193 
780	 0,158441212890396 
781	 0,158566385487878 
782	 0,158952006641337 
783	 0,158676866887669 
784	 0,158422693718201 
785	 0,158593150554792 
786	 0,158508412882288 
787	 0,158308260785834 
788	 0,158389234369672 
789	 0,158729516513948 
790	 0,159127614250782 
791	 0,158818020720367 
792	 0,158363855740847 
793	 0,15824231118571 
794	 0,158266470382622 
795	 0,158388228418962 
796	 0,158581060065699 
797	 0,158634816988633 
798	 0,158500389608152 
799	 0,158334046737601 
800	 0,158315604194351 
801	 0,158578276861038 
802	 0,158678498579083 
803	 0,158645393613556 
804	 0,158775445085206 
805	 0,15896402909179 
806	 0,159174983409906 
807	 0,159386575435992 
808	 0,159629913740852 
809	 0,159925856399288 
810	 0,159939007583741 
811	 0,159803169677037 
812	 0,160121374045563 
813	 0,160229308518573 
814	 0,159957342981039 
815	 0,160075002063326 
816	 0,160352399259312 
817	 0,160445476377203 
818	 0,160726801042433 
819	 0,161108887107072 
820	 0,161102181250445 
821	 0,161070304059049 
822	 0,161249225542394 
823	 0,161936618231502 
824	 0,162603804667078 
825	 0,162558824800344 
826	 0,162791767197878 
827	 0,163359907114584 
828	 0,163659313958955 
829	 0,163908730335846 
830	 0,164192018061833 
831	 0,164355332676036 
832	 0,16441270883831 
833	 0,164405905710538 
834	 0,164491917356243 
835	 0,164670863771753 
836	 0,164753315905237 
837	 0,165002067042598 
838	 0,165486399030363 
839	 0,165657083264684 
840	 0,165683071679004 
841	 0,165890731365927 
842	 0,165934449645627 
843	 0,165863814217862 
844	 0,166123880118162 
845	 0,166346194039209 
846	 0,16632441322273 
847	 0,166166319891608 
848	 0,16596617345896 
849	 0,165834003083161 
850	 0,165981319832813 
851	 0,166299906132245 
852	 0,166277084945118 
853	 0,166141530629071 
854	 0,16604209039103 
855	 0,166056505612972 
856	 0,166239660036279 
857	 0,166640908440977 
858	 0,166574483666424 
859	 0,166200052429301 
860	 0,166609917041977 
861	 0,167063561073887 
862	 0,167140796687953 
863	 0,166781176391295 
864	 0,166458492632395 
865	 0,166781806230254 
866	 0,167587098465351 
867	 0,168395680699507 
868	 0,16792282513855 
869	 0,167505826386855 
870	 0,167783212963098 
871	 0,168309324618616 
872	 0,168762175096085 
873	 0,168826900386482 
874	 0,169263249313328 
875	 0,170063400155117 
876	 0,170760668899408 
877	 0,171195618278146 
878	 0,171249723514634 
879	 0,170768942394639 
880	 0,170543063683642 
881	 0,171358300342077 
882	 0,1718422590595 
883	 0,171858202599044 
884	 0,17180929436287 
885	 0,171879430801379 
886	 0,172168864941293 
887	 0,172637696650113 
888	 0,173095576436609 
889	 0,173352687865411 
890	 0,173203015841534 
891	 0,173106385165119 
892	 0,17416622422994 
893	 0,174958258039576 
894	 0,174955422143458 
895	 0,174167494115461 
896	 0,173480541092173 
897	 0,173533326574366 
898	 0,173243635528267 
899	 0,173097875431269 
900	 0,174251686979387 
901	 0,175047872861307 
902	 0,175171865178334 
903	 0,175488035310575 
904	 0,175637765070406 
905	 0,175451789136841 
906	 0,175419382226962 
907	 0,175314926175035 
908	 0,174739625025883 
909	 0,175150412369192 
910	 0,176383226199964 
911	 0,176918801299412 
912	 0,17652154864009 
913	 0,175382754692233 
914	 0,175462375990183 
915	 0,176094639653124 
916	 0,176337390788026 
917	 0,176554093103005 
918	 0,17667242903246 
919	 0,176331215065091 
920	 0,176389437860257 
921	 0,176974120924089 
922	 0,177159515939585 
923	 0,17696268109416 
924	 0,176462000670795 
925	 0,175901552652204 
926	 0,17541801942457 
927	 0,175188976627029 
928	 0,174109753007078 
929	 0,172729608562366 
930	 0,174240221053719 
931	 0,175478901488021 
932	 0,174697543485148 
933	 0,173928546276158 
934	 0,173345937700513 
935	 0,172898632889523 
936	 0,173023955118039 
937	 0,173306014761476 
938	 0,172299333533324 
939	 0,171536642108646 
940	 0,17146889211844 
941	 0,17121913602168 
942	 0,170471590048946 
943	 0,169085224316593 
944	 0,168178213879222 
945	 0,167463013513587 
946	 0,165971538841724 
947	 0,165684178893343 
948	 0,166491678890974 
949	 0,165985348587985 
950	 0,164618196000746 
951	 0,162932300407506 
952	 0,162637119904948 
953	 0,162581263217454 
954	 0,161194704321859 
955	 0,159787666253219 
956	 0,158486625170848 
957	 0,156747874648578 
958	 0,155987382775972 
959	 0,156330719527485 
960	 0,155873307514266 
961	 0,155309793599821 
962	 0,155215789837598 
963	 0,155620743761863 
964	 0,155318021012768 
965	 0,152546270518399 
966	 0,151893226179283 
967	 0,15350962892611 
968	 0,154006821184128 
969	 0,154313013777407 
970	 0,154499079651306 
971	 0,153145675465574 
972	 0,152470386679432 
973	 0,154267512750416 
974	 0,15469250046469 
975	 0,154289431589264 
976	 0,155257915995768 
977	 0,155174054296321 
978	 0,153628097027801 
979	 0,151276420965414 
980	 0,150393851822458 
981	 0,152060134758069 
982	 0,155115193506278 
983	 0,157004219852654 
984	 0,155520745619348 
985	 0,154075731297432 
986	 0,154138121971899 
987	 0,157225849343247 
988	 0,158718950444538 
989	 0,158073467412982 
990	 0,158944702797734 
991	 0,15938825396417 
992	 0,158669378855084 
993	 0,158750302819051 
994	 0,158965164491849 
995	 0,158622998567821 
996	 0,160215166429483 
997	 0,162158796996138 
998	 0,160576482207753 
999	 0,160122054815794 
1000	 0,161291091772513 
1001	 0,160472108569124 
1002	 0,161320737362901 
1003	 0,164864195702024 
1004	 0,166108787627231 
1005	 0,165342474649547 
1006	 0,1636745740765 
1007	 0,165681293903093 
1008	 0,169231021414428 
1009	 0,16909904662593 
1010	 0,169997550792768 
1011	 0,171729551788189 
1012	 0,169138889173886 
1013	 0,16937479603597 
1014	 0,17374028595949 
1015	 0,171671850201196 
1016	 0,167928881188754 
1017	 0,167385188937715 
1018	 0,171119635024288 
1019	 0,175587787194102 
1020	 0,175395440531144 
1021	 0,174783483859353 
1022	 0,17492789864531 
1023	 0,176243742257332 
1024	 0,177863708946658 
1025	 0,178764400729709 
1026	 0,175915838956622 
1027	 0,174313118487005 
1028	 0,17660209503848 
1029	 0,176339333912743 
1030	 0,176146927057307 
1031	 0,179558575807186 
1032	 0,181968041026824 
1033	 0,182252485049006 
1034	 0,18013166344209 
1035	 0,179764926179728 
1036	 0,181587154135748 
1037	 0,182599697975447 
1038	 0,180943774540495 
1039	 0,176879319917056 
1040	 0,176440587906252 
1041	 0,178712422672099 
1042	 0,182256243580958 
1043	 0,184747848947661 
1044	 0,185869229385749 
1045	 0,185991257641091 
1046	 0,189213618481324 
1047	 0,192911266514911 
1048	 0,188866896910417 
1049	 0,18696402316231 
1050	 0,188764990726508 
1051	 0,186601431348032 
1052	 0,191885547615931 
1053	 0,205144861352211 
1054	 0,198124539285465 
1055	 0,188041936388214 
1056	 0,190536834840908 
1057	 0,192306916616291 
1058	 0,190411553562867 
1059	 0,184005059506698 
1060	 0,190253305962668 
1061	 0,201846294131795 
1062	 0,193295795301793 
1063	 0,192122871810678 
1064	 0,20041358025087 
1065	 0,193162361659618 
1066	 0,194360237429005 
1067	 0,20831581830261 
1068	 0,201541436814258 
1069	 0,188278603223338 
1070	 0,183235122088343 
1071	 0,191513641277278 
1072	 0,203839046368237 
1073	 0,207161986283238 
1074	 0,190265341045513 
1075	 0,171488610020701 
