Wavelength	ABBE00162.asd
325	-0,114289337598106 
326	 4,58302028549962E-02 
327	 0,122816034195428 
328	 5,24261815260122E-02 
329	-4,1950266696717E-03 
330	 5,80271194686459E-02 
331	 0,273647283389079 
332	 0,215163719421151 
333	-7,63859114810489E-04 
334	-4,96815314690091E-02 
335	 1,01980203960408E-02 
336	 0,124838430708859 
337	 0,149338367766741 
338	 0,106634910410063 
339	 1,49249314237412E-02 
340	 6,72154051755558E-02 
341	 0,170207428398876 
342	 6,75495271272414E-02 
343	 2,58852659903736E-03 
344	 0,022518245794589 
345	 3,82855800037828E-02 
346	 6,22800855935911E-02 
347	 0,108851469209807 
348	 9,84807413974109E-02 
349	 5,83029744967095E-02 
350	 9,25996669127742E-02 
351	 0,10231796347631 
352	 6,23665170293585E-02 
353	 5,85962373253328E-02 
354	 5,83147870277195E-02 
355	 1,64029939739162E-02 
356	 1,25943414759597E-02 
357	 4,02557163048375E-02 
358	 4,45012564101058E-02 
359	 3,87837034411416E-02 
360	 3,13247152214021E-02 
361	 3,88955125040783E-02 
362	 4,72098364450701E-02 
363	 3,40345353940088E-02 
364	 0,03950763270724 
365	 5,96755987884037E-02 
366	 4,30146655875656E-02 
367	 3,58158204250186E-02 
368	 5,96082963500046E-02 
369	 5,28623333915589E-02 
370	 2,81052557935633E-02 
371	 2,17928613762134E-02 
372	 2,59896640699511E-02 
373	 3,46915626908647E-02 
374	 3,00914383893993E-02 
375	 2,98062565275403E-02 
376	 4,62072044353006E-02 
377	 0,063535055982813 
378	 7,05032528667724E-02 
379	 4,72686539132301E-02 
380	 2,55632240428535E-02 
381	 1,94919220457196E-02 
382	 4,46424931204817E-02 
383	 6,30225842017834E-02 
384	 4,43325959681428E-02 
385	 4,40834981066925E-02 
386	 5,79284036702601E-02 
387	 4,45503334300925E-02 
388	 4,10565493175926E-02 
389	 5,54204960450828E-02 
390	 0,049367808623502 
391	 4,06872182856422E-02 
392	 5,32056349368722E-02 
393	 5,34339894304176E-02 
394	 4,17100350899014E-02 
395	 3,79651857091272E-02 
396	 4,50091429009933E-02 
397	 6,04473701248776E-02 
398	 5,65598675091287E-02 
399	 4,56664473210076E-02 
400	 5,06650381696132E-02 
401	 4,72821212664501E-02 
402	 3,59742079314702E-02 
403	 4,12374698040766E-02 
404	 4,55371794018242E-02 
405	 3,84887838985693E-02 
406	 0,042619419292694 
407	 5,12884951379207E-02 
408	 0,044465397135116 
409	 4,26285452395882E-02 
410	 4,92772272899805E-02 
411	 5,19329280853932E-02 
412	 5,07202800911805E-02 
413	 4,68147533169341E-02 
414	 4,40792319304986E-02 
415	 4,40562429193328E-02 
416	 4,89003202664905E-02 
417	 5,14975649583727E-02 
418	 4,94062548679329E-02 
419	 4,74712209365408E-02 
420	 4,56748620900795E-02 
421	 4,33599870092795E-02 
422	 4,49334239735945E-02 
423	 4,85140446281084E-02 
424	 4,49490522310765E-02 
425	 4,16919492794187E-02 
426	 4,29636715430133E-02 
427	 4,22562579422298E-02 
428	 0,041323861747932 
429	 4,48278313274145E-02 
430	 0,048365252563112 
431	 5,03098580204948E-02 
432	 5,01440702889608E-02 
433	 4,98854077402064E-02 
434	 5,10418280566228E-02 
435	 4,78144001399389E-02 
436	 4,32215718854448E-02 
437	 4,75350798813396E-02 
438	 5,05468238873241E-02 
439	 4,89409707833541E-02 
440	 4,93080591876764E-02 
441	 5,11256895690144E-02 
442	 5,30321935530577E-02 
443	 5,23518166051256E-02 
444	 5,01956408271989E-02 
445	 5,30298405620138E-02 
446	 5,41505207209078E-02 
447	 5,02142265328268E-02 
448	 4,99955975209571E-02 
449	 5,27135421044554E-02 
450	 5,48476041849874E-02 
451	 5,50533526550295E-02 
452	 0,053756054550533 
453	 5,60423101959309E-02 
454	 5,76932542909082E-02 
455	 5,48882985620079E-02 
456	 5,24794439671104E-02 
457	 5,17070094558959E-02 
458	 5,27962374156125E-02 
459	 5,55895923820286E-02 
460	 5,88159881899331E-02 
461	 5,60115206925914E-02 
462	 5,25441435936079E-02 
463	 5,62621444873975E-02 
464	 5,78383868735052E-02 
465	 5,61008537418591E-02 
466	 5,53963014209101E-02 
467	 5,54690340272451E-02 
468	 5,61771780288938E-02 
469	 5,75429843040449E-02 
470	 0,059109079946212 
471	 6,02775257043708E-02 
472	 5,96257760449532E-02 
473	 5,75223704006481E-02 
474	 5,79000279811551E-02 
475	 5,88469642084077E-02 
476	 5,83929745325915E-02 
477	 6,04413229715371E-02 
478	 6,33292269028154E-02 
479	 6,03075541421347E-02 
480	 5,85820649279244E-02 
481	 6,07103173535231E-02 
482	 5,86369892546861E-02 
483	 0,056384385033726 
484	 6,11277391716902E-02 
485	 6,40649809981308E-02 
486	 6,32409985924986E-02 
487	 6,06685621592917E-02 
488	 5,93671584154614E-02 
489	 6,13087192640294E-02 
490	 6,16290376578712E-02 
491	 6,06356093480727E-02 
492	 6,08239290722539E-02 
493	 6,16171983842068E-02 
494	 0,062574478513991 
495	 0,062118428145742 
496	 6,16079650134866E-02 
497	 6,26640253700383E-02 
498	 6,31218796510963E-02 
499	 6,27136009751483E-02 
500	 6,19542456712273E-02 
501	 6,23022315163856E-02 
502	 6,43782020178044E-02 
503	 6,61277421397544E-02 
504	 6,66815825126699E-02 
505	 6,49957605752362E-02 
506	 6,40809955033283E-02 
507	 6,47389893057799E-02 
508	 6,58754944299721E-02 
509	 6,65790043370655E-02 
510	 6,61302699841284E-02 
511	 6,55803930064099E-02 
512	 0,065776405194723 
513	 6,85399986309827E-02 
514	 7,00857699113759E-02 
515	 6,92516695364164E-02 
516	 7,03467590612268E-02 
517	 7,19699549452508E-02 
518	 7,16280788255507E-02 
519	 7,08276343638471E-02 
520	 7,01824686145857E-02 
521	 7,03992995829881E-02 
522	 7,05233250891494E-02 
523	 7,00013454478383E-02 
524	 0,070841856999497 
525	 7,23768614502565E-02 
526	 7,23715887459199E-02 
527	 7,28329377526544E-02 
528	 7,40780177030359E-02 
529	 7,41349764718008E-02 
530	 7,35075482379319E-02 
531	 7,29486447476046E-02 
532	 7,32384364219538E-02 
533	 7,43109324653737E-02 
534	 7,53550362410328E-02 
535	 7,61523465781297E-02 
536	 7,65037050119117E-02 
537	 7,61055944427668E-02 
538	 7,56028795397102E-02 
539	 7,62154861527861E-02 
540	 7,67413984784738E-02 
541	 7,69135819559419E-02 
542	 7,73630534705139E-02 
543	 0,077848465071956 
544	 7,81232936649759E-02 
545	 7,85668667533344E-02 
546	 7,90137118055395E-02 
547	 7,87480526621254E-02 
548	 7,87206892057895E-02 
549	 7,93256596203904E-02 
550	 7,96905162002225E-02 
551	 8,00574892837729E-02 
552	 8,09911201027247E-02 
553	 8,12172457217073E-02 
554	 8,08335721608107E-02 
555	 8,18243319214009E-02 
556	 8,27256893232042E-02 
557	 8,23765229761608E-02 
558	 0,082523068499593 
559	 8,30601859843207E-02 
560	 8,28307930540137E-02 
561	 8,30388923953909E-02 
562	 8,39684326805841E-02 
563	 8,43275487755222E-02 
564	 8,41657665983793E-02 
565	 8,37032441625397E-02 
566	 8,40882333067247E-02 
567	 8,51822686773036E-02 
568	 8,53725980810709E-02 
569	 8,52601048476374E-02 
570	 8,53417283968575E-02 
571	 8,61970656603355E-02 
572	 8,72278036247956E-02 
573	 8,69299192690351E-02 
574	 8,65721178116399E-02 
575	 8,67319388944147E-02 
576	 8,77902822670945E-02 
577	 0,089151178886048 
578	 9,00971879489363E-02 
579	 8,99338379253443E-02 
580	 0,089088258780295 
581	 8,93643612872963E-02 
582	 8,99381777421952E-02 
583	 9,03111159996944E-02 
584	 9,03745524795432E-02 
585	 9,04739681655957E-02 
586	 9,12649397160867E-02 
587	 9,19187958723499E-02 
588	 9,22812137449057E-02 
589	 9,29051693450207E-02 
590	 9,35771666284124E-02 
591	 9,40625625733174E-02 
592	 9,41685932994549E-02 
593	 9,39943752637886E-02 
594	 9,38456386732183E-02 
595	 9,39532552692715E-02 
596	 9,43867396807955E-02 
597	 9,47341929979779E-02 
598	 9,48233579992999E-02 
599	 9,44640804123685E-02 
600	 9,44665838255954E-02 
601	 9,49596814443143E-02 
602	 9,54912539476583E-02 
603	 9,57038842008041E-02 
604	 9,53616025303893E-02 
605	 9,50926704250015E-02 
606	 9,50256394857509E-02 
607	 9,51708815228197E-02 
608	 9,52971180558144E-02 
609	 0,09531385030715 
610	 9,53994919287962E-02 
611	 9,53102762316361E-02 
612	 9,47411311970552E-02 
613	 9,42215444143601E-02 
614	 9,40971378282075E-02 
615	 0,095020165097079 
616	 9,58548125894273E-02 
617	 9,58364129156307E-02 
618	 9,52189058427876E-02 
619	 0,094681299763748 
620	 9,54955866265042E-02 
621	 9,60781999681892E-02 
622	 9,59109733619751E-02 
623	 9,51876984099769E-02 
624	 9,50381762740735E-02 
625	 9,64972508652759E-02 
626	 9,64127658197399E-02 
627	 9,51191205344915E-02 
628	 9,56305820304234E-02 
629	 0,096331246314648 
630	 9,64648131035756E-02 
631	 9,67881474409279E-02 
632	 9,71954261226027E-02 
633	 9,74150025441165E-02 
634	 9,72236356059716E-02 
635	 9,68743862405012E-02 
636	 9,76971705586996E-02 
637	 9,84589254079702E-02 
638	 9,81579070107702E-02 
639	 9,83552773777265E-02 
640	 9,89424662533709E-02 
641	 9,88926148320167E-02 
642	 9,89587105017224E-02 
643	 9,93504046124605E-02 
644	 9,94187289419766E-02 
645	 9,94880131950394E-02 
646	 0,10004889472815 
647	 0,100211981582003 
648	 9,99966494806473E-02 
649	 0,10034433835682 
650	 0,10048565844931 
651	 9,99941175845911E-02 
652	 0,100032817733962 
653	 0,100224616695825 
654	 9,94537356872642E-02 
655	 9,85403383156628E-02 
656	 9,78874640904188E-02 
657	 9,79866661900121E-02 
658	 9,80698238726445E-02 
659	 9,73508106316809E-02 
660	 9,70411152231411E-02 
661	 9,70998401383884E-02 
662	 9,65999501802404E-02 
663	 9,62733116085781E-02 
664	 9,63872465988413E-02 
665	 9,61275951982418E-02 
666	 9,55386297553239E-02 
667	 9,48076013362964E-02 
668	 9,46269663449995E-02 
669	 0,095038361047381 
670	 9,53037004420113E-02 
671	 9,54772812240206E-02 
672	 9,55891330142104E-02 
673	 9,52874737961373E-02 
674	 9,48843246377836E-02 
675	 9,52555035776564E-02 
676	 9,56170421533194E-02 
677	 9,57067208663952E-02 
678	 9,57551318302941E-02 
679	 9,60064441791429E-02 
680	 9,67149346693093E-02 
681	 9,72067049227764E-02 
682	 9,74526936872899E-02 
683	 9,78996724247881E-02 
684	 9,85012644615702E-02 
685	 9,91849260753821E-02 
686	 9,94611390903159E-02 
687	 9,98704433364947E-02 
688	 0,101520427369572 
689	 0,102780329638807 
690	 0,103289806668489 
691	 0,103873592872197 
692	 0,104679800065583 
693	 0,105807973725885 
694	 0,107098797208774 
695	 0,108511929111664 
696	 0,110070323719863 
697	 0,111613767207428 
698	 0,113032858135301 
699	 0,114211958277498 
700	 0,115262375549401 
701	 0,116336513751079 
702	 0,117739003762117 
703	 0,119451325005126 
704	 0,12125869713525 
705	 0,122491841261466 
706	 0,122884834574992 
707	 0,124193445552876 
708	 0,125796157628305 
709	 0,126013943955929 
710	 0,126585473315972 
711	 0,127868783870364 
712	 0,128901814586836 
713	 0,129649520200546 
714	 0,130144564151897 
715	 0,130873854457165 
716	 0,131679071873314 
717	 0,131788097246163 
718	 0,132322903069204 
719	 0,133534328353905 
720	 0,133843494330682 
721	 0,133913284745645 
722	 0,134767253742069 
723	 0,135163561199837 
724	 0,135104024581598 
725	 0,135579127845115 
726	 0,136225831535874 
727	 0,136797199957543 
728	 0,137264447691977 
729	 0,137468076951545 
730	 0,137104977258527 
731	 0,137157039461293 
732	 0,13780433769001 
733	 0,138326002737621 
734	 0,138749909940512 
735	 0,13911207636175 
736	 0,139276381778022 
737	 0,139385946063188 
738	 0,139847858136134 
739	 0,140286805761001 
740	 0,140542838766083 
741	 0,140613692482404 
742	 0,140609468121991 
743	 0,140661227405392 
744	 0,140848052961353 
745	 0,141150272346129 
746	 0,141448387662893 
747	 0,141699120688438 
748	 0,141876325223464 
749	 0,142022543420204 
750	 0,142163816133898 
751	 0,142331663804497 
752	 0,142451804717796 
753	 0,142491541789462 
754	 0,142349749652573 
755	 0,142476172867214 
756	 0,143127944852342 
757	 0,143477091896078 
758	 0,143508793171621 
759	 0,143451258295915 
760	 0,143574338600116 
761	 0,143950549737587 
762	 0,144371585070527 
763	 0,144689428184748 
764	 0,144792692536286 
765	 0,144958996188855 
766	 0,145230096863885 
767	 0,145581014712371 
768	 0,145830291971783 
769	 0,145904313947915 
770	 0,145859990509311 
771	 0,145942557770776 
772	 0,146412760189982 
773	 0,146521780497481 
774	 0,146359167151752 
775	 0,146774933411216 
776	 0,147099073113564 
777	 0,147064110069214 
778	 0,14740809721438 
779	 0,147803582946261 
780	 0,1476541089411 
781	 0,147873817040202 
782	 0,148462284533733 
783	 0,148519173734012 
784	 0,148488343196612 
785	 0,148649103641883 
786	 0,148736713592813 
787	 0,148745056956084 
788	 0,148714489477391 
789	 0,148764080031979 
790	 0,14893652363358 
791	 0,149216398737223 
792	 0,149512094088772 
793	 0,149722494742868 
794	 0,149563259276993 
795	 0,149364930177081 
796	 0,149938782903151 
797	 0,150417340635174 
798	 0,150527066579576 
799	 0,150509710409751 
800	 0,150495166127741 
801	 0,150601851547723 
802	 0,150850191721458 
803	 0,151149981555773 
804	 0,151283950871906 
805	 0,151344623096119 
806	 0,151352010545821 
807	 0,151206456688436 
808	 0,15122899163507 
809	 0,151719442949018 
810	 0,151592160117502 
811	 0,151101170881582 
812	 0,151678472988689 
813	 0,151858476560126 
814	 0,151260320440204 
815	 0,151495889180376 
816	 0,15224782540902 
817	 0,15295335081475 
818	 0,153040632128034 
819	 0,152672113084496 
820	 0,15279036353648 
821	 0,152970086017571 
822	 0,153060980546852 
823	 0,153376724282205 
824	 0,153670215318848 
825	 0,153602675253023 
826	 0,153686153578994 
827	 0,153919139730484 
828	 0,153869526070561 
829	 0,153879590862308 
830	 0,154112612139028 
831	 0,154390047373513 
832	 0,154618965525914 
833	 0,154706687919538 
834	 0,15461519389049 
835	 0,154450397423586 
836	 0,154570607860417 
837	 0,154679749755811 
838	 0,154635060861363 
839	 0,1546367685948 
840	 0,154732874944763 
841	 0,154958170169368 
842	 0,154853094373336 
843	 0,15452991946701 
844	 0,154755425886009 
845	 0,155068636955219 
846	 0,155178887095291 
847	 0,154965829322316 
848	 0,154719394604906 
849	 0,154859959908576 
850	 0,154918741179445 
851	 0,154838291161614 
852	 0,154851344978301 
853	 0,154762727759914 
854	 0,154582110008449 
855	 0,155087094055059 
856	 0,155834070704459 
857	 0,156113247413694 
858	 0,155402315120498 
859	 0,154334957697302 
860	 0,155409755608106 
861	 0,156165820852786 
862	 0,155516363820652 
863	 0,155443477267575 
864	 0,15565044699225 
865	 0,155499134778207 
866	 0,156047512367476 
867	 0,156909688617352 
868	 0,156193042235211 
869	 0,155434313795549 
870	 0,155461277653675 
871	 0,156465217035285 
872	 0,157178232382634 
873	 0,156146655203454 
874	 0,155788879040018 
875	 0,156384282271252 
876	 0,157092304270229 
877	 0,157737757695853 
878	 0,158052147313335 
879	 0,157395306928736 
880	 0,156536704383165 
881	 0,156345608916948 
882	 0,156326820304291 
883	 0,156411935339221 
884	 0,156676770991663 
885	 0,156895726480937 
886	 0,157050674331137 
887	 0,157590442372255 
888	 0,158048323473658 
889	 0,157969656702308 
890	 0,157462924023671 
891	 0,157054169767784 
892	 0,157842429918345 
893	 0,158362012889129 
894	 0,158209465921686 
895	 0,1580379349386 
896	 0,157670036436082 
897	 0,157046483115955 
898	 0,157028943297034 
899	 0,157293514110317 
900	 0,156992319190099 
901	 0,157137447996439 
902	 0,157933942876102 
903	 0,159248356234889 
904	 0,159458946242058 
905	 0,157902676217865 
906	 0,157707534965198 
907	 0,158377364952314 
908	 0,158628533736601 
909	 0,158731811015887 
910	 0,158814406989915 
911	 0,159181324476791 
912	 0,159662482234259 
913	 0,159993941736475 
914	 0,159164269335592 
915	 0,158327149991939 
916	 0,158800914081896 
917	 0,159459457226815 
918	 0,159958002577136 
919	 0,160026676374424 
920	 0,160270062467814 
921	 0,160735570493307 
922	 0,160524024509671 
923	 0,160428495271954 
924	 0,160994528224955 
925	 0,160416559056252 
926	 0,159531658555863 
927	 0,160374767488446 
928	 0,160339426996455 
929	 0,159342051636454 
930	 0,159741493768043 
931	 0,161123105699034 
932	 0,162810416899376 
933	 0,162211776185924 
934	 0,160634734270559 
935	 0,160162535241065 
936	 0,160800666157087 
937	 0,161799581146777 
938	 0,160811320225707 
939	 0,160734977225829 
940	 0,162166601732892 
941	 0,162142286681361 
942	 0,161540222583195 
943	 0,161302360915658 
944	 0,161357898574266 
945	 0,161242184149953 
946	 0,160030005860616 
947	 0,160037789651449 
948	 0,16134432879747 
949	 0,161587411484861 
950	 0,161817824732293 
951	 0,162481307564219 
952	 0,162493851125339 
953	 0,162110601678694 
954	 0,161775685320146 
955	 0,161313929330642 
956	 0,161055955483719 
957	 0,16192699867892 
958	 0,162397445507053 
959	 0,162123201516238 
960	 0,162308612602389 
961	 0,162476423942129 
962	 0,16226525327749 
963	 0,162140892128371 
964	 0,161750893015671 
965	 0,160479729031687 
966	 0,160840908155081 
967	 0,162683753002147 
968	 0,163589039631649 
969	 0,163859389286719 
970	 0,163534195178964 
971	 0,162446677578641 
972	 0,161712117269553 
973	 0,162311359234788 
974	 0,163571797833738 
975	 0,16493661419216 
976	 0,165788843605635 
977	 0,163746982860061 
978	 0,160219682816831 
979	 0,16236477797059 
980	 0,163887543103306 
981	 0,162408093306727 
982	 0,163910856035109 
983	 0,165766682855532 
984	 0,165003232495998 
985	 0,164089300601719 
986	 0,164050599596323 
987	 0,165963983749854 
988	 0,167734465935263 
989	 0,168477667066867 
990	 0,167839854554297 
991	 0,166431931686381 
992	 0,164897115343102 
993	 0,164471929615728 
994	 0,164091296104369 
995	 0,162893926073665 
996	 0,166263340681089 
997	 0,170730662681833 
998	 0,16785113517053 
999	 0,166551137452369 
1000	 0,167871307779466 
1001	 0,165457557770991 
1002	 0,165422552355247 
1003	 0,169530181819051 
1004	 0,169393209381355 
1005	 0,166717898445626 
1006	 0,16431758086137 
1007	 0,16735446298053 
1008	 0,172027923119626 
1009	 0,170048890010024 
1010	 0,16972994803495 
1011	 0,17170493175164 
1012	 0,170717321312979 
1013	 0,169005293912881 
1014	 0,167653864286461 
1015	 0,167002348121102 
1016	 0,166167590548383 
1017	 0,164959243594627 
1018	 0,169209569284417 
1019	 0,173342674084856 
1020	 0,168352949706359 
1021	 0,168109825431955 
1022	 0,172551909428044 
1023	 0,171967879293212 
1024	 0,171727258504993 
1025	 0,172896529128781 
1026	 0,172436785093494 
1027	 0,171022044227592 
1028	 0,169712972605423 
1029	 0,171811233440938 
1030	 0,174988793160403 
1031	 0,17605340714148 
1032	 0,174865195546281 
1033	 0,17388724711477 
1034	 0,178321101281619 
1035	 0,176126376487332 
1036	 0,168683140195936 
1037	 0,173476228442637 
1038	 0,176609184767592 
1039	 0,173286433805512 
1040	 0,174096252187148 
1041	 0,173895745268293 
1042	 0,169433473771969 
1043	 0,173295238391006 
1044	 0,179474617482975 
1045	 0,177943071976495 
1046	 0,176708893930147 
1047	 0,177249649435392 
1048	 0,17866354811693 
1049	 0,182739340389801 
1050	 0,186486534434373 
1051	 0,175753205728484 
1052	 0,172303935746885 
1053	 0,183258224981255 
1054	 0,182398816491485 
1055	 0,178161168361064 
1056	 0,179100786429661 
1057	 0,182414085735646 
1058	 0,181852638944681 
1059	 0,170352922848087 
1060	 0,170707213443453 
1061	 0,178584932529075 
1062	 0,171768994903305 
1063	 0,173709571150202 
1064	 0,184547848765252 
1065	 0,178204851629297 
1066	 0,174780230123294 
1067	 0,180422827632551 
1068	 0,179458532547849 
1069	 0,172032371623062 
1070	 0,161833700613864 
1071	 0,164699969755921 
1072	 0,176404142068104 
1073	 0,188413584846816 
1074	 0,189960194426577 
1075	 0,184089096835432 
