Wavelength	ABBE00064.asd
325	 0,118431991432879 
326	 0,258048807635585 
327	 0,298650247433435 
328	 0,203225343625355 
329	 0,114341522049433 
330	 9,55707636583694E-02 
331	 0,168124066733733 
332	 0,198349219672696 
333	 0,192090854881553 
334	 0,214445759003814 
335	 0,211308422616845 
336	 0,179631575521439 
337	 0,146275255575727 
338	 0,145944296587615 
339	 0,209045222412738 
340	 0,22320745817462 
341	 0,178005930950113 
342	 0,110354356150776 
343	 0,109717397071642 
344	 0,177656420997703 
345	 0,189810457778567 
346	 0,187637132679837 
347	 0,217726733804137 
348	 0,254969985762793 
349	 0,271335623826231 
350	 0,201216415403556 
351	 0,179952176397148 
352	 0,241738989547209 
353	 0,266789810932031 
354	 0,24814956911337 
355	 0,195300653456297 
356	 0,174944189850947 
357	 0,194214401408572 
358	 0,24424338402692 
359	 0,264214490327171 
360	 0,234003575784421 
361	 0,225906650284842 
362	 0,23486645393617 
363	 0,241223616903354 
364	 0,253105297590323 
365	 0,266101572122002 
366	 0,257496791582148 
367	 0,259931389472566 
368	 0,285881172977826 
369	 0,270291481103817 
370	 0,239737227937953 
371	 0,259099681477417 
372	 0,266178540006753 
373	 0,250058168280836 
374	 0,239834667995034 
375	 0,247191930487598 
376	 0,276379645801227 
377	 0,28952461288714 
378	 0,288524359359722 
379	 0,289705803439672 
380	 0,289144102126642 
381	 0,286887522882195 
382	 0,286468107574393 
383	 0,284502998650549 
384	 0,278179934813376 
385	 0,281477309794069 
386	 0,288007104199793 
387	 0,272745143864098 
388	 0,267469874606617 
389	 0,280242437867662 
390	 0,283438448251494 
391	 0,283155937144111 
392	 0,288823314972171 
393	 0,28818826235846 
394	 0,284587734609404 
395	 0,295170331981353 
396	 0,304594734803311 
397	 0,305182763978925 
398	 0,306895919803642 
399	 0,307088005026894 
400	 0,300018140104664 
401	 0,296334889872508 
402	 0,296742447950303 
403	 0,291918917310066 
404	 0,289514887817563 
405	 0,293908507912281 
406	 0,295648646829816 
407	 0,294425286342057 
408	 0,291519281839531 
409	 0,29657078658145 
410	 0,307812775656647 
411	 0,302385253767139 
412	 0,294100797735546 
413	 0,296108690787454 
414	 0,295971854572486 
415	 0,294029077073534 
416	 0,296705114111307 
417	 0,300362121510874 
418	 0,302440991284389 
419	 0,297286601373646 
420	 0,291082299375466 
421	 0,292084513018221 
422	 0,293957301322648 
423	 0,295359619306195 
424	 0,297253668273798 
425	 0,298541101159079 
426	 0,298511812819456 
427	 0,297296230836493 
428	 0,296663998763665 
429	 0,299524032965625 
430	 0,304176981214261 
431	 0,308260307585505 
432	 0,305026382998365 
433	 0,300301235329158 
434	 0,299249457579033 
435	 0,297326596798528 
436	 0,295830980353613 
437	 0,300139247292612 
438	 0,303477764482915 
439	 0,303319123100758 
440	 0,302794737172706 
441	 0,303056745498963 
442	 0,305147482661939 
443	 0,306713428480574 
444	 0,30738755601951 
445	 0,308423005934608 
446	 0,307949187383916 
447	 0,305500881884983 
448	 0,307366978686333 
449	 0,311275997136507 
450	 0,311641477519295 
451	 0,310824831236635 
452	 0,30991055361018 
453	 0,310563271316461 
454	 0,311768947366448 
455	 0,312536673471172 
456	 0,313726581962531 
457	 0,314398948704308 
458	 0,311200245684951 
459	 0,310864084183764 
460	 0,315173070459097 
461	 0,31520884433428 
462	 0,314320650425929 
463	 0,318067961836126 
464	 0,318127442150568 
465	 0,314403323181679 
466	 0,313479415236547 
467	 0,315151697546904 
468	 0,318767083423538 
469	 0,319724455777755 
470	 0,318926902831043 
471	 0,319855058757441 
472	 0,318923988339837 
473	 0,316450780604276 
474	 0,319083097144231 
475	 0,322109569783167 
476	 0,320762266659656 
477	 0,320968486773329 
478	 0,322485494060578 
479	 0,321383226619719 
480	 0,319971213520784 
481	 0,319285439370742 
482	 0,318487377101567 
483	 0,317717458577277 
484	 0,31725034281963 
485	 0,317831278509689 
486	 0,319169634558777 
487	 0,319783453448319 
488	 0,318999382694431 
489	 0,316695544936283 
490	 0,317184382758065 
491	 0,319161402679137 
492	 0,317996099227777 
493	 0,317095619123481 
494	 0,317468522861186 
495	 0,318024730110431 
496	 0,318306363348317 
497	 0,317904269814704 
498	 0,317037110421902 
499	 0,316370478043416 
500	 0,317537937623418 
501	 0,319295920584185 
502	 0,320832361139032 
503	 0,321974891667574 
504	 0,322723570348915 
505	 0,323144416782106 
506	 0,323703820960705 
507	 0,324481334923111 
508	 0,325052037655902 
509	 0,325613591970606 
510	 0,326339154929839 
511	 0,326709594250115 
512	 0,327314988078528 
513	 0,330201688076818 
514	 0,331683465508626 
515	 0,3306857382845 
516	 0,331516495601022 
517	 0,333167532368323 
518	 0,333645287005312 
519	 0,334148628929613 
520	 0,334717298546195 
521	 0,334531014888582 
522	 0,33399784997359 
523	 0,333524697946509 
524	 0,334016614990002 
525	 0,334996194992342 
526	 0,335119084104755 
527	 0,335084791250818 
528	 0,335051966529652 
529	 0,33469596633513 
530	 0,334221180125085 
531	 0,333876129220481 
532	 0,332765682507817 
533	 0,331552017043614 
534	 0,332912042033788 
535	 0,334164149778318 
536	 0,333814007419273 
537	 0,333677936080246 
538	 0,333932733426883 
539	 0,33448467471272 
540	 0,334755502538302 
541	 0,334618505061428 
542	 0,334513078633976 
543	 0,334440445692523 
544	 0,334398408866878 
545	 0,334868941524184 
546	 0,335578527005179 
547	 0,33547935058191 
548	 0,335619768028558 
549	 0,33636343197454 
550	 0,336431352587386 
551	 0,336297885001871 
552	 0,336937130747652 
553	 0,337117556688023 
554	 0,336697365919273 
555	 0,336720012183748 
556	 0,336238587138495 
557	 0,334630439183602 
558	 0,334680070202614 
559	 0,335635491171879 
560	 0,334312268905906 
561	 0,33294178476459 
562	 0,33240023198347 
563	 0,332219752942221 
564	 0,332125746525529 
565	 0,331801531583225 
566	 0,332010900749126 
567	 0,332692808505643 
568	 0,33286976643671 
569	 0,333358549297361 
570	 0,334655410192033 
571	 0,33567883094566 
572	 0,336537463779605 
573	 0,337805776224137 
574	 0,339448179619241 
575	 0,341470592227096 
576	 0,343907402182838 
577	 0,346258980387665 
578	 0,347992617400105 
579	 0,349670399442298 
580	 0,35129419570623 
581	 0,352459591250283 
582	 0,35352078036069 
583	 0,354643805978442 
584	 0,355277601338531 
585	 0,35610653077488 
586	 0,35848332693142 
587	 0,360317034698931 
588	 0,36103247529542 
589	 0,361255023606536 
590	 0,361664165346062 
591	 0,362822771411714 
592	 0,363720211548694 
593	 0,364212104698446 
594	 0,364442739214627 
595	 0,364894414522169 
596	 0,365683098764528 
597	 0,365789666191331 
598	 0,365727837804423 
599	 0,36645395160775 
600	 0,366287180596212 
601	 0,365232347426666 
602	 0,365215813621148 
603	 0,365297011996441 
604	 0,364686591825745 
605	 0,363480165980562 
606	 0,362162040566098 
607	 0,361840564003645 
608	 0,361525116247291 
609	 0,360927929547015 
610	 0,360791259130514 
611	 0,360392851721387 
612	 0,358804294877122 
613	 0,357385989008375 
614	 0,356616290732991 
615	 0,356864342791362 
616	 0,356893815406168 
617	 0,355933597463969 
618	 0,354784301572405 
619	 0,353979283340831 
620	 0,354331941570116 
621	 0,354551267170651 
622	 0,354283064373275 
623	 0,354099704490104 
624	 0,354334667512971 
625	 0,355239253618663 
626	 0,355259885144386 
627	 0,354718308156012 
628	 0,355558933978002 
629	 0,3565643278519 
630	 0,357098714514648 
631	 0,357402335027008 
632	 0,357653606847175 
633	 0,358070633337512 
634	 0,35893325032758 
635	 0,360173626904257 
636	 0,361119732735255 
637	 0,362028158013391 
638	 0,363140163834698 
639	 0,364452581980174 
640	 0,365740639127606 
641	 0,366461747335809 
642	 0,367182580350975 
643	 0,368038182303682 
644	 0,368386983480539 
645	 0,368527054999546 
646	 0,368914341420436 
647	 0,369063934676289 
648	 0,368888741456176 
649	 0,368590481231223 
650	 0,367953834084434 
651	 0,366837342283908 
652	 0,365286941314597 
653	 0,363642301116474 
654	 0,362547643951944 
655	 0,361354335658067 
656	 0,359867771604685 
657	 0,358404224976474 
658	 0,35648000622632 
659	 0,353640088880581 
660	 0,351415456325334 
661	 0,34973863494121 
662	 0,347290032217728 
663	 0,345138816382231 
664	 0,343710148992869 
665	 0,342009183391821 
666	 0,340051659939719 
667	 0,338018813826417 
668	 0,336545442524969 
669	 0,335706856369514 
670	 0,334858149322239 
671	 0,334405085664523 
672	 0,334595377969687 
673	 0,334356448399059 
674	 0,33365649029798 
675	 0,332863676903702 
676	 0,332262215552385 
677	 0,332031217095474 
678	 0,332229592758479 
679	 0,332644478458543 
680	 0,333020923211366 
681	 0,333558391247083 
682	 0,334318561673681 
683	 0,3352787345089 
684	 0,336601997513736 
685	 0,33844620128626 
686	 0,341013066346705 
687	 0,344444004266408 
688	 0,348978414560333 
689	 0,353448538331476 
690	 0,357738387055282 
691	 0,362982088857874 
692	 0,369328797503846 
693	 0,376809458581189 
694	 0,384508351233083 
695	 0,392431943479545 
696	 0,401238417216365 
697	 0,410005369129707 
698	 0,418401341570138 
699	 0,426967704050173 
700	 0,435858481889831 
701	 0,445206606429717 
702	 0,45414633811349 
703	 0,462433013188858 
704	 0,470261370638979 
705	 0,477746604535483 
706	 0,484973660459739 
707	 0,492048243559238 
708	 0,498592016805115 
709	 0,503850212884533 
710	 0,509243828981434 
711	 0,514962331657303 
712	 0,519726019757678 
713	 0,523747300967132 
714	 0,52729951984541 
715	 0,530710446118449 
716	 0,534040118914249 
717	 0,537184628180438 
718	 0,540265850443794 
719	 0,543206450007527 
720	 0,545336936036082 
721	 0,547089707130318 
722	 0,549077898011596 
723	 0,550898750539777 
724	 0,552486046047487 
725	 0,553849366899322 
726	 0,555264676615876 
727	 0,556830855781534 
728	 0,557805280444425 
729	 0,558454393718841 
730	 0,559433594625475 
731	 0,560299034231418 
732	 0,560986771446747 
733	 0,56177613151091 
734	 0,562528048307571 
735	 0,563118261666232 
736	 0,563692932750532 
737	 0,56423510974283 
738	 0,564587034882817 
739	 0,565162345231318 
740	 0,565953350837675 
741	 0,565985076215377 
742	 0,565751413691862 
743	 0,565914046327237 
744	 0,566349445618893 
745	 0,566915807805912 
746	 0,56730838278075 
747	 0,567360002836595 
748	 0,567085866568678 
749	 0,567347971412541 
750	 0,567731261966398 
751	 0,567419867374914 
752	 0,567525596380681 
753	 0,568088962685125 
754	 0,56810313948382 
755	 0,567819362447261 
756	 0,567495511340576 
757	 0,567677411433402 
758	 0,568078838177419 
759	 0,567901938568207 
760	 0,567975206790038 
761	 0,56840191849049 
762	 0,568376628045108 
763	 0,568188760534886 
764	 0,568155088627067 
765	 0,56827051225464 
766	 0,568500365824196 
767	 0,568745684742021 
768	 0,569005257513761 
769	 0,569215767702211 
770	 0,569076586465254 
771	 0,568939745833735 
772	 0,569231985243704 
773	 0,569340505522127 
774	 0,569255769112826 
775	 0,569413496396565 
776	 0,569488928577861 
777	 0,569358664802584 
778	 0,569421126771542 
779	 0,569479058628206 
780	 0,569177711599278 
781	 0,569145718323731 
782	 0,569373575079212 
783	 0,569164905307213 
784	 0,56905736045723 
785	 0,5693502414836 
786	 0,569408379058323 
787	 0,569233270650579 
788	 0,568970623325584 
789	 0,569018529445502 
790	 0,569331315613975 
791	 0,569140652808179 
792	 0,568863564866642 
793	 0,56884566906083 
794	 0,568895711091975 
795	 0,568883034224897 
796	 0,568580338651135 
797	 0,568357843267017 
798	 0,568319659758016 
799	 0,568299504806448 
800	 0,568191876414956 
801	 0,567927464956927 
802	 0,567832100134976 
803	 0,567943091736085 
804	 0,568232390288495 
805	 0,568278847669726 
806	 0,568029992406917 
807	 0,568196911986418 
808	 0,568511081489467 
809	 0,568632602160144 
810	 0,568704844554585 
811	 0,568774769890141 
812	 0,568888851443173 
813	 0,569114743658319 
814	 0,569381267821159 
815	 0,569072337479527 
816	 0,568761888357997 
817	 0,569169025892979 
818	 0,569672307810559 
819	 0,569966027294726 
820	 0,569583360897789 
821	 0,569321770044201 
822	 0,569535473475923 
823	 0,569705263820724 
824	 0,569870638345047 
825	 0,570143739506343 
826	 0,570295839965577 
827	 0,570319047979843 
828	 0,57034140274456 
829	 0,570540517307366 
830	 0,570957362727548 
831	 0,571172979150987 
832	 0,571241521249067 
833	 0,571306522946656 
834	 0,571507474973363 
835	 0,57178382208994 
836	 0,571798549962601 
837	 0,571836630381901 
838	 0,571987251742785 
839	 0,571725923145482 
840	 0,571350935381266 
841	 0,571350518019211 
842	 0,571579730862928 
843	 0,571814938396581 
844	 0,57141020918734 
845	 0,571229428438798 
846	 0,571622407918738 
847	 0,571429356532416 
848	 0,5709823142556 
849	 0,570927394063914 
850	 0,57084122689397 
851	 0,570716685325781 
852	 0,570885247955419 
853	 0,570901764366395 
854	 0,570578805062057 
855	 0,570427120172685 
856	 0,570427452238976 
857	 0,570470334739114 
858	 0,570087954914736 
859	 0,569597422499099 
860	 0,570460674484239 
861	 0,570950101183357 
862	 0,570406862973925 
863	 0,570942445268604 
864	 0,571746784454321 
865	 0,571514337371627 
866	 0,571784509783131 
867	 0,572532248939268 
868	 0,57261173758161 
869	 0,572442667571468 
870	 0,572285511048394 
871	 0,572460499936977 
872	 0,572762607813406 
873	 0,572914117500854 
874	 0,57345520950499 
875	 0,574138473794107 
876	 0,57395385191696 
877	 0,573724071135838 
878	 0,573762432182607 
879	 0,573656924144822 
880	 0,573655642409381 
881	 0,574013554367017 
882	 0,573930000950836 
883	 0,573561929495993 
884	 0,573746118266511 
885	 0,574023200732033 
886	 0,574212213855216 
887	 0,574267751312757 
888	 0,57423850220919 
889	 0,574180835117908 
890	 0,574085594366043 
891	 0,574082728264478 
892	 0,574476974282614 
893	 0,57460509409965 
894	 0,574301340632907 
895	 0,573914524127021 
896	 0,573640964067803 
897	 0,573634915300857 
898	 0,573885952865967 
899	 0,574171776363007 
900	 0,574101932151471 
901	 0,574344460145108 
902	 0,574844558113827 
903	 0,574656066779989 
904	 0,574498676256458 
905	 0,574759540988707 
906	 0,574716051211578 
907	 0,574466285298305 
908	 0,574270350843327 
909	 0,574539613699084 
910	 0,575095347167499 
911	 0,575026607468235 
912	 0,575032673026012 
913	 0,57527422756342 
914	 0,574564453559803 
915	 0,57407080475431 
916	 0,575080053242834 
917	 0,575432823797139 
918	 0,575063711931296 
919	 0,574992360590361 
920	 0,574815936988704 
921	 0,574507056832087 
922	 0,574363943290758 
923	 0,57459220643745 
924	 0,575245246063797 
925	 0,575306342426985 
926	 0,574924442296116 
927	 0,574724305396445 
928	 0,573808614991382 
929	 0,572436525023775 
930	 0,572210719882419 
931	 0,572905409178957 
932	 0,574061634672486 
933	 0,573670895302844 
934	 0,572784768969301 
935	 0,573022818496158 
936	 0,572792207936494 
937	 0,572081996296839 
938	 0,571815297179181 
939	 0,571628691705401 
940	 0,571366297857715 
941	 0,570741594454565 
942	 0,570839445113282 
943	 0,572279397799878 
944	 0,570986402415554 
945	 0,568508444268214 
946	 0,568989597273781 
947	 0,568723046463008 
948	 0,567237438406561 
949	 0,566640663380838 
950	 0,566840388222971 
951	 0,567396297586662 
952	 0,565695002573068 
953	 0,564036018704259 
954	 0,565309387160504 
955	 0,564297159210557 
956	 0,561520861849352 
957	 0,561049743592061 
958	 0,561553703111406 
959	 0,562156619136522 
960	 0,560735634797538 
961	 0,559454188047064 
962	 0,55989024919051 
963	 0,560250266367941 
964	 0,560084590882638 
965	 0,559124384330636 
966	 0,559454254383562 
967	 0,560800975390549 
968	 0,560533971727696 
969	 0,560564827438364 
970	 0,561353162163401 
971	 0,560826810640307 
972	 0,560337361051156 
973	 0,561003904522895 
974	 0,559858592919746 
975	 0,558183501171954 
976	 0,559128610131059 
977	 0,558353510067961 
978	 0,556238173710547 
979	 0,558577143198649 
980	 0,559239393591306 
981	 0,556336087769452 
982	 0,5579308653108 
983	 0,560933910854533 
984	 0,561555297572053 
985	 0,560986492492108 
986	 0,560039024686291 
987	 0,559866822338115 
988	 0,561058927598504 
989	 0,563114978248529 
990	 0,56370348241038 
991	 0,563762848819383 
992	 0,56357304545238 
993	 0,561636421593765 
994	 0,56010994458907 
995	 0,561268294936689 
996	 0,564328713185562 
997	 0,566835659061398 
998	 0,564439605489956 
999	 0,564176949554333 
1000	 0,566967546554669 
1001	 0,568583530225321 
1002	 0,567922486797441 
1003	 0,565382890806826 
1004	 0,567065724264034 
1005	 0,569263922003998 
1006	 0,568198604163147 
1007	 0,568309644700596 
1008	 0,569794740155002 
1009	 0,571677424526588 
1010	 0,572258231287746 
1011	 0,571246166845249 
1012	 0,569204127969459 
1013	 0,56905737405595 
1014	 0,57148981117203 
1015	 0,572462355916444 
1016	 0,572346949082962 
1017	 0,572006691721351 
1018	 0,574638505514658 
1019	 0,577300341436209 
1020	 0,575138430943347 
1021	 0,574183712404854 
1022	 0,574853288819371 
1023	 0,574049297317134 
1024	 0,57434110625609 
1025	 0,575717246015162 
1026	 0,57421046024995 
1027	 0,572634867995031 
1028	 0,572914640009655 
1029	 0,57369794759401 
1030	 0,576480434983835 
1031	 0,58241576242249 
1032	 0,58072430413826 
1033	 0,575503800827917 
1034	 0,579374797132359 
1035	 0,579605108485899 
1036	 0,575302536490591 
1037	 0,575977098874928 
1038	 0,578837780723834 
1039	 0,581522637960619 
1040	 0,578363132210417 
1041	 0,575314459964444 
1042	 0,577268486079929 
1043	 0,580308800755847 
1044	 0,581626882874591 
1045	 0,57853351760309 
1046	 0,578577198319662 
1047	 0,580570432973273 
1048	 0,577266717324093 
1049	 0,578368464695594 
1050	 0,584581902477109 
1051	 0,586671203173057 
1052	 0,588443633905819 
1053	 0,590532546581943 
1054	 0,586091990251735 
1055	 0,581650830034229 
1056	 0,582887191036055 
1057	 0,584647364685593 
1058	 0,583920773347501 
1059	 0,578151759235733 
1060	 0,579005108130042 
1061	 0,583582189314537 
1062	 0,57865216293023 
1063	 0,584673081194139 
1064	 0,597448484603761 
1065	 0,577612084301314 
1066	 0,566534573737266 
1067	 0,577039137134883 
1068	 0,574446220090927 
1069	 0,569188471464085 
1070	 0,570487970271384 
1071	 0,571996628234395 
1072	 0,577606205391679 
1073	 0,590398424603247 
1074	 0,580325698511393 
1075	 0,559154628018209 
