Wavelength	ABBE00296.asd
325	 0,197455931463033 
326	-0,013253749617386 
327	-5,63359497245792E-02 
328	 4,41562168211426E-02 
329	-4,84441439411013E-02 
330	-6,96675477082536E-02 
331	 0,2001266805958 
332	 0,101860894316161 
333	-0,161046142018658 
334	-1,46577041624531E-02 
335	 7,49781499562999E-02 
336	 2,27526757734403E-02 
337	-5,93984910505353E-02 
338	-0,112973165398112 
339	-9,56701236869704E-02 
340	 4,52557404932572E-03 
341	 8,80908689693619E-02 
342	 1,70146382691471E-02 
343	-6,19149285596978E-03 
344	 0,048486341926553 
345	 4,63704985871739E-02 
346	 2,76963229714134E-02 
347	 3,74435894199513E-02 
348	 0,035677634990274 
349	 3,03865416888074E-02 
350	 6,23621184631189E-02 
351	 7,04361258649512E-02 
352	 3,85764762295981E-02 
353	 1,59885400438763E-02 
354	 7,20826756100773E-03 
355	 1,34164353792559E-02 
356	 3,97118231791604E-03 
357	-8,54634428163182E-03 
358	 3,39220940907943E-02 
359	 5,52308444541648E-02 
360	 2,68314108218969E-02 
361	 1,09382637287733E-02 
362	 6,34959991116318E-03 
363	 1,09030446752256E-04 
364	 7,72911217187495E-03 
365	 2,36639562259117E-02 
366	 1,75886627443972E-02 
367	 6,80740193622117E-03 
368	 2,6413682838517E-03 
369	 1,3123144060471E-03 
370	 4,91741312863741E-03 
371	 1,87300673524847E-02 
372	 2,04934334559811E-02 
373	 1,21930411346693E-02 
374	 3,27695262098365E-02 
375	 4,45625881831535E-02 
376	 2,19363941424264E-02 
377	 1,85159557058096E-02 
378	 3,02198751369037E-02 
379	 3,35029245257707E-02 
380	 0,020520102299411 
381	-3,73950268175764E-03 
382	 9,05428169028867E-03 
383	 2,03779387585517E-02 
384	-3,90930028723093E-03 
385	-5,14286951218875E-03 
386	 1,29425537191288E-02 
387	 9,35181161738963E-03 
388	 1,67276104597757E-02 
389	 3,88237163128678E-02 
390	 3,01654046236652E-02 
391	 1,01456615408795E-02 
392	 5,59282072449959E-03 
393	 8,95238957762915E-03 
394	 1,54155136843397E-02 
395	 1,51007088093329E-02 
396	 1,72787425843688E-02 
397	 0,025886505450749 
398	 0,035901789874469 
399	 3,72796553525444E-02 
400	 1,56749695342197E-02 
401	 6,62646450494542E-03 
402	 1,31897003941466E-02 
403	 8,22564672820304E-03 
404	 3,60456327371418E-03 
405	 6,6840340470413E-03 
406	 5,23759900378714E-03 
407	 3,03601997776327E-03 
408	 1,16400499394228E-02 
409	 1,53998003666781E-02 
410	 1,20753531471203E-02 
411	 1,42285162493401E-02 
412	 1,63134093826094E-02 
413	 1,30650337315568E-02 
414	 1,18513341748117E-02 
415	 1,27242742039887E-02 
416	 1,17255601296033E-02 
417	 1,37753578381731E-02 
418	 1,91651420776312E-02 
419	 0,018052784304619 
420	 1,41059416656838E-02 
421	 1,30615409194602E-02 
422	 1,19576224777877E-02 
423	 9,89101164734214E-03 
424	 4,91571072242869E-03 
425	 3,90972468365379E-03 
426	 1,00624002977797E-02 
427	 0,012535701671345 
428	 1,23992631811432E-02 
429	 1,42264736300432E-02 
430	 1,56689933047962E-02 
431	 1,62309093483505E-02 
432	 1,69537936534223E-02 
433	 1,58947202615096E-02 
434	 1,16493154252526E-02 
435	 9,46180976985318E-03 
436	 1,06419141923788E-02 
437	 1,65286822259552E-02 
438	 1,83466291335256E-02 
439	 1,39306261528144E-02 
440	 1,47215557931565E-02 
441	 0,016965110288271 
442	 0,014715599050475 
443	 1,35330782104934E-02 
444	 1,43369367983756E-02 
445	 1,58711373196551E-02 
446	 1,59597692938934E-02 
447	 0,013755270674225 
448	 1,45848651210165E-02 
449	 1,68726502718468E-02 
450	 1,65009155319065E-02 
451	 0,014675435515818 
452	 1,25608856442949E-02 
453	 1,40295605631951E-02 
454	 1,47836885441093E-02 
455	 1,11119486918162E-02 
456	 1,08766374026198E-02 
457	 1,33528704198488E-02 
458	 1,21853569635142E-02 
459	 1,27254964276046E-02 
460	 1,60654246419224E-02 
461	 1,45621979643479E-02 
462	 1,18705833432885E-02 
463	 0,013727164498375 
464	 1,51190316119622E-02 
465	 1,47765554103898E-02 
466	 1,26109329397768E-02 
467	 1,14662860961969E-02 
468	 1,29761511252479E-02 
469	 1,34017999912961E-02 
470	 0,01340642850951 
471	 1,56001721092909E-02 
472	 1,67891243093719E-02 
473	 1,60075996162026E-02 
474	 1,38883951931555E-02 
475	 1,22789357251637E-02 
476	 0,01290446129934 
477	 1,45854754504594E-02 
478	 1,64111556120988E-02 
479	 1,69013305617086E-02 
480	 1,71346198821882E-02 
481	 1,72993208915524E-02 
482	 1,50975107321814E-02 
483	 0,012498427453583 
484	 1,26039880292171E-02 
485	 0,015093474053336 
486	 0,017874232713233 
487	 1,35371670473692E-02 
488	 9,53924869313078E-03 
489	 1,14440496728473E-02 
490	 1,41166487383297E-02 
491	 1,56488399463262E-02 
492	 1,35185790338649E-02 
493	 1,30529787650089E-02 
494	 1,54704736545297E-02 
495	 1,62833713145167E-02 
496	 0,015388488666302 
497	 1,31362719845254E-02 
498	 1,37209188637543E-02 
499	 1,62392069883358E-02 
500	 1,47501348849146E-02 
501	 1,28255278651729E-02 
502	 1,25855430065119E-02 
503	 1,38312810342403E-02 
504	 1,51209902340233E-02 
505	 1,39542527064253E-02 
506	 1,36264218190365E-02 
507	 1,45300091034204E-02 
508	 1,38177916288003E-02 
509	 1,28072777763787E-02 
510	 1,27910914137593E-02 
511	 1,31839900034416E-02 
512	 1,40902696325252E-02 
513	 1,64706624822987E-02 
514	 1,69519325736165E-02 
515	 1,46309152919877E-02 
516	 1,40333055178931E-02 
517	 1,46767452096741E-02 
518	 1,52182912059511E-02 
519	 1,52318154956318E-02 
520	 1,48402096506763E-02 
521	 1,53842795625264E-02 
522	 1,48827903478365E-02 
523	 1,23039896363519E-02 
524	 1,27997668967096E-02 
525	 1,52249205486235E-02 
526	 0,015267353807787 
527	 1,48474218763104E-02 
528	 1,45842076010774E-02 
529	 1,46797414717976E-02 
530	 1,44946618457282E-02 
531	 1,33027447190875E-02 
532	 1,26405185774886E-02 
533	 1,28008517872611E-02 
534	 1,35528837523528E-02 
535	 1,39920201423444E-02 
536	 1,36561252940337E-02 
537	 1,36730999796637E-02 
538	 1,39922085723848E-02 
539	 1,42505758096064E-02 
540	 1,43876951159541E-02 
541	 0,014233315907276 
542	 1,31251076399755E-02 
543	 1,23435114427989E-02 
544	 0,013100225737158 
545	 1,42394042321178E-02 
546	 1,49561511867214E-02 
547	 1,37479190212909E-02 
548	 1,28246468946832E-02 
549	 1,32166236579017E-02 
550	 1,36167471404769E-02 
551	 1,38887274142322E-02 
552	 1,40780245149099E-02 
553	 1,39372472525436E-02 
554	 1,35805603660171E-02 
555	 1,37443101039923E-02 
556	 1,39139124390131E-02 
557	 1,36652923962157E-02 
558	 1,34392816935494E-02 
559	 1,32649793817808E-02 
560	 1,29199512711452E-02 
561	 1,30023668304186E-02 
562	 1,36392377818937E-02 
563	 1,40783867200708E-02 
564	 1,40662083073243E-02 
565	 1,33778905519397E-02 
566	 1,32303146878375E-02 
567	 1,37635745312073E-02 
568	 1,42970728086236E-02 
569	 1,43869104934823E-02 
570	 1,38065784955069E-02 
571	 1,36804533444448E-02 
572	 1,38402682710192E-02 
573	 1,33899359197326E-02 
574	 1,36258401864705E-02 
575	 0,014834176002635 
576	 0,016107864377907 
577	 1,65789567354462E-02 
578	 1,54326657332843E-02 
579	 1,52783443240133E-02 
580	 1,60675230013599E-02 
581	 0,015383787771664 
582	 1,54041441974193E-02 
583	 1,70547802943713E-02 
584	 1,72495165552177E-02 
585	 1,67628359044743E-02 
586	 1,77465450395307E-02 
587	 1,79521761068073E-02 
588	 0,017095597476321 
589	 1,69610433111853E-02 
590	 1,73059749441817E-02 
591	 1,77974416793965E-02 
592	 1,79896844009054E-02 
593	 1,78520539917045E-02 
594	 1,75284920811007E-02 
595	 0,017626757586398 
596	 1,82537596475033E-02 
597	 0,017913072608299 
598	 1,72801344292396E-02 
599	 1,75985839969564E-02 
600	 1,77617613970688E-02 
601	 1,75461127364047E-02 
602	 0,01731671371422 
603	 1,71486960081769E-02 
604	 0,017109542872243 
605	 1,73440669553583E-02 
606	 1,75256358988055E-02 
607	 1,67192182518437E-02 
608	 1,64124455607062E-02 
609	 1,69631397568282E-02 
610	 1,68245336764021E-02 
611	 1,63995163182213E-02 
612	 1,63457829611376E-02 
613	 0,016044259965323 
614	 1,55151244989925E-02 
615	 1,52406782215165E-02 
616	 1,52473009980108E-02 
617	 1,54919843807251E-02 
618	 1,53818015265148E-02 
619	 1,51844666437483E-02 
620	 1,56483687751952E-02 
621	 1,58644191928565E-02 
622	 1,55801013945212E-02 
623	 1,51022806764875E-02 
624	 1,48912748829408E-02 
625	 1,53686268877565E-02 
626	 1,56156132779156E-02 
627	 1,56365562441612E-02 
628	 1,61202276070101E-02 
629	 1,64335946044256E-02 
630	 1,63006408105651E-02 
631	 1,62539688112784E-02 
632	 1,63486463203516E-02 
633	 1,65835949655991E-02 
634	 0,016416677163533 
635	 1,60130054287932E-02 
636	 0,016743829566002 
637	 1,75640501517741E-02 
638	 1,76094941394443E-02 
639	 1,81316051118589E-02 
640	 1,88893510355037E-02 
641	 1,87203416948058E-02 
642	 1,85159279809659E-02 
643	 1,85958725071113E-02 
644	 1,85788916305052E-02 
645	 1,84652816366378E-02 
646	 1,82925592924502E-02 
647	 1,84348598583646E-02 
648	 0,018780282260176 
649	 1,85763780477515E-02 
650	 1,84379989388868E-02 
651	 1,87230195480497E-02 
652	 1,87757214019295E-02 
653	 1,84128095433712E-02 
654	 1,74134158660768E-02 
655	 1,67037344452917E-02 
656	 1,66234993729147E-02 
657	 1,69821352287723E-02 
658	 1,72408183548077E-02 
659	 1,68781758238023E-02 
660	 1,65414866595933E-02 
661	 1,62746457529694E-02 
662	 1,58041641742119E-02 
663	 1,51024464867508E-02 
664	 1,43114546826152E-02 
665	 0,014545823123808 
666	 1,49541509413512E-02 
667	 1,39897809175236E-02 
668	 1,36958687286249E-02 
669	 1,43072939406437E-02 
670	 1,43470657856358E-02 
671	 1,42046608503007E-02 
672	 1,42188552303185E-02 
673	 1,43224665034814E-02 
674	 1,43331243682272E-02 
675	 1,37949446647689E-02 
676	 1,33730170658934E-02 
677	 1,33060732938427E-02 
678	 1,32586858759602E-02 
679	 1,34852678799483E-02 
680	 1,42968025421481E-02 
681	 0,014562687718958 
682	 1,42896397351838E-02 
683	 1,44026315381108E-02 
684	 1,47382939376258E-02 
685	 1,51517481665794E-02 
686	 1,51379851518656E-02 
687	 1,51655946166659E-02 
688	 1,62199563596241E-02 
689	 1,68754179702371E-02 
690	 1,69670286861039E-02 
691	 1,77560584914039E-02 
692	 0,018967755769652 
693	 2,03063725225758E-02 
694	 2,17457223957075E-02 
695	 2,34779137511577E-02 
696	 2,59631007353468E-02 
697	 2,89961988384021E-02 
698	 3,24028759118628E-02 
699	 3,56490470613571E-02 
700	 3,91738839548288E-02 
701	 4,35942513912694E-02 
702	 4,87502124585004E-02 
703	 0,054374604585477 
704	 5,99270102119718E-02 
705	 0,065221303431923 
706	 7,01879337470396E-02 
707	 7,54811841806159E-02 
708	 8,08374689272454E-02 
709	 8,55462622566903E-02 
710	 9,07417605646689E-02 
711	 9,65282096374904E-02 
712	 0,10183400615804 
713	 0,106527637246508 
714	 0,110561311971626 
715	 0,114417907882346 
716	 0,118255919779257 
717	 0,122222096043265 
718	 0,125874295776669 
719	 0,128953471788426 
720	 0,131207417034687 
721	 0,133512182246314 
722	 0,13696800319047 
723	 0,139666312637841 
724	 0,141423764313297 
725	 0,143206528902503 
726	 0,145255704123817 
727	 0,147583008179471 
728	 0,148826390658164 
729	 0,149442712938424 
730	 0,150553625874417 
731	 0,15188917789287 
732	 0,153281207877947 
733	 0,154264344089655 
734	 0,155093293159838 
735	 0,155986372110989 
736	 0,156568623475255 
737	 0,157011390752481 
738	 0,157905290373937 
739	 0,158659848208986 
740	 0,159097714319127 
741	 0,159579715020283 
742	 0,160057928778483 
743	 0,160446296723977 
744	 0,16072976692824 
745	 0,161046567305497 
746	 0,161865281422012 
747	 0,162467478532005 
748	 0,162510801779975 
749	 0,16264186047124 
750	 0,162711902616944 
751	 0,162355698586828 
752	 0,162318096780108 
753	 0,162711245449907 
754	 0,163109432988322 
755	 0,163373595450081 
756	 0,163434410691133 
757	 0,16367772765463 
758	 0,16400610416259 
759	 0,164097063214077 
760	 0,164110898932017 
761	 0,164168276885894 
762	 0,164573125125506 
763	 0,164963049998504 
764	 0,165010555643706 
765	 0,165275747538669 
766	 0,165697726903425 
767	 0,165868957081363 
768	 0,165873388266365 
769	 0,165774429165624 
770	 0,16573089273113 
771	 0,165904822745007 
772	 0,166442668362901 
773	 0,166477068096374 
774	 0,166098802546619 
775	 0,166244984370092 
776	 0,166387368798393 
777	 0,166314359406682 
778	 0,166532633651584 
779	 0,166783004307132 
780	 0,166606500000652 
781	 0,166827538408111 
782	 0,167404274328107 
783	 0,167446503635761 
784	 0,167094503564546 
785	 0,166550862324921 
786	 0,166645121390452 
787	 0,167089491615549 
788	 0,167156016366426 
789	 0,167122779788752 
790	 0,16701921853039 
791	 0,166660795172558 
792	 0,166428755241325 
793	 0,166617171714538 
794	 0,166947308816488 
795	 0,167172317350999 
796	 0,166869176539942 
797	 0,166715130632303 
798	 0,166860690254524 
799	 0,166769185860726 
800	 0,166746068000064 
801	 0,167062479500629 
802	 0,167088443262322 
803	 0,166869062227219 
804	 0,166808211215085 
805	 0,166866113747627 
806	 0,167009859075054 
807	 0,166975890568779 
808	 0,167208367734956 
809	 0,168132346468249 
810	 0,168271318364813 
811	 0,167789550768158 
812	 0,16809887166698 
813	 0,168137952500988 
814	 0,167645595343942 
815	 0,167744184949304 
816	 0,168178984918097 
817	 0,168530336197324 
818	 0,16892425055674 
819	 0,169245257241513 
820	 0,16910336453827 
821	 0,169069754138753 
822	 0,169427284474058 
823	 0,170059406142651 
824	 0,170479287736904 
825	 0,17010900999035 
826	 0,169997832070356 
827	 0,17028469338437 
828	 0,170499533563941 
829	 0,170777174929552 
830	 0,171162441442011 
831	 0,171594673278745 
832	 0,171872069400898 
833	 0,171746836873105 
834	 0,171710155815503 
835	 0,171828905519273 
836	 0,171864497781991 
837	 0,171849154974188 
838	 0,171848174384384 
839	 0,172151387734643 
840	 0,172693782045625 
841	 0,173339717926818 
842	 0,172952570182171 
843	 0,171929152550569 
844	 0,172582857074096 
845	 0,173260529788711 
846	 0,173085666008006 
847	 0,172795052635125 
848	 0,172517523434713 
849	 0,172318813447437 
850	 0,172432437299785 
851	 0,172734079605499 
852	 0,172584770971124 
853	 0,172653557589249 
854	 0,173161696119051 
855	 0,172988950247681 
856	 0,172585767706046 
857	 0,172727166064914 
858	 0,172532715041163 
859	 0,172103703519129 
860	 0,172428548903656 
861	 0,172815158783092 
862	 0,172927543057665 
863	 0,173128757846124 
864	 0,173291447320581 
865	 0,173220007722611 
866	 0,173612594904782 
867	 0,174275913188074 
868	 0,174081703439803 
869	 0,174027156590477 
870	 0,174516758790337 
871	 0,174916804444211 
872	 0,175061889878769 
873	 0,174857364981784 
874	 0,175255634490775 
875	 0,176082054765828 
876	 0,176139059783173 
877	 0,176536280164145 
878	 0,177403321881124 
879	 0,176749041285425 
880	 0,175859424184449 
881	 0,176224317311491 
882	 0,176305818361642 
883	 0,176220001840166 
884	 0,177164960340259 
885	 0,177613886545021 
886	 0,177274942745663 
887	 0,177860501195068 
888	 0,17815367708876 
889	 0,177097800846936 
890	 0,177244944969184 
891	 0,178147891286092 
892	 0,177761935428722 
893	 0,177698223704216 
894	 0,178243325658765 
895	 0,178369498537981 
896	 0,178208113056623 
897	 0,177936614431267 
898	 0,17793945659211 
899	 0,178175031732227 
900	 0,178441138937493 
901	 0,178621497469561 
902	 0,178829365740879 
903	 0,179767855689456 
904	 0,180163998756179 
905	 0,179423142203914 
906	 0,179535959495574 
907	 0,179920028896279 
908	 0,17941245353687 
909	 0,179370089271261 
910	 0,179909028731677 
911	 0,180439576425645 
912	 0,180334518917597 
913	 0,179446815865053 
914	 0,178925753831492 
915	 0,178835928216469 
916	 0,179112240145906 
917	 0,179683079964062 
918	 0,18036761441122 
919	 0,180935077868156 
920	 0,180829692476797 
921	 0,180012345684925 
922	 0,179291802634391 
923	 0,179014009776899 
924	 0,179373011173669 
925	 0,179766930584835 
926	 0,179593726017986 
927	 0,177983867445451 
928	 0,176865663390713 
929	 0,176865301921453 
930	 0,177939090170514 
931	 0,178721849324779 
932	 0,178325871131604 
933	 0,176971652536881 
934	 0,175540279784554 
935	 0,175101705355542 
936	 0,175201202549084 
937	 0,175360100609465 
938	 0,174491811663645 
939	 0,174015202755528 
940	 0,174239321715935 
941	 0,173824512101435 
942	 0,172918243951269 
943	 0,171787086043727 
944	 0,17101882937553 
945	 0,170575871534799 
946	 0,170161464479527 
947	 0,169829520134387 
948	 0,169456762078582 
949	 0,168609166958004 
950	 0,167894858312892 
951	 0,167534025912014 
952	 0,166547425797273 
953	 0,165128600879207 
954	 0,16368313461102 
955	 0,163222628240999 
956	 0,163053519053222 
957	 0,160673504546452 
958	 0,159326405894833 
959	 0,159697138967316 
960	 0,159202997111783 
961	 0,159015644054111 
962	 0,159876554459203 
963	 0,159897078990913 
964	 0,159055499777812 
965	 0,157764589681218 
966	 0,157175977364977 
967	 0,157324343088617 
968	 0,157170840977296 
969	 0,157294745966212 
970	 0,157640837023227 
971	 0,156601396444532 
972	 0,156105562025871 
973	 0,157665755403748 
974	 0,156931723705637 
975	 0,155729756544479 
976	 0,158671314656594 
977	 0,158201205613184 
978	 0,154269544956085 
979	 0,154008222205993 
980	 0,15498709511472 
981	 0,156130395578561 
982	 0,158399246594787 
983	 0,160005121515807 
984	 0,159364533608472 
985	 0,160280052382621 
986	 0,161734889012939 
987	 0,160323728974533 
988	 0,160799510574804 
989	 0,163342304349792 
990	 0,163705761998231 
991	 0,16258976282472 
992	 0,160735880193939 
993	 0,160175289329268 
994	 0,16010765790211 
995	 0,159718741561516 
996	 0,162513451530853 
997	 0,165779053479257 
998	 0,16316995200458 
999	 0,162725515929596 
1000	 0,164763359155621 
1001	 0,16126740813308 
1002	 0,160307722474821 
1003	 0,1649391596984 
1004	 0,167814610074737 
1005	 0,167690374507397 
1006	 0,164522327204045 
1007	 0,164603904541143 
1008	 0,168085989920051 
1009	 0,173064073736714 
1010	 0,173583687940454 
1011	 0,16999418597259 
1012	 0,169186061115732 
1013	 0,17060845344156 
1014	 0,173208972536286 
1015	 0,172448002669253 
1016	 0,169809632390069 
1017	 0,167215081506266 
1018	 0,167270382005133 
1019	 0,168872784405479 
1020	 0,169693169773408 
1021	 0,170528465794326 
1022	 0,172606422526173 
1023	 0,179468984414144 
1024	 0,182468914560237 
1025	 0,179278530801277 
1026	 0,174353404830501 
1027	 0,172596637690857 
1028	 0,176046694837062 
1029	 0,175050675858048 
1030	 0,174395395657937 
1031	 0,180256136872273 
1032	 0,182656887497715 
1033	 0,18213365375155 
1034	 0,184044407744712 
1035	 0,182297690483441 
1036	 0,178073196901449 
1037	 0,181308367893101 
1038	 0,18302784192351 
1039	 0,180309751319497 
1040	 0,180816162385247 
1041	 0,181976733060759 
1042	 0,181708002196706 
1043	 0,183907315578654 
1044	 0,185205205041205 
1045	 0,181051865326597 
1046	 0,188314683892035 
1047	 0,199209570746896 
1048	 0,18689902287825 
1049	 0,182123211784627 
1050	 0,190105929395115 
1051	 0,192478377274422 
1052	 0,194158793853573 
1053	 0,196751043389909 
1054	 0,196898516758138 
1055	 0,194979479405244 
1056	 0,191826558350572 
1057	 0,190859382028649 
1058	 0,187263602187926 
1059	 0,174820051819141 
1060	 0,18288232205089 
1061	 0,198940192042659 
1062	 0,179219933490763 
1063	 0,179614254804612 
1064	 0,202480413264051 
1065	 0,191070114141317 
1066	 0,186030057969034 
1067	 0,19900587269338 
1068	 0,194696791277135 
1069	 0,179716837719911 
1070	 0,166152734204477 
1071	 0,184741413127128 
1072	 0,207452946815702 
1073	 0,197838096690608 
1074	 0,186991171358831 
1075	 0,179036768468639 
