Wavelength	ABBE00155.asd
325	 0,488988149755527 
326	 0,332590366474664 
327	 0,285814240462045 
328	 0,331584837441534 
329	 0,240297498309669 
330	 0,201052503552348 
331	 0,369827089584963 
332	 0,331899392794785 
333	 0,171326207267011 
334	 0,158707707357053 
335	 0,202814405628811 
336	 0,262124438575773 
337	 0,263306849636568 
338	 0,243586309776068 
339	 0,235989264555461 
340	 0,277739464149164 
341	 0,316341083830805 
342	 0,246378163747199 
343	 0,242320957085286 
344	 0,313855449338175 
345	 0,264924658829733 
346	 0,20521400026273 
347	 0,243171241932847 
348	 0,233927058663788 
349	 0,195496277092985 
350	 0,242152108651316 
351	 0,251994836743763 
352	 0,199449129588746 
353	 0,221602312314946 
354	 0,257663864535291 
355	 0,218633189768672 
356	 0,231559433790411 
357	 0,281155193936539 
358	 0,259176100345766 
359	 0,233005144680792 
360	 0,231936519280327 
361	 0,236528355069977 
362	 0,234023326715617 
363	 0,20903124176593 
364	 0,225553548203023 
365	 0,275908600464663 
366	 0,277185705978806 
367	 0,263284304482395 
368	 0,257101525183631 
369	 0,25841844466109 
370	 0,261546483646959 
371	 0,255033446370372 
372	 0,253861187030059 
373	 0,25888665910479 
374	 0,253839413210976 
375	 0,253790765277834 
376	 0,268461461185939 
377	 0,273194809645255 
378	 0,270918196360521 
379	 0,277309687826997 
380	 0,269082087884796 
381	 0,248877415959653 
382	 0,271277662889273 
383	 0,295327536893856 
384	 0,284006131640555 
385	 0,258576985173757 
386	 0,237627095155432 
387	 0,256744883639775 
388	 0,272662666253581 
389	 0,26999672196869 
390	 0,268455185379462 
391	 0,266400574961041 
392	 0,260361066586948 
393	 0,257944420136719 
394	 0,260413488359309 
395	 0,266221806875491 
396	 0,272782747958156 
397	 0,278091388059339 
398	 0,282203752478355 
399	 0,282988166168232 
400	 0,277089641817465 
401	 0,275838967671248 
402	 0,278397846705424 
403	 0,26926468720102 
404	 0,26217675832116 
405	 0,265792193853479 
406	 0,271021681125701 
407	 0,274196212696116 
408	 0,270855040498118 
409	 0,26993874541713 
410	 0,272868514708135 
411	 0,272773810256121 
412	 0,271180370841024 
413	 0,26995546918739 
414	 0,271190732103606 
415	 0,273218349450002 
416	 0,270127036463583 
417	 0,27065741338086 
418	 0,275933954191879 
419	 0,270167156487367 
420	 0,262861727778838 
421	 0,267578671122624 
422	 0,269501408161201 
423	 0,267361236441016 
424	 0,268383839813832 
425	 0,270591330122337 
426	 0,272010211956442 
427	 0,266586304658237 
428	 0,260881827130709 
429	 0,268394615638135 
430	 0,271839313143071 
431	 0,26859403820959 
432	 0,271209239210946 
433	 0,275063590645067 
434	 0,27561405550026 
435	 0,272031904284183 
436	 0,267345361978911 
437	 0,26936395153508 
438	 0,271092421422018 
439	 0,270254908355276 
440	 0,271276918253462 
441	 0,272752788535896 
442	 0,27250131817418 
443	 0,272126247921478 
444	 0,272297213054939 
445	 0,27409654453589 
446	 0,274853824304078 
447	 0,273188059486394 
448	 0,272171142688314 
449	 0,27249260402453 
450	 0,274650204152914 
451	 0,275400154961933 
452	 0,274919642554272 
453	 0,279724366023741 
454	 0,2831789577541 
455	 0,279510256510766 
456	 0,279228926766283 
457	 0,281888306026916 
458	 0,280425181995989 
459	 0,280181032757748 
460	 0,282480768138518 
461	 0,280962381393078 
462	 0,278709991637643 
463	 0,280534646207464 
464	 0,282366958619266 
465	 0,282714010804751 
466	 0,279737717858825 
467	 0,278803281729591 
468	 0,282823446242839 
469	 0,28360807466771 
470	 0,282677128620152 
471	 0,285780655965821 
472	 0,286863636897861 
473	 0,284670991774948 
474	 0,282414720011731 
475	 0,282229035207965 
476	 0,285745731098173 
477	 0,286769660048452 
478	 0,285137922628402 
479	 0,284120027438479 
480	 0,283709185893017 
481	 0,28389353359432 
482	 0,283744083073358 
483	 0,283282527524751 
484	 0,282649157728819 
485	 0,283650995811257 
486	 0,285773534658105 
487	 0,285420653293103 
488	 0,284059296777986 
489	 0,282958833039965 
490	 0,282573959822322 
491	 0,282749200134289 
492	 0,282981156049925 
493	 0,282701789311337 
494	 0,281872692443719 
495	 0,281635638163223 
496	 0,281717381875688 
497	 0,28170160065329 
498	 0,280937933564553 
499	 0,279991031064409 
500	 0,280887844108088 
501	 0,282483655245496 
502	 0,284112010508579 
503	 0,286319080091465 
504	 0,287966622319104 
505	 0,286940290136748 
506	 0,286991123925249 
507	 0,288769689594821 
508	 0,289771903614992 
509	 0,290102101874161 
510	 0,290009280067046 
511	 0,290284418635207 
512	 0,291367236313161 
513	 0,294112386293085 
514	 0,295892361079214 
515	 0,295865652832066 
516	 0,296848323628178 
517	 0,298252223737026 
518	 0,298905717494437 
519	 0,298728426858701 
520	 0,298173263205604 
521	 0,299151000050855 
522	 0,299271308579251 
523	 0,297143102590082 
524	 0,297613411875719 
525	 0,299472488760145 
526	 0,298164304665308 
527	 0,297410050824429 
528	 0,298125987517352 
529	 0,298237264985411 
530	 0,297604032546274 
531	 0,296276303610093 
532	 0,295729754364104 
533	 0,296159095627898 
534	 0,29694176482024 
535	 0,297785986710947 
536	 0,298382988335774 
537	 0,298050296871163 
538	 0,297284372268881 
539	 0,297055800048899 
540	 0,297623854304268 
541	 0,298627589411689 
542	 0,297911600188441 
543	 0,297073648666323 
544	 0,297716301053626 
545	 0,29831703112059 
546	 0,298697279702156 
547	 0,299328741179705 
548	 0,299706193909495 
549	 0,299646020794093 
550	 0,299732000318828 
551	 0,299978943704767 
552	 0,300311403729586 
553	 0,300368251183513 
554	 0,300171629423078 
555	 0,300377194324712 
556	 0,300284758936492 
557	 0,299352167832234 
558	 0,298455795607156 
559	 0,297796920136574 
560	 0,297464916421727 
561	 0,296894099246922 
562	 0,295954860949527 
563	 0,295451408949616 
564	 0,295032310084437 
565	 0,294135695656059 
566	 0,294021538084478 
567	 0,294728836758167 
568	 0,295131540449811 
569	 0,295855097968851 
570	 0,297242119016975 
571	 0,298074245140843 
572	 0,298911271326631 
573	 0,301477410906423 
574	 0,303546980546672 
575	 0,304750523239641 
576	 0,307656222424047 
577	 0,310924742203706 
578	 0,312895108165863 
579	 0,314969093777371 
580	 0,317109024780661 
581	 0,318149924231815 
582	 0,319490524666354 
583	 0,321737126127627 
584	 0,322791198800763 
585	 0,323536870249254 
586	 0,326073435008608 
587	 0,327588960700062 
588	 0,327827920529651 
589	 0,329658437004857 
590	 0,331806231102224 
591	 0,332988562038574 
592	 0,334009369715364 
593	 0,334860376363861 
594	 0,335065664606839 
595	 0,335384862001599 
596	 0,336121949816502 
597	 0,336691790801262 
598	 0,336876551194968 
599	 0,336457380216884 
600	 0,336019203251302 
601	 0,335640642468324 
602	 0,334747266878094 
603	 0,334206354847551 
604	 0,33456908869838 
605	 0,333826246549779 
606	 0,332307125333817 
607	 0,331664272949467 
608	 0,330991263669761 
609	 0,330050710998092 
610	 0,329364369371782 
611	 0,328532292919254 
612	 0,327030047358902 
613	 0,326169501510745 
614	 0,32601208571605 
615	 0,325648746702436 
616	 0,325050514786185 
617	 0,324240473879971 
618	 0,323674424608266 
619	 0,32337843047906 
620	 0,323266665023042 
621	 0,32312832375901 
622	 0,32288877164609 
623	 0,322571330434624 
624	 0,322572187885282 
625	 0,323240204170143 
626	 0,323048770644556 
627	 0,322295488517271 
628	 0,322775815114777 
629	 0,323605316468933 
630	 0,324339728991732 
631	 0,325190497846167 
632	 0,326076312868194 
633	 0,32685072949774 
634	 0,327629570817871 
635	 0,328504257130087 
636	 0,329633647960213 
637	 0,330954700059722 
638	 0,332400826648818 
639	 0,33390942990988 
640	 0,335323869143055 
641	 0,336344456142313 
642	 0,337287006144553 
643	 0,33821055968501 
644	 0,3386820450681 
645	 0,338931023186186 
646	 0,339298954640716 
647	 0,339691096332776 
648	 0,339849191126937 
649	 0,339055390087244 
650	 0,33782027145712 
651	 0,336530769486637 
652	 0,335276558070464 
653	 0,333990089449921 
654	 0,332528978245006 
655	 0,330613721960335 
656	 0,328268546001861 
657	 0,326163004871221 
658	 0,32389470453912 
659	 0,321028138436178 
660	 0,318171005450555 
661	 0,315545998414019 
662	 0,313403920825137 
663	 0,311013643631065 
664	 0,308123069951874 
665	 0,305829875986313 
666	 0,303968362926103 
667	 0,302040474285306 
668	 0,30068653751306 
669	 0,299966639938303 
670	 0,299482583986948 
671	 0,298851325853965 
672	 0,297813608419423 
673	 0,297042864038026 
674	 0,296542696169089 
675	 0,296022060499977 
676	 0,295508535259056 
677	 0,295085642320081 
678	 0,295130213244263 
679	 0,295552191985833 
680	 0,296199891975389 
681	 0,296996578855728 
682	 0,297994771866333 
683	 0,299377547981677 
684	 0,301202873998569 
685	 0,303528915464569 
686	 0,306350996512468 
687	 0,309840454223324 
688	 0,314273177162957 
689	 0,319296604265227 
690	 0,324912787601665 
691	 0,3315556119464 
692	 0,339015204186932 
693	 0,347088303298054 
694	 0,355801982132632 
695	 0,36527087556702 
696	 0,375771971853825 
697	 0,387044349854559 
698	 0,398803133657469 
699	 0,410243936613607 
700	 0,421650962186267 
701	 0,433507875531096 
702	 0,445408433390777 
703	 0,45699516576026 
704	 0,467781714350768 
705	 0,477664829086068 
706	 0,486694473008898 
707	 0,495960204207822 
708	 0,505066819973803 
709	 0,513049979202614 
710	 0,520042251734776 
711	 0,526350527166107 
712	 0,53329749315458 
713	 0,539673231420301 
714	 0,54435690610708 
715	 0,548611357422619 
716	 0,552819148806342 
717	 0,5572794704921 
718	 0,561438242381821 
719	 0,564975934305141 
720	 0,567656776135106 
721	 0,570070482414265 
722	 0,572966107636757 
723	 0,575457838789883 
724	 0,577458602229234 
725	 0,579331619621234 
726	 0,581290650346332 
727	 0,583354242000498 
728	 0,584424557148761 
729	 0,584992337320834 
730	 0,586165230611888 
731	 0,587545816094791 
732	 0,588908007877129 
733	 0,589748878499254 
734	 0,590480932345506 
735	 0,591461719774027 
736	 0,592273330350504 
737	 0,592972067103013 
738	 0,593894693226728 
739	 0,594699422701337 
740	 0,595235459377584 
741	 0,595442030964309 
742	 0,595663787851783 
743	 0,596288409422394 
744	 0,596612444170662 
745	 0,596711456254572 
746	 0,597373493096114 
747	 0,597853899696619 
748	 0,597789733847658 
749	 0,597658787949137 
750	 0,597603564877077 
751	 0,597736032688792 
752	 0,598041785279912 
753	 0,598385274991436 
754	 0,598302712343756 
755	 0,598219094687365 
756	 0,598434560367344 
757	 0,598646609990315 
758	 0,598771954771322 
759	 0,598698695538948 
760	 0,598965153632733 
761	 0,599568268402156 
762	 0,599604891898764 
763	 0,599468850791934 
764	 0,599568307789124 
765	 0,599643992084173 
766	 0,599728200359892 
767	 0,600010977457758 
768	 0,600314120951713 
769	 0,600561656369203 
770	 0,600784927736163 
771	 0,601008445483737 
772	 0,601254111090908 
773	 0,60115543767947 
774	 0,600860995772491 
775	 0,601070912841143 
776	 0,601276581243111 
777	 0,601276616484338 
778	 0,601662557896633 
779	 0,602017518105994 
780	 0,601653466970023 
781	 0,601410918884345 
782	 0,601465394027844 
783	 0,601544453733206 
784	 0,601679897599294 
785	 0,601854809183761 
786	 0,601781948171958 
787	 0,601642742003348 
788	 0,60186601914432 
789	 0,601545384414429 
790	 0,600818516407079 
791	 0,601444123263251 
792	 0,602048969395201 
793	 0,601574186078495 
794	 0,601411779591435 
795	 0,601527035289788 
796	 0,601335997887671 
797	 0,601241214623415 
798	 0,601272334537367 
799	 0,600902989758225 
800	 0,600688924249261 
801	 0,601109640604684 
802	 0,601034714560301 
803	 0,60065551683901 
804	 0,601044895317934 
805	 0,601282671466944 
806	 0,601174019976094 
807	 0,601576785767656 
808	 0,602095561916214 
809	 0,602243566895503 
810	 0,602045063415711 
811	 0,601740384242998 
812	 0,601960969706728 
813	 0,602275443944044 
814	 0,602469372065726 
815	 0,602398710398922 
816	 0,602449405637285 
817	 0,603067237015188 
818	 0,60334025622489 
819	 0,603237664933838 
820	 0,603359869300421 
821	 0,603349164231717 
822	 0,603146083360079 
823	 0,603379396091814 
824	 0,603896059123623 
825	 0,604412171845094 
826	 0,604547307989164 
827	 0,604419668542158 
828	 0,604740940060073 
829	 0,605083202872154 
830	 0,605271189625158 
831	 0,605717845840598 
832	 0,606136607148632 
833	 0,606097840940939 
834	 0,605630560917425 
835	 0,605102049216052 
836	 0,605633150906088 
837	 0,606166545299712 
838	 0,606130442847241 
839	 0,605929740378359 
840	 0,605884261458914 
841	 0,60637124108977 
842	 0,606311383689315 
843	 0,605747449656483 
844	 0,605736270395957 
845	 0,606054426183756 
846	 0,606447282657459 
847	 0,606001700170822 
848	 0,605360067007851 
849	 0,605558998856559 
850	 0,605774050539826 
851	 0,605800034037356 
852	 0,605680315903707 
853	 0,605530546623794 
854	 0,605424266067255 
855	 0,60530539203665 
856	 0,605338852004962 
857	 0,605743059897743 
858	 0,605774663526045 
859	 0,605486234833775 
860	 0,605673995422206 
861	 0,605902310655528 
862	 0,606014099288568 
863	 0,606557438751868 
864	 0,607019794584089 
865	 0,606701384399242 
866	 0,607262261892394 
867	 0,608402687506543 
868	 0,60794732897238 
869	 0,607649281786561 
870	 0,608224167080672 
871	 0,608539171605037 
872	 0,608673652397278 
873	 0,608849944300776 
874	 0,60924789539182 
875	 0,609702981908961 
876	 0,609592758817721 
877	 0,609671620813558 
878	 0,610050158550473 
879	 0,609299395200513 
880	 0,608842955163992 
881	 0,610193691067594 
882	 0,61068001895307 
883	 0,610201875004636 
884	 0,609901188014484 
885	 0,610188514853904 
886	 0,610916722614389 
887	 0,610239686900775 
888	 0,609346122567752 
889	 0,609440130060104 
890	 0,610028981746284 
891	 0,61049761507963 
892	 0,60962578014374 
893	 0,609543634583777 
894	 0,610506573896395 
895	 0,610266612856371 
896	 0,609914516838038 
897	 0,610308129436901 
898	 0,610596493366997 
899	 0,610673280714042 
900	 0,610576155830486 
901	 0,610545651424438 
902	 0,610737191197092 
903	 0,611465806933647 
904	 0,611838325970283 
905	 0,611363096259014 
906	 0,610867370872606 
907	 0,610679683687741 
908	 0,611083513025839 
909	 0,61163671529126 
910	 0,612059153613681 
911	 0,611932675775313 
912	 0,611760721008594 
913	 0,611766821784772 
914	 0,611615112514152 
915	 0,611662578045754 
916	 0,612279745902317 
917	 0,612577275507402 
918	 0,612457773642062 
919	 0,612136845474826 
920	 0,61205861457785 
921	 0,612307524539666 
922	 0,612305234807194 
923	 0,612438067418017 
924	 0,612925785998522 
925	 0,612373443935643 
926	 0,611666718364421 
927	 0,612856708166022 
928	 0,612271423564125 
929	 0,610027488349016 
930	 0,610424661911372 
931	 0,611569200862736 
932	 0,612203743784652 
933	 0,612098245788149 
934	 0,611412556949588 
935	 0,610471278168686 
936	 0,610438526963078 
937	 0,611001517627147 
938	 0,610462034186015 
939	 0,609952973167592 
940	 0,609724915391058 
941	 0,608767359355816 
942	 0,608016375644201 
943	 0,608232609156749 
944	 0,608015506280685 
945	 0,607172195914632 
946	 0,60579361378239 
947	 0,60468139791793 
948	 0,604243537103098 
949	 0,604930204713038 
950	 0,605202760731204 
951	 0,604298907343756 
952	 0,603585787207314 
953	 0,603500622409063 
954	 0,604234920223895 
955	 0,602041644625056 
956	 0,598388956699752 
957	 0,598990737379322 
958	 0,600256299761462 
959	 0,600603114614966 
960	 0,598665360067506 
961	 0,597365619507438 
962	 0,598635565244005 
963	 0,598633104450995 
964	 0,597658119994932 
965	 0,5970057996915 
966	 0,598051730097114 
967	 0,599978392811113 
968	 0,599117173094954 
969	 0,598193620174985 
970	 0,598172609722237 
971	 0,597530691971888 
972	 0,596997281567974 
973	 0,59724397974879 
974	 0,597219009241263 
975	 0,597576340739513 
976	 0,59987096454714 
977	 0,599088080200441 
978	 0,595611749967128 
979	 0,595605632186063 
980	 0,596919096042465 
981	 0,598375974593348 
982	 0,59965927652159 
983	 0,600308406511897 
984	 0,599991353255627 
985	 0,599662007021107 
986	 0,598908907146544 
987	 0,596306528321994 
988	 0,598565505894153 
989	 0,604587667091984 
990	 0,603357193019502 
991	 0,601017199388471 
992	 0,600828102965309 
993	 0,60108870040862 
994	 0,601717276404519 
995	 0,602741014358045 
996	 0,604798202403927 
997	 0,606568260093361 
998	 0,605321204040807 
999	 0,606345004671822 
1000	 0,609339170727376 
1001	 0,607261664649724 
1002	 0,606605800319922 
1003	 0,609842712991828 
1004	 0,611018131271205 
1005	 0,610365930970074 
1006	 0,608907719885506 
1007	 0,610386231164894 
1008	 0,612951761805474 
1009	 0,612133202794172 
1010	 0,612564942172124 
1011	 0,614485077137002 
1012	 0,614455110413595 
1013	 0,615002591684405 
1014	 0,61656192972349 
1015	 0,615433798715873 
1016	 0,614407315162645 
1017	 0,615849902281495 
1018	 0,617934887443914 
1019	 0,617463169779495 
1020	 0,610602992000387 
1021	 0,611523157215221 
1022	 0,619060298436408 
1023	 0,620156992808491 
1024	 0,619920883922963 
1025	 0,619621266576015 
1026	 0,61829366695326 
1027	 0,615742893034181 
1028	 0,612978310290724 
1029	 0,616923914686417 
1030	 0,622792802442446 
1031	 0,624221343231565 
1032	 0,624416200107209 
1033	 0,624175345334205 
1034	 0,623999574776928 
1035	 0,624044801812648 
1036	 0,62426952853635 
1037	 0,624189364862554 
1038	 0,624118401051793 
1039	 0,624425982509151 
1040	 0,626402612669597 
1041	 0,627307080041952 
1042	 0,625140245757091 
1043	 0,622317074700208 
1044	 0,622845665263506 
1045	 0,63102093168192 
1046	 0,635382909406617 
1047	 0,633223877940092 
1048	 0,624901080219614 
1049	 0,624128382192058 
1050	 0,63082560830831 
1051	 0,62506503019482 
1052	 0,626221567296187 
1053	 0,638382102952148 
1054	 0,628596441634539 
1055	 0,615329265375713 
1056	 0,61639631105329 
1057	 0,625435781743211 
1058	 0,632882566709717 
1059	 0,627511994999842 
1060	 0,624175872439968 
1061	 0,625743407219466 
1062	 0,630745331863173 
1063	 0,633177399689396 
1064	 0,63198194416047 
1065	 0,631662751381371 
1066	 0,629071763999628 
1067	 0,624374542091006 
1068	 0,625872975297205 
1069	 0,622926081120468 
1070	 0,611450465686986 
1071	 0,624901057943862 
1072	 0,641581830004549 
1073	 0,632541236025821 
1074	 0,627805441727836 
1075	 0,623713759249521 
