Wavelength	ABBE00526.asd
325	 4,26946976849047E-02 
326	 7,48309541697971E-02 
327	 8,16390397801722E-02 
328	 4,26124135556257E-03 
329	-6,44519570280219E-02 
330	-2,17175267946402E-02 
331	 0,171291081628734 
332	 0,132482116098068 
333	-3,04065208927788E-02 
334	-4,84257233564887E-03 
335	 3,62880725761452E-02 
336	 4,67030565655251E-02 
337	 4,56791998288109E-03 
338	-2,39002559712499E-02 
339	 1,68319340632104E-02 
340	 5,27721597690224E-02 
341	 5,70548109606436E-02 
342	 3,67335626465508E-02 
343	 2,72395366171027E-02 
344	 0,036338181967526 
345	 4,88797693625948E-02 
346	 6,01011619840256E-02 
347	 6,66363879020127E-02 
348	 5,69458779496453E-02 
349	 4,23261795120111E-02 
350	 5,44976082068154E-02 
351	 6,34174831241932E-02 
352	 5,86114006935796E-02 
353	 5,43249779348313E-02 
354	 3,75613491197753E-02 
355	-3,88472050291014E-03 
356	-2,09381820000214E-03 
357	 3,39288354866554E-02 
358	 0,052364667568437 
359	 4,14880231881435E-02 
360	 2,37103540175464E-03 
361	-1,23797591483715E-02 
362	-2,83314247909955E-03 
363	 2,03710896684566E-02 
364	 4,10172336354021E-02 
365	 4,98210091511249E-02 
366	 2,85207695451632E-02 
367	 0,026539439593879 
368	 6,42831426624291E-02 
369	 5,96772114637655E-02 
370	 2,74695656419288E-02 
371	 1,19773286279542E-02 
372	 1,99616037696325E-02 
373	 4,01555032041028E-02 
374	 1,30744419495064E-02 
375	-4,75826712681637E-03 
376	 2,60741039729673E-02 
377	 3,20954947949274E-02 
378	 1,95431130090486E-02 
379	 2,61039917093719E-02 
380	 2,39447569890615E-02 
381	 9,32592164600129E-03 
382	 9,16448315713882E-03 
383	 0,011616154212346 
384	 4,96146855826766E-03 
385	 6,90331330674567E-03 
386	 1,47306385027206E-02 
387	 1,19738545268249E-02 
388	 1,63743131084188E-02 
389	 2,89002805981806E-02 
390	 0,018435661101536 
391	-6,51874145904099E-04 
392	-8,48403735097219E-03 
393	 5,35458979054368E-03 
394	 0,028194634429526 
395	 1,70390135905838E-02 
396	 1,11354699882107E-02 
397	 2,78652851627941E-02 
398	 3,52772053705982E-02 
399	 3,35097205297645E-02 
400	 2,80072706636125E-02 
401	 2,33600547473928E-02 
402	 0,020506720798909 
403	 1,50283594671648E-02 
404	 1,45968364121985E-02 
405	 2,28723584739528E-02 
406	 2,40376143335241E-02 
407	 1,94260805110919E-02 
408	 1,53650204064841E-02 
409	 1,95164907426951E-02 
410	 3,07960264246722E-02 
411	 3,22050142064497E-02 
412	 2,86319989374895E-02 
413	 2,57914902030271E-02 
414	 2,61155854581064E-02 
415	 2,86073253678048E-02 
416	 0,030068231554743 
417	 2,69297513462602E-02 
418	 1,94177701416689E-02 
419	 1,72455141528988E-02 
420	 1,98181502639821E-02 
421	 2,51919405150716E-02 
422	 2,56010568005005E-02 
423	 2,15697535141038E-02 
424	 2,11602263426997E-02 
425	 2,15546338028602E-02 
426	 2,08909494402089E-02 
427	 1,80353286517948E-02 
428	 1,60165238750116E-02 
429	 2,08670836480192E-02 
430	 2,27060791526567E-02 
431	 2,04404174141838E-02 
432	 2,34037420538351E-02 
433	 2,61651689947461E-02 
434	 2,39822711688863E-02 
435	 2,29699135128845E-02 
436	 2,40603686874473E-02 
437	 2,72486507737946E-02 
438	 0,027038614356539 
439	 2,25776940349815E-02 
440	 2,36294297166974E-02 
441	 2,65681719305764E-02 
442	 2,58102400605471E-02 
443	 0,02378995622449 
444	 2,20407709135414E-02 
445	 2,40247544002997E-02 
446	 0,02461121638814 
447	 0,021437014056974 
448	 2,32096931629563E-02 
449	 2,77103814578055E-02 
450	 2,91570623445744E-02 
451	 2,63868793042705E-02 
452	 0,021062143481266 
453	 2,31053625292194E-02 
454	 2,55956028629719E-02 
455	 2,21389264962625E-02 
456	 2,09751935603097E-02 
457	 2,21626654233831E-02 
458	 2,11060210006089E-02 
459	 0,02269306825806 
460	 2,74616177482474E-02 
461	 2,57760010687682E-02 
462	 2,21667922551713E-02 
463	 2,37777296760454E-02 
464	 2,58107046681797E-02 
465	 2,69476825663477E-02 
466	 2,67400311744124E-02 
467	 2,69139694973514E-02 
468	 2,84108270682572E-02 
469	 2,86750001831274E-02 
470	 2,79738293875575E-02 
471	 2,74665299407855E-02 
472	 2,80046516673519E-02 
473	 0,029094653347024 
474	 2,67285350969056E-02 
475	 2,44721587257555E-02 
476	 2,59453698199936E-02 
477	 2,87699016831673E-02 
478	 3,11426433126183E-02 
479	 2,97866491571493E-02 
480	 2,85843868403278E-02 
481	 2,89013252218319E-02 
482	 2,61294599472948E-02 
483	 2,32001360196247E-02 
484	 2,50830399139459E-02 
485	 2,66511849250351E-02 
486	 2,64235742252054E-02 
487	 2,43526776648923E-02 
488	 2,28710658373478E-02 
489	 2,38113562475037E-02 
490	 2,60025662981539E-02 
491	 2,78436293006082E-02 
492	 2,61990631166837E-02 
493	 2,52779518447618E-02 
494	 0,026344163781797 
495	 0,027488588643004 
496	 2,77793844173343E-02 
497	 2,63925241336971E-02 
498	 2,57126267264891E-02 
499	 2,59417453304646E-02 
500	 2,56549957797728E-02 
501	 2,59393878911855E-02 
502	 2,72474104646053E-02 
503	 0,028342910317983 
504	 2,85132752110444E-02 
505	 2,67622929297204E-02 
506	 2,58606935532988E-02 
507	 2,63122565141563E-02 
508	 2,60221390005014E-02 
509	 2,58772646988546E-02 
510	 2,66943017514388E-02 
511	 2,72206801187694E-02 
512	 2,75802850161132E-02 
513	 2,88500505315624E-02 
514	 2,96423949945084E-02 
515	 2,95054518938824E-02 
516	 2,97454629414601E-02 
517	 3,00596054890241E-02 
518	 2,98508572849885E-02 
519	 2,94427541312299E-02 
520	 2,91318946619043E-02 
521	 0,02968195174448 
522	 2,99635273534757E-02 
523	 2,92832300349437E-02 
524	 2,95823574909777E-02 
525	 3,03558894859562E-02 
526	 2,97360456438273E-02 
527	 2,93575657949914E-02 
528	 2,96181857800139E-02 
529	 2,94591107189925E-02 
530	 0,029201871568503 
531	 2,92921960413464E-02 
532	 2,91678300431892E-02 
533	 2,89398792794418E-02 
534	 2,93346785456512E-02 
535	 2,98628490848463E-02 
536	 3,01377268373165E-02 
537	 2,94652984309429E-02 
538	 2,87928828992483E-02 
539	 3,01044757562624E-02 
540	 3,05821751559102E-02 
541	 2,97931632854144E-02 
542	 0,030170471565288 
543	 3,07709092618843E-02 
544	 3,06075469289889E-02 
545	 3,09705115996505E-02 
546	 3,14988210263933E-02 
547	 3,03853278909694E-02 
548	 2,96985229546461E-02 
549	 3,03562930608085E-02 
550	 3,09465374915594E-02 
551	 3,14493423860024E-02 
552	 3,21279480921687E-02 
553	 3,22381070115341E-02 
554	 3,18331694076325E-02 
555	 3,21087014085567E-02 
556	 3,21088726902185E-02 
557	 3,11257733092933E-02 
558	 3,08578145118995E-02 
559	 3,12777950338715E-02 
560	 3,15699533017097E-02 
561	 3,16101854153576E-02 
562	 3,13604510065802E-02 
563	 3,12329157921059E-02 
564	 3,11212466459611E-02 
565	 3,08184313756611E-02 
566	 3,14878383005918E-02 
567	 3,27625711671545E-02 
568	 0,032325028390414 
569	 3,17648823729272E-02 
570	 3,21441412550708E-02 
571	 3,22034312859345E-02 
572	 3,21312481069356E-02 
573	 3,27709200130484E-02 
574	 3,32288430004123E-02 
575	 3,33491921905307E-02 
576	 3,40868863756954E-02 
577	 3,49409282069822E-02 
578	 3,52953736171464E-02 
579	 3,60173653047263E-02 
580	 3,68080489819826E-02 
581	 0,036020798395149 
582	 3,57012367286976E-02 
583	 3,68917893063694E-02 
584	 3,77415781336292E-02 
585	 3,82725328091577E-02 
586	 3,90000442146511E-02 
587	 3,93912653295567E-02 
588	 0,039459105480399 
589	 3,99284231535802E-02 
590	 4,05820033399006E-02 
591	 0,041140462818848 
592	 4,08053406590578E-02 
593	 3,99956919821819E-02 
594	 0,040198207181938 
595	 4,08072223383315E-02 
596	 4,14661963953823E-02 
597	 4,17639158109684E-02 
598	 0,041681838373316 
599	 4,12935070035919E-02 
600	 4,05248517478844E-02 
601	 3,97924004055979E-02 
602	 4,06307975234577E-02 
603	 4,14382201742049E-02 
604	 4,09636948360259E-02 
605	 4,03974665151275E-02 
606	 4,00366262995247E-02 
607	 4,01006650791339E-02 
608	 4,00536245491074E-02 
609	 3,97683582748145E-02 
610	 3,99520962450686E-02 
611	 0,039893791736478 
612	 0,038673740991054 
613	 3,77489308801243E-02 
614	 3,75927899205978E-02 
615	 3,84872489240417E-02 
616	 3,91184568649992E-02 
617	 3,86809445396355E-02 
618	 3,82670262486658E-02 
619	 3,80494174714559E-02 
620	 3,80073059109088E-02 
621	 3,81813135001328E-02 
622	 3,84500789285788E-02 
623	 3,81897056559893E-02 
624	 3,80271461484524E-02 
625	 3,86013428665647E-02 
626	 3,86555622263769E-02 
627	 3,82627859339962E-02 
628	 3,84127255338448E-02 
629	 3,87338595909647E-02 
630	 3,90479946547411E-02 
631	 3,94645725838181E-02 
632	 3,98184559180375E-02 
633	 3,98560615418083E-02 
634	 3,95779321243949E-02 
635	 3,92465567661307E-02 
636	 3,98588190580632E-02 
637	 4,05516022941263E-02 
638	 4,06404255624042E-02 
639	 4,15575152379717E-02 
640	 0,042842068206673 
641	 4,27183662994236E-02 
642	 4,25194472159894E-02 
643	 4,27413591790584E-02 
644	 4,29207540153401E-02 
645	 0,043051966933928 
646	 4,31726537698559E-02 
647	 4,33865232580681E-02 
648	 4,35982003938968E-02 
649	 4,34153501189373E-02 
650	 4,31049933739903E-02 
651	 4,28711356524049E-02 
652	 4,28535142133938E-02 
653	 4,27563600776806E-02 
654	 4,19489324088007E-02 
655	 4,09626283757754E-02 
656	 4,00990933468664E-02 
657	 3,98132114400856E-02 
658	 3,95134049348703E-02 
659	 3,85979215879544E-02 
660	 3,82971500078687E-02 
661	 3,83817490737073E-02 
662	 3,73889479925797E-02 
663	 3,65607119232746E-02 
664	 3,63759557394994E-02 
665	 3,54311535829933E-02 
666	 3,43286092246936E-02 
667	 3,42243322354235E-02 
668	 3,44206704717281E-02 
669	 0,034594887908177 
670	 3,43129773897937E-02 
671	 3,40850533219982E-02 
672	 3,42847354963573E-02 
673	 0,03414508808362 
674	 3,37907778123316E-02 
675	 3,38198721649539E-02 
676	 3,39769751877433E-02 
677	 3,41233763399393E-02 
678	 3,39155842114115E-02 
679	 3,39327088445697E-02 
680	 3,48671621940615E-02 
681	 3,51960368489312E-02 
682	 0,034846253972566 
683	 3,47484846044084E-02 
684	 3,50536662850851E-02 
685	 0,035789355065184 
686	 3,61353861188315E-02 
687	 3,65998025404623E-02 
688	 3,83237626602168E-02 
689	 3,96309048735214E-02 
690	 4,03939047825962E-02 
691	 4,24404547921645E-02 
692	 4,48091327818035E-02 
693	 4,66302043457981E-02 
694	 4,90074581829464E-02 
695	 5,20794763167313E-02 
696	 5,56802855241783E-02 
697	 5,94404426431295E-02 
698	 6,32070058195974E-02 
699	 6,72428799630589E-02 
700	 7,15060427382875E-02 
701	 7,59151404081624E-02 
702	 8,05390720922042E-02 
703	 8,52279397885097E-02 
704	 8,95256495111791E-02 
705	 9,38444778809406E-02 
706	 9,83967514728281E-02 
707	 0,10274597328919 
708	 0,106583996240021 
709	 0,109398795972185 
710	 0,112828435303924 
711	 0,117088274306779 
712	 0,120625615314278 
713	 0,123509555874719 
714	 0,125906322335767 
715	 0,12838219792285 
716	 0,130942814010988 
717	 0,133284522319667 
718	 0,135355976227469 
719	 0,13709341867917 
720	 0,138324132155198 
721	 0,139624621969373 
722	 0,141717129636034 
723	 0,14318284932076 
724	 0,144016175299169 
725	 0,145397454766609 
726	 0,146880049094746 
727	 0,148108851523334 
728	 0,148501039143769 
729	 0,148643797590516 
730	 0,149729150295886 
731	 0,150580740757959 
732	 0,151025396269515 
733	 0,15198139819346 
734	 0,152781178142974 
735	 0,152862338529633 
736	 0,153029036640159 
737	 0,15345132499213 
738	 0,154198618428758 
739	 0,154702491040772 
740	 0,15484102698323 
741	 0,155416854326789 
742	 0,155873078314583 
743	 0,155524946763601 
744	 0,155786869481695 
745	 0,156565611100133 
746	 0,156485093083362 
747	 0,156541474362341 
748	 0,157175087842756 
749	 0,157558268637944 
750	 0,15762002719962 
751	 0,157403263255862 
752	 0,157295387578778 
753	 0,157395469531641 
754	 0,157540269071255 
755	 0,157722072440741 
756	 0,157927627647235 
757	 0,158115544722492 
758	 0,158264147445135 
759	 0,158338474504099 
760	 0,158453379600517 
761	 0,158673653373894 
762	 0,15908323408743 
763	 0,159491856888935 
764	 0,159712698237678 
765	 0,159705234370086 
766	 0,159623852339426 
767	 0,159855925700441 
768	 0,160223115894647 
769	 0,160579892517079 
770	 0,160541679907905 
771	 0,160381275190448 
772	 0,160456439630852 
773	 0,160524051057498 
774	 0,160662004822523 
775	 0,161323504373327 
776	 0,161695320985129 
777	 0,161407768695231 
778	 0,16115570578464 
779	 0,161041562797001 
780	 0,161072598404032 
781	 0,161532763934297 
782	 0,162199288387635 
783	 0,162077150501593 
784	 0,161822418468514 
785	 0,161853361009552 
786	 0,161741530744437 
787	 0,16160362339657 
788	 0,16172688070993 
789	 0,162011185507671 
790	 0,162314418670941 
791	 0,162222311130295 
792	 0,162040009995413 
793	 0,162037709966402 
794	 0,162235848865533 
795	 0,16253982207839 
796	 0,162758631991705 
797	 0,162833371275832 
798	 0,162756941055102 
799	 0,162631010353519 
800	 0,16259946855182 
801	 0,162770427461438 
802	 0,162783391836117 
803	 0,162711658173946 
804	 0,162898884409402 
805	 0,163263073532118 
806	 0,163673579271118 
807	 0,163570093085139 
808	 0,163548726113485 
809	 0,164223398772029 
810	 0,164035932589244 
811	 0,163250535119 
812	 0,163496559206825 
813	 0,16386290206336 
814	 0,164016345347545 
815	 0,164328140321945 
816	 0,164599625023857 
817	 0,16457812985283 
818	 0,164549452452771 
819	 0,164598920055291 
820	 0,164773388610424 
821	 0,164870140089315 
822	 0,164849357284376 
823	 0,165171857440026 
824	 0,165472852439025 
825	 0,16524479895594 
826	 0,165355433301543 
827	 0,165812852908706 
828	 0,165939230264051 
829	 0,166101518419821 
830	 0,166433771342795 
831	 0,166560920836803 
832	 0,166542933254382 
833	 0,166518326256687 
834	 0,166453347214603 
835	 0,16641378591589 
836	 0,166579081840466 
837	 0,166889781946774 
838	 0,167236731141388 
839	 0,167120150864107 
840	 0,167013140868667 
841	 0,167648413021808 
842	 0,167533095578462 
843	 0,166817017667937 
844	 0,167274313599888 
845	 0,167877736811619 
846	 0,168019988002008 
847	 0,167694619818754 
848	 0,167298405357422 
849	 0,167385847850047 
850	 0,167422421100426 
851	 0,167256544219981 
852	 0,166796716272727 
853	 0,166613910874763 
854	 0,16697259116586 
855	 0,167375790972934 
856	 0,167453765279386 
857	 0,166813004423435 
858	 0,166556705365021 
859	 0,16689573907821 
860	 0,167573430395076 
861	 0,167918132147294 
862	 0,167665736444297 
863	 0,167766105179865 
864	 0,167952837194339 
865	 0,167761598138622 
866	 0,168379355034831 
867	 0,169357064679799 
868	 0,16849070373414 
869	 0,167609766728144 
870	 0,16760025953189 
871	 0,167948273847476 
872	 0,168442408020473 
873	 0,168867352467549 
874	 0,168947360523492 
875	 0,168872643033666 
876	 0,169388517067293 
877	 0,16991431135516 
878	 0,17015812548234 
879	 0,170011143500584 
880	 0,169802459942041 
881	 0,169864636973121 
882	 0,169362003829602 
883	 0,168676650200724 
884	 0,169196422078064 
885	 0,169936290610696 
886	 0,170477871312821 
887	 0,170794487527651 
888	 0,17062110019693 
889	 0,169849248420762 
890	 0,170153603572807 
891	 0,171056982466523 
892	 0,170774200376157 
893	 0,170962244743203 
894	 0,171708324344248 
895	 0,17103955067743 
896	 0,170113543324459 
897	 0,169892073063536 
898	 0,169876588260461 
899	 0,170110904644943 
900	 0,170802603048059 
901	 0,171077643425674 
902	 0,170856300288527 
903	 0,17089658903735 
904	 0,171115663287243 
905	 0,171389504942157 
906	 0,171192031192358 
907	 0,170873627843677 
908	 0,171012633214128 
909	 0,171549729327901 
910	 0,172216343263214 
911	 0,17230725780563 
912	 0,172010818113852 
913	 0,171533691964147 
914	 0,171438040059367 
915	 0,171765662438369 
916	 0,172452234838393 
917	 0,172858218175246 
918	 0,172850746195046 
919	 0,172464146578708 
920	 0,172286925058441 
921	 0,172420803005873 
922	 0,172170395545591 
923	 0,171740758727472 
924	 0,171366192883413 
925	 0,17122386558966 
926	 0,171460089620929 
927	 0,172324072968325 
928	 0,171944703424781 
929	 0,170566460817843 
930	 0,171037388010647 
931	 0,172444349462516 
932	 0,173846454754462 
933	 0,17307995779326 
934	 0,171162459659938 
935	 0,169806802655224 
936	 0,17086841191401 
937	 0,173202596687879 
938	 0,172375585891191 
939	 0,171199888269931 
940	 0,170685262343337 
941	 0,170165847326073 
942	 0,170137748185125 
943	 0,170895281837431 
944	 0,170738425455862 
945	 0,169809535585755 
946	 0,16885761421889 
947	 0,169390404652463 
948	 0,171132580493022 
949	 0,171447638111037 
950	 0,170802628542178 
951	 0,169668821965936 
952	 0,169084782575792 
953	 0,169448928075409 
954	 0,170924803517944 
955	 0,170560817983288 
956	 0,168646320167755 
957	 0,167544423874233 
958	 0,167169215218554 
959	 0,167427765636586 
960	 0,167507455229508 
961	 0,167736342419916 
962	 0,168167682470905 
963	 0,167001509563174 
964	 0,16512118716074 
965	 0,164219139160843 
966	 0,164224494905067 
967	 0,165059998143689 
968	 0,166566205918199 
969	 0,167213712919058 
970	 0,166677237828851 
971	 0,167370931630867 
972	 0,168012891624363 
973	 0,167447581624456 
974	 0,16762769873564 
975	 0,168409763593598 
976	 0,168983942384387 
977	 0,168798536688362 
978	 0,16781246933925 
979	 0,166452564344572 
980	 0,165593778614165 
981	 0,165863163357316 
982	 0,167868950281981 
983	 0,169679935490204 
984	 0,169386402210064 
985	 0,168508630958218 
986	 0,167993027292944 
987	 0,169066554884293 
988	 0,170040274647713 
989	 0,170408824353107 
990	 0,170469059194098 
991	 0,170070154264806 
992	 0,169335020457397 
993	 0,169282880958922 
994	 0,169374223036475 
995	 0,169104866787779 
996	 0,170730498183471 
997	 0,172802510216173 
998	 0,171795443512424 
999	 0,171724656433011 
1000	 0,172726252269747 
1001	 0,170905559077201 
1002	 0,169524122728911 
1003	 0,170301872945086 
1004	 0,172753944777667 
1005	 0,174495851462889 
1006	 0,173631484613307 
1007	 0,175218282426556 
1008	 0,177969017051986 
1009	 0,178124612790321 
1010	 0,177761028644412 
1011	 0,177019334241847 
1012	 0,174184930758076 
1013	 0,174121338438037 
1014	 0,177416526316834 
1015	 0,175235050078555 
1016	 0,171478557277688 
1017	 0,170169544551915 
1018	 0,172288303774526 
1019	 0,174619795138275 
1020	 0,172373264650133 
1021	 0,176186797536325 
1022	 0,183817442946215 
1023	 0,181856222623643 
1024	 0,179645280984935 
1025	 0,179951972064383 
1026	 0,179885877759835 
1027	 0,181251684103142 
1028	 0,183855026450141 
1029	 0,177838522829103 
1030	 0,172269451475748 
1031	 0,178178679990789 
1032	 0,183043593919395 
1033	 0,184169841568849 
1034	 0,181551220300826 
1035	 0,179310896399161 
1036	 0,179155220188315 
1037	 0,181606066037483 
1038	 0,183670214608666 
1039	 0,183651413214893 
1040	 0,180941912619931 
1041	 0,179751662282208 
1042	 0,183090762822361 
1043	 0,185949822415378 
1044	 0,187357445979706 
1045	 0,187227718164398 
1046	 0,189869911062522 
1047	 0,192865563869381 
1048	 0,188192294215292 
1049	 0,187842156241072 
1050	 0,192237411770577 
1051	 0,187243558071741 
1052	 0,186810970281716 
1053	 0,195178492166023 
1054	 0,196074210216175 
1055	 0,189191800849072 
1056	 0,177571593971791 
1057	 0,182639440950708 
1058	 0,189805036146278 
1059	 0,176059890612278 
1060	 0,182297035374994 
1061	 0,200375405822279 
1062	 0,191737966326174 
1063	 0,183750005665694 
1064	 0,183922286736867 
1065	 0,18935902425381 
1066	 0,194774286270953 
1067	 0,196210507490667 
1068	 0,188418829814926 
1069	 0,179916948989511 
1070	 0,178217966740513 
1071	 0,181029775944279 
1072	 0,179742521480103 
1073	 0,166692085638492 
1074	 0,175994650833305 
1075	 0,192861501562546 
