Wavelength	ABBE00232.asd
325	 0,028040412010878 
326	 5,11116676405933E-02 
327	 9,36761357131044E-02 
328	 0,101291285259261 
329	-1,84448951994591E-02 
330	-6,88606678710535E-02 
331	 0,100954690191425 
332	 7,22727553987996E-02 
333	-4,98208627172686E-02 
334	 7,16603766102434E-02 
335	 9,16201832403665E-02 
336	-8,86934042533406E-03 
337	 3,59635256680173E-02 
338	 9,22937397230086E-02 
339	 4,25071073303998E-02 
340	 8,01668012606573E-03 
341	 6,35215597005102E-03 
342	-0,012989079952747 
343	-4,05649531942848E-03 
344	 0,035502293860571 
345	 5,47362629174715E-02 
346	 0,077140626882945 
347	 0,124453999383389 
348	 6,99935356978052E-02 
349	-2,78902842072725E-02 
350	 2,03388839007545E-02 
351	 0,077219459550966 
352	 9,00818777381909E-02 
353	 8,50506740837321E-02 
354	 5,60128233681825E-02 
355	 6,56785624566809E-04 
356	-1,87679262198759E-02 
357	-1,86663273622636E-03 
358	 2,95861578907187E-02 
359	 3,14588494668663E-02 
360	-6,82401606993748E-03 
361	 8,06558228046152E-04 
362	 2,61868851707729E-02 
363	 1,70609934490873E-02 
364	 2,47248001408738E-02 
365	 4,79390197838394E-02 
366	 3,98308136612461E-02 
367	 2,63180649039338E-02 
368	 2,39971438171202E-02 
369	 2,80308764637879E-02 
370	 3,29340850214187E-02 
371	 2,95360484210295E-02 
372	 2,45188765036264E-02 
373	 1,89361990906359E-02 
374	 4,86568686833436E-03 
375	 5,54835078218282E-03 
376	 3,44175469529833E-02 
377	 4,43842549573951E-02 
378	 0,037049081492691 
379	 3,03771699176303E-02 
380	 2,49971551194974E-02 
381	 0,024585187547058 
382	 0,043464588797153 
383	 5,25807374990645E-02 
384	 0,028802774415578 
385	 1,60757591703932E-02 
386	 1,64005630844189E-02 
387	 9,99706894070669E-03 
388	 8,39930481951941E-03 
389	 1,34655938288543E-02 
390	 1,12981542206114E-02 
391	 1,23379634857663E-02 
392	 2,95037693353107E-02 
393	 2,76183194173606E-02 
394	 1,31680830985724E-02 
395	 2,82433673379686E-02 
396	 3,95567782298566E-02 
397	 3,10448887593982E-02 
398	 2,19208934360872E-02 
399	 1,77319062205455E-02 
400	 2,34564804267357E-02 
401	 2,35916408283823E-02 
402	 1,60190482432832E-02 
403	 8,46048402257465E-03 
404	 7,01291987640155E-03 
405	 1,40857378397534E-02 
406	 1,30183573600066E-02 
407	 8,8191588867515E-03 
408	 1,72942538598522E-02 
409	 1,96711976852741E-02 
410	 1,37340494549054E-02 
411	 1,55706437420812E-02 
412	 2,04278917100624E-02 
413	 2,29590598810349E-02 
414	 1,96404375526678E-02 
415	 1,35012953819102E-02 
416	 1,29256552192412E-02 
417	 1,81532161884324E-02 
418	 2,62101328182534E-02 
419	 1,87360053225915E-02 
420	 9,39016848935612E-03 
421	 1,71814850803146E-02 
422	 2,23378659190428E-02 
423	 2,10934754205191E-02 
424	 1,65761515236503E-02 
425	 1,33631138965735E-02 
426	 1,41476870975726E-02 
427	 1,44441166907571E-02 
428	 1,49139414439818E-02 
429	 1,79931367354686E-02 
430	 2,01444210034181E-02 
431	 2,05222407709806E-02 
432	 2,06646288806117E-02 
433	 0,020946985362655 
434	 2,13896074614458E-02 
435	 1,66921578270339E-02 
436	 1,13637288878834E-02 
437	 1,95419421709139E-02 
438	 2,43576556188046E-02 
439	 0,020467674430478 
440	 2,08330079525674E-02 
441	 2,15112595225876E-02 
442	 1,61932461663392E-02 
443	 1,65937206833906E-02 
444	 2,22701666145809E-02 
445	 2,23354760457129E-02 
446	 1,99039624226196E-02 
447	 1,72609517266385E-02 
448	 1,67143675375933E-02 
449	 1,82965457325475E-02 
450	 2,16912354298905E-02 
451	 2,15296161392933E-02 
452	 1,75136783575764E-02 
453	 1,71553387524223E-02 
454	 1,82060262411273E-02 
455	 1,81771965637749E-02 
456	 1,58081052929685E-02 
457	 1,27461979036504E-02 
458	 1,36214044713001E-02 
459	 0,01651823863837 
460	 1,98479584245423E-02 
461	 1,95547138132744E-02 
462	 1,82901278245927E-02 
463	 2,00937976201466E-02 
464	 2,02939197135798E-02 
465	 1,87101347594004E-02 
466	 1,88470896956345E-02 
467	 1,88597928044202E-02 
468	 1,77593739337711E-02 
469	 1,80669160358826E-02 
470	 1,95360957251876E-02 
471	 2,12742750908281E-02 
472	 2,06910478077286E-02 
473	 0,017734575257869 
474	 0,016348316467168 
475	 1,66918150702684E-02 
476	 1,85698430054907E-02 
477	 1,99903443704576E-02 
478	 0,019887151029756 
479	 1,62572705909803E-02 
480	 1,54777334769853E-02 
481	 0,019359576881631 
482	 1,73734937737297E-02 
483	 1,35428960881182E-02 
484	 1,54069708330488E-02 
485	 1,81958405635328E-02 
486	 1,97391936941174E-02 
487	 1,68709167474657E-02 
488	 1,41063816231128E-02 
489	 1,48626225415601E-02 
490	 1,65210055907057E-02 
491	 1,77929844804049E-02 
492	 1,66274580099875E-02 
493	 1,68079800537733E-02 
494	 1,90146633813249E-02 
495	 1,94907398101792E-02 
496	 1,80158895247877E-02 
497	 1,47566815441583E-02 
498	 1,37546630834343E-02 
499	 1,49735968269092E-02 
500	 1,50671135631685E-02 
501	 1,48442294484707E-02 
502	 1,49423236479906E-02 
503	 1,71002496482302E-02 
504	 1,93926645430342E-02 
505	 0,018149320289943 
506	 1,70541981621417E-02 
507	 1,69288676509804E-02 
508	 1,59224150095768E-02 
509	 1,55072586111435E-02 
510	 1,69350793950991E-02 
511	 1,75783407749833E-02 
512	 1,75587118722749E-02 
513	 1,88923843398372E-02 
514	 1,87082908635507E-02 
515	 1,63791977249679E-02 
516	 1,61651207991707E-02 
517	 1,74770553021077E-02 
518	 1,89346606067025E-02 
519	 1,86537268195693E-02 
520	 1,69473702483135E-02 
521	 1,69958210932055E-02 
522	 0,017443779708628 
523	 1,73072102287965E-02 
524	 1,74380606699522E-02 
525	 1,76250875621193E-02 
526	 1,70420562191781E-02 
527	 1,70037489306741E-02 
528	 1,76494054210149E-02 
529	 1,71099461175392E-02 
530	 1,62328661157099E-02 
531	 1,61303153068127E-02 
532	 1,59033570623685E-02 
533	 1,57581437799221E-02 
534	 1,70394863761872E-02 
535	 1,79471609690144E-02 
536	 1,75036737947727E-02 
537	 1,71712923026979E-02 
538	 1,71598232167074E-02 
539	 1,74720187092974E-02 
540	 1,77070070820958E-02 
541	 1,77467395358154E-02 
542	 1,78615681226181E-02 
543	 0,017628469700928 
544	 1,67166147651135E-02 
545	 1,73374528843063E-02 
546	 1,86689848486948E-02 
547	 1,71048654173158E-02 
548	 1,56699211163306E-02 
549	 1,58609601155116E-02 
550	 1,69379136652463E-02 
551	 1,78837795846946E-02 
552	 1,72811748328451E-02 
553	 1,67265737999792E-02 
554	 1,65464078151522E-02 
555	 1,59380720323861E-02 
556	 1,57076294767018E-02 
557	 1,64379014460135E-02 
558	 1,66210769179453E-02 
559	 1,62816199602165E-02 
560	 1,61668592377425E-02 
561	 1,63264908213704E-02 
562	 1,66734338207235E-02 
563	 1,63959149232808E-02 
564	 1,58601240766362E-02 
565	 1,56326070372135E-02 
566	 0,016131416559106 
567	 0,0170289136759 
568	 1,68006868323672E-02 
569	 1,64035718990872E-02 
570	 0,016508938671028 
571	 1,66852516814576E-02 
572	 1,68803804938646E-02 
573	 1,71298004590149E-02 
574	 1,72784446634167E-02 
575	 1,73246752298793E-02 
576	 1,74743339361088E-02 
577	 1,80915316454526E-02 
578	 1,95127180474345E-02 
579	 1,97012331901262E-02 
580	 1,88065967567045E-02 
581	 1,87541911589743E-02 
582	 1,94116774418113E-02 
583	 0,020501095310619 
584	 2,02609134039163E-02 
585	 1,94622331403209E-02 
586	 1,98649242409588E-02 
587	 2,04081341516998E-02 
588	 2,08301959278594E-02 
589	 2,14503990827348E-02 
590	 2,18289049359357E-02 
591	 2,15965006301564E-02 
592	 2,17386287365944E-02 
593	 0,022117418036955 
594	 2,18105147640952E-02 
595	 2,12908339918223E-02 
596	 2,09094407444955E-02 
597	 2,14244024868152E-02 
598	 2,21375257818942E-02 
599	 2,19062570863838E-02 
600	 2,16656738181305E-02 
601	 2,15357401911201E-02 
602	 2,08512190800478E-02 
603	 2,05016500810168E-02 
604	 2,10982666260167E-02 
605	 2,10707811732499E-02 
606	 2,06225533189186E-02 
607	 2,10180199672143E-02 
608	 0,020974900859539 
609	 2,02393423557681E-02 
610	 2,03707980568092E-02 
611	 2,03905630812686E-02 
612	 1,89586388797729E-02 
613	 1,86246756983846E-02 
614	 1,95059924418646E-02 
615	 1,98426371932424E-02 
616	 1,97836453263071E-02 
617	 1,94637251059461E-02 
618	 1,93681377425187E-02 
619	 1,94522360786815E-02 
620	 1,94835852671301E-02 
621	 1,93513189833555E-02 
622	 1,90398526946942E-02 
623	 1,86334400918077E-02 
624	 1,85853035468353E-02 
625	 1,93060926948323E-02 
626	 1,95913501564716E-02 
627	 1,93984374106551E-02 
628	 1,94498989401994E-02 
629	 1,94320743777784E-02 
630	 1,92633075062134E-02 
631	 1,94329087119443E-02 
632	 1,98142696420173E-02 
633	 2,01337205122154E-02 
634	 2,00953840808743E-02 
635	 1,98236678437676E-02 
636	 2,02014892664982E-02 
637	 2,08125609908899E-02 
638	 2,12830033617064E-02 
639	 2,18900772876297E-02 
640	 2,24218930400055E-02 
641	 0,022281430993826 
642	 0,0219714375364 
643	 2,17690779807157E-02 
644	 2,18735544012223E-02 
645	 2,22237192334701E-02 
646	 2,27096986721696E-02 
647	 2,27819593462322E-02 
648	 0,022544712791706 
649	 2,29643189015915E-02 
650	 2,31819029350152E-02 
651	 2,26788945429703E-02 
652	 2,23985954324747E-02 
653	 2,21172105185734E-02 
654	 2,10357399368796E-02 
655	 2,01805693479267E-02 
656	 1,99470278498919E-02 
657	 2,03628138150596E-02 
658	 2,06679716108502E-02 
659	 2,01138516900906E-02 
660	 1,97918094454851E-02 
661	 1,96760325848809E-02 
662	 1,89442066467304E-02 
663	 1,83609408571393E-02 
664	 1,82224241196989E-02 
665	 1,75970493525777E-02 
666	 1,70045043565597E-02 
667	 1,74097921610607E-02 
668	 1,77907172941016E-02 
669	 1,78904568453839E-02 
670	 0,018022566534074 
671	 1,79812109427454E-02 
672	 1,76477652395868E-02 
673	 1,76976562372729E-02 
674	 1,79353581549056E-02 
675	 1,75780660200313E-02 
676	 1,72770492599333E-02 
677	 0,017276756936073 
678	 0,017460379423543 
679	 1,77825666601708E-02 
680	 0,018193981659865 
681	 1,84922388640226E-02 
682	 1,86665716529466E-02 
683	 1,89330325572665E-02 
684	 1,89346264226982E-02 
685	 1,85208698607251E-02 
686	 1,81497949013994E-02 
687	 1,82365399870357E-02 
688	 0,01940525876356 
689	 2,02861246252395E-02 
690	 2,06831812774172E-02 
691	 2,18240764236926E-02 
692	 2,31456655132114E-02 
693	 2,41636412589028E-02 
694	 2,59660796628122E-02 
695	 2,84644643299665E-02 
696	 0,030889440561014 
697	 3,35245915796325E-02 
698	 3,65453584996303E-02 
699	 4,03116033287047E-02 
700	 4,44748144603309E-02 
701	 4,85490952761699E-02 
702	 5,32284645658841E-02 
703	 5,84450867855762E-02 
704	 6,35498643361332E-02 
705	 6,84331136485495E-02 
706	 7,31192852860915E-02 
707	 7,86445908480043E-02 
708	 0,084284918506161 
709	 8,84263798539184E-02 
710	 9,27150383616221E-02 
711	 9,75686979465732E-02 
712	 0,102490460952192 
713	 0,106864886440978 
714	 0,110220268541963 
715	 0,11406881884901 
716	 0,118251831491773 
717	 0,121561665599476 
718	 0,124685744728351 
719	 0,12785390761306 
720	 0,130771987146552 
721	 0,133461784112961 
722	 0,135970330895433 
723	 0,138091592107506 
724	 0,139861001909436 
725	 0,141436041049773 
726	 0,143211003965961 
727	 0,145315593302412 
728	 0,146600616575529 
729	 0,147389582543206 
730	 0,148521809996185 
731	 0,149830608495623 
732	 0,15117137207262 
733	 0,152069666552826 
734	 0,152828297041148 
735	 0,153707537950032 
736	 0,154336093217943 
737	 0,154801023796127 
738	 0,155498218166413 
739	 0,155949523556466 
740	 0,156124616802497 
741	 0,156915793024087 
742	 0,157746020513939 
743	 0,157882803862648 
744	 0,157951557525853 
745	 0,158121951618232 
746	 0,158387609394584 
747	 0,158933131225906 
748	 0,159692284430317 
749	 0,159499788584808 
750	 0,158950972202347 
751	 0,159156476399603 
752	 0,159566389617577 
753	 0,15994456780754 
754	 0,159931234976217 
755	 0,160055982111101 
756	 0,160634191122639 
757	 0,160759373093041 
758	 0,160563009472152 
759	 0,160613381760333 
760	 0,160517338964633 
761	 0,160329385444928 
762	 0,160837835912218 
763	 0,161380768907041 
764	 0,161325950209634 
765	 0,161276410954206 
766	 0,161354827331839 
767	 0,161596610006372 
768	 0,161684043650373 
769	 0,161558593199471 
770	 0,161723285773814 
771	 0,161958287809344 
772	 0,161960526112171 
773	 0,161934738600703 
774	 0,161968750437115 
775	 0,162215276613356 
776	 0,162289298525762 
777	 0,162077972897458 
778	 0,162360947400238 
779	 0,162692161818355 
780	 0,162300243044335 
781	 0,162037737973546 
782	 0,162096377821178 
783	 0,162305891725466 
784	 0,16236340923775 
785	 0,162131451235875 
786	 0,162325988964102 
787	 0,162640765949926 
788	 0,162344199766194 
789	 0,162200248375723 
790	 0,162287191560537 
791	 0,161939270438226 
792	 0,161461719667274 
793	 0,161163552675006 
794	 0,161473272152728 
795	 0,162004465849307 
796	 0,161783232514836 
797	 0,16161208509647 
798	 0,161648589981561 
799	 0,161321705405196 
800	 0,160937102823132 
801	 0,160819013491694 
802	 0,161019052109868 
803	 0,161467295161212 
804	 0,162046010825081 
805	 0,162236241013717 
806	 0,16192181842497 
807	 0,161744121623764 
808	 0,161746147119837 
809	 0,16190549948736 
810	 0,161894014462075 
811	 0,161773915139635 
812	 0,161942452800456 
813	 0,162058724115088 
814	 0,162038084538433 
815	 0,162275226212393 
816	 0,162592316424942 
817	 0,162743538358577 
818	 0,162849387248792 
819	 0,162957552804832 
820	 0,163162248922882 
821	 0,163209388740352 
822	 0,163063761959123 
823	 0,163399014424482 
824	 0,163616924698227 
825	 0,162896629066141 
826	 0,162690652101697 
827	 0,163240375264276 
828	 0,164213664393921 
829	 0,164597170342529 
830	 0,164025918968297 
831	 0,164190104445221 
832	 0,164571630399399 
833	 0,164220003432711 
834	 0,164100375649462 
835	 0,164229620915536 
836	 0,163795646925521 
837	 0,163688849741146 
838	 0,164282144554844 
839	 0,164574708642218 
840	 0,164552114643481 
841	 0,164369421634103 
842	 0,164159592667427 
843	 0,164170348960741 
844	 0,165186468169016 
845	 0,165337278844815 
846	 0,163894560804989 
847	 0,163645752531877 
848	 0,163989141281565 
849	 0,163617516977392 
850	 0,163621181369626 
851	 0,163998572290281 
852	 0,163948142060248 
853	 0,163655464176766 
854	 0,163291360956362 
855	 0,163279892204128 
856	 0,163544922795273 
857	 0,163904076774777 
858	 0,163242694368326 
859	 0,16215521377143 
860	 0,163576658900823 
861	 0,164386558415385 
862	 0,163282016804853 
863	 0,163234150412756 
864	 0,163757742760753 
865	 0,163825457976507 
866	 0,164385183287119 
867	 0,165136407579264 
868	 0,164515327777331 
869	 0,164212920004895 
870	 0,164850174330411 
871	 0,164829165045078 
872	 0,164522360581833 
873	 0,164539726744675 
874	 0,164270625931603 
875	 0,164020564729318 
876	 0,165005935575056 
877	 0,166026636887285 
878	 0,166477272178473 
879	 0,166216093837302 
880	 0,16593979731567 
881	 0,166358947893985 
882	 0,166207709173023 
883	 0,165597730141494 
884	 0,165444130208876 
885	 0,165513352075231 
886	 0,165793362629533 
887	 0,16656943165765 
888	 0,167073849627694 
889	 0,166656674588932 
890	 0,166555174327575 
891	 0,166745806908541 
892	 0,1666304099434 
893	 0,166710648540812 
894	 0,167027703996919 
895	 0,167171523177861 
896	 0,166727864650459 
897	 0,165573635978383 
898	 0,165528969543442 
899	 0,166253288705694 
900	 0,166603785506017 
901	 0,166924855813355 
902	 0,167139786234081 
903	 0,166804991401304 
904	 0,166234204031462 
905	 0,16580955108688 
906	 0,166700734768352 
907	 0,167687871127818 
908	 0,166891095515906 
909	 0,166123516018074 
910	 0,165997667759979 
911	 0,166986140058906 
912	 0,167515138744473 
913	 0,166987568205743 
914	 0,167002489370219 
915	 0,166915525604356 
916	 0,165963108918725 
917	 0,166115402496806 
918	 0,167127269373072 
919	 0,167439022979048 
920	 0,167272309148219 
921	 0,166618960484573 
922	 0,16520248656572 
923	 0,164533769617669 
924	 0,165623517330806 
925	 0,165476066224118 
926	 0,16434303211924 
927	 0,163566155894581 
928	 0,16318118957534 
929	 0,163260304254603 
930	 0,163759557474974 
931	 0,164501906501354 
932	 0,165101194221496 
933	 0,163960232152481 
934	 0,162350707989075 
935	 0,162092826894129 
936	 0,161813702025326 
937	 0,161240064907573 
938	 0,160333345164199 
939	 0,160144849586014 
940	 0,160715371159993 
941	 0,159953822580244 
942	 0,159138908357369 
943	 0,159346577340349 
944	 0,158433649298503 
945	 0,156885753638438 
946	 0,156240028873997 
947	 0,155545094400452 
948	 0,154595038999469 
949	 0,153605408135053 
950	 0,152558397664833 
951	 0,151509080291496 
952	 0,150605664154142 
953	 0,150546137855515 
954	 0,151961612807128 
955	 0,151108353159345 
956	 0,148216767136613 
957	 0,145701018250581 
958	 0,14541552626803 
959	 0,147412955730542 
960	 0,148299378444034 
961	 0,14779279078934 
962	 0,145985674935855 
963	 0,144718831909228 
964	 0,144025422175628 
965	 0,143445846588142 
966	 0,144141873169959 
967	 0,145529586341224 
968	 0,145071778701314 
969	 0,144427303406804 
970	 0,14419378070133 
971	 0,143554072854232 
972	 0,143034342197649 
973	 0,143068382082786 
974	 0,142473340956937 
975	 0,142210716247863 
976	 0,144364732435512 
977	 0,144335332299164 
978	 0,142012419814837 
979	 0,141674304073262 
980	 0,141717645452017 
981	 0,141605628352975 
982	 0,142770280786167 
983	 0,144188267093815 
984	 0,144758139249798 
985	 0,145399813426692 
986	 0,145959995565445 
987	 0,145772440737352 
988	 0,147231737103445 
989	 0,149705524710273 
990	 0,14851910774532 
991	 0,146561620354442 
992	 0,145781255636691 
993	 0,147885900292966 
994	 0,148522400691481 
995	 0,14385237955198 
996	 0,145390989990442 
997	 0,149846410922717 
998	 0,14667409838788 
999	 0,146158524675409 
1000	 0,149209431591106 
1001	 0,148411994083636 
1002	 0,147110789171181 
1003	 0,14702744359233 
1004	 0,14775652061612 
1005	 0,148704516333866 
1006	 0,149258503164084 
1007	 0,149064847739572 
1008	 0,148883326557999 
1009	 0,150085080652862 
1010	 0,15307686607814 
1011	 0,156070457227599 
1012	 0,15249556672194 
1013	 0,152148435140175 
1014	 0,15741987682058 
1015	 0,156841977511743 
1016	 0,153092904382166 
1017	 0,149570575275975 
1018	 0,149923295468208 
1019	 0,152052290071144 
1020	 0,151954605560715 
1021	 0,155895924394174 
1022	 0,161882689839873 
1023	 0,160644685588854 
1024	 0,157427590194207 
1025	 0,154461637694193 
1026	 0,152609854109033 
1027	 0,154452046732866 
1028	 0,160124920115364 
1029	 0,159551268988264 
1030	 0,157144958792514 
1031	 0,159082122188408 
1032	 0,159572092330788 
1033	 0,159250461089704 
1034	 0,161611968376245 
1035	 0,160986100613946 
1036	 0,15894875757663 
1037	 0,167633104033655 
1038	 0,169957004756219 
1039	 0,160549528827084 
1040	 0,154875923655487 
1041	 0,1558531378111 
1042	 0,163744154332404 
1043	 0,167194473525946 
1044	 0,165876606890619 
1045	 0,162172604172779 
1046	 0,162801195835674 
1047	 0,166954695487137 
1048	 0,16856541507887 
1049	 0,17078343518525 
1050	 0,172342422398421 
1051	 0,163614781043706 
1052	 0,166092659178995 
1053	 0,184356032051126 
1054	 0,181861814162775 
1055	 0,170776519850019 
1056	 0,164465057901205 
1057	 0,16549788858824 
1058	 0,168498637225555 
1059	 0,165290634163169 
1060	 0,162361388265623 
1061	 0,161111077353162 
1062	 0,161050995548517 
1063	 0,167050423031645 
1064	 0,176680466206084 
1065	 0,175991839150613 
1066	 0,171986443799295 
1067	 0,167951526632919 
1068	 0,162780994496639 
1069	 0,158714338262483 
1070	 0,158525369686094 
1071	 0,166198698606277 
1072	 0,176466082897906 
1073	 0,181954795321961 
1074	 0,18016659399359 
1075	 0,173951249424944 
