Wavelength	ABBE00422.asd
325	 0,244053741774578 
326	 0,185421710215099 
327	 0,162570763418016 
328	 0,145461849694396 
329	 0,171371046502892 
330	 0,190468138629076 
331	 0,159224898182621 
332	 0,158642787386704 
333	 0,181966025517823 
334	 0,195350866177122 
335	 0,184546369092738 
336	 0,155422683863529 
337	 0,147089784563985 
338	 0,138663524944483 
339	 0,109143069589874 
340	 0,112158482637375 
341	 0,145052766873398 
342	 0,181339465426711 
343	 0,195692105562363 
344	 0,185021175026756 
345	 0,16688771328515 
346	 0,158997369441004 
347	 0,174129451030133 
348	 0,169630373758672 
349	 0,149622292802691 
350	 0,14133516746984 
351	 0,143299828596822 
352	 0,153705282693406 
353	 0,166671720280041 
354	 0,169149622760828 
355	 0,147169919823727 
356	 0,118318230362864 
357	 9,63165985192114E-02 
358	 0,111797335275206 
359	 0,121796829730297 
360	 0,110789761990727 
361	 0,119607733741181 
362	 0,139711174579039 
363	 0,154270699884609 
364	 0,144154907679739 
365	 0,119468441698425 
366	 0,133237481231363 
367	 0,149790970204529 
368	 0,14871779721402 
369	 0,155520951992782 
370	 0,162248460728895 
371	 0,14778268504443 
372	 0,141986696864472 
373	 0,147974774355544 
374	 0,13885804078897 
375	 0,131953320548627 
376	 0,140722677938416 
377	 0,158288685474783 
378	 0,17148895960088 
379	 0,153979048724209 
380	 0,139854325505828 
381	 0,139772763934518 
382	 0,149113887362798 
383	 0,151742210954082 
384	 0,135300568011504 
385	 0,125054582341521 
386	 0,123858514098992 
387	 0,124014568319315 
388	 0,129498086758959 
389	 0,13761461332713 
390	 0,12765304899661 
391	 0,118309124474548 
392	 0,132855477810092 
393	 0,141144275694027 
394	 0,139677463865508 
395	 0,13806080261398 
396	 0,139476938812732 
397	 0,145346984485396 
398	 0,152729066305871 
399	 0,156387881003174 
400	 0,1495724738305 
401	 0,14005617015128 
402	 0,132440853906563 
403	 0,1337177464375 
404	 0,13536752525035 
405	 0,131857504075041 
406	 0,128884213359866 
407	 0,12812258440252 
408	 0,131291817339928 
409	 0,133374986858792 
410	 0,133636140931166 
411	 0,136899422507327 
412	 0,138636810005866 
413	 0,134912500932405 
414	 0,13077764101632 
415	 0,128182368352232 
416	 0,12903666364086 
417	 0,132390671991087 
418	 0,136026779727814 
419	 0,129787720500411 
420	 0,123102944431376 
421	 0,12871761159317 
422	 0,134646465085394 
423	 0,137289874938118 
424	 0,134630880726243 
425	 0,133412838932715 
426	 0,136991357167534 
427	 0,1362802462385 
428	 0,13267086183461 
429	 0,130552168926041 
430	 0,129479840467056 
431	 0,130207649141446 
432	 0,136191332953471 
433	 0,140432848752426 
434	 0,13706445811859 
435	 0,132396034422887 
436	 0,129494530521661 
437	 0,132453840380285 
438	 0,13579169219224 
439	 0,137046741846089 
440	 0,136797076094904 
441	 0,136264111238736 
442	 0,136904834450843 
443	 0,138004529484218 
444	 0,138728571872684 
445	 0,136821221848103 
446	 0,135254973916897 
447	 0,135918946264842 
448	 0,138285771653804 
449	 0,140362869028473 
450	 0,138623038771838 
451	 0,138398544057877 
452	 0,1408292286307 
453	 0,142893457809862 
454	 0,143668823413664 
455	 0,1425950796489 
456	 0,142058807294092 
457	 0,142420929475184 
458	 0,143356042195679 
459	 0,143376413950587 
460	 0,142159641210094 
461	 0,142342809713957 
462	 0,142877179037134 
463	 0,142033375427402 
464	 0,142357126055741 
465	 0,14371824996351 
466	 0,143375869515571 
467	 0,143164751754295 
468	 0,144124160445765 
469	 0,143797701988419 
470	 0,143344217471529 
471	 0,14605377455897 
472	 0,146277693640839 
473	 0,143260183231269 
474	 0,142519881760125 
475	 0,142838629308928 
476	 0,142811226655569 
477	 0,145486446985968 
478	 0,14907340526766 
479	 0,147536985509574 
480	 0,145019226818126 
481	 0,143593685887735 
482	 0,142721870157386 
483	 0,142594357748579 
484	 0,143572585902035 
485	 0,143159086654766 
486	 0,141497301929338 
487	 0,141999666224021 
488	 0,142261211817667 
489	 0,140746210039799 
490	 0,142118128266858 
491	 0,144834443143906 
492	 0,143915215708421 
493	 0,142460705192462 
494	 0,141475208309285 
495	 0,1403877632229 
496	 0,139282540361305 
497	 0,138286457713967 
498	 0,139008988508363 
499	 0,140853785353311 
500	 0,140828700304499 
501	 0,14112317508843 
502	 0,142841851101008 
503	 0,144552991972987 
504	 0,145421261196938 
505	 0,144285622512238 
506	 0,14388883388558 
507	 0,144717594735342 
508	 0,144651198407229 
509	 0,144865916065728 
510	 0,146407775045983 
511	 0,147452361998348 
512	 0,148237437024447 
513	 0,150609670494102 
514	 0,151632132172871 
515	 0,150478041133325 
516	 0,150529655205413 
517	 0,151621791107154 
518	 0,153076747843052 
519	 0,152793604194675 
520	 0,151213392585313 
521	 0,15221641356276 
522	 0,1529635435929 
523	 0,15161063010273 
524	 0,151962847745197 
525	 0,15329786455355 
526	 0,152691978096672 
527	 0,151864904305819 
528	 0,151429244392022 
529	 0,151518045308719 
530	 0,151421282479475 
531	 0,150342780767746 
532	 0,149700502655575 
533	 0,14981383138105 
534	 0,150654655097543 
535	 0,151114272330376 
536	 0,150647300382294 
537	 0,150718246799174 
538	 0,15128296093941 
539	 0,151993784173501 
540	 0,151729365258274 
541	 0,150557080787962 
542	 0,150522183719408 
543	 0,151160752807266 
544	 0,151886076358675 
545	 0,152263084405554 
546	 0,152342028311786 
547	 0,152646995372209 
548	 0,152806887892671 
549	 0,152718826347844 
550	 0,152901070382291 
551	 0,153341854889216 
552	 0,153971446929086 
553	 0,153890921229359 
554	 0,153101371717855 
555	 0,152774296854707 
556	 0,152551743942684 
557	 0,152107823243047 
558	 0,151469352712308 
559	 0,150889708952365 
560	 0,151061665429157 
561	 0,150878233578872 
562	 0,150016927580205 
563	 0,149509110380176 
564	 0,149241540916908 
565	 0,148932425558069 
566	 0,148914778199876 
567	 0,149273687507764 
568	 0,150115829133805 
569	 0,150564383858434 
570	 0,15018090072858 
571	 0,151097832078431 
572	 0,152826313154475 
573	 0,153542309599888 
574	 0,15443261629598 
575	 0,155977962290249 
576	 0,158464735807614 
577	 0,161172282205242 
578	 0,163277905626122 
579	 0,164936525770327 
580	 0,166190569841612 
581	 0,167010925191584 
582	 0,168223224522576 
583	 0,170179111855117 
584	 0,171506329235897 
585	 0,172522677872013 
586	 0,174158153043488 
587	 0,175204805598462 
588	 0,175549763403732 
589	 0,176269602871567 
590	 0,177491388494958 
591	 0,179193651033934 
592	 0,179669904763951 
593	 0,179352321594139 
594	 0,180515469513317 
595	 0,181054759782707 
596	 0,180259465170946 
597	 0,180314381863822 
598	 0,180779921616359 
599	 0,180661156740057 
600	 0,180235324393491 
601	 0,179672475161707 
602	 0,17933228660653 
603	 0,179213803155065 
604	 0,179215673558502 
605	 0,178232058335714 
606	 0,176729030665924 
607	 0,176237552474399 
608	 0,176071022858707 
609	 0,175824136403843 
610	 0,174652899490915 
611	 0,1732214426326 
612	 0,17243788935478 
613	 0,171386373818414 
614	 0,170212549245518 
615	 0,170099810926776 
616	 0,170122337080001 
617	 0,16966840851245 
618	 0,168946640913612 
619	 0,168395248655182 
620	 0,1689064071867 
621	 0,168751503751228 
622	 0,167658189113697 
623	 0,167220640562277 
624	 0,16750751158486 
625	 0,168433163286036 
626	 0,168599827733512 
627	 0,168242323208974 
628	 0,169022995591205 
629	 0,169920509630075 
630	 0,170390996066297 
631	 0,170496012359652 
632	 0,170684625955614 
633	 0,171652505032926 
634	 0,172794448140711 
635	 0,1738634357371 
636	 0,174687741838467 
637	 0,175406381098975 
638	 0,176186443408446 
639	 0,177503657340732 
640	 0,179071403344978 
641	 0,179950858997003 
642	 0,180949685548788 
643	 0,182187505487969 
644	 0,182395739486371 
645	 0,182399722368116 
646	 0,183404357526041 
647	 0,183706229141442 
648	 0,183069093478159 
649	 0,1822038322626 
650	 0,181548030001254 
651	 0,181277491680145 
652	 0,180044499867618 
653	 0,178149907119658 
654	 0,176600617822561 
655	 0,175125481252317 
656	 0,173581239395514 
657	 0,171623252098887 
658	 0,169303173630854 
659	 0,166723866900056 
660	 0,164433119440087 
661	 0,16245058129887 
662	 0,160379300275442 
663	 0,158492189629159 
664	 0,15687075347917 
665	 0,15507593641063 
666	 0,153368371186307 
667	 0,152228809246079 
668	 0,151121461552439 
669	 0,150019592737142 
670	 0,149441906690429 
671	 0,149051338103473 
672	 0,148579508970443 
673	 0,148342519359398 
674	 0,148250870572821 
675	 0,148002966520794 
676	 0,147712799535681 
677	 0,147402176448435 
678	 0,146895228111757 
679	 0,146718936540161 
680	 0,147484623176803 
681	 0,14831301262344 
682	 0,149070068083501 
683	 0,150039847717799 
684	 0,15124320365214 
685	 0,152747345125866 
686	 0,154696776818822 
687	 0,157481937005616 
688	 0,161755420960793 
689	 0,166197230399705 
690	 0,1705788217282 
691	 0,175779797274912 
692	 0,181972102294901 
693	 0,189273389133507 
694	 0,197454564941289 
695	 0,206609397408965 
696	 0,217097624514176 
697	 0,228493901998695 
698	 0,240484954504323 
699	 0,252533228250974 
700	 0,264870008608613 
701	 0,277877969272989 
702	 0,29103321457668 
703	 0,304091198215373 
704	 0,317111427981438 
705	 0,329295467863221 
706	 0,340247848355362 
707	 0,351435294250459 
708	 0,36246070069779 
709	 0,372205454320743 
710	 0,381629297817309 
711	 0,390877098869567 
712	 0,39936430884619 
713	 0,40702026833377 
714	 0,413835196212676 
715	 0,420450625080311 
716	 0,426820294747222 
717	 0,432426583684907 
718	 0,437772139325426 
719	 0,442963780525477 
720	 0,447383417645993 
721	 0,451298802142879 
722	 0,45509673625898 
723	 0,458658204479819 
724	 0,461888397209526 
725	 0,464391425747346 
726	 0,466991248322846 
727	 0,470036858607846 
728	 0,471801995312681 
729	 0,472876525578889 
730	 0,474713376029244 
731	 0,476498495519489 
732	 0,478025389683286 
733	 0,479396160626446 
734	 0,480755896666139 
735	 0,482194086528292 
736	 0,483195749120176 
737	 0,483959166585451 
738	 0,485250163126398 
739	 0,486251618564397 
740	 0,486703401652239 
741	 0,486997181043154 
742	 0,487353088662887 
743	 0,487979877670871 
744	 0,488667743485587 
745	 0,489349655360342 
746	 0,490015267451759 
747	 0,49059832673902 
748	 0,491023643920587 
749	 0,491056051246955 
750	 0,491027872598311 
751	 0,491482689738191 
752	 0,491783756464142 
753	 0,491824738008284 
754	 0,491888952288185 
755	 0,492048786878635 
756	 0,492352901364895 
757	 0,492747827008566 
758	 0,493115001907686 
759	 0,493215600432712 
760	 0,493542454150312 
761	 0,494131163770251 
762	 0,494376855909176 
763	 0,494356028405741 
764	 0,494186301060405 
765	 0,493978724468044 
766	 0,493944986231082 
767	 0,494532699719914 
768	 0,495146765769131 
769	 0,495517101515148 
770	 0,495731984998949 
771	 0,495795636102417 
772	 0,495719704736518 
773	 0,495816772687055 
774	 0,496096629075662 
775	 0,496360595723133 
776	 0,49647048305572 
777	 0,49639710194701 
778	 0,496560411693994 
779	 0,49673155581132 
780	 0,49649835440544 
781	 0,496731443736883 
782	 0,497336997910872 
783	 0,497160465104052 
784	 0,496738454899382 
785	 0,496484154836053 
786	 0,496646619150996 
787	 0,496984032251037 
788	 0,496995233507812 
789	 0,496992920320179 
790	 0,497060312419327 
791	 0,497196640376993 
792	 0,497188931152469 
793	 0,496901333492367 
794	 0,496762291799035 
795	 0,49680395927297 
796	 0,496941064727675 
797	 0,496973500636352 
798	 0,496854112184254 
799	 0,496750535517833 
800	 0,496764055261461 
801	 0,496962339342415 
802	 0,497019146676496 
803	 0,497026105456409 
804	 0,497395659786653 
805	 0,497697929011286 
806	 0,497869067139211 
807	 0,498515549462518 
808	 0,499114755277931 
809	 0,499082506500176 
810	 0,498831207349551 
811	 0,498634925209951 
812	 0,499002040479442 
813	 0,499237220332956 
814	 0,499087437851098 
815	 0,498928914377625 
816	 0,499116177022061 
817	 0,499991781009478 
818	 0,500532914636021 
819	 0,500573235498354 
820	 0,500358754403134 
821	 0,50044455090626 
822	 0,501003435654318 
823	 0,501093193054826 
824	 0,501089370199298 
825	 0,501585882402335 
826	 0,5020531104295 
827	 0,502328293621428 
828	 0,502305054621622 
829	 0,502370020354826 
830	 0,502759604133682 
831	 0,503584392950196 
832	 0,504148165341662 
833	 0,503530477617496 
834	 0,503244557125176 
835	 0,50354761902312 
836	 0,503948500714651 
837	 0,504061018858799 
838	 0,503778818938852 
839	 0,504097943357726 
840	 0,504596727960438 
841	 0,504534135704842 
842	 0,5041994777015 
843	 0,503857322413161 
844	 0,504117830267568 
845	 0,504406917682955 
846	 0,504414428542244 
847	 0,504390329145457 
848	 0,504433980033905 
849	 0,504645955883302 
850	 0,504611167117208 
851	 0,504252916314014 
852	 0,503649656282048 
853	 0,503260450160772 
854	 0,503360415763251 
855	 0,503820959924927 
856	 0,504378617897385 
857	 0,504709826794346 
858	 0,504193814422504 
859	 0,503273588620111 
860	 0,503869717853798 
861	 0,504328787709754 
862	 0,504023009638376 
863	 0,504886983420617 
864	 0,506010916438782 
865	 0,505993277192498 
866	 0,506229211269728 
867	 0,506756128220173 
868	 0,506655724092512 
869	 0,506617633555042 
870	 0,506953602022267 
871	 0,507378528048196 
872	 0,507825504216192 
873	 0,508232943857367 
874	 0,508129473621228 
875	 0,507791053884708 
876	 0,508268855283043 
877	 0,508947679403599 
878	 0,509436047123731 
879	 0,509083373150078 
880	 0,508843102143202 
881	 0,509705825854734 
882	 0,509667696672909 
883	 0,508954872039323 
884	 0,509180052233204 
885	 0,509788044202921 
886	 0,510501952333669 
887	 0,510952513545854 
888	 0,510894314595268 
889	 0,510211448464188 
890	 0,509951362652198 
891	 0,510126077893825 
892	 0,510276076221968 
893	 0,510497193730002 
894	 0,510744540822966 
895	 0,510814802495205 
896	 0,510838861384904 
897	 0,510911087469648 
898	 0,510817866296846 
899	 0,510723251291475 
900	 0,510960482734847 
901	 0,511209608390652 
902	 0,511501415917217 
903	 0,512374569406441 
904	 0,512950917483072 
905	 0,51276282902022 
906	 0,512829082281447 
907	 0,512903387192007 
908	 0,512466802247978 
909	 0,512377846113092 
910	 0,51264540489609 
911	 0,512587205710876 
912	 0,51253603265924 
913	 0,512622308098166 
914	 0,512689363189124 
915	 0,512669348480053 
916	 0,512541734760208 
917	 0,51319455435877 
918	 0,514052914593421 
919	 0,513197038102321 
920	 0,512520641851291 
921	 0,51262066819258 
922	 0,512878674445194 
923	 0,513056184192979 
924	 0,512966489688187 
925	 0,512691113431904 
926	 0,512432484168999 
927	 0,51258083580966 
928	 0,511507452519709 
929	 0,509590539518839 
930	 0,509807786021432 
931	 0,510724244406909 
932	 0,511257000909606 
933	 0,510463728602094 
934	 0,509040792185801 
935	 0,508077801394506 
936	 0,508527459854719 
937	 0,50956230215128 
938	 0,508122051096049 
939	 0,507252098499945 
940	 0,50765274371316 
941	 0,506586365328031 
942	 0,50519544566749 
943	 0,504575909025989 
944	 0,503788062427462 
945	 0,502959145794585 
946	 0,502602844632574 
947	 0,501787540265648 
948	 0,500557161077805 
949	 0,500242529767821 
950	 0,499196056594953 
951	 0,496908953289967 
952	 0,496562495270096 
953	 0,496879957891858 
954	 0,495934538220409 
955	 0,494338361500192 
956	 0,492464332516132 
957	 0,490905690182486 
958	 0,4895925145088 
959	 0,488817078078711 
960	 0,489901410522122 
961	 0,490469477978301 
962	 0,488916486794902 
963	 0,48811007166297 
964	 0,487897024734093 
965	 0,487398428251403 
966	 0,487412030714681 
967	 0,487864823772181 
968	 0,488111667117849 
969	 0,487627109306086 
970	 0,486404000884989 
971	 0,485648682737216 
972	 0,485885243741127 
973	 0,487265775331137 
974	 0,487056657032775 
975	 0,486507208466719 
976	 0,488794209453033 
977	 0,487816071032978 
978	 0,48373870599786 
979	 0,482914668538133 
980	 0,483545343798675 
981	 0,48479271186121 
982	 0,486926070127236 
983	 0,488900899388844 
984	 0,489662251597641 
985	 0,489317771496172 
986	 0,488605807104061 
987	 0,488764307654283 
988	 0,490721700946036 
989	 0,493707442092361 
990	 0,494162775370213 
991	 0,49383695500139 
992	 0,493634031718274 
993	 0,492815675571514 
994	 0,492745591879592 
995	 0,494659891393869 
996	 0,49586561172882 
997	 0,496183431693411 
998	 0,496357597745282 
999	 0,495958531420919 
1000	 0,495629871367345 
1001	 0,498038667665533 
1002	 0,499065850175167 
1003	 0,497640226974654 
1004	 0,500813135015027 
1005	 0,503832796791262 
1006	 0,502161322625546 
1007	 0,504070740526947 
1008	 0,507126176394735 
1009	 0,504600717151185 
1010	 0,504996552443862 
1011	 0,508535466145138 
1012	 0,508255974296952 
1013	 0,507631177611742 
1014	 0,507903647159357 
1015	 0,507479720089135 
1016	 0,506904211910352 
1017	 0,506903652040962 
1018	 0,509268397465731 
1019	 0,511281678070545 
1020	 0,508815732687932 
1021	 0,510989378820834 
1022	 0,517393298030854 
1023	 0,521241995155905 
1024	 0,519820337965129 
1025	 0,514378475854063 
1026	 0,516297738539563 
1027	 0,517363523031736 
1028	 0,513561921557739 
1029	 0,517553685369725 
1030	 0,523487085313382 
1031	 0,52314791482311 
1032	 0,519263435106119 
1033	 0,517078941880574 
1034	 0,525922699943512 
1035	 0,530280157281281 
1036	 0,527040611927272 
1037	 0,522612800814189 
1038	 0,520867289732261 
1039	 0,522893200082128 
1040	 0,521814107797637 
1041	 0,523387447297658 
1042	 0,531068336593558 
1043	 0,531008060735314 
1044	 0,527850447681521 
1045	 0,530259200166733 
1046	 0,530749371774704 
1047	 0,528737636968031 
1048	 0,526132403235106 
1049	 0,530392658300176 
1050	 0,539020421008876 
1051	 0,532221681171001 
1052	 0,52880992903051 
1053	 0,536276271309768 
1054	 0,539487040078221 
1055	 0,539636412363619 
1056	 0,53870133518 
1057	 0,539305544667771 
1058	 0,536812907554507 
1059	 0,525218525064774 
1060	 0,526291497589154 
1061	 0,535591518008091 
1062	 0,531365883405431 
1063	 0,533350543309186 
1064	 0,541399579668465 
1065	 0,532654563430332 
1066	 0,529884112451712 
1067	 0,538737780949143 
1068	 0,534172827182874 
1069	 0,524836273696147 
1070	 0,520204170722369 
1071	 0,525085616694731 
1072	 0,53505388338161 
1073	 0,54279013912475 
1074	 0,535617703750279 
1075	 0,521399416877894 
