Wavelength	ABBE00335.asd
325	-0,303132353562823 
326	-0,100798619806884 
327	 5,72773417125701E-02 
328	 7,59620075181497E-02 
329	-7,67185034933514E-03 
330	-8,62946120005577E-03 
331	 0,205692601795884 
332	 0,19035627907227 
333	 4,01518847607643E-02 
334	 5,23738078084827E-02 
335	 0,153794307588615 
336	 0,26920838021555 
337	 0,160836686937854 
338	 2,30899628756929E-02 
339	 1,20006140881438E-02 
340	 9,34308603771967E-02 
341	 0,182676360595573 
342	 0,176235485557246 
343	 0,164378387255707 
344	 0,169798831206167 
345	 0,176759727866203 
346	 0,187589363552373 
347	 0,203634693256802 
348	 0,177096298424462 
349	 0,1311735211799 
350	 0,133363409863034 
351	 0,172877668916774 
352	 0,230229791189674 
353	 0,225683446575248 
354	 0,186545217491672 
355	 0,160655968425863 
356	 0,162081245289623 
357	 0,186063530164276 
358	 0,217324691476443 
359	 0,227531143984444 
360	 0,207101443341435 
361	 0,188619402758793 
362	 0,177694202751239 
363	 0,17428403339966 
364	 0,197805088174291 
365	 0,234731027052975 
366	 0,225018478435167 
367	 0,197137026245141 
368	 0,174366359533537 
369	 0,181643324191424 
370	 0,204810005148939 
371	 0,211676096414297 
372	 0,216365469023016 
373	 0,219846047950053 
374	 0,211789323120713 
375	 0,204842044044592 
376	 0,208181538471241 
377	 0,208071102675796 
378	 0,205344340910112 
379	 0,207205753132462 
380	 0,200273357714859 
381	 0,188704732639176 
382	 0,217529622194656 
383	 0,244561112212721 
384	 0,233529373821386 
385	 0,215547066213139 
386	 0,204584542895071 
387	 0,221182542766418 
388	 0,226790062560808 
389	 0,210770915642837 
390	 0,201952491029108 
391	 0,206031521997736 
392	 0,226434502650532 
393	 0,231391250199373 
394	 0,221834863964512 
395	 0,222029215224592 
396	 0,224035764274515 
397	 0,225022711454261 
398	 0,235789057610914 
399	 0,244012782026782 
400	 0,23032129917876 
401	 0,217555731910634 
402	 0,213644143909684 
403	 0,223263784263897 
404	 0,22749301919379 
405	 0,21615033683657 
406	 0,220618019445661 
407	 0,232965603656707 
408	 0,228179335254898 
409	 0,225850335082641 
410	 0,230151856642348 
411	 0,233789238525528 
412	 0,233667188817164 
413	 0,22796842274851 
414	 0,224745093576603 
415	 0,225326653048216 
416	 0,229314823282194 
417	 0,231285164049444 
418	 0,229429520632772 
419	 0,22739570868297 
420	 0,227927299202787 
421	 0,233912485496751 
422	 0,236186463603916 
423	 0,234256045107614 
424	 0,234496715015808 
425	 0,232446639816042 
426	 0,226510208669988 
427	 0,225476639014934 
428	 0,228845858632525 
429	 0,234159784700723 
430	 0,235747495124249 
431	 0,233326093883992 
432	 0,234772352102235 
433	 0,236008415705671 
434	 0,233436266214604 
435	 0,231650422614656 
436	 0,232097410743313 
437	 0,236896672504378 
438	 0,237591336549978 
439	 0,232439067822395 
440	 0,233859960255919 
441	 0,237273371995427 
442	 0,235606427055667 
443	 0,235331283708945 
444	 0,237529071241927 
445	 0,241050431973345 
446	 0,242022364528946 
447	 0,238735799434122 
448	 0,238348073975252 
449	 0,240636899741173 
450	 0,243466905142333 
451	 0,244158980875145 
452	 0,242397186148852 
453	 0,241514501162675 
454	 0,242090345361313 
455	 0,244296246264809 
456	 0,244729471567154 
457	 0,243229401306067 
458	 0,240867770628435 
459	 0,240895982673588 
460	 0,243815753087293 
461	 0,24235723253752 
462	 0,240552260133614 
463	 0,244601742667151 
464	 0,247318501911343 
465	 0,247231316225662 
466	 0,245945714149897 
467	 0,244692767626162 
468	 0,244536047266071 
469	 0,246899815105983 
470	 0,249795081704698 
471	 0,249115441115459 
472	 0,247183013114303 
473	 0,245244904793446 
474	 0,245169807533604 
475	 0,245733627868874 
476	 0,245719215977039 
477	 0,248312314235993 
478	 0,251929512277511 
479	 0,250704048501414 
480	 0,250011544129703 
481	 0,251533671369907 
482	 0,248006502782634 
483	 0,244135056152316 
484	 0,247929784998836 
485	 0,250014229434795 
486	 0,248532220219177 
487	 0,246595689784919 
488	 0,245130480169217 
489	 0,244954168601844 
490	 0,247153092418794 
491	 0,249791812467664 
492	 0,248173942080116 
493	 0,247351429074742 
494	 0,248648723630591 
495	 0,249164937879267 
496	 0,248460537801817 
497	 0,246344687306135 
498	 0,245434183557884 
499	 0,246307301099454 
500	 0,248757187852128 
501	 0,250323582264776 
502	 0,249976082001797 
503	 0,252200774950816 
504	 0,254680654742292 
505	 0,252306955766714 
506	 0,251166103162455 
507	 0,252365387385786 
508	 0,25192347887984 
509	 0,251906769466103 
510	 0,254178927294707 
511	 0,256092306314408 
512	 0,257180865799794 
513	 0,25758752772914 
514	 0,258384288170837 
515	 0,259805652623969 
516	 0,259862845680405 
517	 0,25943155715955 
518	 0,260015344292522 
519	 0,259626685635017 
520	 0,25856837262821 
521	 0,259820131819446 
522	 0,260811855623993 
523	 0,259828221233134 
524	 0,259661459653386 
525	 0,26039670312647 
526	 0,261366051959534 
527	 0,261618372276364 
528	 0,260865492925478 
529	 0,259860313674749 
530	 0,25903240845265 
531	 0,258776471864297 
532	 0,258632619154754 
533	 0,258674312059889 
534	 0,259516818505831 
535	 0,260394662079223 
536	 0,26075979625614 
537	 0,260229988041927 
538	 0,259476717318541 
539	 0,259783328193416 
540	 0,260252502676413 
541	 0,260519675837333 
542	 0,260309430166535 
543	 0,259946329751675 
544	 0,25978302026571 
545	 0,26024769986403 
546	 0,261010979809035 
547	 0,260941668321267 
548	 0,260781588572391 
549	 0,26090962288849 
550	 0,261211342704228 
551	 0,261783943710611 
552	 0,262850177211799 
553	 0,262850915373302 
554	 0,261867952801486 
555	 0,262245353760601 
556	 0,262579134750642 
557	 0,261740484101835 
558	 0,261346773142367 
559	 0,26131982742441 
560	 0,260655416947679 
561	 0,260288147163019 
562	 0,260440390486118 
563	 0,260078393556651 
564	 0,25947536930512 
565	 0,259105643312455 
566	 0,259245079029859 
567	 0,259741990797021 
568	 0,259683609191769 
569	 0,259976058664116 
570	 0,261183026445666 
571	 0,262253241246654 
572	 0,263094408008579 
573	 0,263875268366485 
574	 0,264817740901115 
575	 0,266064292411551 
576	 0,267691875581751 
577	 0,269687545883787 
578	 0,272009156231742 
579	 0,273781150753749 
580	 0,274861004227351 
581	 0,275559978686996 
582	 0,276191296840633 
583	 0,277019117616233 
584	 0,278368284364019 
585	 0,279803691441698 
586	 0,280465027592706 
587	 0,281377691437571 
588	 0,282691783212761 
589	 0,283617404032838 
590	 0,284302768583671 
591	 0,284936263279976 
592	 0,285758930247403 
593	 0,286741279296428 
594	 0,287749162817579 
595	 0,288232956103837 
596	 0,288019817860764 
597	 0,287970989876461 
598	 0,288028267774157 
599	 0,287954671782714 
600	 0,28764854538218 
601	 0,287198978144631 
602	 0,287031224001265 
603	 0,287053260623615 
604	 0,28711879943842 
605	 0,286540026676915 
606	 0,285501125993405 
607	 0,284678570671937 
608	 0,284071366220864 
609	 0,283744449175431 
610	 0,283884556915497 
611	 0,283756254218243 
612	 0,282472045330298 
613	 0,281269346294681 
614	 0,280485195950311 
615	 0,280012420897684 
616	 0,279855519959377 
617	 0,27991807656555 
618	 0,279373039668842 
619	 0,278724611363505 
620	 0,279249869114314 
621	 0,279519297732069 
622	 0,279163878060819 
623	 0,278793450165662 
624	 0,278866228987383 
625	 0,279751340079162 
626	 0,279640146294812 
627	 0,278952466335094 
628	 0,280195961795432 
629	 0,281012455849168 
630	 0,280448208840373 
631	 0,281073315349449 
632	 0,282205027431453 
633	 0,282241905838194 
634	 0,282520081524997 
635	 0,283378430056852 
636	 0,284564172696964 
637	 0,285651604489112 
638	 0,286328627041716 
639	 0,287414174783347 
640	 0,288661763881616 
641	 0,289000258451107 
642	 0,289740267362538 
643	 0,291179016078679 
644	 0,291721721056362 
645	 0,291811942202187 
646	 0,292215582340768 
647	 0,292493755400106 
648	 0,292475377011088 
649	 0,29198702135635 
650	 0,291131245220166 
651	 0,290041476623619 
652	 0,289203022380348 
653	 0,288407131124476 
654	 0,287078433679393 
655	 0,285543574989521 
656	 0,284013962714931 
657	 0,28299430852218 
658	 0,281714675151848 
659	 0,279408404568088 
660	 0,277761638483186 
661	 0,276667019331479 
662	 0,274647433423275 
663	 0,272863239452547 
664	 0,271763556707833 
665	 0,270161935862232 
666	 0,268269748374152 
667	 0,266570199631549 
668	 0,265895940276327 
669	 0,266117888612467 
670	 0,265665917694233 
671	 0,265210058359589 
672	 0,2652683278604 
673	 0,265099551658864 
674	 0,264595197420416 
675	 0,263726233152822 
676	 0,263208705524891 
677	 0,263275834632986 
678	 0,263371057137208 
679	 0,263561932042858 
680	 0,263980766298365 
681	 0,264583270917554 
682	 0,265312022306069 
683	 0,265954494164905 
684	 0,266956645154336 
685	 0,268581273004184 
686	 0,270484101194166 
687	 0,272854927637978 
688	 0,276107840915962 
689	 0,279598995281371 
690	 0,283302858569917 
691	 0,287894841647459 
692	 0,293401137268503 
693	 0,299794770889792 
694	 0,306660838004428 
695	 0,314110581775357 
696	 0,322669855692958 
697	 0,331868756329773 
698	 0,341389275459209 
699	 0,350669647914705 
700	 0,360239938349499 
701	 0,370850912485593 
702	 0,38139176528681 
703	 0,391442045856869 
704	 0,40087807087305 
705	 0,409902261152784 
706	 0,418682640455132 
707	 0,42756532356595 
708	 0,436003421988733 
709	 0,4428987077197 
710	 0,449643138163047 
711	 0,456601397287197 
712	 0,463367380255522 
713	 0,469309283990534 
714	 0,473928329071409 
715	 0,478570397642708 
716	 0,483306240801353 
717	 0,487582219422804 
718	 0,491486181981973 
719	 0,495022794494622 
720	 0,498186202077376 
721	 0,501011235273124 
722	 0,503522535180127 
723	 0,506108614663522 
724	 0,508675610025071 
725	 0,510452978945323 
726	 0,512271480663777 
727	 0,514541101198026 
728	 0,516061175183837 
729	 0,517103122850161 
730	 0,518426733305463 
731	 0,519785966894934 
732	 0,521090352379116 
733	 0,522173193052131 
734	 0,523267249807967 
735	 0,52454082765908 
736	 0,525418096906301 
737	 0,525992755774358 
738	 0,526735558042179 
739	 0,527541791966028 
740	 0,528319332644668 
741	 0,528722052899157 
742	 0,528947929053374 
743	 0,529265239161353 
744	 0,529870167931772 
745	 0,530580936223852 
746	 0,530688449451895 
747	 0,530726297277188 
748	 0,531026272390343 
749	 0,531798622147842 
750	 0,532445770044873 
751	 0,532025972750077 
752	 0,531640755494705 
753	 0,531598300695611 
754	 0,531689111758451 
755	 0,53204330305862 
756	 0,532667700806364 
757	 0,532747644948366 
758	 0,532477396111786 
759	 0,532480560212668 
760	 0,532806215966886 
761	 0,533403207241529 
762	 0,533853066048998 
763	 0,534187806042064 
764	 0,534449102971985 
765	 0,534411052051239 
766	 0,534226808422468 
767	 0,534309550130462 
768	 0,534782165466611 
769	 0,535526920772653 
770	 0,535487738433679 
771	 0,535383075371821 
772	 0,536132464496638 
773	 0,536164366183707 
774	 0,535615280576809 
775	 0,536045927710745 
776	 0,536359589274142 
777	 0,536105708063837 
778	 0,536337282313856 
779	 0,536718697212202 
780	 0,53659039418155 
781	 0,536799257572894 
782	 0,537294647263109 
783	 0,537103507909468 
784	 0,536774902906206 
785	 0,536694574328258 
786	 0,536822691680189 
787	 0,536982233923792 
788	 0,536848830925083 
789	 0,536908389030232 
790	 0,537208535463816 
791	 0,537342646300857 
792	 0,537267354271007 
793	 0,536995334313009 
794	 0,536946511763389 
795	 0,537067553862122 
796	 0,537056298527879 
797	 0,53724179055142 
798	 0,537546744017095 
799	 0,537078533439068 
800	 0,536696662553047 
801	 0,537179288961004 
802	 0,537182018238153 
803	 0,536930238148636 
804	 0,537728986245178 
805	 0,538162503289401 
806	 0,537833821589246 
807	 0,537611101906485 
808	 0,537788409590095 
809	 0,538549100659 
810	 0,538541731539643 
811	 0,53793051571023 
812	 0,537944398729467 
813	 0,538375853120403 
814	 0,539018904996207 
815	 0,539001823229987 
816	 0,538943523945246 
817	 0,539642511945255 
818	 0,539983658755978 
819	 0,53989332925978 
820	 0,539947998202381 
821	 0,539947247111313 
822	 0,539893660827346 
823	 0,540345231366964 
824	 0,540760412913588 
825	 0,540403128198704 
826	 0,540682580479236 
827	 0,541529066651721 
828	 0,541612944120137 
829	 0,541635596252868 
830	 0,54193128931437 
831	 0,542219826831109 
832	 0,542433637762321 
833	 0,542521941465767 
834	 0,542617154955513 
835	 0,542759471893267 
836	 0,542977982833572 
837	 0,543020892869904 
838	 0,542865414119356 
839	 0,543392304623372 
840	 0,544055383741138 
841	 0,543966674263719 
842	 0,543701575277304 
843	 0,543411290913814 
844	 0,543026247378302 
845	 0,542961377653053 
846	 0,543352436967423 
847	 0,543404016611751 
848	 0,543292121367569 
849	 0,543400111504877 
850	 0,543313998318005 
851	 0,54303992735218 
852	 0,54291698492403 
853	 0,5428308599225 
854	 0,542762698050115 
855	 0,542958125994827 
856	 0,543320868030439 
857	 0,543684827335701 
858	 0,543456695109124 
859	 0,542864025665781 
860	 0,543111847287404 
861	 0,543438944073356 
862	 0,543518646738124 
863	 0,543921753645477 
864	 0,544499890923755 
865	 0,544990867670275 
866	 0,545687234322839 
867	 0,546232143563565 
868	 0,545239226111821 
869	 0,545006417798987 
870	 0,546354496859547 
871	 0,546861846154695 
872	 0,546847879898201 
873	 0,546975906992613 
874	 0,54712554607296 
875	 0,54722662392528 
876	 0,547050837716487 
877	 0,54705182587256 
878	 0,547387225361894 
879	 0,547703053723812 
880	 0,548042261422122 
881	 0,548436241111215 
882	 0,547932786622411 
883	 0,547031570068321 
884	 0,547496185941802 
885	 0,54816106157039 
886	 0,54857535581367 
887	 0,54875087505053 
888	 0,548770317691693 
889	 0,548726865802651 
890	 0,548634913606159 
891	 0,548592979062205 
892	 0,54877150784799 
893	 0,549106720964412 
894	 0,549427267891628 
895	 0,549215576342697 
896	 0,548613760344483 
897	 0,54784223899953 
898	 0,547547992827111 
899	 0,547861505042796 
900	 0,548807638008896 
901	 0,549355472460331 
902	 0,549396383750798 
903	 0,549955410913464 
904	 0,550091055328065 
905	 0,549462132567474 
906	 0,550183961756473 
907	 0,551184430812675 
908	 0,5506158947284 
909	 0,550035162691922 
910	 0,549866189870812 
911	 0,550130926035123 
912	 0,550600408354328 
913	 0,550964687008233 
914	 0,550216548427804 
915	 0,549504419682809 
916	 0,550137885941923 
917	 0,550909330622034 
918	 0,551456040400276 
919	 0,551554880563498 
920	 0,551509817553589 
921	 0,551510396652504 
922	 0,551884744651076 
923	 0,552022461646061 
924	 0,551525705745258 
925	 0,551923520026123 
926	 0,55248352421293 
927	 0,551479099244543 
928	 0,55025999852239 
929	 0,549451820447847 
930	 0,54961274213171 
931	 0,550414564462929 
932	 0,551401797237291 
933	 0,551218013037734 
934	 0,550364887785334 
935	 0,549731848051892 
936	 0,549930713123923 
937	 0,550549703752733 
938	 0,549973007799782 
939	 0,549485295068732 
940	 0,549213198655916 
941	 0,547112933638175 
942	 0,545520401967894 
943	 0,546411316737286 
944	 0,547097851780757 
945	 0,54715924272535 
946	 0,546703981669815 
947	 0,54650935788403 
948	 0,546573798057514 
949	 0,545999995430002 
950	 0,544912599530126 
951	 0,543673391627901 
952	 0,543943689551832 
953	 0,544837825998598 
954	 0,545007081281325 
955	 0,543194269560304 
956	 0,540398915656521 
957	 0,539789752017647 
958	 0,539616441516777 
959	 0,539432637343328 
960	 0,539861044326672 
961	 0,54046065131775 
962	 0,540743460430802 
963	 0,539738848612627 
964	 0,538442080485724 
965	 0,538530068010417 
966	 0,538715503522742 
967	 0,538606050288578 
968	 0,537926469238446 
969	 0,537944583114909 
970	 0,538696222400673 
971	 0,536928726617619 
972	 0,536244646249061 
973	 0,53956452426471 
974	 0,540043999038294 
975	 0,538876688489268 
976	 0,540342278400017 
977	 0,54021953488421 
978	 0,538226305205203 
979	 0,537181823701019 
980	 0,537115113720179 
981	 0,538176994463423 
982	 0,540841843499021 
983	 0,542922815100612 
984	 0,542308155375794 
985	 0,540903256077972 
986	 0,539565260367876 
987	 0,53904875387192 
988	 0,540845837254514 
989	 0,544066272285211 
990	 0,54427323539904 
991	 0,5431948050933 
992	 0,542053628322485 
993	 0,542146677763196 
994	 0,542465646991298 
995	 0,542015767382185 
996	 0,543712680579544 
997	 0,546064875625663 
998	 0,545180072960031 
999	 0,546162916669601 
1000	 0,549202494878991 
1001	 0,549795328377418 
1002	 0,548985478260836 
1003	 0,547917872511827 
1004	 0,550019847619672 
1005	 0,551915934526405 
1006	 0,55051654983761 
1007	 0,552170993560056 
1008	 0,555117399058447 
1009	 0,554425914880709 
1010	 0,553338246831444 
1011	 0,552729472033141 
1012	 0,552257018212025 
1013	 0,553727874880702 
1014	 0,556892080568463 
1015	 0,556690316542957 
1016	 0,554004724745253 
1017	 0,55071151900242 
1018	 0,553895019254948 
1019	 0,558341653857141 
1020	 0,555011030973039 
1021	 0,552479861182487 
1022	 0,553265812381988 
1023	 0,559182046788689 
1024	 0,56070042413746 
1025	 0,556456981240117 
1026	 0,557697836403088 
1027	 0,557834579269678 
1028	 0,553572994936847 
1029	 0,553878693736977 
1030	 0,557439588055886 
1031	 0,561235158573599 
1032	 0,560606721302443 
1033	 0,557310757191534 
1034	 0,556851526886276 
1035	 0,558418071095304 
1036	 0,561381154787943 
1037	 0,564609562188009 
1038	 0,564140627442432 
1039	 0,55958083429446 
1040	 0,55929612779337 
1041	 0,560151972277224 
1042	 0,56009450325473 
1043	 0,567970267789369 
1044	 0,575999365197128 
1045	 0,572893502265263 
1046	 0,571948499982678 
1047	 0,572165676487095 
1048	 0,563743030813825 
1049	 0,563169557309995 
1050	 0,570419617022608 
1051	 0,564568368956502 
1052	 0,560593817647077 
1053	 0,56482328890028 
1054	 0,568245665976903 
1055	 0,566499945922623 
1056	 0,557939469408396 
1057	 0,558663645328422 
1058	 0,563287482776345 
1059	 0,561354864674888 
1060	 0,566694801164845 
1061	 0,572762614033537 
1062	 0,558092980529438 
1063	 0,555642269293956 
1064	 0,569038397074216 
1065	 0,573808096455863 
1066	 0,568378793406761 
1067	 0,555996835723878 
1068	 0,557782480785247 
1069	 0,560094284309778 
1070	 0,55285533262781 
1071	 0,548923789912452 
1072	 0,553785715570794 
1073	 0,570022945560991 
1074	 0,567585024153426 
1075	 0,55053457393917 
