Wavelength	ABBE00417.asd
325	 7,19292930716228E-02 
326	 8,86634944486184E-02 
327	 0,077100003816454 
328	 9,19395104594106E-03 
329	 6,45631432649688E-02 
330	 0,108424478123767 
331	 0,012920274340874 
332	-3,58377521838672E-02 
333	-0,020042677547963 
334	 1,83303920985435E-02 
335	 0,122892245784492 
336	 0,245038544156074 
337	 0,157692466987416 
338	 1,38699123595125E-02 
339	-7,29507120278041E-02 
340	-7,41833241618844E-02 
341	-1,35668548156063E-02 
342	 3,02589172153674E-02 
343	 0,071879934813093 
344	 9,92689602856515E-02 
345	 2,66493956084896E-02 
346	-2,98144495096608E-02 
347	 3,52751056825447E-02 
348	 8,06138824087348E-02 
349	 8,43339064234971E-02 
350	 5,90330188888288E-02 
351	 5,11255475379309E-02 
352	 7,21949551006247E-02 
353	 7,50650072239354E-02 
354	 5,49471897673163E-02 
355	 1,59020814353641E-02 
356	 3,44469169580701E-03 
357	 1,81085384348209E-02 
358	 4,29554576353912E-02 
359	 5,13167139906911E-02 
360	 3,49371011827881E-02 
361	 3,00160947784754E-02 
362	 3,80176933331845E-02 
363	 0,054809946302505 
364	 5,21472666136904E-02 
365	 3,33614829832877E-02 
366	 0,036476889943034 
367	 4,51651246834342E-02 
368	 4,68466068557402E-02 
369	 2,58830004772505E-02 
370	 2,60013881499907E-03 
371	 2,01932523584364E-02 
372	 2,68118067176152E-02 
373	 1,51857991837051E-02 
374	 2,06803643385023E-02 
375	 3,48712070140728E-02 
376	 4,76951582262942E-02 
377	 3,68043336430676E-02 
378	 0,017888176010669 
379	 3,35746122991065E-02 
380	 3,08671611082824E-02 
381	 4,90346217194506E-03 
382	 2,53128329002644E-02 
383	 4,53369884490422E-02 
384	 2,28581944291617E-02 
385	 8,88656501848522E-03 
386	 8,88572012078598E-03 
387	 7,60519727372594E-03 
388	 2,14634935129171E-02 
389	 4,58921134595186E-02 
390	 2,51004749379413E-02 
391	 7,41905174123412E-04 
392	 0,025746266085987 
393	 0,034635673018434 
394	 0,023557903334665 
395	 0,023487677320671 
396	 2,71701052629366E-02 
397	 3,07292551856978E-02 
398	 3,35645327630273E-02 
399	 3,49058705659636E-02 
400	 3,43144982387649E-02 
401	 0,026998283160412 
402	 1,60151926704704E-02 
403	 1,56164755136094E-02 
404	 1,75753790000118E-02 
405	 1,63672679662441E-02 
406	 1,76209458484377E-02 
407	 1,95077916806382E-02 
408	 1,71068550841573E-02 
409	 1,43885531073568E-02 
410	 1,33051060927254E-02 
411	 1,72297128285473E-02 
412	 2,11740480942085E-02 
413	 2,05184474693637E-02 
414	 1,30990758347866E-02 
415	 5,93658217785336E-03 
416	 1,83053789254721E-02 
417	 2,72988602014269E-02 
418	 2,43732466073066E-02 
419	 1,87973028206021E-02 
420	 0,014749199104848 
421	 1,62629154215044E-02 
422	 1,70543686951956E-02 
423	 1,64142314515898E-02 
424	 1,72431538756156E-02 
425	 1,84514349567079E-02 
426	 1,90765569888595E-02 
427	 1,69805444086176E-02 
428	 1,49024302600505E-02 
429	 1,83639198641816E-02 
430	 2,02477883122699E-02 
431	 1,93494659587668E-02 
432	 2,08422412403112E-02 
433	 2,10343752334662E-02 
434	 1,68271824795164E-02 
435	 1,33204314831334E-02 
436	 1,27601048241561E-02 
437	 1,86767218270846E-02 
438	 2,12938835943833E-02 
439	 0,017916626138148 
440	 1,92834566506544E-02 
441	 2,21021767483064E-02 
442	 2,11048394191789E-02 
443	 0,019956645573338 
444	 1,97763964586016E-02 
445	 2,14552805855339E-02 
446	 2,22889821582607E-02 
447	 2,08140360428747E-02 
448	 1,99441748022254E-02 
449	 1,96145151349956E-02 
450	 0,018785852387657 
451	 1,87662994344675E-02 
452	 1,97121149988602E-02 
453	 2,07750717435958E-02 
454	 2,02811983013546E-02 
455	 1,70066004709884E-02 
456	 0,015639385023016 
457	 1,63135704768115E-02 
458	 1,66139111988821E-02 
459	 1,74418823640194E-02 
460	 1,86420099087616E-02 
461	 1,73871298488655E-02 
462	 1,62619117633545E-02 
463	 1,90051990797815E-02 
464	 1,95006311031575E-02 
465	 1,74025235262565E-02 
466	 1,69622089753808E-02 
467	 1,76229278139652E-02 
468	 1,88816400564549E-02 
469	 1,96338939041852E-02 
470	 0,019927143245735 
471	 2,04195801836458E-02 
472	 1,96544490539769E-02 
473	 1,77273421206204E-02 
474	 1,70962528443204E-02 
475	 1,72600308906057E-02 
476	 1,76037214246793E-02 
477	 1,90495206732357E-02 
478	 2,07498659997627E-02 
479	 2,00963945141223E-02 
480	 1,96847975870058E-02 
481	 2,02289230669409E-02 
482	 1,74907288106904E-02 
483	 1,44898533078164E-02 
484	 1,62654073482166E-02 
485	 0,017898224612437 
486	 1,79169927968029E-02 
487	 1,59246635534719E-02 
488	 1,51794300113461E-02 
489	 1,77976581085262E-02 
490	 1,84064533157666E-02 
491	 1,72994567373395E-02 
492	 1,70615160821589E-02 
493	 1,76760788926974E-02 
494	 1,89027678917122E-02 
495	 1,92548277713657E-02 
496	 1,82463163306923E-02 
497	 1,55511062046697E-02 
498	 1,50321485795486E-02 
499	 0,016430800590287 
500	 1,58793496508949E-02 
501	 1,54703123624647E-02 
502	 1,63281883061644E-02 
503	 1,78041857704209E-02 
504	 1,86821781952168E-02 
505	 0,016946259236618 
506	 1,62673728716299E-02 
507	 1,71484225335708E-02 
508	 1,64999824213379E-02 
509	 1,53958850667585E-02 
510	 1,49754358664857E-02 
511	 1,57710450331589E-02 
512	 0,017383933843994 
513	 1,87785357269918E-02 
514	 1,89836456709449E-02 
515	 1,79087674979324E-02 
516	 1,81610470677672E-02 
517	 1,90110215791514E-02 
518	 1,90981251242162E-02 
519	 1,83852452780037E-02 
520	 1,72643623608516E-02 
521	 1,71754499555766E-02 
522	 1,73164332608737E-02 
523	 1,71206207071551E-02 
524	 1,72154498634736E-02 
525	 1,75391771481863E-02 
526	 1,79124507177692E-02 
527	 1,74682766660516E-02 
528	 1,62638318359936E-02 
529	 1,63870876568844E-02 
530	 1,69130511885075E-02 
531	 1,66170981956576E-02 
532	 0,016374822609117 
533	 1,64522468866469E-02 
534	 1,71617919479434E-02 
535	 1,74465768533514E-02 
536	 1,68472828660108E-02 
537	 1,72365978306736E-02 
538	 1,80089909310759E-02 
539	 1,75948557767109E-02 
540	 1,70897811395439E-02 
541	 1,68201998676488E-02 
542	 1,66190426090121E-02 
543	 1,64794383249081E-02 
544	 1,64090850269633E-02 
545	 1,68006723130025E-02 
546	 1,72551882022083E-02 
547	 1,64049215464663E-02 
548	 1,58957740959018E-02 
549	 1,64153485083911E-02 
550	 1,65114787509318E-02 
551	 1,65929819361839E-02 
552	 1,76075967186367E-02 
553	 1,75015141307735E-02 
554	 1,63334877301099E-02 
555	 1,68920283796798E-02 
556	 1,74288831915096E-02 
557	 1,65311642813558E-02 
558	 1,60283815997992E-02 
559	 1,60336797216146E-02 
560	 1,58816705513441E-02 
561	 1,62863849606062E-02 
562	 1,72514437887996E-02 
563	 1,71970404329247E-02 
564	 1,65258513006362E-02 
565	 1,59463052219505E-02 
566	 1,66633405905737E-02 
567	 0,018200902434481 
568	 1,77996146027612E-02 
569	 0,016786002968853 
570	 1,61973994113993E-02 
571	 1,65139271424999E-02 
572	 0,017160099402573 
573	 1,66449089132661E-02 
574	 1,63482112574306E-02 
575	 1,67760591361445E-02 
576	 1,78552849372026E-02 
577	 1,88857382893167E-02 
578	 1,91079156824094E-02 
579	 1,92377511308922E-02 
580	 0,019180558450984 
581	 0,017908644404141 
582	 1,74947950284058E-02 
583	 1,88749777139958E-02 
584	 1,91704945797826E-02 
585	 1,88660523732328E-02 
586	 1,95885826717256E-02 
587	 1,93704989076888E-02 
588	 1,82119231476785E-02 
589	 1,86909768887558E-02 
590	 1,98147742231298E-02 
591	 2,05190636075778E-02 
592	 2,06999140792145E-02 
593	 2,03602838789344E-02 
594	 1,95459694488477E-02 
595	 1,90966575785541E-02 
596	 1,94317690607668E-02 
597	 0,020235631772512 
598	 2,08349344770233E-02 
599	 2,03241925333162E-02 
600	 0,019663992631684 
601	 1,92452061927704E-02 
602	 0,019281504917275 
603	 1,96313832714469E-02 
604	 2,00988013169522E-02 
605	 1,98801594038182E-02 
606	 1,93111917000953E-02 
607	 0,01960774731271 
608	 1,96328445409962E-02 
609	 1,91410840599084E-02 
610	 1,93908298077095E-02 
611	 0,019483293381934 
612	 1,82110540590082E-02 
613	 1,78394183298784E-02 
614	 1,83839087374746E-02 
615	 1,78728100871349E-02 
616	 1,74449324394052E-02 
617	 1,77916076440665E-02 
618	 1,82255510017094E-02 
619	 1,85628912944629E-02 
620	 1,86890499318621E-02 
621	 1,85530927318546E-02 
622	 1,81784877584465E-02 
623	 1,76323769839093E-02 
624	 1,75594482183693E-02 
625	 0,018537383791302 
626	 0,018565954396041 
627	 1,77938389945045E-02 
628	 1,79423441312409E-02 
629	 1,84028202664702E-02 
630	 1,87766919253001E-02 
631	 1,84228437518846E-02 
632	 1,78966303597295E-02 
633	 1,82057111727271E-02 
634	 1,86379145154225E-02 
635	 1,90293935484037E-02 
636	 1,96625218686159E-02 
637	 2,00031712976301E-02 
638	 1,96795731816679E-02 
639	 2,00432169127266E-02 
640	 2,08380797584438E-02 
641	 2,07863782149607E-02 
642	 2,06179654803451E-02 
643	 2,06256667178502E-02 
644	 2,07300661191618E-02 
645	 2,09909170335564E-02 
646	 2,14908921733689E-02 
647	 2,12463768141753E-02 
648	 0,020424821446164 
649	 2,04232361379726E-02 
650	 2,09399135160113E-02 
651	 2,16159348380205E-02 
652	 2,12272113769077E-02 
653	 2,01061219930518E-02 
654	 1,92435579329428E-02 
655	 0,018857082209993 
656	 1,90414556751329E-02 
657	 1,96623309966117E-02 
658	 1,98371342954658E-02 
659	 1,87496601125028E-02 
660	 1,84924798925119E-02 
661	 1,89531890529922E-02 
662	 0,018366814156288 
663	 1,79618889995994E-02 
664	 1,82070086318433E-02 
665	 1,78858106581211E-02 
666	 1,71192316926455E-02 
667	 1,62575764921274E-02 
668	 1,64176118480398E-02 
669	 1,74437646114047E-02 
670	 1,72893134401554E-02 
671	 0,01711863808087 
672	 1,78034952241617E-02 
673	 1,76999778619316E-02 
674	 1,70569950828167E-02 
675	 1,71492134186354E-02 
676	 1,71926967595537E-02 
677	 0,016968043086349 
678	 1,66841345863592E-02 
679	 1,69450882527117E-02 
680	 0,018402549422913 
681	 1,85281006982374E-02 
682	 0,017404312894306 
683	 1,73226545636998E-02 
684	 1,75709239112278E-02 
685	 1,76882423557277E-02 
686	 1,72435454818809E-02 
687	 1,69901145393764E-02 
688	 1,84215823412474E-02 
689	 1,92466849198014E-02 
690	 1,91387588646498E-02 
691	 2,00005550973799E-02 
692	 2,12046432521118E-02 
693	 0,022145596772688 
694	 2,33162403523324E-02 
695	 2,48914737865972E-02 
696	 2,70529795595059E-02 
697	 2,95731371887438E-02 
698	 3,23200607488148E-02 
699	 0,035155053181136 
700	 3,82277803547176E-02 
701	 4,17462557468942E-02 
702	 4,56254216979327E-02 
703	 4,97626676613327E-02 
704	 5,40741932983034E-02 
705	 5,80246261480664E-02 
706	 6,14041358848441E-02 
707	 6,56135362087111E-02 
708	 7,02177930659769E-02 
709	 7,40465226364132E-02 
710	 7,78420144158174E-02 
711	 8,17945031355472E-02 
712	 8,58504477672646E-02 
713	 8,95442449660505E-02 
714	 9,24755497857683E-02 
715	 9,52599078693367E-02 
716	 9,80425721918347E-02 
717	 0,100834813473224 
718	 0,103609509918866 
719	 0,106248722642011 
720	 0,108220582951681 
721	 0,109975019305401 
722	 0,112129873687688 
723	 0,114053423514423 
724	 0,115645941402951 
725	 0,117061812202722 
726	 0,118444426913924 
727	 0,119836450478371 
728	 0,120741462826941 
729	 0,121368704826484 
730	 0,122185331109804 
731	 0,123131392133584 
732	 0,124136380803915 
733	 0,124918922199736 
734	 0,125653340648008 
735	 0,126475429620406 
736	 0,127012426782421 
737	 0,127326890943753 
738	 0,127702198707808 
739	 0,128198237493155 
740	 0,12879815898137 
741	 0,129194911968424 
742	 0,129464174871267 
743	 0,129728972092989 
744	 0,130068269803413 
745	 0,130507673441787 
746	 0,13108348552802 
747	 0,131478140981658 
748	 0,131557617221839 
749	 0,131756591447328 
750	 0,13196550620505 
751	 0,131927436050292 
752	 0,132001143732552 
753	 0,132203920668465 
754	 0,132164220208243 
755	 0,132244497766603 
756	 0,132674078314498 
757	 0,132936564916328 
758	 0,133131992931543 
759	 0,133674691937841 
760	 0,133869272999993 
761	 0,133681745845343 
762	 0,134110156862961 
763	 0,134539075653135 
764	 0,13438227297298 
765	 0,134383620302666 
766	 0,134664330507331 
767	 0,13521403035106 
768	 0,135469494378275 
769	 0,135276289976198 
770	 0,13528020486042 
771	 0,135404806516506 
772	 0,135496150802402 
773	 0,13587279219753 
774	 0,136361362142225 
775	 0,136266139427161 
776	 0,135989609019292 
777	 0,135838966413116 
778	 0,136335257880351 
779	 0,137011947239398 
780	 0,137110408151815 
781	 0,137191535554903 
782	 0,137319894218425 
783	 0,137201960016264 
784	 0,137039770580583 
785	 0,136992072734054 
786	 0,13716585017531 
787	 0,137398327156526 
788	 0,137369307654434 
789	 0,137442366679544 
790	 0,137641250439219 
791	 0,137606866347325 
792	 0,137486941148334 
793	 0,137433484396632 
794	 0,137650401814892 
795	 0,138024528094244 
796	 0,138276749754066 
797	 0,138267003399633 
798	 0,138014539743789 
799	 0,137879812269942 
800	 0,137930838793196 
801	 0,138193793717327 
802	 0,138383403533137 
803	 0,138526354263817 
804	 0,138890281401788 
805	 0,139067680431497 
806	 0,138974001449912 
807	 0,139010837552861 
808	 0,139267806422422 
809	 0,139764490693802 
810	 0,139513007173076 
811	 0,138928144603031 
812	 0,139814687395367 
813	 0,140395656010603 
814	 0,140062615958404 
815	 0,140005261004713 
816	 0,140360907019212 
817	 0,141136521364799 
818	 0,141250553104239 
819	 0,140888035121071 
820	 0,141428492234583 
821	 0,141901797979834 
822	 0,141915392786293 
823	 0,142086918934276 
824	 0,142303600048941 
825	 0,142352114830209 
826	 0,142579953396382 
827	 0,142956970609695 
828	 0,143146221045087 
829	 0,143183502068905 
830	 0,143171423262006 
831	 0,143725886971617 
832	 0,144247303579346 
833	 0,143853483730473 
834	 0,143669820963432 
835	 0,143945706659603 
836	 0,144549723767135 
837	 0,144862304453369 
838	 0,144607147765188 
839	 0,144509219616086 
840	 0,144701471242565 
841	 0,145234806470847 
842	 0,145549019850201 
843	 0,145625223174737 
844	 0,14593547492804 
845	 0,146395879213353 
846	 0,146823255990965 
847	 0,146267885703854 
848	 0,145532065180364 
849	 0,145865301721357 
850	 0,146277467380426 
851	 0,146508333158689 
852	 0,146616015508549 
853	 0,146484015582488 
854	 0,146148754924047 
855	 0,146258261402572 
856	 0,146558159927455 
857	 0,146600931618536 
858	 0,146409376432965 
859	 0,146173130358665 
860	 0,146443150394688 
861	 0,146985577011086 
862	 0,147566965622629 
863	 0,147577680024299 
864	 0,147373763527107 
865	 0,147507847076674 
866	 0,148268127183743 
867	 0,149105454733344 
868	 0,148074055920745 
869	 0,147414769829308 
870	 0,148114221738553 
871	 0,148967335451289 
872	 0,149521979835058 
873	 0,149404509419663 
874	 0,149374391553645 
875	 0,149650884449429 
876	 0,150348959946715 
877	 0,15080689832715 
878	 0,15078188612763 
879	 0,150733962347108 
880	 0,150880111508227 
881	 0,151382409805199 
882	 0,151699077649103 
883	 0,151742214024108 
884	 0,151527640912077 
885	 0,1517159956192 
886	 0,152438768648999 
887	 0,153039843950269 
888	 0,152980986206169 
889	 0,151967611598734 
890	 0,152284384232084 
891	 0,153379358505136 
892	 0,15306142858094 
893	 0,153038370344502 
894	 0,153615424658946 
895	 0,153784754636821 
896	 0,153330134851753 
897	 0,152276319881311 
898	 0,15218975475695 
899	 0,15279792567491 
900	 0,153129058777717 
901	 0,153619014724495 
902	 0,154277981543414 
903	 0,154907697955929 
904	 0,155080693696865 
905	 0,154642893420155 
906	 0,154558138219292 
907	 0,154687899163685 
908	 0,154652091828131 
909	 0,154545247238716 
910	 0,154551009648088 
911	 0,155240136316444 
912	 0,155630036999285 
913	 0,155343526973031 
914	 0,155180169682499 
915	 0,155372386867569 
916	 0,156044046856261 
917	 0,156287514287027 
918	 0,156064273505367 
919	 0,155802933910058 
920	 0,155425997181605 
921	 0,155161164686689 
922	 0,156023762598989 
923	 0,156849652670894 
924	 0,15664052125494 
925	 0,156035041906071 
926	 0,155337714143586 
927	 0,154900343795694 
928	 0,154382346357703 
929	 0,154047240385354 
930	 0,155164270936216 
931	 0,156205039922683 
932	 0,156207621762453 
933	 0,155519269423337 
934	 0,154609901792941 
935	 0,154043631727198 
936	 0,153962803002119 
937	 0,154086373299386 
938	 0,153471281222747 
939	 0,153173140510549 
940	 0,153321480404045 
941	 0,152473764083052 
942	 0,151272601132175 
943	 0,15044308228693 
944	 0,15064759891258 
945	 0,15111676753877 
946	 0,15026962542734 
947	 0,148696294979866 
948	 0,147182827769941 
949	 0,147916035435761 
950	 0,148355367303521 
951	 0,147239862102476 
952	 0,146762617490805 
953	 0,146669584777784 
954	 0,146374746408336 
955	 0,145660774808527 
956	 0,144690334999771 
957	 0,144036011092851 
958	 0,143194444783546 
959	 0,142365143025869 
960	 0,143313188480927 
961	 0,143513550746326 
962	 0,141425811808128 
963	 0,141670972151732 
964	 0,142270019363395 
965	 0,13929585045669 
966	 0,13870419985029 
967	 0,140565245669487 
968	 0,140262384962955 
969	 0,139931925836291 
970	 0,140270992788754 
971	 0,140418106272896 
972	 0,139773781466079 
973	 0,138182030476451 
974	 0,139323900554395 
975	 0,142125895335406 
976	 0,143682512896091 
977	 0,141908271844185 
978	 0,138094618324967 
979	 0,138746697347597 
980	 0,140422004313353 
981	 0,14135963585847 
982	 0,142048747462414 
983	 0,142434457408651 
984	 0,142501594357507 
985	 0,142682067167131 
986	 0,142879391816984 
987	 0,142656062089565 
988	 0,143883616793383 
989	 0,145877314547363 
990	 0,144165614856834 
991	 0,142944036651386 
992	 0,144154380106971 
993	 0,144799657259897 
994	 0,145093687859919 
995	 0,145512324848322 
996	 0,146149431111974 
997	 0,146663709396626 
998	 0,146358672079368 
999	 0,146256510621769 
1000	 0,146633281854636 
1001	 0,147376966518758 
1002	 0,147416513600603 
1003	 0,146834159928369 
1004	 0,149675393749042 
1005	 0,151789710555911 
1006	 0,149406293563262 
1007	 0,149710701104156 
1008	 0,152397539460858 
1009	 0,154628951537225 
1010	 0,157050294725041 
1011	 0,158492987913065 
1012	 0,154831285422443 
1013	 0,152547872525555 
1014	 0,154042841104627 
1015	 0,155194172130753 
1016	 0,155084340757375 
1017	 0,153521269646787 
1018	 0,154175507770108 
1019	 0,156613864214493 
1020	 0,159237257413539 
1021	 0,160366381054158 
1022	 0,160097512566608 
1023	 0,160226752968118 
1024	 0,159112034973058 
1025	 0,156928747428767 
1026	 0,156258180270393 
1027	 0,158660373254286 
1028	 0,163907775042226 
1029	 0,164039388839705 
1030	 0,163103611810489 
1031	 0,1664705351239 
1032	 0,167174308170443 
1033	 0,166073132495683 
1034	 0,167701866339048 
1035	 0,165998672229156 
1036	 0,16196400117387 
1037	 0,164892838968996 
1038	 0,167903461165709 
1039	 0,167659879525237 
1040	 0,164038457112443 
1041	 0,16340653267568 
1042	 0,169644821410077 
1043	 0,169949349413795 
1044	 0,167393189098263 
1045	 0,168554849930089 
1046	 0,172341988997624 
1047	 0,175409151934781 
1048	 0,170417483898935 
1049	 0,169667268254953 
1050	 0,173880239767969 
1051	 0,169284968110679 
1052	 0,169952443439052 
1053	 0,180557768528714 
1054	 0,187347045961344 
1055	 0,184543615750032 
1056	 0,170757892802791 
1057	 0,173436530238198 
1058	 0,179559931119779 
1059	 0,16686931895108 
1060	 0,176125268534874 
1061	 0,195054412478715 
1062	 0,175787669650656 
1063	 0,168532980727986 
1064	 0,180032393345199 
1065	 0,177318302395894 
1066	 0,174995271935638 
1067	 0,17729831839978 
1068	 0,171855423760645 
1069	 0,171438079821195 
1070	 0,182610692316683 
1071	 0,1732244579772 
1072	 0,167705696243199 
1073	 0,195033580700758 
1074	 0,188745764417709 
1075	 0,160964172840722 
