Wavelength	ABBE00438.asd
325	-0,241277881892094 
326	 4,61975123132148E-02 
327	 0,153655526861475 
328	 3,62592900800597E-02 
329	 2,61257606490872E-02 
330	 9,08748416646643E-02 
331	 0,149480236967232 
332	 4,89692039074207E-02 
333	-8,02347757950295E-02 
334	 4,20739781136881E-02 
335	 0,139064278128556 
336	 0,142634765061978 
337	 5,11116940132119E-02 
338	-2,11676357410452E-02 
339	 1,60643238834046E-02 
340	 9,45850336246757E-02 
341	 0,139080005884494 
342	 8,65549919529995E-02 
343	 5,05678588122339E-02 
344	 5,01496626249302E-02 
345	 1,39849718867676E-02 
346	 7,23485148686838E-03 
347	 0,086840738525969 
348	 8,62221811165631E-02 
349	 2,85888253955209E-02 
350	 4,31240710030641E-02 
351	 7,33072349069979E-02 
352	 0,092188965244103 
353	 7,40111239591264E-02 
354	 3,52935247517992E-02 
355	 5,66893767195223E-03 
356	-7,6437580143374E-03 
357	-1,33016496384001E-03 
358	 3,90123331121321E-02 
359	 5,18037806427771E-02 
360	 1,94068813378049E-02 
361	 3,72927054388708E-02 
362	 6,24014025876661E-02 
363	 2,21973496515569E-02 
364	 1,65281519118825E-03 
365	 1,20363257683223E-02 
366	 1,70114984728633E-02 
367	 2,70592794540327E-02 
368	 4,40174635754062E-02 
369	 3,40146718442621E-02 
370	 1,49560830212345E-02 
371	 2,87474876493793E-02 
372	 2,48013032045326E-02 
373	 7,40191373643952E-04 
374	 7,12308256417587E-03 
375	 2,00344644775584E-02 
376	 0,020253380105747 
377	 2,10667598066028E-02 
378	 2,68888393674617E-02 
379	 4,58437022081511E-02 
380	 4,45159425442119E-02 
381	 2,30290516411703E-02 
382	 4,62809830616712E-02 
383	 6,12437629380217E-02 
384	 2,21736969315237E-02 
385	 1,54050961432957E-02 
386	 0,035344852737378 
387	 2,15706871442467E-02 
388	 1,65380528424131E-02 
389	 3,02839411877649E-02 
390	 2,62308278704878E-02 
391	 2,06582536641236E-02 
392	 3,53613885987454E-02 
393	 3,86995658354963E-02 
394	 2,82765358529728E-02 
395	 1,56319438903232E-02 
396	 1,00401089264042E-02 
397	 1,68461832617088E-02 
398	 0,034098950951474 
399	 4,67220384921014E-02 
400	 3,33055977073101E-02 
401	 0,030187301060354 
402	 4,06516603488822E-02 
403	 4,01438808008443E-02 
404	 0,033506303286168 
405	 2,52418438994375E-02 
406	 2,32584749515582E-02 
407	 2,61041596809205E-02 
408	 2,85613533684342E-02 
409	 2,85075802364626E-02 
410	 2,72500107707552E-02 
411	 3,57726853175031E-02 
412	 4,14445576035474E-02 
413	 3,34649375656323E-02 
414	 3,05244334999536E-02 
415	 3,33538095354458E-02 
416	 3,48658679835534E-02 
417	 3,51368897320497E-02 
418	 3,40951032241037E-02 
419	 3,24283898690896E-02 
420	 3,06587160351275E-02 
421	 2,93494949071661E-02 
422	 2,71434705511954E-02 
423	 2,55266081379679E-02 
424	 3,02664871923687E-02 
425	 0,034928564787785 
426	 3,52076412835105E-02 
427	 3,18872088492093E-02 
428	 2,77308716122435E-02 
429	 2,70377944496837E-02 
430	 2,92812065045394E-02 
431	 3,36889293317876E-02 
432	 3,87344643763249E-02 
433	 3,94437695834666E-02 
434	 3,21854274892134E-02 
435	 0,02715244035087 
436	 2,70255593209693E-02 
437	 3,37327995996998E-02 
438	 3,63043272808893E-02 
439	 3,18963015991458E-02 
440	 3,41678108134265E-02 
441	 3,79848705522163E-02 
442	 3,54835106849531E-02 
443	 3,46545010973908E-02 
444	 3,64842572700603E-02 
445	 3,80040522547007E-02 
446	 3,74886257101414E-02 
447	 3,43812186997869E-02 
448	 3,37470487959692E-02 
449	 3,53662184727444E-02 
450	 3,77979588741144E-02 
451	 3,64378841542983E-02 
452	 0,031809057251144 
453	 3,38008654058855E-02 
454	 3,69233320162821E-02 
455	 3,59631893331082E-02 
456	 3,62373579797728E-02 
457	 3,77635475702486E-02 
458	 3,79605777627848E-02 
459	 3,84536883364526E-02 
460	 3,92894918896573E-02 
461	 3,62014604957938E-02 
462	 0,03392296753384 
463	 3,91795999441575E-02 
464	 3,91203372104936E-02 
465	 3,38933458460453E-02 
466	 3,55666869701837E-02 
467	 3,93705479328901E-02 
468	 4,16730438987839E-02 
469	 3,99204214601155E-02 
470	 3,67632175770042E-02 
471	 3,82997997505659E-02 
472	 3,93998013649426E-02 
473	 3,86002268640154E-02 
474	 3,69539104904824E-02 
475	 3,60162566966506E-02 
476	 0,037192215220638 
477	 3,88034026383856E-02 
478	 4,01834261061723E-02 
479	 4,07522400768459E-02 
480	 4,12359584590802E-02 
481	 4,17546535020665E-02 
482	 4,07037677179486E-02 
483	 3,91803211225518E-02 
484	 3,89914429840541E-02 
485	 3,93836656930032E-02 
486	 3,98464434052387E-02 
487	 3,91742679197259E-02 
488	 3,87260720251716E-02 
489	 0,039511476402229 
490	 4,07254084754092E-02 
491	 4,15186398537912E-02 
492	 3,99866034886451E-02 
493	 4,06244074927461E-02 
494	 4,37589368452942E-02 
495	 4,19378231983597E-02 
496	 3,91194759457312E-02 
497	 4,02768689665757E-02 
498	 3,99953363757929E-02 
499	 0,038144080091091 
500	 3,79791184285718E-02 
501	 3,83037554160245E-02 
502	 3,86749321347826E-02 
503	 4,13076508751695E-02 
504	 4,39827306544569E-02 
505	 4,24605922142442E-02 
506	 4,12183436584934E-02 
507	 4,14445932732773E-02 
508	 4,17877005713306E-02 
509	 4,23619975968379E-02 
510	 4,32258987109885E-02 
511	 4,28017152999445E-02 
512	 4,19824572023765E-02 
513	 4,39328117697121E-02 
514	 4,54820127162594E-02 
515	 4,54000607686978E-02 
516	 4,52632353990594E-02 
517	 4,54958690045394E-02 
518	 4,64681300472428E-02 
519	 4,67290688015206E-02 
520	 0,046302237171715 
521	 0,046860229580924 
522	 4,70605678238648E-02 
523	 4,61156081694943E-02 
524	 4,66851505121998E-02 
525	 4,80728857605782E-02 
526	 4,77851958065348E-02 
527	 4,75185349816328E-02 
528	 4,77095737221571E-02 
529	 4,75538079121389E-02 
530	 4,72266963320195E-02 
531	 4,69916578783192E-02 
532	 4,71461123994785E-02 
533	 4,75473775073441E-02 
534	 4,74469642967541E-02 
535	 4,76969719731578E-02 
536	 4,86442692848211E-02 
537	 4,87070396152667E-02 
538	 4,84554634759424E-02 
539	 4,93943233091063E-02 
540	 0,049737235794279 
541	 4,92790477718261E-02 
542	 4,98760590600861E-02 
543	 5,02451898259301E-02 
544	 4,91784405764657E-02 
545	 4,97148502230555E-02 
546	 5,12693816795891E-02 
547	 5,04183276313244E-02 
548	 4,97279508957914E-02 
549	 5,03679372779823E-02 
550	 5,12086523647211E-02 
551	 5,18299046266088E-02 
552	 0,051816961669364 
553	 5,12348746384766E-02 
554	 5,05126611601975E-02 
555	 5,11675231088102E-02 
556	 5,19476423187714E-02 
557	 5,18077871972581E-02 
558	 5,15042133160232E-02 
559	 5,14171184322476E-02 
560	 5,22141780826259E-02 
561	 0,052737701473487 
562	 5,25858478449038E-02 
563	 5,26047022229082E-02 
564	 5,26010097161188E-02 
565	 5,22194333466403E-02 
566	 5,20630309075979E-02 
567	 5,23604521480557E-02 
568	 5,33100650859986E-02 
569	 5,42686809656149E-02 
570	 5,47174987221379E-02 
571	 0,054439316797168 
572	 5,38174406849299E-02 
573	 5,36181559506104E-02 
574	 5,40942972989508E-02 
575	 5,52578099311688E-02 
576	 5,65318223142085E-02 
577	 5,73717897891368E-02 
578	 5,72724869183238E-02 
579	 5,78588307292243E-02 
580	 5,89596164136354E-02 
581	 5,87078621303668E-02 
582	 5,86505907700886E-02 
583	 5,95724614635261E-02 
584	 6,01880910847057E-02 
585	 6,05783209646989E-02 
586	 6,12292225682633E-02 
587	 6,13048114364122E-02 
588	 6,09573711244705E-02 
589	 6,19418079545285E-02 
590	 0,063218874107657 
591	 6,37415842396008E-02 
592	 6,38030694320561E-02 
593	 6,35235051554255E-02 
594	 6,29605348125431E-02 
595	 0,062946401544365 
596	 6,37678109974242E-02 
597	 6,43247884903061E-02 
598	 6,45458178405278E-02 
599	 6,45378247416954E-02 
600	 6,43242679466888E-02 
601	 6,39668843205986E-02 
602	 6,35510620865877E-02 
603	 6,32413841374329E-02 
604	 6,32082837709754E-02 
605	 6,39702875064483E-02 
606	 6,48006539718861E-02 
607	 6,37411640312579E-02 
608	 6,26866495543901E-02 
609	 6,24394492507379E-02 
610	 6,30323808671818E-02 
611	 6,35168000030724E-02 
612	 6,27423957040766E-02 
613	 6,23071755654239E-02 
614	 6,23287608386018E-02 
615	 6,17227880388503E-02 
616	 6,13685648270538E-02 
617	 6,17776031372075E-02 
618	 0,062196027843293 
619	 6,24268724797871E-02 
620	 6,23077261470203E-02 
621	 6,23898451138639E-02 
622	 6,26372216337246E-02 
623	 6,18260561735507E-02 
624	 6,12002489540275E-02 
625	 6,20343620580668E-02 
626	 6,20931930466502E-02 
627	 6,14926938993061E-02 
628	 6,19452319814077E-02 
629	 6,28513462141911E-02 
630	 6,37669259410773E-02 
631	 6,38128296882138E-02 
632	 6,34832307274416E-02 
633	 6,37607433613309E-02 
634	 6,38205061627263E-02 
635	 6,37193795759404E-02 
636	 6,46878702077014E-02 
637	 6,54330844767839E-02 
638	 6,49583864356867E-02 
639	 6,54933371556241E-02 
640	 6,67982431636514E-02 
641	 6,73238324498396E-02 
642	 6,73558784091884E-02 
643	 0,067066378417907 
644	 6,69674560066398E-02 
645	 6,72844234377137E-02 
646	 6,82260994413728E-02 
647	 6,82347036353985E-02 
648	 6,73992580929465E-02 
649	 6,75145352565435E-02 
650	 6,78480774350068E-02 
651	 6,78351324616388E-02 
652	 6,70713312515531E-02 
653	 6,59730666627369E-02 
654	 6,54841931474038E-02 
655	 6,51374772981129E-02 
656	 6,47890110501554E-02 
657	 6,44907559457722E-02 
658	 0,06400769141623 
659	 6,31237997722754E-02 
660	 6,25108406139955E-02 
661	 6,20777919891963E-02 
662	 6,10763096398637E-02 
663	 6,01986630068827E-02 
664	 5,97429721558529E-02 
665	 5,91383649143671E-02 
666	 5,84466702838587E-02 
667	 5,78418203430324E-02 
668	 5,77067501443933E-02 
669	 5,79581384642116E-02 
670	 5,78330690294022E-02 
671	 5,75549380093641E-02 
672	 5,73442735783609E-02 
673	 5,74523600652542E-02 
674	 5,76902234748486E-02 
675	 5,74844526255231E-02 
676	 5,72883932501043E-02 
677	 5,73119111262497E-02 
678	 5,77227035094169E-02 
679	 5,81521325767824E-02 
680	 5,81576862471984E-02 
681	 5,84235694284737E-02 
682	 5,89955745017969E-02 
683	 5,94580784274025E-02 
684	 5,99866931049747E-02 
685	 6,06818535238183E-02 
686	 6,14288485047959E-02 
687	 6,23952006450557E-02 
688	 6,39282807724503E-02 
689	 0,065175628963431 
690	 6,61519815107872E-02 
691	 6,81003686551488E-02 
692	 7,04704845457619E-02 
693	 7,27044604755421E-02 
694	 7,46304362446477E-02 
695	 7,66849460874217E-02 
696	 8,01681242040571E-02 
697	 8,34341320117767E-02 
698	 8,58881998511035E-02 
699	 8,84763554269622E-02 
700	 0,091407695351349 
701	 9,48270608809282E-02 
702	 9,81937791886944E-02 
703	 0,101249729612876 
704	 0,103733320431905 
705	 0,106207956329705 
706	 0,109011928412495 
707	 0,111750541615631 
708	 0,11417312992716 
709	 0,115912999863719 
710	 0,117744458719058 
711	 0,119860520934782 
712	 0,121928185189838 
713	 0,123614216208425 
714	 0,124678319135559 
715	 0,126103009354574 
716	 0,127781377911532 
717	 0,128922213830984 
718	 0,129899670926924 
719	 0,130841618663238 
720	 0,131575820914638 
721	 0,132338863720234 
722	 0,133434058271487 
723	 0,134262599205217 
724	 0,134836178540745 
725	 0,135706676455308 
726	 0,136585236236539 
727	 0,137240169823856 
728	 0,137258919106194 
729	 0,137245842042662 
730	 0,138403724259187 
731	 0,139088673478562 
732	 0,138991647299749 
733	 0,13910868377212 
734	 0,139470992827086 
735	 0,140038135505924 
736	 0,140261841552907 
737	 0,140333278230235 
738	 0,141038683636809 
739	 0,141547243778592 
740	 0,14162240462872 
741	 0,141858262374292 
742	 0,142143480080623 
743	 0,142295615849423 
744	 0,142289759031814 
745	 0,142269054757406 
746	 0,142695672618888 
747	 0,143034789918502 
748	 0,143081676950518 
749	 0,143637916760562 
750	 0,144257956250511 
751	 0,144125014236087 
752	 0,144019618185752 
753	 0,144099244856544 
754	 0,144044393253502 
755	 0,144111976389157 
756	 0,144442980521919 
757	 0,144463197126657 
758	 0,144383117751618 
759	 0,144839050095417 
760	 0,145075677250332 
761	 0,14501313522258 
762	 0,14548463205612 
763	 0,146113148730604 
764	 0,146483962144907 
765	 0,146319629734564 
766	 0,145953537317937 
767	 0,146386117790914 
768	 0,146836532818829 
769	 0,14699397041258 
770	 0,146986929230936 
771	 0,146967922272575 
772	 0,147102943629212 
773	 0,147175440001634 
774	 0,147253168479506 
775	 0,147723513290241 
776	 0,148038609645542 
777	 0,147972426285643 
778	 0,148158504374509 
779	 0,148376355122925 
780	 0,148191341088889 
781	 0,1485213915407 
782	 0,149242771597864 
783	 0,149036121232356 
784	 0,14867167636332 
785	 0,148669465147605 
786	 0,148769625637239 
787	 0,148967824466408 
788	 0,149319677506092 
789	 0,149537894721441 
790	 0,149570618384821 
791	 0,149655678341165 
792	 0,149658321610666 
793	 0,149527694289395 
794	 0,149975198051481 
795	 0,150639633393717 
796	 0,150492392657639 
797	 0,150460299293809 
798	 0,150730340398081 
799	 0,150629904993137 
800	 0,150510396711781 
801	 0,150709509901401 
802	 0,150807359641958 
803	 0,150816272620849 
804	 0,15093099604166 
805	 0,15129678816619 
806	 0,151823813473043 
807	 0,151694079578528 
808	 0,151538530021184 
809	 0,15203888159513 
810	 0,15183328719002 
811	 0,151139511146264 
812	 0,151340447395167 
813	 0,151592005918417 
814	 0,151620124880518 
815	 0,151972361730762 
816	 0,152374846769786 
817	 0,152469461776666 
818	 0,152787807660987 
819	 0,15324266975964 
820	 0,15325178594656 
821	 0,153048806849732 
822	 0,152856925846589 
823	 0,153330957794739 
824	 0,153867431511734 
825	 0,153626871069287 
826	 0,153616808681171 
827	 0,153882397957683 
828	 0,153778857288138 
829	 0,153587665449295 
830	 0,153530220329084 
831	 0,15409004271387 
832	 0,1546004971374 
833	 0,154111286448108 
834	 0,154019927911378 
835	 0,154417103009683 
836	 0,154377207826351 
837	 0,154336647538877 
838	 0,154499513003958 
839	 0,154576780610552 
840	 0,154652448877526 
841	 0,154884463414054 
842	 0,154928916881458 
843	 0,154868709698812 
844	 0,15532235031687 
845	 0,155539386782594 
846	 0,155189865210113 
847	 0,155114532541832 
848	 0,155132402624207 
849	 0,154852579485942 
850	 0,154955570810198 
851	 0,155353560797577 
852	 0,155243912497782 
853	 0,154830664110809 
854	 0,154378701585562 
855	 0,15482432931724 
856	 0,155689300313192 
857	 0,156177725480072 
858	 0,155489130020198 
859	 0,154220716605462 
860	 0,154929372252446 
861	 0,155814165946231 
862	 0,155938510571511 
863	 0,155768044882764 
864	 0,155652848873209 
865	 0,155986079952901 
866	 0,156598613418243 
867	 0,157108002516387 
868	 0,156477986288185 
869	 0,156100504786847 
870	 0,156532297052911 
871	 0,156660589733894 
872	 0,156542982790616 
873	 0,1563810578567 
874	 0,156318300278883 
875	 0,156447635533113 
876	 0,156847844958642 
877	 0,157603354200777 
878	 0,158447461019185 
879	 0,157845555517511 
880	 0,156936536826866 
881	 0,157034373160869 
882	 0,156856891593136 
883	 0,156565933961302 
884	 0,157299535181859 
885	 0,157647353249823 
886	 0,157372491235597 
887	 0,158199801844562 
888	 0,158834918839552 
889	 0,158093866453204 
890	 0,157839562898877 
891	 0,1580711161018 
892	 0,157992665107829 
893	 0,158117742314191 
894	 0,158463880690746 
895	 0,158421740283485 
896	 0,15842123614384 
897	 0,158737903379674 
898	 0,158489626459992 
899	 0,158001771953035 
900	 0,158067012786571 
901	 0,15845497534614 
902	 0,158900085511479 
903	 0,158679823423704 
904	 0,158384622050146 
905	 0,158398664186648 
906	 0,158592556530277 
907	 0,158646908066765 
908	 0,158143600308977 
909	 0,158384000107341 
910	 0,159231415032182 
911	 0,159226996349508 
912	 0,15905341630273 
913	 0,159011939931446 
914	 0,1588624006856 
915	 0,158928954835299 
916	 0,159551905572122 
917	 0,160224042385093 
918	 0,160708589710625 
919	 0,160730100834825 
920	 0,160750631098389 
921	 0,160856112978273 
922	 0,160567589919386 
923	 0,160292377406514 
924	 0,160351495783185 
925	 0,160194351691273 
926	 0,16003057778559 
927	 0,160412821099563 
928	 0,160203198417127 
929	 0,159539003479052 
930	 0,160193123726027 
931	 0,160715697540726 
932	 0,160313877257004 
933	 0,159928647061933 
934	 0,159581700838821 
935	 0,159191495274235 
936	 0,159469804222317 
937	 0,160397562493348 
938	 0,161639116146846 
939	 0,16196803576934 
940	 0,161111589855842 
941	 0,160528115801846 
942	 0,160336061566046 
943	 0,160539090843472 
944	 0,160964746485699 
945	 0,160949506995193 
946	 0,159304359510929 
947	 0,159244443630771 
948	 0,160940705380917 
949	 0,161498296533428 
950	 0,160896634764752 
951	 0,159442889928861 
952	 0,159184290287427 
953	 0,159917996001795 
954	 0,161005001185221 
955	 0,160492050118799 
956	 0,159015100295226 
957	 0,159323954722772 
958	 0,159887856392377 
959	 0,160237437731662 
960	 0,160844425344964 
961	 0,160316005012233 
962	 0,158107254134013 
963	 0,158928236218392 
964	 0,160875682069579 
965	 0,160070848097546 
966	 0,159653852397065 
967	 0,159915654999933 
968	 0,159131335969169 
969	 0,159653579426548 
970	 0,161684799746818 
971	 0,160635533208471 
972	 0,159290752148998 
973	 0,160262730176918 
974	 0,160367743770128 
975	 0,160237190347719 
976	 0,161957609377769 
977	 0,16171153331106 
978	 0,159516162512156 
979	 0,15904359748213 
980	 0,159755080611564 
981	 0,161096727014683 
982	 0,161202738556445 
983	 0,161329943076036 
984	 0,162725782183766 
985	 0,162550496350867 
986	 0,161470685967998 
987	 0,161667482276226 
988	 0,163251705713366 
989	 0,16546780575133 
990	 0,16557178462134 
991	 0,165056535863689 
992	 0,164819847526493 
993	 0,165179191028219 
994	 0,1650033781762 
995	 0,163305073036122 
996	 0,163047993724848 
997	 0,163882236869283 
998	 0,164021043109203 
999	 0,164187521844148 
1000	 0,164601486831463 
1001	 0,165705305518738 
1002	 0,165266534559532 
1003	 0,163094826369248 
1004	 0,165069140767092 
1005	 0,167274541516811 
1006	 0,165934212882033 
1007	 0,167851546029289 
1008	 0,170594885278291 
1009	 0,167968560905668 
1010	 0,166954934021298 
1011	 0,168170280495036 
1012	 0,167068394716412 
1013	 0,166799041037698 
1014	 0,168238425474025 
1015	 0,168819048387226 
1016	 0,167855155126744 
1017	 0,165486583177232 
1018	 0,166879178206188 
1019	 0,170058220994926 
1020	 0,170943553872234 
1021	 0,172173248466235 
1022	 0,173742075873256 
1023	 0,174231293809361 
1024	 0,173385440435142 
1025	 0,17159205709042 
1026	 0,171413132306865 
1027	 0,169410482399944 
1028	 0,164633991514586 
1029	 0,166364084784557 
1030	 0,170917530389217 
1031	 0,172790612897418 
1032	 0,172847461968851 
1033	 0,172688572573811 
1034	 0,175689312646705 
1035	 0,171361627817075 
1036	 0,1628826735885 
1037	 0,172184589331075 
1038	 0,177382418971477 
1039	 0,170791229312256 
1040	 0,168545897001107 
1041	 0,169414736335662 
1042	 0,171709435339429 
1043	 0,176241823253881 
1044	 0,179026025083761 
1045	 0,175238464760432 
1046	 0,175373386065967 
1047	 0,176832196407852 
1048	 0,167442661146754 
1049	 0,166061501369252 
1050	 0,174182553143186 
1051	 0,172821867506664 
1052	 0,178007221777373 
1053	 0,192258350183389 
1054	 0,185190113165672 
1055	 0,174727543031846 
1056	 0,17685778902155 
1057	 0,174368290749966 
1058	 0,169818757477982 
1059	 0,169920602096134 
1060	 0,177839690647825 
1061	 0,188733944256391 
1062	 0,19057154463073 
1063	 0,188157915881539 
1064	 0,183425981889894 
1065	 0,177938605002098 
1066	 0,177764017640018 
1067	 0,182593830200773 
1068	 0,176268683559917 
1069	 0,170949885661061 
1070	 0,175872511888933 
1071	 0,178898466735007 
1072	 0,180768528918143 
1073	 0,183439105231119 
1074	 0,182624094965911 
1075	 0,173082306621458 
