Wavelength	ABBE00310.asd
325	 0,113845481830095 
326	 7,94056265130645E-02 
327	 2,17003574745252E-02 
328	-0,111963040546357 
329	-8,31342498685298E-02 
330	-1,70483030308424E-02 
331	-5,17986065134462E-02 
332	-6,44062598364824E-03 
333	 8,10282036497681E-02 
334	 9,34453426042816E-02 
335	 0,101120202240404 
336	 0,112900436120849 
337	 8,62348052378356E-02 
338	 0,062126426064993 
339	 7,29729079848106E-02 
340	 7,03509687194037E-02 
341	 5,09473260396584E-02 
342	 0,025766866115199 
343	 1,54591508015716E-02 
344	 0,025220386972708 
345	 5,44943916823807E-02 
346	 7,72329081519102E-02 
347	 7,08357559793663E-02 
348	 4,09071275573104E-02 
349	 8,52817931963209E-03 
350	 1,49720846669083E-02 
351	 4,00076179190385E-02 
352	 6,49433009346467E-02 
353	 3,45118086554465E-02 
354	-1,29436685432439E-02 
355	-1,89499299327778E-02 
356	-7,46302242764326E-03 
357	 1,48539672823437E-02 
358	 5,17480445873879E-02 
359	 5,21418991702898E-02 
360	 6,40651035947676E-03 
361	 2,69560249899635E-02 
362	 6,66364276787797E-02 
363	 4,42572755108531E-02 
364	 3,71487767718725E-02 
365	 5,09740940264673E-02 
366	 4,05953268590872E-02 
367	 2,49559594587415E-02 
368	 1,63043777612313E-02 
369	 1,10897285644116E-02 
370	 7,93983542520524E-03 
371	 4,97922657080006E-03 
372	 0,012600765460151 
373	 2,78519423358443E-02 
374	 2,80008853656986E-02 
375	 2,64023517377633E-02 
376	 3,28264319696985E-02 
377	 0,03430976497543 
378	 2,80117089383873E-02 
379	 9,88578586568646E-03 
380	 2,05371300513241E-03 
381	 0,010925632709189 
382	 0,029027792971407 
383	 3,55598368314375E-02 
384	 1,58789000990321E-02 
385	 6,40208879623264E-03 
386	 1,02580560458637E-02 
387	 0,015224890739373 
388	 2,04983802675276E-02 
389	 2,29904027430202E-02 
390	 1,03075540142706E-02 
391	 1,75730666764845E-03 
392	 2,04092575246669E-02 
393	 3,01552960830015E-02 
394	 2,56201534138596E-02 
395	 0,013931126075014 
396	 1,15643637628911E-02 
397	 2,48359110075186E-02 
398	 3,03665528784012E-02 
399	 2,86754803740589E-02 
400	 2,43362983494332E-02 
401	 2,58317098299538E-02 
402	 0,031132679471024 
403	 2,38298485156258E-02 
404	 0,014843954993871 
405	 1,17391890331874E-02 
406	 1,28368210012995E-02 
407	 0,015939678449782 
408	 1,69458197562976E-02 
409	 2,01616413017798E-02 
410	 2,58227677727682E-02 
411	 0,029751550739145 
412	 2,96723978934197E-02 
413	 2,44033511661782E-02 
414	 2,22580277210694E-02 
415	 2,28485559988167E-02 
416	 2,04345436807423E-02 
417	 2,02710754575753E-02 
418	 0,023294129285842 
419	 2,19357794614456E-02 
420	 2,06332181486567E-02 
421	 2,58117236014677E-02 
422	 0,02488568322118 
423	 0,017929243797747 
424	 1,35823411677333E-02 
425	 1,38941769841641E-02 
426	 1,90470239272723E-02 
427	 1,89147393405323E-02 
428	 1,66688815673559E-02 
429	 2,05005807229197E-02 
430	 2,41179193291052E-02 
431	 2,58360445310834E-02 
432	 2,72227976301303E-02 
433	 2,75751709487958E-02 
434	 0,026145549676356 
435	 2,05028979131838E-02 
436	 1,49481578713206E-02 
437	 2,09420636906251E-02 
438	 2,67226738537681E-02 
439	 2,76654701587191E-02 
440	 2,77755706826258E-02 
441	 2,76610286486074E-02 
442	 2,76774287088713E-02 
443	 2,62357377809593E-02 
444	 2,42194083161668E-02 
445	 2,58401898021483E-02 
446	 0,026901100769014 
447	 2,51779322175266E-02 
448	 2,54319058678181E-02 
449	 2,64957211168769E-02 
450	 2,49208932663194E-02 
451	 2,43840250808529E-02 
452	 2,55030347475501E-02 
453	 2,55584253874837E-02 
454	 2,53345509707901E-02 
455	 2,56113953860024E-02 
456	 0,025395160632257 
457	 2,46601716693822E-02 
458	 2,32663173877239E-02 
459	 2,49103075673576E-02 
460	 2,95269129673305E-02 
461	 2,60649198100255E-02 
462	 2,11897864382794E-02 
463	 2,50406085738205E-02 
464	 0,026637861748792 
465	 2,48963268683327E-02 
466	 2,57532957572372E-02 
467	 2,80356064503142E-02 
468	 3,04696094157601E-02 
469	 2,88273190712297E-02 
470	 0,025608808572257 
471	 2,70905548542485E-02 
472	 2,76222651406707E-02 
473	 2,60609422079516E-02 
474	 2,56614940519032E-02 
475	 2,62204381166137E-02 
476	 2,73622227153334E-02 
477	 2,96148912565708E-02 
478	 3,13881465217645E-02 
479	 2,81752918842099E-02 
480	 2,57293880265221E-02 
481	 2,64585845597113E-02 
482	 2,58799878013547E-02 
483	 2,56082753935337E-02 
484	 2,87952506150685E-02 
485	 2,95405252117169E-02 
486	 2,71853164203036E-02 
487	 2,53849771459014E-02 
488	 2,50057279036885E-02 
489	 2,64635154054034E-02 
490	 2,70409175241561E-02 
491	 2,68587862218349E-02 
492	 2,73293590614035E-02 
493	 2,79919769926258E-02 
494	 2,85044153376131E-02 
495	 2,79749210843249E-02 
496	 2,68293895990566E-02 
497	 2,56339800228815E-02 
498	 2,48434607091103E-02 
499	 2,46493929298911E-02 
500	 2,50300272668557E-02 
501	 2,60365139057211E-02 
502	 2,75773173680864E-02 
503	 2,92783974201078E-02 
504	 2,97751765384098E-02 
505	 2,65969413429825E-02 
506	 2,60147375651052E-02 
507	 2,87177050798312E-02 
508	 2,86851558071471E-02 
509	 2,78138579192797E-02 
510	 2,80342504932064E-02 
511	 2,83675019560757E-02 
512	 0,029145539177536 
513	 3,21004311532532E-02 
514	 3,27820967407348E-02 
515	 3,00188643610506E-02 
516	 2,98260785632878E-02 
517	 3,12050215411578E-02 
518	 3,19335236692059E-02 
519	 3,13282300922323E-02 
520	 0,029932959053413 
521	 3,06597441389481E-02 
522	 3,11839384568014E-02 
523	 3,00261139604245E-02 
524	 3,05895783403939E-02 
525	 3,22281192934665E-02 
526	 3,23806089884506E-02 
527	 3,22035660969187E-02 
528	 3,21079739481673E-02 
529	 3,24686069192807E-02 
530	 3,23253215742628E-02 
531	 3,06026810798696E-02 
532	 3,06114937754549E-02 
533	 3,22634136139472E-02 
534	 3,28779275685846E-02 
535	 0,032980638872747 
536	 3,28592904806803E-02 
537	 3,23991483845628E-02 
538	 3,20943656742843E-02 
539	 3,29131277644418E-02 
540	 3,29383833227943E-02 
541	 3,20170213493631E-02 
542	 0,032451417094937 
543	 3,31474791141644E-02 
544	 3,29862906833722E-02 
545	 3,35149926162868E-02 
546	 3,43673820808326E-02 
547	 3,36494257262425E-02 
548	 3,31168468494338E-02 
549	 0,033530786448367 
550	 3,36173218723054E-02 
551	 3,37262426951172E-02 
552	 3,46536317054418E-02 
553	 3,49312247480347E-02 
554	 3,43585811145747E-02 
555	 3,39759735967574E-02 
556	 3,36714795993451E-02 
557	 3,33556015678611E-02 
558	 3,33757974854709E-02 
559	 3,35741490554428E-02 
560	 3,33407552620379E-02 
561	 3,34914484483007E-02 
562	 3,42126319304189E-02 
563	 3,46425731682079E-02 
564	 3,44686750833155E-02 
565	 3,33855233952138E-02 
566	 3,40753918852524E-02 
567	 0,036177114516166 
568	 3,58515252187334E-02 
569	 3,52324373841766E-02 
570	 3,57343996843584E-02 
571	 3,56735415029221E-02 
572	 0,03532763581334 
573	 3,58266341981478E-02 
574	 3,62772799633421E-02 
575	 3,65594132325483E-02 
576	 0,037762391873745 
577	 3,89562836673625E-02 
578	 3,90582922253635E-02 
579	 3,95762632357819E-02 
580	 4,04628320879063E-02 
581	 0,040435604443397 
582	 4,03841800393351E-02 
583	 4,08155911194978E-02 
584	 4,14465875728332E-02 
585	 4,20058614416636E-02 
586	 4,20766516244739E-02 
587	 4,21857174774613E-02 
588	 4,25258114189309E-02 
589	 4,31251664244011E-02 
590	 4,37268530997921E-02 
591	 4,40947251916207E-02 
592	 4,44867921385938E-02 
593	 4,47405766016737E-02 
594	 0,044191304116421 
595	 4,39853944432132E-02 
596	 4,45896356270544E-02 
597	 4,51688132119438E-02 
598	 4,53615406817196E-02 
599	 4,47906439479202E-02 
600	 4,41278726698603E-02 
601	 4,37168465765412E-02 
602	 0,043939561252346 
603	 4,41934680029545E-02 
604	 4,40232564781271E-02 
605	 4,41435898331768E-02 
606	 4,42862214358727E-02 
607	 4,34275191882029E-02 
608	 4,29536789947843E-02 
609	 4,32739922421769E-02 
610	 4,34084323672556E-02 
611	 4,32295137652936E-02 
612	 0,042697648010904 
613	 4,20442277141953E-02 
614	 4,15688596482917E-02 
615	 4,19495294810682E-02 
616	 0,042488894943564 
617	 4,26688849804484E-02 
618	 4,22303564614819E-02 
619	 4,16953753148399E-02 
620	 4,21894359419104E-02 
621	 4,24882445359618E-02 
622	 4,22267060316959E-02 
623	 0,041702529055679 
624	 4,14756745234671E-02 
625	 4,20583951365024E-02 
626	 4,21682600125192E-02 
627	 4,18138483983872E-02 
628	 4,18137612379022E-02 
629	 4,21673705046394E-02 
630	 4,28165977237505E-02 
631	 4,32278273921326E-02 
632	 4,34172369210414E-02 
633	 4,35448575663498E-02 
634	 4,33965295289807E-02 
635	 4,32131835976901E-02 
636	 4,41572055484851E-02 
637	 4,51269479358442E-02 
638	 4,52253838361167E-02 
639	 4,58723468637877E-02 
640	 4,67938298952588E-02 
641	 4,66425857381684E-02 
642	 4,65280906739143E-02 
643	 4,68568179372262E-02 
644	 4,71960773129805E-02 
645	 4,73915663940364E-02 
646	 0,047295232335261 
647	 4,73980403385436E-02 
648	 4,76752055355017E-02 
649	 4,75734785146027E-02 
650	 4,74226941296611E-02 
651	 4,74160420686829E-02 
652	 4,72400871769165E-02 
653	 4,67663401256071E-02 
654	 4,57905993897195E-02 
655	 4,49940305329349E-02 
656	 0,044601082268029 
657	 4,44255725833809E-02 
658	 4,38977182791805E-02 
659	 4,25078917628265E-02 
660	 4,20183996419319E-02 
661	 4,22107981472967E-02 
662	 4,12935842224241E-02 
663	 4,03220318572664E-02 
664	 3,98201554080353E-02 
665	 3,95569446500546E-02 
666	 3,92674065324255E-02 
667	 3,85509944523395E-02 
668	 3,83982907237837E-02 
669	 3,88344175857313E-02 
670	 0,038757330126962 
671	 3,87175656834087E-02 
672	 3,90944909570315E-02 
673	 3,86477807353789E-02 
674	 3,78750688415824E-02 
675	 3,84526544011038E-02 
676	 3,92106263146658E-02 
677	 3,96003932729768E-02 
678	 3,91492604775733E-02 
679	 3,85847780390851E-02 
680	 3,88069435460555E-02 
681	 3,94080933286305E-02 
682	 4,01524319683549E-02 
683	 4,06518584147961E-02 
684	 4,09473924073273E-02 
685	 4,11347140058015E-02 
686	 4,17111914062046E-02 
687	 4,26870679084306E-02 
688	 4,39873791768862E-02 
689	 4,48793436372586E-02 
690	 4,53912897224307E-02 
691	 0,04665811111816 
692	 0,048509733499936 
693	 5,07346647378119E-02 
694	 5,31391902393986E-02 
695	 5,58226915794336E-02 
696	 5,91539494189809E-02 
697	 6,28859231972379E-02 
698	 6,68259024933915E-02 
699	 7,05728486797213E-02 
700	 7,42719940702163E-02 
701	 7,81619979574868E-02 
702	 8,27439191967002E-02 
703	 8,78321990301088E-02 
704	 9,25262585690121E-02 
705	 9,67377626703958E-02 
706	 0,100546654398126 
707	 0,105354823663189 
708	 0,110258759997806 
709	 0,113166894710409 
710	 0,116477443025467 
711	 0,120699623398118 
712	 0,124565077060335 
713	 0,127855263274644 
714	 0,13046177079808 
715	 0,133201237409016 
716	 0,135999537474341 
717	 0,13816991005964 
718	 0,1403556635582 
719	 0,142706344454653 
720	 0,144415456974774 
721	 0,145928732279284 
722	 0,147890020049217 
723	 0,149465968944822 
724	 0,150621222922558 
725	 0,15188248801323 
726	 0,15319988891919 
727	 0,154501729503282 
728	 0,155437110724212 
729	 0,156053430476176 
730	 0,156499849747109 
731	 0,157125461721747 
732	 0,157995584728762 
733	 0,15879578347879 
734	 0,159545746719068 
735	 0,160240865721973 
736	 0,160430986615125 
737	 0,160458871798829 
738	 0,161417737592074 
739	 0,162053574467577 
740	 0,162054384113557 
741	 0,162569871223865 
742	 0,163185198289293 
743	 0,163326332205314 
744	 0,163445020578817 
745	 0,16361180020388 
746	 0,163686157514082 
747	 0,163879196820635 
748	 0,164283920006611 
749	 0,164722303348215 
750	 0,165009116759607 
751	 0,164896942761246 
752	 0,164998682408742 
753	 0,165311489182395 
754	 0,165073215306186 
755	 0,164948021034056 
756	 0,165381313163632 
757	 0,165684616249068 
758	 0,165838143521897 
759	 0,166042636457951 
760	 0,166124596828528 
761	 0,166118969961955 
762	 0,166441793719208 
763	 0,166741799251259 
764	 0,166685823703269 
765	 0,166589810281435 
766	 0,166609654405753 
767	 0,166995462292755 
768	 0,167282404747242 
769	 0,167332513341838 
770	 0,167586807339868 
771	 0,167847513997888 
772	 0,167848289622835 
773	 0,167849267927157 
774	 0,16791830439138 
775	 0,168062317279979 
776	 0,168218828756418 
777	 0,168338075130953 
778	 0,168347343423601 
779	 0,168322001620557 
780	 0,168375372797737 
781	 0,168731539330695 
782	 0,169189778118482 
783	 0,168807066184177 
784	 0,168511153962397 
785	 0,168859317039279 
786	 0,168994477629758 
787	 0,168912487653131 
788	 0,168798796780136 
789	 0,16904077246436 
790	 0,169570079444899 
791	 0,169558848453148 
792	 0,169449454509239 
793	 0,16959086547581 
794	 0,169543591237946 
795	 0,169433354057291 
796	 0,169680315364171 
797	 0,169869815410701 
798	 0,169860973658465 
799	 0,169712457618269 
800	 0,169574069422986 
801	 0,169589298190706 
802	 0,169756118325256 
803	 0,170024761611921 
804	 0,170307940534421 
805	 0,170449867135185 
806	 0,170396853851623 
807	 0,170215747136659 
808	 0,170282714266724 
809	 0,170929051276109 
810	 0,170773293072522 
811	 0,170081075928061 
812	 0,170456407102329 
813	 0,170661120913196 
814	 0,170370088539827 
815	 0,170866038694899 
816	 0,171637673719826 
817	 0,171955721365005 
818	 0,171879008707367 
819	 0,171637299359408 
820	 0,171898548292466 
821	 0,172130249939635 
822	 0,172137110888192 
823	 0,172411253125027 
824	 0,172670837893359 
825	 0,172509899496713 
826	 0,172629503571589 
827	 0,172951585621996 
828	 0,172650149665378 
829	 0,172458983715085 
830	 0,172715816884481 
831	 0,172921636863385 
832	 0,173011935465558 
833	 0,172978303676114 
834	 0,173060741209028 
835	 0,173255126494519 
836	 0,173329272537417 
837	 0,173374783094799 
838	 0,17344029849065 
839	 0,173514771643975 
840	 0,173573362368268 
841	 0,17358105863006 
842	 0,17377468238944 
843	 0,174087742530153 
844	 0,174116084682593 
845	 0,174059419648063 
846	 0,174022860747183 
847	 0,173988581153846 
848	 0,173725267810983 
849	 0,172917010817522 
850	 0,173011611636249 
851	 0,173795851046853 
852	 0,173277175461939 
853	 0,17278341165801 
854	 0,173015601900717 
855	 0,173479916935908 
856	 0,173977068386791 
857	 0,174312892571579 
858	 0,173692754505178 
859	 0,172651399420308 
860	 0,173538642803614 
861	 0,174277710752031 
862	 0,173935783796884 
863	 0,1741028327015 
864	 0,174319716798403 
865	 0,17381413497034 
866	 0,17432747107651 
867	 0,175416593744503 
868	 0,174439734965002 
869	 0,1735912799395 
870	 0,173839993405172 
871	 0,174121489892787 
872	 0,174306024155094 
873	 0,174349251363396 
874	 0,1741414744318 
875	 0,173874898172954 
876	 0,1740394412789 
877	 0,174844734338287 
878	 0,176012008882304 
879	 0,175419160401042 
880	 0,174850068957746 
881	 0,176240925635968 
882	 0,175953258046203 
883	 0,174475577813053 
884	 0,175028693818398 
885	 0,175621355482972 
886	 0,175691597422922 
887	 0,176167101549653 
888	 0,17624981552788 
889	 0,175294633298797 
890	 0,175260731469473 
891	 0,175985601148531 
892	 0,176325519492667 
893	 0,176422284772617 
894	 0,1763229185864 
895	 0,176317926011283 
896	 0,17595966919829 
897	 0,175022341518733 
898	 0,174776482202395 
899	 0,175169515399175 
900	 0,175738609473709 
901	 0,176022371926399 
902	 0,175961170632517 
903	 0,175972367062747 
904	 0,176268352435709 
905	 0,17683190242192 
906	 0,176443612587495 
907	 0,175948210501994 
908	 0,176722387353307 
909	 0,177020903860289 
910	 0,176710052721886 
911	 0,176828084054289 
912	 0,176764548935169 
913	 0,17632817324297 
914	 0,176026263280708 
915	 0,176132090191801 
916	 0,176846262202547 
917	 0,177365566473375 
918	 0,17763638898675 
919	 0,178118857103951 
920	 0,177846413903357 
921	 0,17689264186643 
922	 0,177271970664898 
923	 0,177660053987953 
924	 0,176988953001735 
925	 0,17684274560628 
926	 0,177036805354509 
927	 0,176787990091696 
928	 0,176650392214564 
929	 0,17674166710967 
930	 0,176850786129931 
931	 0,177333058939234 
932	 0,178181749884147 
933	 0,178102795634034 
934	 0,177065957515905 
935	 0,175327529517462 
936	 0,175251792840573 
937	 0,176655533283978 
938	 0,177603086137937 
939	 0,177230757794785 
940	 0,175557983186467 
941	 0,174898857379589 
942	 0,17496549498642 
943	 0,17529598685121 
944	 0,175283720803443 
945	 0,174711267093122 
946	 0,173385553854719 
947	 0,173133826180999 
948	 0,173899961362699 
949	 0,173365940265563 
950	 0,172430164322722 
951	 0,171834513062807 
952	 0,172878827437981 
953	 0,173751537826363 
954	 0,17224366430288 
955	 0,171623177866288 
956	 0,17180026090019 
957	 0,170652852321781 
958	 0,16979121650931 
959	 0,1696857352366 
960	 0,169735940412403 
961	 0,170152290795732 
962	 0,170946828530708 
963	 0,170957540602643 
964	 0,1701915161007 
965	 0,168950703293096 
966	 0,168853243847722 
967	 0,169884885719681 
968	 0,170695979207646 
969	 0,170664980960165 
970	 0,169644765310934 
971	 0,168607626115137 
972	 0,168456437536133 
973	 0,169633585124204 
974	 0,168252946233387 
975	 0,166954731657709 
976	 0,171623244996635 
977	 0,172746438859217 
978	 0,169571320159306 
979	 0,168991707336519 
980	 0,169970165696968 
981	 0,171580253829053 
982	 0,170940547753851 
983	 0,170272515597016 
984	 0,171816137378891 
985	 0,171353226345394 
986	 0,170182138236742 
987	 0,172211349547117 
988	 0,174417666051661 
989	 0,175542146299989 
990	 0,174536723760344 
991	 0,173517538484786 
992	 0,173678817333516 
993	 0,174565409668345 
994	 0,174678529216549 
995	 0,172847930737657 
996	 0,173904144514309 
997	 0,176014227085792 
998	 0,173844735781188 
999	 0,174104857842082 
1000	 0,176707133333974 
1001	 0,174029034364855 
1002	 0,172819038535075 
1003	 0,175740446172167 
1004	 0,176993147358809 
1005	 0,177028010485506 
1006	 0,176946309987227 
1007	 0,179162603107661 
1008	 0,182309055780671 
1009	 0,183304173715086 
1010	 0,182043690915704 
1011	 0,179212309093578 
1012	 0,176807513829929 
1013	 0,177093645495203 
1014	 0,180113657322389 
1015	 0,180516255991792 
1016	 0,178632675557223 
1017	 0,175640799079496 
1018	 0,176411740094803 
1019	 0,179268904819556 
1020	 0,180536322801833 
1021	 0,18138264878437 
1022	 0,182045803454292 
1023	 0,182983836841229 
1024	 0,181516207083166 
1025	 0,177839448185181 
1026	 0,177086294970001 
1027	 0,177856257130263 
1028	 0,178739441872674 
1029	 0,177026933105168 
1030	 0,177706662824404 
1031	 0,186002066860792 
1032	 0,18749149318853 
1033	 0,183903241265993 
1034	 0,184771727586952 
1035	 0,183861154458486 
1036	 0,182076904623837 
1037	 0,188687367503724 
1038	 0,190712549947064 
1039	 0,184132700212135 
1040	 0,181849626957648 
1041	 0,180522207652922 
1042	 0,178138003929102 
1043	 0,186369432153238 
1044	 0,195967876920624 
1045	 0,193103972456663 
1046	 0,189984394328819 
1047	 0,188517150350778 
1048	 0,186189529281002 
1049	 0,189022988105276 
1050	 0,195653725990715 
1051	 0,193308980082775 
1052	 0,192407543286518 
1053	 0,196954904114868 
1054	 0,198531673098478 
1055	 0,196625670473045 
1056	 0,192026655535764 
1057	 0,192697473864495 
1058	 0,192009735954352 
1059	 0,180181311354401 
1060	 0,181897741920084 
1061	 0,192434490684341 
1062	 0,188455305268678 
1063	 0,185507401045042 
1064	 0,18661788650194 
1065	 0,186480395207127 
1066	 0,184663586963326 
1067	 0,182205597515491 
1068	 0,186421987622759 
1069	 0,186600133697529 
1070	 0,177540830118256 
1071	 0,18714197448917 
1072	 0,197901208231705 
1073	 0,186840506093046 
1074	 0,183961654312244 
1075	 0,184156566408151 
