Wavelength	ABBE00411.asd
325	-0,143562682297905 
326	-1,14867685115619E-02 
327	 6,44828068747058E-02 
328	 0,017659043301099 
329	-0,141918713845692 
330	-0,204116867051714 
331	-1,89390356797904E-02 
332	 0,020069786899756 
333	-1,91605434734399E-02 
334	 0,136204507249538 
335	 0,187038374076748 
336	 0,102028101432969 
337	 0,027995982577363 
338	-6,31282738044787E-03 
339	 1,30974642968783E-02 
340	 1,32426193658122E-02 
341	 5,11021811340039E-05 
342	 2,53717192865953E-02 
343	 3,20426494182448E-02 
344	 1,34297745276387E-02 
345	 8,37034956698171E-03 
346	 2,53958052192114E-02 
347	 6,62380738567352E-02 
348	 4,55915328464281E-02 
349	-6,20095386359582E-03 
350	 2,10825246203577E-02 
351	 5,05652072708805E-02 
352	 5,22557701466206E-02 
353	 3,64835373763879E-02 
354	 2,12720300035602E-03 
355	-4,54354912423539E-02 
356	-2,42385709744363E-02 
357	 3,85073815902143E-02 
358	 3,20519973038242E-02 
359	 2,96262219088236E-03 
360	-2,07239164393029E-02 
361	 6,17471870523753E-03 
362	 3,93144053720424E-02 
363	 1,17707453139623E-02 
364	 1,33830106647259E-02 
365	 4,49581432955442E-02 
366	 2,96232666849876E-02 
367	 1,46435450786583E-02 
368	 2,55193731219371E-02 
369	 2,12279420949355E-02 
370	 1,06421477166745E-02 
371	 1,97150187345648E-02 
372	 2,39017766266028E-02 
373	 1,44490009597766E-02 
374	-1,77398219994254E-02 
375	-2,78226322969368E-02 
376	 1,21581546670078E-02 
377	 2,38706233565964E-02 
378	 1,23148560826708E-02 
379	 1,17446372514824E-02 
380	 2,29916181929485E-02 
381	 4,19704183340798E-02 
382	 4,00519763401891E-02 
383	 2,20028346950002E-02 
384	-4,95198272820061E-03 
385	-0,014686661904474 
386	-7,7602806669487E-03 
387	-2,22109945483711E-03 
388	 8,36635304732554E-03 
389	 2,17149269330395E-02 
390	 1,77941265280712E-02 
391	 1,12133490954666E-02 
392	 2,04308248264806E-02 
393	 1,50277507059896E-02 
394	-2,526450689374E-04 
395	 5,4205453274169E-03 
396	 1,77683437499507E-02 
397	 2,71637086135593E-02 
398	 2,48693319504582E-02 
399	 1,83442527276504E-02 
400	 1,98090399863652E-02 
401	 2,16735762054499E-02 
402	 2,18942986145428E-02 
403	 2,08465148038526E-02 
404	 1,67570679439029E-02 
405	 9,44325243530973E-03 
406	 1,00198901503323E-02 
407	 1,44016377530311E-02 
408	 1,03354790717044E-02 
409	 1,32287355065191E-02 
410	 2,38750693023412E-02 
411	 2,44382070446277E-02 
412	 2,14575961913796E-02 
413	 2,17537969318412E-02 
414	 2,04528300976359E-02 
415	 1,86394096614746E-02 
416	 2,15965979262377E-02 
417	 2,15625376885865E-02 
418	 1,63795458206313E-02 
419	 1,24693428617386E-02 
420	 0,012144131370046 
421	 1,74779668474717E-02 
422	 1,77097151653034E-02 
423	 1,28793656746603E-02 
424	 1,11765221294029E-02 
425	 1,24931775411509E-02 
426	 1,59896317344272E-02 
427	 0,015058362565182 
428	 1,28099719152883E-02 
429	 1,66572935802569E-02 
430	 1,80392335453291E-02 
431	 1,59207157242438E-02 
432	 1,78562016653459E-02 
433	 1,82054337249428E-02 
434	 1,23118557338071E-02 
435	 9,61479379213963E-03 
436	 1,15148672454173E-02 
437	 1,74663855034133E-02 
438	 2,02297554776615E-02 
439	 1,74644593140485E-02 
440	 1,58778538905434E-02 
441	 1,58981857635492E-02 
442	 1,72252082189068E-02 
443	 1,66673112718209E-02 
444	 1,50488815732422E-02 
445	 1,84539044089662E-02 
446	 1,97348116342308E-02 
447	 1,55313044863504E-02 
448	 0,017613569158411 
449	 2,18467510390567E-02 
450	 1,76658728851492E-02 
451	 1,36702051640826E-02 
452	 1,25993629027884E-02 
453	 1,37265032214404E-02 
454	 1,47296277631015E-02 
455	 1,36573363526443E-02 
456	 1,42103627365804E-02 
457	 1,55891489360181E-02 
458	 1,35262489824884E-02 
459	 1,28334333839472E-02 
460	 1,50817179531825E-02 
461	 1,63181882899616E-02 
462	 0,016465859071319 
463	 1,59598402577849E-02 
464	 1,46579470477458E-02 
465	 1,35326345377714E-02 
466	 1,58139171024794E-02 
467	 1,78306891184825E-02 
468	 1,73147690612798E-02 
469	 0,017407549760017 
470	 1,79294701012517E-02 
471	 1,75812107768419E-02 
472	 1,75080817051787E-02 
473	 1,76689640341741E-02 
474	 1,61284573005852E-02 
475	 1,43306371602739E-02 
476	 0,013874197048205 
477	 1,68766624585532E-02 
478	 2,08783258657442E-02 
479	 1,82279435382457E-02 
480	 1,57336672998645E-02 
481	 1,61423738823614E-02 
482	 1,41320886386253E-02 
483	 1,23963585871503E-02 
484	 1,56350880719902E-02 
485	 1,91085353089763E-02 
486	 2,05195328579528E-02 
487	 1,65948604642353E-02 
488	 1,31234606918126E-02 
489	 1,43722478439273E-02 
490	 0,015732371951373 
491	 1,63115162882659E-02 
492	 1,58308057894503E-02 
493	 1,60182308962375E-02 
494	 1,70881934734496E-02 
495	 1,66810667213954E-02 
496	 1,53380839641232E-02 
497	 0,013888555305547 
498	 1,33950492038311E-02 
499	 1,38665958080086E-02 
500	 1,44608892279719E-02 
501	 1,47603136670608E-02 
502	 1,46323988695903E-02 
503	 1,54189695125754E-02 
504	 1,61773797855024E-02 
505	 0,014937248610779 
506	 1,42453184974086E-02 
507	 1,44952812405173E-02 
508	 1,36955838066328E-02 
509	 0,013012201551119 
510	 1,35561638743028E-02 
511	 1,48999605375082E-02 
512	 1,64815597056349E-02 
513	 1,74282388595127E-02 
514	 1,69493154878707E-02 
515	 1,52182917353625E-02 
516	 1,57950417293477E-02 
517	 1,70729186076074E-02 
518	 1,63225010879452E-02 
519	 1,59337154634666E-02 
520	 1,63748339451578E-02 
521	 1,72767628775618E-02 
522	 1,71268127487006E-02 
523	 1,51454247734937E-02 
524	 1,52349492231131E-02 
525	 1,68280527732047E-02 
526	 1,73464018998683E-02 
527	 1,72570114229163E-02 
528	 1,67096259721885E-02 
529	 0,016155865324964 
530	 1,56194010005683E-02 
531	 0,015074735387005 
532	 1,46302385594899E-02 
533	 1,45227261308586E-02 
534	 1,54607985317373E-02 
535	 1,61369929112433E-02 
536	 1,58587943305051E-02 
537	 1,59797069039451E-02 
538	 1,61935428652647E-02 
539	 1,55770216543309E-02 
540	 1,50960625765891E-02 
541	 1,49444218701905E-02 
542	 1,43568607793771E-02 
543	 1,42162253084243E-02 
544	 1,53268853368443E-02 
545	 1,58302178055898E-02 
546	 1,56352218974305E-02 
547	 1,56289137672969E-02 
548	 1,57768285413795E-02 
549	 1,60253343692076E-02 
550	 1,59218057529046E-02 
551	 1,57027952216543E-02 
552	 1,58329736633597E-02 
553	 1,55329466959146E-02 
554	 1,49468781612408E-02 
555	 1,56220575778126E-02 
556	 1,60765824728059E-02 
557	 0,015146983416561 
558	 1,45805532181757E-02 
559	 1,45854237867677E-02 
560	 1,48457158256569E-02 
561	 0,015169033341183 
562	 1,53538678648213E-02 
563	 1,49999779838949E-02 
564	 1,44304934822124E-02 
565	 1,41024010936364E-02 
566	 1,44251967872682E-02 
567	 1,52578694666258E-02 
568	 0,015796737608846 
569	 1,58841959788513E-02 
570	 1,54648588487945E-02 
571	 1,51631875465951E-02 
572	 1,51340729994039E-02 
573	 1,54544619807367E-02 
574	 1,57444709785976E-02 
575	 1,59358989668191E-02 
576	 1,65125018210467E-02 
577	 1,72135148951822E-02 
578	 1,77062443368472E-02 
579	 1,77899385801741E-02 
580	 0,017440488300771 
581	 1,66377626127557E-02 
582	 1,63350393459219E-02 
583	 1,69882885498286E-02 
584	 1,73522755322094E-02 
585	 1,74775538275373E-02 
586	 1,77861309693233E-02 
587	 1,78701622379452E-02 
588	 0,017780665069257 
589	 1,81916630610303E-02 
590	 1,89776603930813E-02 
591	 1,98972859496771E-02 
592	 1,92570133279846E-02 
593	 1,77308462974671E-02 
594	 1,80673370180518E-02 
595	 1,84603624751323E-02 
596	 1,82035710064433E-02 
597	 1,83445846171686E-02 
598	 1,88421893286975E-02 
599	 1,95274245925238E-02 
600	 1,91982462189989E-02 
601	 1,80193951426413E-02 
602	 1,80340324352182E-02 
603	 1,83269853557314E-02 
604	 1,81584072932421E-02 
605	 1,80788638881296E-02 
606	 1,80504956851096E-02 
607	 1,77507571859875E-02 
608	 1,76214515967106E-02 
609	 1,77404281986162E-02 
610	 1,74892141875324E-02 
611	 1,71959418555035E-02 
612	 0,017322735109874 
613	 1,72617400364798E-02 
614	 1,69333221097951E-02 
615	 1,64848030634508E-02 
616	 1,65515112564453E-02 
617	 1,73870933822296E-02 
618	 1,73639304144195E-02 
619	 1,68077458126496E-02 
620	 1,68123812300016E-02 
621	 1,71155498310702E-02 
622	 1,74755726731317E-02 
623	 1,70435170325869E-02 
624	 1,65583980919221E-02 
625	 1,68011627720198E-02 
626	 1,66726410864604E-02 
627	 1,62810695116786E-02 
628	 1,66138662234442E-02 
629	 1,70051940455801E-02 
630	 1,71921055995173E-02 
631	 1,80086736932834E-02 
632	 1,87143151046329E-02 
633	 1,79801512827509E-02 
634	 0,017285681976879 
635	 1,71503302135242E-02 
636	 1,76598242808572E-02 
637	 1,82221344227781E-02 
638	 1,83620810907734E-02 
639	 1,88302538865644E-02 
640	 1,94926723056616E-02 
641	 0,019726647232157 
642	 1,97541953164151E-02 
643	 0,019665277807172 
644	 1,94768246095143E-02 
645	 1,93757461603229E-02 
646	 1,95851008991932E-02 
647	 1,98843345426128E-02 
648	 2,01111595814647E-02 
649	 1,99576409181778E-02 
650	 1,97815403835886E-02 
651	 1,97999776902649E-02 
652	 0,019667133538001 
653	 1,93143958818906E-02 
654	 1,86649575116654E-02 
655	 1,82471663960497E-02 
656	 1,82232861268711E-02 
657	 1,83362176932613E-02 
658	 1,83984499741338E-02 
659	 1,82343481807522E-02 
660	 1,78406681456437E-02 
661	 1,73963009616799E-02 
662	 0,017437816868632 
663	 1,72786087272405E-02 
664	 1,66647544269215E-02 
665	 1,65541379302088E-02 
666	 1,63817560011285E-02 
667	 1,50330993051794E-02 
668	 1,49160429902721E-02 
669	 1,62178579333049E-02 
670	 1,68832716846751E-02 
671	 1,68906721826091E-02 
672	 1,63482833854604E-02 
673	 1,63602725477171E-02 
674	 1,67337631805777E-02 
675	 1,64764888050597E-02 
676	 1,62166742588734E-02 
677	 1,61448603963637E-02 
678	 1,59208798212962E-02 
679	 1,60347391583213E-02 
680	 1,70624155893327E-02 
681	 1,70494724462694E-02 
682	 1,61886223820951E-02 
683	 1,66760759253279E-02 
684	 1,72531564915378E-02 
685	 1,72036124837882E-02 
686	 1,70007772646322E-02 
687	 1,70897138402582E-02 
688	 0,018182593438681 
689	 1,88200156966786E-02 
690	 1,88804702655321E-02 
691	 2,00316053063785E-02 
692	 0,021192900761824 
693	 2,14315513515128E-02 
694	 2,23873319035675E-02 
695	 2,42490332777029E-02 
696	 2,67373551384784E-02 
697	 2,90355527368078E-02 
698	 3,09421692680056E-02 
699	 3,36683231347102E-02 
700	 3,69912864529307E-02 
701	 4,04685386780336E-02 
702	 4,46535189796921E-02 
703	 4,92124569200673E-02 
704	 5,27529270604832E-02 
705	 5,62147850012542E-02 
706	 6,02515088557403E-02 
707	 6,50621549477396E-02 
708	 6,98358803745184E-02 
709	 7,30169473319834E-02 
710	 7,64540203194499E-02 
711	 8,05760419278995E-02 
712	 0,084494900509818 
713	 8,81911995225243E-02 
714	 9,16781052370694E-02 
715	 9,50391173016472E-02 
716	 9,81929845596975E-02 
717	 0,100850572347748 
718	 0,103603256533504 
719	 0,106511553504013 
720	 0,108280822651275 
721	 0,109891954613357 
722	 0,11271401684645 
723	 0,114698450781779 
724	 0,115799567602384 
725	 0,117556813953526 
726	 0,119413438061361 
727	 0,120981575783532 
728	 0,122031034255578 
729	 0,122709989253315 
730	 0,12330553845422 
731	 0,124223959360624 
732	 0,125443094191923 
733	 0,126169697308036 
734	 0,126898222502382 
735	 0,128014550697443 
736	 0,128404014327915 
737	 0,12839029849767 
738	 0,129288660956283 
739	 0,130079192618844 
740	 0,13044591520511 
741	 0,130890713262518 
742	 0,131310985828942 
743	 0,131553399589963 
744	 0,131967946481252 
745	 0,132465232003688 
746	 0,132475616034123 
747	 0,132674127705598 
748	 0,133322974759658 
749	 0,13355980559457 
750	 0,133425702545461 
751	 0,133134754728487 
752	 0,133105233878728 
753	 0,133384435192303 
754	 0,133588664205845 
755	 0,133757300987196 
756	 0,133925935438359 
757	 0,134139327203034 
758	 0,134399551035831 
759	 0,134699583924609 
760	 0,134958707855948 
761	 0,135154661997517 
762	 0,135320186201807 
763	 0,135557758332492 
764	 0,135935821686267 
765	 0,135992738986845 
766	 0,135854683108551 
767	 0,136050819829198 
768	 0,136430081232954 
769	 0,136859892504178 
770	 0,136883787864389 
771	 0,136891487646242 
772	 0,137369179617328 
773	 0,137420686285366 
774	 0,137114841040727 
775	 0,137263651952573 
776	 0,137640295548514 
777	 0,138040938570099 
778	 0,137864029952089 
779	 0,137549701533217 
780	 0,137829553851848 
781	 0,138337108035396 
782	 0,138782300343942 
783	 0,138519296415765 
784	 0,138203997986878 
785	 0,138289147488277 
786	 0,138656232452436 
787	 0,138935497815675 
788	 0,138474984040465 
789	 0,138418116483724 
790	 0,138955798859106 
791	 0,139351093717368 
792	 0,139431061458242 
793	 0,139115145903201 
794	 0,138908989052211 
795	 0,13896180105731 
796	 0,139416917108492 
797	 0,139533636428298 
798	 0,139243201629706 
799	 0,139624579377037 
800	 0,13996470530979 
801	 0,139604804395534 
802	 0,139621878520087 
803	 0,139982867375576 
804	 0,140072788122907 
805	 0,140178343964317 
806	 0,140387270740751 
807	 0,140655788071884 
808	 0,140951875127291 
809	 0,141223892870643 
810	 0,141025731936743 
811	 0,140612152675372 
812	 0,140898303989935 
813	 0,141418314396308 
814	 0,141901518118141 
815	 0,141957472718632 
816	 0,142035618318742 
817	 0,142684946947867 
818	 0,142857265738283 
819	 0,14256483144191 
820	 0,142553253541742 
821	 0,142679108265773 
822	 0,142919161863323 
823	 0,143488679146613 
824	 0,143878422892355 
825	 0,143447503734675 
826	 0,143677785480477 
827	 0,144464083879184 
828	 0,144261633601471 
829	 0,144092067859541 
830	 0,144441661563373 
831	 0,14482962653853 
832	 0,145019203171676 
833	 0,144770611290431 
834	 0,144903841340821 
835	 0,145378450547065 
836	 0,145319769164118 
837	 0,145293168330968 
838	 0,145567941767739 
839	 0,145730652135202 
840	 0,145899116559379 
841	 0,146296705565109 
842	 0,1464831083443 
843	 0,14646867110654 
844	 0,146695788920802 
845	 0,146868848724872 
846	 0,146815818565428 
847	 0,14650047840701 
848	 0,146299409272893 
849	 0,146724778151755 
850	 0,147000208322669 
851	 0,147020809839552 
852	 0,147222966052584 
853	 0,147105604336714 
854	 0,146522261127247 
855	 0,146351151499495 
856	 0,146617581392526 
857	 0,147198738715496 
858	 0,146928083274496 
859	 0,146113204452599 
860	 0,146782532319605 
861	 0,14726349016437 
862	 0,146908959994701 
863	 0,14759779043681 
864	 0,14844171912977 
865	 0,148081429799536 
866	 0,148490138417199 
867	 0,149418186535 
868	 0,148616126984437 
869	 0,148030865803723 
870	 0,148511653376882 
871	 0,149081582707469 
872	 0,149389668014751 
873	 0,149162567226784 
874	 0,149571037087992 
875	 0,150465098202529 
876	 0,150637586877683 
877	 0,150732944021364 
878	 0,150996409795261 
879	 0,151262539356323 
880	 0,151505508045887 
881	 0,151686517357254 
882	 0,15135270870954 
883	 0,150818573085752 
884	 0,151078660809017 
885	 0,151576932707292 
886	 0,152173019104536 
887	 0,153320097666897 
888	 0,15394471643747 
889	 0,153139545822794 
890	 0,152566486352734 
891	 0,152514447780019 
892	 0,152861526647255 
893	 0,153311923077881 
894	 0,153657922652233 
895	 0,153719444205202 
896	 0,153303970496363 
897	 0,152431641834737 
898	 0,152633008611644 
899	 0,153338221165771 
900	 0,15304259181165 
901	 0,153782829761891 
902	 0,155311153282782 
903	 0,154603596286956 
904	 0,153555401848779 
905	 0,15345653658619 
906	 0,154251794972471 
907	 0,155034571124942 
908	 0,15454993316994 
909	 0,154470558062018 
910	 0,154921576535644 
911	 0,154891206967886 
912	 0,1550413660177 
913	 0,155559898087864 
914	 0,155606159202011 
915	 0,155728296796233 
916	 0,156544926212007 
917	 0,156724245435173 
918	 0,156337662638876 
919	 0,156234790981581 
920	 0,156378583157987 
921	 0,156631550401433 
922	 0,156224211851298 
923	 0,155967939689143 
924	 0,156439958468725 
925	 0,156037706262965 
926	 0,155324933309897 
927	 0,155796145390478 
928	 0,155587608668926 
929	 0,154591359074773 
930	 0,154355080398932 
931	 0,154522837279199 
932	 0,154802106250313 
933	 0,154757712693044 
934	 0,154404847839921 
935	 0,15386425339082 
936	 0,153541455311671 
937	 0,153510496232719 
938	 0,153777263054104 
939	 0,153403510099013 
940	 0,152291692217714 
941	 0,151884054434942 
942	 0,152295910031897 
943	 0,153338150483822 
944	 0,152940518827909 
945	 0,151376285087444 
946	 0,149794366356849 
947	 0,149359880009038 
948	 0,149932235701625 
949	 0,149519236262016 
950	 0,148606180632199 
951	 0,147674449257299 
952	 0,147966377953352 
953	 0,148415112272099 
954	 0,147578719291108 
955	 0,145399608682166 
956	 0,143290349499736 
957	 0,145035281511464 
958	 0,145215956506559 
959	 0,142679582993446 
960	 0,141518144448396 
961	 0,141234016798228 
962	 0,1412951356636 
963	 0,141442109729687 
964	 0,141338449719731 
965	 0,140597795777334 
966	 0,141119090796791 
967	 0,142472042755814 
968	 0,141739378715721 
969	 0,141421026094468 
970	 0,142116263375335 
971	 0,140972635841277 
972	 0,139759982941344 
973	 0,140194914779273 
974	 0,141000887203659 
975	 0,142284570868208 
976	 0,144733891277066 
977	 0,14359906039685 
978	 0,139619296099252 
979	 0,140008739164962 
980	 0,141119805206583 
981	 0,141229585311971 
982	 0,141412019043401 
983	 0,141769077790326 
984	 0,142320888345356 
985	 0,14271418649116 
986	 0,143091918473888 
987	 0,143815893210708 
988	 0,145458692946829 
989	 0,147186978818689 
990	 0,145478497487654 
991	 0,144261423800702 
992	 0,145265847930498 
993	 0,144992314632468 
994	 0,144591466798325 
995	 0,145464997956811 
996	 0,146439180077729 
997	 0,147296994976098 
998	 0,148123857609581 
999	 0,147510082128438 
1000	 0,146300583569756 
1001	 0,149004975124378 
1002	 0,150977134219727 
1003	 0,150053928282651 
1004	 0,148550931461645 
1005	 0,148212608790219 
1006	 0,150319643498998 
1007	 0,151661370608186 
1008	 0,152284161891149 
1009	 0,153379166376144 
1010	 0,154129459551031 
1011	 0,153800443623006 
1012	 0,150183787781925 
1013	 0,149708050042862 
1014	 0,153944127470123 
1015	 0,155162234277057 
1016	 0,153523602940767 
1017	 0,150413454653508 
1018	 0,153103421006088 
1019	 0,15821568974195 
1020	 0,159114138634645 
1021	 0,158203600476956 
1022	 0,157770968828788 
1023	 0,163523604896368 
1024	 0,163465781357106 
1025	 0,156448017558253 
1026	 0,157757970942806 
1027	 0,15973771390385 
1028	 0,157635965464775 
1029	 0,156652167928052 
1030	 0,157909110690844 
1031	 0,16190433280341 
1032	 0,16634214587307 
1033	 0,168426328236127 
1034	 0,163969534266357 
1035	 0,161287472249353 
1036	 0,162948436917458 
1037	 0,168630547331945 
1038	 0,170217460369767 
1039	 0,16486950014303 
1040	 0,159317430839317 
1041	 0,158937027820276 
1042	 0,166324746400369 
1043	 0,168470861131632 
1044	 0,166599074180604 
1045	 0,165231443354249 
1046	 0,168968184071379 
1047	 0,173714822953547 
1048	 0,167049629389381 
1049	 0,167227281912633 
1050	 0,174899105074523 
1051	 0,169145097451649 
1052	 0,167365604001815 
1053	 0,175868971854653 
1054	 0,178823368939084 
1055	 0,176242038814222 
1056	 0,169959719788947 
1057	 0,168662507153055 
1058	 0,16994959966251 
1059	 0,168732137326288 
1060	 0,175007017711367 
1061	 0,18248619719116 
1062	 0,172412606874488 
1063	 0,169247064243205 
1064	 0,175086223085931 
1065	 0,168665070198698 
1066	 0,16532344243502 
1067	 0,169499963940193 
1068	 0,168660897231855 
1069	 0,162068377150773 
1070	 0,154138744439854 
1071	 0,174697733890037 
1072	 0,196521546927247 
1073	 0,184880742876695 
1074	 0,177580074889404 
1075	 0,176103474383735 
