Wavelength	ABBE00403.asd
325	 0,230378756922036 
326	 0,188719147396833 
327	 0,145559555764754 
328	 8,03896811960171E-02 
329	 0,126716249718278 
330	 0,179868941355855 
331	 0,131323640261501 
332	 5,39113216734866E-02 
333	 1,2320308303395E-05 
334	 2,68170111326288E-02 
335	 9,14061828123656E-02 
336	 0,162713062237886 
337	 0,178475036067067 
338	 0,143601566340628 
339	 5,57266493908135E-02 
340	 3,28456981140166E-02 
341	 6,91505423799679E-02 
342	 6,98476901060997E-02 
343	 7,50925376151193E-02 
344	 8,44367781103614E-02 
345	 4,61847965014644E-02 
346	 1,78949665453258E-02 
347	 5,06738232147771E-02 
348	 1,95158955911885E-02 
349	-3,70917899931173E-02 
350	 2,88380148426788E-02 
351	 9,36716253676704E-02 
352	 0,109886863720945 
353	 0,102238149754681 
354	 7,48877874000003E-02 
355	 3,63706389585862E-02 
356	 2,47557747877428E-02 
357	 3,55925733602484E-02 
358	 4,05287688877492E-02 
359	 4,02926673529593E-02 
360	 3,61747295518358E-02 
361	 3,88039408556309E-02 
362	 4,34283961722612E-02 
363	 0,041884159693261 
364	 4,25719721328449E-02 
365	 4,69230884092572E-02 
366	 0,053554797401303 
367	 5,45269301008114E-02 
368	 4,69016875213751E-02 
369	 4,75016012027309E-02 
370	 4,59438388135394E-02 
371	 1,84936990096516E-02 
372	 9,54040353008732E-03 
373	 0,022292024159226 
374	 9,73711044745866E-03 
375	 8,83257426085103E-03 
376	 4,29817278553689E-02 
377	 4,45129813786029E-02 
378	 2,66862909717832E-02 
379	 3,97007727187357E-02 
380	 4,48004305944679E-02 
381	 3,56067694006866E-02 
382	 4,40357795502408E-02 
383	 4,81481510057612E-02 
384	 2,84946746550004E-02 
385	 1,66046014126843E-02 
386	 1,49377835480153E-02 
387	 1,08056735973785E-02 
388	 1,63535908599258E-02 
389	 3,13540933319515E-02 
390	 3,14310837254788E-02 
391	 2,96186613592705E-02 
392	 4,28751969139587E-02 
393	 4,16896564554029E-02 
394	 2,82190660405881E-02 
395	 2,58963577668111E-02 
396	 2,74654953381454E-02 
397	 2,95747141088207E-02 
398	 3,75118678366518E-02 
399	 4,02660221641173E-02 
400	 0,020451482987826 
401	 1,53502789337998E-02 
402	 2,79454059457645E-02 
403	 0,031702421053859 
404	 0,027984906576644 
405	 1,93503553375123E-02 
406	 1,70330614383217E-02 
407	 2,11330144891728E-02 
408	 2,86921630873109E-02 
409	 3,19187229797784E-02 
410	 2,98481999630807E-02 
411	 0,032378825762379 
412	 2,94567741620337E-02 
413	 1,30217757032411E-02 
414	 1,09347956131071E-02 
415	 0,020841532912787 
416	 2,36521754748059E-02 
417	 2,54825096243489E-02 
418	 2,73238409289518E-02 
419	 2,18103880467194E-02 
420	 0,015650063608962 
421	 1,78637074364018E-02 
422	 1,95162886188298E-02 
423	 1,88908971019226E-02 
424	 1,68922913161708E-02 
425	 1,80699460908022E-02 
426	 2,40345097426239E-02 
427	 2,42154927102475E-02 
428	 2,06886900813884E-02 
429	 1,93972113718128E-02 
430	 1,99336729165119E-02 
431	 2,18219856163488E-02 
432	 2,31269536969724E-02 
433	 2,28005061890209E-02 
434	 2,02468912149808E-02 
435	 1,90850532608982E-02 
436	 2,01823140060403E-02 
437	 2,43308910254119E-02 
438	 2,58170433763176E-02 
439	 2,30194837134851E-02 
440	 2,21444657863915E-02 
441	 2,23147533770957E-02 
442	 2,16999741659839E-02 
443	 2,13083363814577E-02 
444	 2,16069806977098E-02 
445	 2,36656423962018E-02 
446	 2,46372494027242E-02 
447	 2,29885495700568E-02 
448	 2,17235573189545E-02 
449	 2,11849001033153E-02 
450	 2,11633505582992E-02 
451	 2,02269909698714E-02 
452	 1,90789947967049E-02 
453	 2,31963590182308E-02 
454	 2,70494387656436E-02 
455	 2,56167022973499E-02 
456	 2,44387591020146E-02 
457	 0,023468804072532 
458	 1,85588182459019E-02 
459	 1,88642489730099E-02 
460	 2,59995004650842E-02 
461	 0,023380171298766 
462	 1,84481855524209E-02 
463	 2,30967516324146E-02 
464	 2,49867597386504E-02 
465	 2,28890731071314E-02 
466	 2,35255230944289E-02 
467	 2,47438231851529E-02 
468	 2,49934091373959E-02 
469	 2,36302179991374E-02 
470	 2,18777903370375E-02 
471	 2,24496980443497E-02 
472	 2,18592170650167E-02 
473	 2,00562584181406E-02 
474	 2,23540870867121E-02 
475	 0,024716287379104 
476	 2,31055744036895E-02 
477	 2,28091070133403E-02 
478	 0,024078837709715 
479	 2,47012126110948E-02 
480	 2,46729365779535E-02 
481	 2,40572259741562E-02 
482	 2,37665196068417E-02 
483	 2,36647253426978E-02 
484	 2,33780655640379E-02 
485	 2,34519008819976E-02 
486	 2,33993015133877E-02 
487	 0,020752939566412 
488	 1,86299698267114E-02 
489	 1,94018195811345E-02 
490	 2,16517159997268E-02 
491	 2,35579951212797E-02 
492	 2,14117733840111E-02 
493	 2,10763769106576E-02 
494	 2,37643041399333E-02 
495	 2,41411615426199E-02 
496	 2,27836316454102E-02 
497	 2,08356521443681E-02 
498	 1,92655700372095E-02 
499	 1,84606925970389E-02 
500	 0,018331248362933 
501	 1,91490542773571E-02 
502	 2,09044313490881E-02 
503	 2,27851582197856E-02 
504	 2,35729822680665E-02 
505	 2,12668461687888E-02 
506	 2,07509730008943E-02 
507	 2,24439158807176E-02 
508	 2,10703442672612E-02 
509	 0,019232745051651 
510	 1,94421344710454E-02 
511	 2,02206342004322E-02 
512	 2,12798590047725E-02 
513	 2,28056102242049E-02 
514	 2,34306351570967E-02 
515	 2,28904449262919E-02 
516	 2,38871280234854E-02 
517	 2,48874742785359E-02 
518	 2,33986576520932E-02 
519	 2,26853038292599E-02 
520	 2,32016575344452E-02 
521	 2,33797037240901E-02 
522	 2,29284618484997E-02 
523	 0,021856511371967 
524	 0,022609353127735 
525	 2,42141316089297E-02 
526	 2,36461867492415E-02 
527	 2,30184553063723E-02 
528	 2,29052929446634E-02 
529	 2,23351778179548E-02 
530	 2,18532756830411E-02 
531	 2,21290863468053E-02 
532	 2,20060457120441E-02 
533	 2,16644990880734E-02 
534	 2,25583390873561E-02 
535	 2,34421613996007E-02 
536	 2,35216986574896E-02 
537	 2,27091155686241E-02 
538	 2,20261952539299E-02 
539	 2,34701801471405E-02 
540	 2,37375003466501E-02 
541	 2,23972507273072E-02 
542	 2,27380359633116E-02 
543	 2,31230892659834E-02 
544	 2,19224348838779E-02 
545	 2,21152784407902E-02 
546	 2,32594746326338E-02 
547	 2,22786430491493E-02 
548	 2,19932523365489E-02 
549	 2,34852213057011E-02 
550	 2,41319397242563E-02 
551	 2,40816075075812E-02 
552	 2,40530465961208E-02 
553	 2,36665625859956E-02 
554	 2,30715804327228E-02 
555	 2,31304661706204E-02 
556	 2,32419210777031E-02 
557	 2,29293363535443E-02 
558	 2,30034593878254E-02 
559	 0,023266393491844 
560	 2,27987946427838E-02 
561	 2,26698524127709E-02 
562	 2,31881526716492E-02 
563	 2,34786697544833E-02 
564	 2,33493388452846E-02 
565	 2,26635868463217E-02 
566	 2,24337915205961E-02 
567	 2,28687668032965E-02 
568	 2,37010169338763E-02 
569	 2,42115312849786E-02 
570	 2,39362636016461E-02 
571	 2,37173981986806E-02 
572	 2,36202437556579E-02 
573	 2,34118006271831E-02 
574	 2,34786525389676E-02 
575	 2,39700980990927E-02 
576	 2,48428851632234E-02 
577	 2,57664952607146E-02 
578	 2,63770242543584E-02 
579	 2,65481616167519E-02 
580	 2,62547681434644E-02 
581	 2,53497518606184E-02 
582	 2,52422266810071E-02 
583	 2,64961290534889E-02 
584	 2,64333427712302E-02 
585	 2,59712917572996E-02 
586	 2,74433292526895E-02 
587	 0,027956112333569 
588	 2,71588312134559E-02 
589	 2,76722071412616E-02 
590	 2,83433009533642E-02 
591	 0,028043991106718 
592	 2,80025693282045E-02 
593	 2,82466632328239E-02 
594	 2,81758573602303E-02 
595	 2,81474938024828E-02 
596	 2,83030476484791E-02 
597	 0,028475344817157 
598	 2,85440106017989E-02 
599	 2,83684127168407E-02 
600	 2,80257132998917E-02 
601	 2,76569320964651E-02 
602	 2,76186833835898E-02 
603	 2,77717812297891E-02 
604	 2,79779532266062E-02 
605	 0,028102090582309 
606	 2,80726773554907E-02 
607	 2,77551406923361E-02 
608	 2,76314108354761E-02 
609	 2,78150933784143E-02 
610	 2,77846241417195E-02 
611	 2,74752913784011E-02 
612	 2,68741947809633E-02 
613	 2,62625590348379E-02 
614	 2,58910171168599E-02 
615	 2,62807909109843E-02 
616	 2,66318292974008E-02 
617	 2,64379113009609E-02 
618	 0,026196551379374 
619	 0,0260117594638 
620	 2,59332644944719E-02 
621	 2,59176031835387E-02 
622	 2,59188944205864E-02 
623	 2,57270492140565E-02 
624	 2,58154502464616E-02 
625	 2,66246304329545E-02 
626	 2,66490127696579E-02 
627	 2,59964464534557E-02 
628	 2,59307488931279E-02 
629	 2,60938301929575E-02 
630	 2,62831631032227E-02 
631	 2,62287670391503E-02 
632	 2,62049718855451E-02 
633	 2,67200900395997E-02 
634	 2,70795457588075E-02 
635	 2,72071400454769E-02 
636	 0,027719582451559 
637	 2,81729781662903E-02 
638	 2,82402825545683E-02 
639	 2,90357930229542E-02 
640	 3,00324796056392E-02 
641	 2,93864044039489E-02 
642	 0,028748899533628 
643	 2,87887698259205E-02 
644	 2,90745899776609E-02 
645	 2,94605505535572E-02 
646	 0,02980592124626 
647	 2,98674241901432E-02 
648	 2,96840482439285E-02 
649	 2,96239712724919E-02 
650	 2,96599300398407E-02 
651	 2,97296748176188E-02 
652	 2,94669379261134E-02 
653	 2,89105488577283E-02 
654	 0,028196159097651 
655	 2,78665123844051E-02 
656	 2,79953045905091E-02 
657	 2,79366483283272E-02 
658	 2,74775605867146E-02 
659	 2,64850428258247E-02 
660	 2,59946712829703E-02 
661	 2,59602436689225E-02 
662	 0,025544465686012 
663	 2,50075033966474E-02 
664	 2,45318505141677E-02 
665	 0,024530520085336 
666	 2,46188975074547E-02 
667	 0,024131439610224 
668	 2,35599504033279E-02 
669	 2,32265448530565E-02 
670	 2,37897878249776E-02 
671	 2,43475006303957E-02 
672	 2,41936997160894E-02 
673	 2,41584917278152E-02 
674	 0,024181615022154 
675	 2,37380758696193E-02 
676	 2,34296271802544E-02 
677	 2,34174928518448E-02 
678	 2,30715005545095E-02 
679	 2,31830006867989E-02 
680	 2,47011793801504E-02 
681	 2,52157817771526E-02 
682	 2,46322047145689E-02 
683	 2,46021509269721E-02 
684	 2,48112357082215E-02 
685	 0,025079591312076 
686	 2,52423528102267E-02 
687	 2,55948645366524E-02 
688	 0,026733137085763 
689	 2,76320440128765E-02 
690	 2,80962617261127E-02 
691	 2,86918469411491E-02 
692	 2,98342002402648E-02 
693	 3,18334127664562E-02 
694	 3,38880768154581E-02 
695	 3,61097506205282E-02 
696	 3,92319360073709E-02 
697	 4,25636635579297E-02 
698	 0,045822076884255 
699	 4,91220054872409E-02 
700	 5,28794406540407E-02 
701	 5,75962172836382E-02 
702	 0,062760785793364 
703	 6,80198080130085E-02 
704	 7,28407674011331E-02 
705	 7,76283122299497E-02 
706	 8,26359895726862E-02 
707	 8,77905924366751E-02 
708	 9,26941560901323E-02 
709	 9,66179836737346E-02 
710	 0,100806362306102 
711	 0,105462656145383 
712	 0,109599879005087 
713	 0,113435994877523 
714	 0,117194355968064 
715	 0,120618760043117 
716	 0,123684631639196 
717	 0,126429032352878 
718	 0,12910437323104 
719	 0,131754137378297 
720	 0,133917575708148 
721	 0,135812035907272 
722	 0,137754211050846 
723	 0,139618231139613 
724	 0,141385471294768 
725	 0,143008528202182 
726	 0,144690112635338 
727	 0,146438316464182 
728	 0,147231048123114 
729	 0,147511623116676 
730	 0,148276962961404 
731	 0,149307598267526 
732	 0,150444048059481 
733	 0,151185878896943 
734	 0,151870730361555 
735	 0,152785419063892 
736	 0,153527123431951 
737	 0,154054790834957 
738	 0,15441181817053 
739	 0,15488708522038 
740	 0,155543367794425 
741	 0,155999262654032 
742	 0,156277156539605 
743	 0,156447173128954 
744	 0,156659208930703 
745	 0,156955051760289 
746	 0,157294146138447 
747	 0,157737667554314 
748	 0,158277971005957 
749	 0,158680184439184 
750	 0,158907500363224 
751	 0,158957772892805 
752	 0,158896782423584 
753	 0,158835417136022 
754	 0,159063076278928 
755	 0,159236532322491 
756	 0,15916530349238 
757	 0,159602234225432 
758	 0,160265241481231 
759	 0,16034761196897 
760	 0,160444160211316 
761	 0,160736005825932 
762	 0,161138618637147 
763	 0,161489505530095 
764	 0,161638289689893 
765	 0,1615613463142 
766	 0,16149308609464 
767	 0,162059097176065 
768	 0,162505869223548 
769	 0,162562449413462 
770	 0,162617741310558 
771	 0,162663125987547 
772	 0,162654699206346 
773	 0,162652593566532 
774	 0,162807177618844 
775	 0,163601490697063 
776	 0,163991318777347 
777	 0,163553329904729 
778	 0,163538989073689 
779	 0,163771574838923 
780	 0,163769795739243 
781	 0,164014251762054 
782	 0,164495630616178 
783	 0,164808298259496 
784	 0,164842101117291 
785	 0,16457356449456 
786	 0,164442888345544 
787	 0,164508470708941 
788	 0,164743945170426 
789	 0,164936787496017 
790	 0,165028726282162 
791	 0,165154047012364 
792	 0,165179497952928 
793	 0,16502543446241 
794	 0,165008979221321 
795	 0,165170254011947 
796	 0,165482043596131 
797	 0,165765580268182 
798	 0,165863110693001 
799	 0,165393191649116 
800	 0,165071900027613 
801	 0,165538604977658 
802	 0,165820489899942 
803	 0,165928181427659 
804	 0,166446195944189 
805	 0,166631869452602 
806	 0,166366264074761 
807	 0,166521883255557 
808	 0,167112556419678 
809	 0,168005312678732 
810	 0,167524336229982 
811	 0,166307158802366 
812	 0,167192139270601 
813	 0,167797903442013 
814	 0,167314974058435 
815	 0,16731749928181 
816	 0,167587690166541 
817	 0,167717155721313 
818	 0,16796889606626 
819	 0,168333444624281 
820	 0,168695980517114 
821	 0,168736829240082 
822	 0,168487565900166 
823	 0,169238109994105 
824	 0,170142093675495 
825	 0,169975166232073 
826	 0,169830669307749 
827	 0,169909352995371 
828	 0,169940284469513 
829	 0,170141890546438 
830	 0,170556528668512 
831	 0,170689771312854 
832	 0,170725484292168 
833	 0,1709871867199 
834	 0,171176948394278 
835	 0,171298583568905 
836	 0,171617258259215 
837	 0,171883953796712 
838	 0,171957570141323 
839	 0,171851183049287 
840	 0,171890226363653 
841	 0,172515073242491 
842	 0,172358698015907 
843	 0,171633121684837 
844	 0,172296464713789 
845	 0,172717512545733 
846	 0,172158519705459 
847	 0,172178694914597 
848	 0,172535878456094 
849	 0,172645689542804 
850	 0,172468820756596 
851	 0,172107377177047 
852	 0,171955293709048 
853	 0,171849091021519 
854	 0,171799877453317 
855	 0,172506634679342 
856	 0,173213329641028 
857	 0,172823556666594 
858	 0,172358555495 
859	 0,172212717894349 
860	 0,172782329239778 
861	 0,173207807714665 
862	 0,173109680093389 
863	 0,173307825860896 
864	 0,173544834743979 
865	 0,173396655138363 
866	 0,174336463089283 
867	 0,17568866704803 
868	 0,174295321164461 
869	 0,173236955430345 
870	 0,173840130568809 
871	 0,174295126401122 
872	 0,174569814043646 
873	 0,174818500172219 
874	 0,174892307111922 
875	 0,174888171427343 
876	 0,17507424593503 
877	 0,175739550254194 
878	 0,176752168659454 
879	 0,176657848619591 
880	 0,176289191393877 
881	 0,176633158487737 
882	 0,176695054498032 
883	 0,176527974027604 
884	 0,176777216274877 
885	 0,176968140979512 
886	 0,177040469917798 
887	 0,177650607841238 
888	 0,177954140178829 
889	 0,177256790378039 
890	 0,177403776241953 
891	 0,17822690716346 
892	 0,178648688164367 
893	 0,178643939995066 
894	 0,17830779596072 
895	 0,17833091725985 
896	 0,178190125062293 
897	 0,177543329845304 
898	 0,177263766805462 
899	 0,177504234756129 
900	 0,17827078268901 
901	 0,178932056869799 
902	 0,179359615905809 
903	 0,18006677530438 
904	 0,180174741702962 
905	 0,179359894817247 
906	 0,179549083355326 
907	 0,18005063132665 
908	 0,179556634472967 
909	 0,179443793671011 
910	 0,179852467378814 
911	 0,18019051122676 
912	 0,180226947414167 
913	 0,179946403936333 
914	 0,180051307370011 
915	 0,18040885084093 
916	 0,180799219634418 
917	 0,181435886235121 
918	 0,181924472886156 
919	 0,181142159355327 
920	 0,18087051468147 
921	 0,181418663274146 
922	 0,180932363336761 
923	 0,180411442330863 
924	 0,180723924691418 
925	 0,181295987244054 
926	 0,181559569024544 
927	 0,180679797109319 
928	 0,179877482876606 
929	 0,179627020832964 
930	 0,180134825319167 
931	 0,180742685740398 
932	 0,18090085265833 
933	 0,179870476410042 
934	 0,178869583427404 
935	 0,179503606506565 
936	 0,180446483327979 
937	 0,180864195748639 
938	 0,179172742140132 
939	 0,17845477019774 
940	 0,179505904287093 
941	 0,1796216733733 
942	 0,179225398222938 
943	 0,178810390779602 
944	 0,178097162869604 
945	 0,177242174027547 
946	 0,17653782022158 
947	 0,176461307022722 
948	 0,176880082209483 
949	 0,176874373053467 
950	 0,176296804309939 
951	 0,175174075572173 
952	 0,174107041502066 
953	 0,173899454551688 
954	 0,175267963554514 
955	 0,175202349828497 
956	 0,173616922034323 
957	 0,171926481494592 
958	 0,171160254391298 
959	 0,171679713365966 
960	 0,172793392877818 
961	 0,173758861127313 
962	 0,174001745207246 
963	 0,173779606818324 
964	 0,173148696589539 
965	 0,172147202950293 
966	 0,1718516946831 
967	 0,17226058522514 
968	 0,172436798609506 
969	 0,172423812701754 
970	 0,172194218771885 
971	 0,171565974910935 
972	 0,171658063235389 
973	 0,17319937353269 
974	 0,172657206528283 
975	 0,17147204471536 
976	 0,173320643248344 
977	 0,173016959767149 
978	 0,170594246224431 
979	 0,171220289157256 
980	 0,172080915499383 
981	 0,171966110028909 
982	 0,172210564158688 
983	 0,173548133755914 
984	 0,176259031652192 
985	 0,17597274741963 
986	 0,173664360657925 
987	 0,17265967416557 
988	 0,174561653334654 
989	 0,17825805821658 
990	 0,177875360134888 
991	 0,17700054206561 
992	 0,177315110126038 
993	 0,176708037566806 
994	 0,175638810229124 
995	 0,174891725676033 
996	 0,176592075332796 
997	 0,178520142371003 
998	 0,17557254723155 
999	 0,175989894336403 
1000	 0,179895617562473 
1001	 0,178724476075222 
1002	 0,178072322589811 
1003	 0,180342717869963 
1004	 0,182071597580554 
1005	 0,18321690215761 
1006	 0,183974020081159 
1007	 0,184111835304545 
1008	 0,184247074585503 
1009	 0,185504634969247 
1010	 0,185245364748046 
1011	 0,183656572451682 
1012	 0,183525387998066 
1013	 0,184865512828612 
1014	 0,187074837435004 
1015	 0,187275683545217 
1016	 0,185270519240933 
1017	 0,181851847488445 
1018	 0,183665741901941 
1019	 0,187466570538544 
1020	 0,187021844433933 
1021	 0,186784344767216 
1022	 0,187686280233232 
1023	 0,18976582056022 
1024	 0,189966052249334 
1025	 0,187914191621148 
1026	 0,187255177433811 
1027	 0,187622538600595 
1028	 0,188676958731712 
1029	 0,190618741430314 
1030	 0,190938396714935 
1031	 0,187303783124578 
1032	 0,188121498979548 
1033	 0,19314482501368 
1034	 0,198663757643611 
1035	 0,196741537531814 
1036	 0,190099728628076 
1037	 0,197384479728714 
1038	 0,201990193518732 
1039	 0,198029034791136 
1040	 0,197527379028219 
1041	 0,196950257736891 
1042	 0,193597008215204 
1043	 0,193887648985047 
1044	 0,194776643411347 
1045	 0,191435250291884 
1046	 0,19695393761222 
1047	 0,205934521833073 
1048	 0,199085043790797 
1049	 0,19865179187368 
1050	 0,206282435405396 
1051	 0,199729058196302 
1052	 0,20092342541201 
1053	 0,215113868005921 
1054	 0,208200742624823 
1055	 0,196520149625599 
1056	 0,195943208532798 
1057	 0,19986622493537 
1058	 0,20143037324038 
1059	 0,193150933912976 
1060	 0,194040005728744 
1061	 0,202342797341816 
1062	 0,204534404339921 
1063	 0,199800196712908 
1064	 0,192156930609831 
1065	 0,198605674218632 
1066	 0,204737817024678 
1067	 0,203853164467093 
1068	 0,197623060837734 
1069	 0,19002111802263 
1070	 0,186191829998934 
1071	 0,194153510159715 
1072	 0,205363407619493 
1073	 0,208459275777932 
1074	 0,210115931624673 
1075	 0,206138044378111 
