Wavelength	ABBE00193.asd
325	-0,170659020135552 
326	 4,67206500264351E-02 
327	 9,53859071075095E-02 
328	-8,68260208327355E-02 
329	-0,095632183908046 
330	 1,37673872222272E-02 
331	 0,123163919532027 
332	 0,125498045482549 
333	 7,07382821547726E-02 
334	 8,79241932534463E-02 
335	 0,106346212692425 
336	 0,107295027850361 
337	 8,35755061469328E-02 
338	 4,27285518129884E-02 
339	-1,41813668640257E-02 
340	 3,93240761254082E-02 
341	 0,12593590547645 
342	 5,80934439927392E-02 
343	 3,38390792981038E-02 
344	 8,32300552507544E-02 
345	 8,45024731620365E-02 
346	 8,27296147962701E-02 
347	 0,124501590152435 
348	 0,124787597985342 
349	 8,93208181150034E-02 
350	 6,54067023389672E-02 
351	 5,64716338320249E-02 
352	 6,17740776684729E-02 
353	 0,064091836993925 
354	 5,88602028524191E-02 
355	 4,42043965290242E-02 
356	 1,75892158718706E-02 
357	 0,002171318919774 
358	 7,31588910182501E-02 
359	 0,102146361329296 
360	 0,046517456453472 
361	 5,41218764061706E-02 
362	 8,58244756013083E-02 
363	 6,51803318159929E-02 
364	 6,26548469390598E-02 
365	 7,84086654466642E-02 
366	 5,49510058261737E-02 
367	 2,85078512487095E-02 
368	 2,12025511361389E-02 
369	 1,65504892688314E-02 
370	 1,98382639166063E-02 
371	 4,52278081108822E-02 
372	 6,54283594853229E-02 
373	 6,84461313245887E-02 
374	 4,28723519701538E-02 
375	 2,89301519298144E-02 
376	 5,35447131690893E-02 
377	 0,058292419859016 
378	 4,97539188148025E-02 
379	 6,28420890236377E-02 
380	 5,95182226017242E-02 
381	 3,83926465246089E-02 
382	 5,83833646647272E-02 
383	 7,81767062757555E-02 
384	 6,02797940436576E-02 
385	 3,42385231529895E-02 
386	 1,66522005514143E-02 
387	 3,31874403578933E-02 
388	 4,92652773927743E-02 
389	 5,07487328898299E-02 
390	 0,043794457255111 
391	 4,11274731074844E-02 
392	 5,65614471899154E-02 
393	 6,20771885822206E-02 
394	 5,42304028633848E-02 
395	 3,94577290782233E-02 
396	 3,49895325741143E-02 
397	 0,047951012050728 
398	 5,80690566751342E-02 
399	 5,91387770309767E-02 
400	 0,045682677936378 
401	 3,67452870016384E-02 
402	 3,70841845045814E-02 
403	 4,20274886462919E-02 
404	 4,69609505645348E-02 
405	 4,86023163710402E-02 
406	 4,53384305319951E-02 
407	 4,04950320314844E-02 
408	 4,06112961496772E-02 
409	 4,17799179084267E-02 
410	 4,35410532446389E-02 
411	 5,00451834475174E-02 
412	 5,26601710740186E-02 
413	 4,43796868063291E-02 
414	 3,87291826923528E-02 
415	 3,87001519727603E-02 
416	 4,54756465010281E-02 
417	 5,00062933957153E-02 
418	 4,88356221482056E-02 
419	 4,70197671008274E-02 
420	 4,40142087890057E-02 
421	 3,85295342460013E-02 
422	 3,71095875723269E-02 
423	 0,040267263515797 
424	 0,044947617405997 
425	 4,79318239951554E-02 
426	 4,75306713900357E-02 
427	 4,91978939740594E-02 
428	 5,05371041108414E-02 
429	 4,55065373396151E-02 
430	 4,36708041165744E-02 
431	 0,046662086476421 
432	 4,85444674919482E-02 
433	 4,80208104004946E-02 
434	 4,45723389722607E-02 
435	 4,45304320723887E-02 
436	 4,80982738094892E-02 
437	 5,33129847385539E-02 
438	 5,51495840808178E-02 
439	 0,05219911777659 
440	 5,09179693321154E-02 
441	 4,98354787564483E-02 
442	 4,63267379003532E-02 
443	 4,68921209493991E-02 
444	 5,10345549772486E-02 
445	 5,18479006757501E-02 
446	 5,15822489806448E-02 
447	 5,16614875741494E-02 
448	 5,17767435486047E-02 
449	 5,24598803496632E-02 
450	 5,49772644719337E-02 
451	 5,45014808827203E-02 
452	 5,12453672611229E-02 
453	 0,053914565884843 
454	 5,63110761348743E-02 
455	 5,28488163476992E-02 
456	 5,27688244301191E-02 
457	 5,50809925081364E-02 
458	 5,19516953980908E-02 
459	 5,09315889214544E-02 
460	 5,40624921438474E-02 
461	 5,25109812235177E-02 
462	 5,04893931318404E-02 
463	 5,46002283720691E-02 
464	 5,75030270297442E-02 
465	 5,73982789946728E-02 
466	 0,054632620287258 
467	 5,33431808902577E-02 
468	 5,58061127358494E-02 
469	 5,56308113318359E-02 
470	 5,43085259248599E-02 
471	 5,68827848641244E-02 
472	 5,81530184717706E-02 
473	 5,67651481387548E-02 
474	 5,44433476803845E-02 
475	 5,33806639698932E-02 
476	 5,55024817452332E-02 
477	 5,81434997919365E-02 
478	 5,96586229428553E-02 
479	 5,69525996860711E-02 
480	 5,69301326836465E-02 
481	 6,15347331104907E-02 
482	 5,95701272540499E-02 
483	 0,0556364666159 
484	 5,82726774419578E-02 
485	 5,99722370831049E-02 
486	 5,89983871120849E-02 
487	 5,64830523369608E-02 
488	 5,46256356074342E-02 
489	 5,51335918758396E-02 
490	 0,057336937203755 
491	 5,99812597029147E-02 
492	 6,08643406917644E-02 
493	 6,12110305097176E-02 
494	 6,12436445897993E-02 
495	 5,99560396580076E-02 
496	 5,87714366812117E-02 
497	 5,92957204609347E-02 
498	 5,92661338829315E-02 
499	 0,058641013316642 
500	 5,87803825526407E-02 
501	 5,96736346881831E-02 
502	 6,12952696052905E-02 
503	 6,37763880240736E-02 
504	 6,53212547627362E-02 
505	 6,27281909255406E-02 
506	 6,17754326006788E-02 
507	 6,34872536789159E-02 
508	 6,39952698950722E-02 
509	 6,36835877604022E-02 
510	 6,31313991671117E-02 
511	 6,35970675004103E-02 
512	 6,49554417756444E-02 
513	 6,64587053804996E-02 
514	 6,66552778928465E-02 
515	 6,53138169331945E-02 
516	 6,54091231206532E-02 
517	 6,67552577683773E-02 
518	 6,86958333184571E-02 
519	 6,91672713460582E-02 
520	 0,068134133016319 
521	 6,77153835597383E-02 
522	 6,75663736016319E-02 
523	 6,75120864710573E-02 
524	 6,86229713792689E-02 
525	 7,02423147451566E-02 
526	 7,07588981200913E-02 
527	 7,05091039468608E-02 
528	 6,97585100796409E-02 
529	 6,93578874406285E-02 
530	 6,93978776759881E-02 
531	 0,069873173111507 
532	 7,04741576577096E-02 
533	 7,11101662109556E-02 
534	 0,071935843204555 
535	 0,072270651162429 
536	 0,071870416789271 
537	 7,23223272795263E-02 
538	 7,31397164836854E-02 
539	 7,29986101386944E-02 
540	 7,30336667947098E-02 
541	 7,35195383560551E-02 
542	 0,074061077853942 
543	 7,43727295935345E-02 
544	 7,42511736961411E-02 
545	 7,50171244274719E-02 
546	 7,61069088289486E-02 
547	 7,51170470975756E-02 
548	 7,44740694273479E-02 
549	 7,52661557658391E-02 
550	 7,60222190829423E-02 
551	 7,66343495902327E-02 
552	 7,72223907878214E-02 
553	 7,74664081659184E-02 
554	 7,74200214020041E-02 
555	 7,77647535393409E-02 
556	 0,077697235799381 
557	 7,66988360085312E-02 
558	 7,71735227135359E-02 
559	 7,85284400964845E-02 
560	 7,81327503304656E-02 
561	 0,077867647970164 
562	 7,84409233267872E-02 
563	 7,94471141868769E-02 
564	 8,01899213366874E-02 
565	 0,079820229950258 
566	 7,98400849337629E-02 
567	 0,080390124506802 
568	 8,04206913684606E-02 
569	 8,06306499341789E-02 
570	 8,14085523464367E-02 
571	 8,15054691474361E-02 
572	 8,12415717790344E-02 
573	 8,17694574733061E-02 
574	 8,20927135666083E-02 
575	 8,19697339327422E-02 
576	 8,19318878890038E-02 
577	 8,23360068524352E-02 
578	 8,35058886517579E-02 
579	 8,43941808555587E-02 
580	 8,47589390430321E-02 
581	 8,46681285201466E-02 
582	 8,49578844445836E-02 
583	 8,59495111279006E-02 
584	 0,085954235798701 
585	 8,55514945010902E-02 
586	 8,61487242691456E-02 
587	 8,66919926152128E-02 
588	 8,69512957261967E-02 
589	 8,73146365291079E-02 
590	 8,78726330130631E-02 
591	 8,86613059808359E-02 
592	 8,91369523507082E-02 
593	 8,91663283674684E-02 
594	 0,088627735752481 
595	 8,84408999811008E-02 
596	 8,89754463259448E-02 
597	 8,93383175547447E-02 
598	 8,95222758071644E-02 
599	 8,96772607626379E-02 
600	 8,97777336589001E-02 
601	 8,97840665593058E-02 
602	 8,94761969324968E-02 
603	 0,0894562657917 
604	 9,01101405589675E-02 
605	 9,01324186179385E-02 
606	 8,96232897700522E-02 
607	 8,93124834134486E-02 
608	 8,93940107304249E-02 
609	 8,98551239366983E-02 
610	 9,00128488501354E-02 
611	 8,97355754022276E-02 
612	 8,89563309960058E-02 
613	 8,86811111655307E-02 
614	 8,90206394085621E-02 
615	 8,94625281410963E-02 
616	 8,95208247520823E-02 
617	 8,89670707890263E-02 
618	 8,88218944312242E-02 
619	 8,90510938978487E-02 
620	 8,93025545308685E-02 
621	 8,93539197156956E-02 
622	 8,91388315128887E-02 
623	 8,87180615183326E-02 
624	 8,88551770236891E-02 
625	 0,090232044167573 
626	 9,03700568633689E-02 
627	 8,94871724928182E-02 
628	 8,98798615634022E-02 
629	 9,02284850697285E-02 
630	 9,00108430431191E-02 
631	 9,04813817322726E-02 
632	 9,12296246566158E-02 
633	 9,13745695281217E-02 
634	 9,14745885818815E-02 
635	 9,16956231715883E-02 
636	 9,20850510359397E-02 
637	 9,22930951224665E-02 
638	 9,20999032223587E-02 
639	 9,27617188477613E-02 
640	 9,37845835265914E-02 
641	 9,32997410240275E-02 
642	 9,30347476489524E-02 
643	 9,35242418497753E-02 
644	 9,34213185567501E-02 
645	 9,33113263721713E-02 
646	 9,40967833360621E-02 
647	 9,43443595308075E-02 
648	 9,39775191245869E-02 
649	 9,40409362037255E-02 
650	 9,42924607649373E-02 
651	 9,45227252561385E-02 
652	 9,44411202008109E-02 
653	 9,39597170591755E-02 
654	 9,29309261099718E-02 
655	 9,23510995034054E-02 
656	 9,24457408198388E-02 
657	 9,23755380902254E-02 
658	 9,21097400767606E-02 
659	 9,16815721496185E-02 
660	 9,13603796605122E-02 
661	 9,10836971312346E-02 
662	 9,04552477497922E-02 
663	 8,99064324978676E-02 
664	 8,96158016427142E-02 
665	 8,92112980175198E-02 
666	 8,85719770034607E-02 
667	 8,75278272647941E-02 
668	 8,74297704957396E-02 
669	 8,82690300506629E-02 
670	 8,83936083857133E-02 
671	 8,82205227688731E-02 
672	 8,81229615058835E-02 
673	 8,80191556070108E-02 
674	 8,79971949620981E-02 
675	 8,82683938223645E-02 
676	 8,85628993134641E-02 
677	 8,87575339159271E-02 
678	 8,87456127815762E-02 
679	 8,89868486526065E-02 
680	 9,00104608917314E-02 
681	 9,04913710076346E-02 
682	 9,04367519760512E-02 
683	 9,09215925490495E-02 
684	 9,16054462121624E-02 
685	 9,22568989657362E-02 
686	 9,25592149104782E-02 
687	 9,30333779789319E-02 
688	 9,47035282461447E-02 
689	 9,61317373736178E-02 
690	 0,096935752906879 
691	 9,75365306942418E-02 
692	 9,85166826724136E-02 
693	 0,100329402675677 
694	 0,10195524841144 
695	 0,103370083090715 
696	 0,105043705604416 
697	 0,106884261595749 
698	 0,10877252222476 
699	 0,110196622321992 
700	 0,111498379869748 
701	 0,113173761546951 
702	 0,11489097032554 
703	 0,116492676624608 
704	 0,117769247606558 
705	 0,118951308005123 
706	 0,120214578732173 
707	 0,121755213082519 
708	 0,12315462274583 
709	 0,1235401938357 
710	 0,124361799093506 
711	 0,125876832906014 
712	 0,127038015084565 
713	 0,127785924058449 
714	 0,128149217092032 
715	 0,128775208815226 
716	 0,129613754463556 
717	 0,130150905039148 
718	 0,13072813875386 
719	 0,131374699727004 
720	 0,131363322758451 
721	 0,131443091939167 
722	 0,132628459766837 
723	 0,133321201699856 
724	 0,133390331431789 
725	 0,133775455191654 
726	 0,134330140804911 
727	 0,134906386790378 
728	 0,134994588896665 
729	 0,134878286474611 
730	 0,135166626340041 
731	 0,135697567455501 
732	 0,136320818136747 
733	 0,136595498438233 
734	 0,136801025447254 
735	 0,137173919724785 
736	 0,137292712374648 
737	 0,137290925517845 
738	 0,137701961555082 
739	 0,137969871908686 
740	 0,137973431639793 
741	 0,138317568586951 
742	 0,138638734669302 
743	 0,138479362633484 
744	 0,138566881569641 
745	 0,138940597693522 
746	 0,139139600610698 
747	 0,139534564895876 
748	 0,140187736694141 
749	 0,140134837251993 
750	 0,139753293067143 
751	 0,139782337470925 
752	 0,140094255553295 
753	 0,140501296865669 
754	 0,140372951074749 
755	 0,140286256925658 
756	 0,14063419546108 
757	 0,140829443512409 
758	 0,140977954771972 
759	 0,14152027887829 
760	 0,141718632309345 
761	 0,141527840800174 
762	 0,141938389716755 
763	 0,14249898125005 
764	 0,142733817593098 
765	 0,142682308901112 
766	 0,142539787142763 
767	 0,142802117467821 
768	 0,143017361515059 
769	 0,143072274099832 
770	 0,143404766501952 
771	 0,143800986778823 
772	 0,143972380948696 
773	 0,14394722936849 
774	 0,143923292614825 
775	 0,144523681677776 
776	 0,144880507280707 
777	 0,144639763147506 
778	 0,144775007491487 
779	 0,145101362874851 
780	 0,145181748275138 
781	 0,145478821447109 
782	 0,145910495774385 
783	 0,145765584525975 
784	 0,145611948807118 
785	 0,145816043962778 
786	 0,146088993504914 
787	 0,146233940200408 
788	 0,145944079969514 
789	 0,146114351789957 
790	 0,146787150551803 
791	 0,146982578728723 
792	 0,146740701453987 
793	 0,146218637623027 
794	 0,146453657022988 
795	 0,147240072820777 
796	 0,147800424757894 
797	 0,147914948416233 
798	 0,147617695598729 
799	 0,147650566148722 
800	 0,14775166235114 
801	 0,147664840160044 
802	 0,147850560672805 
803	 0,148236792345029 
804	 0,148431938744745 
805	 0,148649322608239 
806	 0,148899099382844 
807	 0,148821933166656 
808	 0,14889273523088 
809	 0,149581858091519 
810	 0,149501251418984 
811	 0,148851027140501 
812	 0,148995315853049 
813	 0,149260631076811 
814	 0,14940253692151 
815	 0,149637385536268 
816	 0,149890468269741 
817	 0,150065987212927 
818	 0,150491986869877 
819	 0,150969982283178 
820	 0,150660228442809 
821	 0,150542518286704 
822	 0,151017499424346 
823	 0,151410812813489 
824	 0,151469015595458 
825	 0,150979525023177 
826	 0,150976069793596 
827	 0,151456714420592 
828	 0,151559607655381 
829	 0,151492349842656 
830	 0,151414325457022 
831	 0,15173125005664 
832	 0,152106905380769 
833	 0,152031780816362 
834	 0,151879755907384 
835	 0,151774634522147 
836	 0,151752421666136 
837	 0,151929486545425 
838	 0,152321247671093 
839	 0,1525361679131 
840	 0,152804745248479 
841	 0,153513866922664 
842	 0,153353967896526 
843	 0,152530666434263 
844	 0,152865111288465 
845	 0,153220602581779 
846	 0,153016356718551 
847	 0,152839480808324 
848	 0,152721382397615 
849	 0,152612399400403 
850	 0,153019155626363 
851	 0,153709203386415 
852	 0,153543544986368 
853	 0,153267427240498 
854	 0,15326873376443 
855	 0,15315695624668 
856	 0,153230257736989 
857	 0,153925374547843 
858	 0,153723717144046 
859	 0,152889823885677 
860	 0,15353497947014 
861	 0,154176757946408 
862	 0,15416736318164 
863	 0,1547281680574 
864	 0,155144311178001 
865	 0,154382098344111 
866	 0,154544641349443 
867	 0,155433827744857 
868	 0,154870761841051 
869	 0,154132229751931 
870	 0,15393128586429 
871	 0,154677352131803 
872	 0,155324940507158 
873	 0,154632374848544 
874	 0,154329219292063 
875	 0,154647147672735 
876	 0,155053037850291 
877	 0,155627409331973 
878	 0,15616748300279 
879	 0,155536727444917 
880	 0,154936566222708 
881	 0,155673699777957 
882	 0,155996265481423 
883	 0,155744950418758 
884	 0,155434121336343 
885	 0,15522732778337 
886	 0,155338658647248 
887	 0,156380450694659 
888	 0,156963606590749 
889	 0,155932401546711 
890	 0,155900964110853 
891	 0,156722436330525 
892	 0,156997397247829 
893	 0,157270833010833 
894	 0,157500156126218 
895	 0,156947126984488 
896	 0,156224261785462 
897	 0,15586265678649 
898	 0,155744929504406 
899	 0,156126083321614 
900	 0,157502070452791 
901	 0,158036368956794 
902	 0,157503336062901 
903	 0,157300665118101 
904	 0,157237694426677 
905	 0,157265266259901 
906	 0,157857710273597 
907	 0,158469569120135 
908	 0,158283328957283 
909	 0,157664989837717 
910	 0,157172513492149 
911	 0,15827211589955 
912	 0,158963868243438 
913	 0,158430374724891 
914	 0,158027578395398 
915	 0,158071324518459 
916	 0,158736748331314 
917	 0,159378237194876 
918	 0,159679948100052 
919	 0,1591965002825 
920	 0,159128737420449 
921	 0,159715611407971 
922	 0,159771527928399 
923	 0,159865949200017 
924	 0,160378237488014 
925	 0,159815089368569 
926	 0,158719824308054 
927	 0,158473864460655 
928	 0,158270297564075 
929	 0,158129773359559 
930	 0,158819293208251 
931	 0,159885581278474 
932	 0,160868418329693 
933	 0,160882875680131 
934	 0,160243862341121 
935	 0,159549976887111 
936	 0,160296350388597 
937	 0,161794007237421 
938	 0,161025207684358 
939	 0,160636738595355 
940	 0,161337197161681 
941	 0,161300106937358 
942	 0,160978711375472 
943	 0,160855754924952 
944	 0,16075844407872 
945	 0,160566557175974 
946	 0,160040379804659 
947	 0,160467170826371 
948	 0,161801600079189 
949	 0,162653500503842 
950	 0,162267023313203 
951	 0,160678551427253 
952	 0,161111253008219 
953	 0,162379954731449 
954	 0,162601414860748 
955	 0,161481324661259 
956	 0,159930522158416 
957	 0,160441072871272 
958	 0,161194940414426 
959	 0,161453612375186 
960	 0,16087376124282 
961	 0,160559226786649 
962	 0,161272184258724 
963	 0,161830609326441 
964	 0,162174161144266 
965	 0,162487796184315 
966	 0,162471376412973 
967	 0,162386467489968 
968	 0,163411509920402 
969	 0,163356950019418 
970	 0,161809232588026 
971	 0,161900533919003 
972	 0,162725112965456 
973	 0,163216467496559 
974	 0,163079485669375 
975	 0,163140060587645 
976	 0,165065563206566 
977	 0,164333955364839 
978	 0,161202462070775 
979	 0,160738976533596 
980	 0,162476380432501 
981	 0,165275665950294 
982	 0,163643211613881 
983	 0,162101625095255 
984	 0,165222465774216 
985	 0,165585661460105 
986	 0,164120527964437 
987	 0,165124204685324 
988	 0,167748744706407 
989	 0,170194308009364 
990	 0,166805881496625 
991	 0,164151681974715 
992	 0,165429239644235 
993	 0,166690063466855 
994	 0,166690128584913 
995	 0,164824897855677 
996	 0,165953181282648 
997	 0,16812071241297 
998	 0,165652483150253 
999	 0,166950957176759 
1000	 0,171576982330422 
1001	 0,169135211971033 
1002	 0,16688772041611 
1003	 0,168078488598404 
1004	 0,16872561682981 
1005	 0,167908393043611 
1006	 0,165543108378256 
1007	 0,168011169217557 
1008	 0,172329043016816 
1009	 0,171343919026046 
1010	 0,170775188229777 
1011	 0,171061747745186 
1012	 0,168393218703156 
1013	 0,167116847727917 
1014	 0,16866551053454 
1015	 0,170059176459272 
1016	 0,168926841263561 
1017	 0,164519870302083 
1018	 0,167118228640954 
1019	 0,172569069416294 
1020	 0,172525592202707 
1021	 0,17207639280452 
1022	 0,172254874578609 
1023	 0,172822550396391 
1024	 0,173559469541774 
1025	 0,173485537790619 
1026	 0,168347572875813 
1027	 0,166563271193854 
1028	 0,171979338485961 
1029	 0,170144362091489 
1030	 0,168232478126855 
1031	 0,175484334794406 
1032	 0,177011466360829 
1033	 0,17397368684882 
1034	 0,1747016109553 
1035	 0,175143960181075 
1036	 0,174670020160036 
1037	 0,174679588208269 
1038	 0,17451054200961 
1039	 0,173819919009219 
1040	 0,172156741052026 
1041	 0,171650741682666 
1042	 0,174026778026298 
1043	 0,178912968305908 
1044	 0,182114942601814 
1045	 0,178595005493694 
1046	 0,176451143777698 
1047	 0,175954252584531 
1048	 0,172709693982351 
1049	 0,17474764648907 
1050	 0,181416439126332 
1051	 0,180334155612277 
1052	 0,179882082867764 
1053	 0,182773086102299 
1054	 0,179417736501721 
1055	 0,175270127607793 
1056	 0,17561135740715 
1057	 0,179286120275849 
1058	 0,181234243145453 
1059	 0,175436169167055 
1060	 0,17683162266673 
1061	 0,183838105063059 
1062	 0,185354047585285 
1063	 0,182135797834839 
1064	 0,17717805294246 
1065	 0,181191236843503 
1066	 0,187246944220702 
1067	 0,190413753142876 
1068	 0,18331095519828 
1069	 0,174790426947544 
1070	 0,173559266779384 
1071	 0,182587894982178 
1072	 0,19230674332594 
1073	 0,19060646505866 
1074	 0,178861690688933 
1075	 0,164648065922125 
