Wavelength	ABBE00315.asd
325	 0,433580154715439 
326	 0,345309847789187 
327	 0,232200694594629 
328	 9,45823409566989E-02 
329	 7,91195252047179E-02 
330	 0,131476916413775 
331	 0,161179562579355 
332	 0,11123396905594 
333	 5,09050498479674E-02 
334	 0,126581051397803 
335	 0,177342354684709 
336	 0,16537814188341 
337	 9,82853474518358E-02 
338	 3,29134952789409E-02 
339	 7,53182807751568E-03 
340	 0,034941433747597 
341	 0,075587868651909 
342	 5,45892599640801E-02 
343	 6,69365943631012E-02 
344	 0,116170327904892 
345	 8,41757750482883E-02 
346	 4,92043726122222E-02 
347	 8,67114157839958E-02 
348	 7,96909729020781E-02 
349	 4,65108894913443E-02 
350	 0,087068008115345 
351	 0,108494402945595 
352	 8,35486790402482E-02 
353	 7,43036871982685E-02 
354	 6,12361349770047E-02 
355	 1,90407297887087E-02 
356	 1,39430718620409E-02 
357	 3,77439466833568E-02 
358	 3,96080757382674E-02 
359	 0,027046339835516 
360	 8,0039504849394E-03 
361	 1,74004325092694E-02 
362	 3,97867916335928E-02 
363	 4,84543798439047E-02 
364	 6,18473859774847E-02 
365	 7,79656817607412E-02 
366	 7,72736034001401E-02 
367	 6,35038039984957E-02 
368	 4,25222738700827E-02 
369	 3,09257315642718E-02 
370	 2,90781687493111E-02 
371	 3,48785726350423E-02 
372	 4,07246487533547E-02 
373	 0,041954842024644 
374	 3,11092264953812E-02 
375	 2,87655901270398E-02 
376	 4,74753212750363E-02 
377	 0,045175944414789 
378	 3,58489066705363E-02 
379	 6,59305324515038E-02 
380	 0,072355070989113 
381	 4,46578323621799E-02 
382	 4,16981359805367E-02 
383	 4,42506382693084E-02 
384	 3,16534560673266E-02 
385	 2,14795042841073E-02 
386	 2,07203396011728E-02 
387	 0,038803123681863 
388	 5,46017659432224E-02 
389	 0,05767385830133 
390	 4,45261038805411E-02 
391	 3,03398377399551E-02 
392	 3,30357145531659E-02 
393	 3,31087568670126E-02 
394	 2,96422073849542E-02 
395	 3,30572119084296E-02 
396	 3,53490464734788E-02 
397	 3,36354614320052E-02 
398	 4,08723907817858E-02 
399	 4,66645721275885E-02 
400	 3,36889616320794E-02 
401	 2,53567921538193E-02 
402	 2,65781769866428E-02 
403	 3,12986154623175E-02 
404	 3,14065786021156E-02 
405	 2,30215412763413E-02 
406	 2,35221610968317E-02 
407	 0,028895575596068 
408	 2,54333386787883E-02 
409	 2,66498050095012E-02 
410	 3,35462640888554E-02 
411	 3,19920572653155E-02 
412	 2,89412715817027E-02 
413	 3,09996458942169E-02 
414	 2,74410680314754E-02 
415	 2,19063300840036E-02 
416	 2,91851850743193E-02 
417	 0,032961360943234 
418	 2,78159525571183E-02 
419	 2,33603870064517E-02 
420	 2,14649023406404E-02 
421	 2,31998554258521E-02 
422	 0,027817007054398 
423	 3,21519504169952E-02 
424	 2,74853179132363E-02 
425	 2,30235198003538E-02 
426	 2,42099973555304E-02 
427	 2,45494039579005E-02 
428	 2,47999867363672E-02 
429	 2,81681878314483E-02 
430	 2,85245446985389E-02 
431	 2,55291270374735E-02 
432	 0,025870900920372 
433	 2,75940392163573E-02 
434	 2,86709194238853E-02 
435	 2,84937929920124E-02 
436	 2,71292988285214E-02 
437	 2,49661531863183E-02 
438	 2,33926061062235E-02 
439	 0,023238441485559 
440	 2,50684936458507E-02 
441	 2,71768038753609E-02 
442	 2,74384690544917E-02 
443	 2,76309889373875E-02 
444	 2,80769866371277E-02 
445	 2,85604712994976E-02 
446	 2,80491694734574E-02 
447	 2,63168814142541E-02 
448	 2,72606037077313E-02 
449	 2,93758506407685E-02 
450	 2,90090386868453E-02 
451	 2,77728665477706E-02 
452	 2,67394167992696E-02 
453	 2,86322404341923E-02 
454	 3,00586408297254E-02 
455	 2,79141124643065E-02 
456	 2,44979191966707E-02 
457	 2,19838084072684E-02 
458	 2,44765410594452E-02 
459	 2,79466671374931E-02 
460	 2,98766572408354E-02 
461	 2,70408295342445E-02 
462	 2,43456570882458E-02 
463	 2,86140948585362E-02 
464	 3,09723496907713E-02 
465	 3,01319207579981E-02 
466	 2,98354218401945E-02 
467	 3,02925301094919E-02 
468	 3,12853338941315E-02 
469	 2,88910904868991E-02 
470	 2,58749514793617E-02 
471	 2,90078591023347E-02 
472	 3,06010109399054E-02 
473	 2,86120338063497E-02 
474	 2,57766897230169E-02 
475	 2,43216986190494E-02 
476	 2,62205416835864E-02 
477	 3,03749768709905E-02 
478	 3,44129494452385E-02 
479	 3,32980377926796E-02 
480	 3,10166461676574E-02 
481	 2,95432543159939E-02 
482	 2,78901286548513E-02 
483	 2,71306898429475E-02 
484	 2,89214743033345E-02 
485	 3,02338112529081E-02 
486	 3,02323283491156E-02 
487	 2,94306030936051E-02 
488	 2,82610337568677E-02 
489	 2,72551107449676E-02 
490	 2,84079070976782E-02 
491	 0,030315853733003 
492	 2,89943257168601E-02 
493	 2,86387819434191E-02 
494	 3,00416334220761E-02 
495	 2,92992626577539E-02 
496	 2,75243500060887E-02 
497	 0,026305239204641 
498	 2,73123767308513E-02 
499	 2,97059460269261E-02 
500	 2,97936614437769E-02 
501	 2,91263052976594E-02 
502	 2,87469108441984E-02 
503	 2,97282188130001E-02 
504	 3,07896335151341E-02 
505	 0,029326596820253 
506	 2,94431393406579E-02 
507	 0,031225774020616 
508	 2,92741914899048E-02 
509	 2,75485181347934E-02 
510	 2,96394598926813E-02 
511	 0,031413257305903 
512	 3,24635903726989E-02 
513	 3,41027824622779E-02 
514	 3,48439597340528E-02 
515	 3,42078266341152E-02 
516	 3,33198002898141E-02 
517	 3,30987144421347E-02 
518	 3,46371717469842E-02 
519	 3,45381144549606E-02 
520	 3,28944293703231E-02 
521	 3,36380402234035E-02 
522	 3,39905835192228E-02 
523	 3,21613468988646E-02 
524	 3,18137605381226E-02 
525	 3,28528985951985E-02 
526	 3,38486180315724E-02 
527	 3,44791754029891E-02 
528	 3,44686410805241E-02 
529	 3,35332749477025E-02 
530	 3,27486049354764E-02 
531	 3,33124932893963E-02 
532	 3,35056284348451E-02 
533	 3,33376059399624E-02 
534	 3,42269759016312E-02 
535	 3,48051292441178E-02 
536	 3,43798975499749E-02 
537	 3,44555243346282E-02 
538	 3,47144466534268E-02 
539	 3,41692123146852E-02 
540	 3,37449454297239E-02 
541	 3,37351132069428E-02 
542	 3,39680099018725E-02 
543	 3,44212741990438E-02 
544	 3,50598331039145E-02 
545	 3,55483845686428E-02 
546	 3,57097938059695E-02 
547	 3,51882522069829E-02 
548	 3,51655219136555E-02 
549	 3,60836147846897E-02 
550	 3,65471071697114E-02 
551	 0,036537470332492 
552	 3,62685722902432E-02 
553	 3,62963723431333E-02 
554	 3,66296581783493E-02 
555	 0,036591943562883 
556	 3,61178586791316E-02 
557	 3,52994782508692E-02 
558	 3,59694512410481E-02 
559	 3,72995225229702E-02 
560	 3,63283260941163E-02 
561	 3,55259439317728E-02 
562	 3,58075473739564E-02 
563	 3,63019212180329E-02 
564	 3,65795488319665E-02 
565	 3,61856175449238E-02 
566	 3,61802397294397E-02 
567	 3,66627126031582E-02 
568	 3,69682508739604E-02 
569	 3,70372022806447E-02 
570	 3,69119902443836E-02 
571	 0,037515514657097 
572	 3,84096298657792E-02 
573	 3,83509346703045E-02 
574	 3,80674381052997E-02 
575	 3,80092212896233E-02 
576	 3,89768746171809E-02 
577	 4,05030272033601E-02 
578	 4,19669086407258E-02 
579	 4,23462701043386E-02 
580	 4,18925195914701E-02 
581	 4,21609530282796E-02 
582	 4,28208365813014E-02 
583	 4,35860147350214E-02 
584	 4,35962067721821E-02 
585	 4,34034385995634E-02 
586	 4,42337462797516E-02 
587	 4,44960148310265E-02 
588	 4,39765740633611E-02 
589	 4,38527890725494E-02 
590	 0,044446850353666 
591	 4,59150508118054E-02 
592	 4,66965483964591E-02 
593	 4,66010941824968E-02 
594	 4,59480645406899E-02 
595	 4,59106257215521E-02 
596	 4,68104797136594E-02 
597	 4,64396844952055E-02 
598	 4,56026259313435E-02 
599	 0,045835892087764 
600	 4,62342565382282E-02 
601	 4,64496385096691E-02 
602	 4,61256723623045E-02 
603	 4,57763238800147E-02 
604	 4,58289725159992E-02 
605	 4,62954951362927E-02 
606	 4,66471232800341E-02 
607	 4,55009340665583E-02 
608	 4,48853464531312E-02 
609	 4,53491783619506E-02 
610	 4,51186160445503E-02 
611	 4,45167917156584E-02 
612	 0,044128568643244 
613	 4,39110622069166E-02 
614	 4,38462139558115E-02 
615	 4,38029727163149E-02 
616	 4,39709599107981E-02 
617	 4,43748745749293E-02 
618	 4,41515835160144E-02 
619	 4,36197006620126E-02 
620	 4,36238367126736E-02 
621	 0,043904992155972 
622	 4,41938740754344E-02 
623	 4,34604290684809E-02 
624	 4,31044386832022E-02 
625	 4,45186911869894E-02 
626	 4,46886757361824E-02 
627	 4,37182119799391E-02 
628	 4,38170577390571E-02 
629	 4,42599188684339E-02 
630	 0,044704527771678 
631	 4,52789569556808E-02 
632	 4,57916165236229E-02 
633	 4,59506492105865E-02 
634	 4,58916361797492E-02 
635	 4,58108596451676E-02 
636	 4,63395742175895E-02 
637	 4,66641584377552E-02 
638	 4,61953736399173E-02 
639	 4,68105486124857E-02 
640	 4,81774883949906E-02 
641	 4,86842793494489E-02 
642	 4,87264274459699E-02 
643	 4,85173928647175E-02 
644	 4,85746003073764E-02 
645	 4,88753655720877E-02 
646	 4,93122291931896E-02 
647	 4,93349326359696E-02 
648	 4,90366147417526E-02 
649	 4,93060384621984E-02 
650	 4,95688335306142E-02 
651	 4,93763937550646E-02 
652	 4,83987228723424E-02 
653	 4,71264514651707E-02 
654	 0,046580429368607 
655	 4,63821036095611E-02 
656	 4,63538074685727E-02 
657	 4,62905048105671E-02 
658	 4,58099796569346E-02 
659	 4,45933777169757E-02 
660	 4,40321203691012E-02 
661	 4,40277940866535E-02 
662	 0,043375155864856 
663	 4,25949418391899E-02 
664	 4,18980511337749E-02 
665	 4,08751282959287E-02 
666	 3,99111748900309E-02 
667	 3,96284694914585E-02 
668	 3,97852068231523E-02 
669	 0,040191537146983 
670	 4,04824842218967E-02 
671	 4,05694277122108E-02 
672	 4,04181809803521E-02 
673	 4,04542014677547E-02 
674	 4,05159640921994E-02 
675	 3,99644920331908E-02 
676	 3,96221181409036E-02 
677	 3,97812221878983E-02 
678	 4,01384473321761E-02 
679	 0,040548862051807 
680	 0,040870967780724 
681	 0,040910517401843 
682	 4,08221931976867E-02 
683	 4,12579058093797E-02 
684	 4,16356819799303E-02 
685	 4,16958739855063E-02 
686	 4,21916304881617E-02 
687	 4,32168690800113E-02 
688	 4,47967157185181E-02 
689	 0,045980291234923 
690	 4,67038453580484E-02 
691	 4,80760236700572E-02 
692	 5,00168878201111E-02 
693	 5,23822871769463E-02 
694	 5,46891843719893E-02 
695	 5,71644001684738E-02 
696	 6,06809834542361E-02 
697	 6,43614818933988E-02 
698	 6,78581461210788E-02 
699	 7,14016093683407E-02 
700	 7,54237970666553E-02 
701	 8,04362011008944E-02 
702	 8,55120867261212E-02 
703	 9,03474223662654E-02 
704	 9,50072352106238E-02 
705	 9,93010598513282E-02 
706	 0,103228876455064 
707	 0,10791159067713 
708	 0,112773277622387 
709	 0,116468479778317 
710	 0,120010299491351 
711	 0,123664834738152 
712	 0,127222367640136 
713	 0,13043536465075 
714	 0,133110724003804 
715	 0,135840997899728 
716	 0,138592152440647 
717	 0,140929155387482 
718	 0,143295691175809 
719	 0,145705379760257 
720	 0,147069949980421 
721	 0,148314417471956 
722	 0,150713427914748 
723	 0,15241258548361 
724	 0,153263997870826 
725	 0,154269664939657 
726	 0,155607186422229 
727	 0,157275143761058 
728	 0,158169556658099 
729	 0,158594278494638 
730	 0,159369577059837 
731	 0,160148010755096 
732	 0,160809039802849 
733	 0,161179991697452 
734	 0,161680523594005 
735	 0,162614083135167 
736	 0,162882398720387 
737	 0,162842062108968 
738	 0,163930829373423 
739	 0,164777193025724 
740	 0,164969497339544 
741	 0,165352249621773 
742	 0,165769253875737 
743	 0,165967642543682 
744	 0,165991120391194 
745	 0,166015049204335 
746	 0,166552265569166 
747	 0,166967958583944 
748	 0,166984474886246 
749	 0,167288441634157 
750	 0,167694536890964 
751	 0,167798588327141 
752	 0,167846082844328 
753	 0,167898135907511 
754	 0,167918485406773 
755	 0,167951004545009 
756	 0,168032317480164 
757	 0,168152073801136 
758	 0,168368413352006 
759	 0,168822219846371 
760	 0,169128218893388 
761	 0,169211729598877 
762	 0,169427308829431 
763	 0,169603743941048 
764	 0,169577182597845 
765	 0,169556390589391 
766	 0,169635495521985 
767	 0,169931717420044 
768	 0,17029387636018 
769	 0,170619260924031 
770	 0,17077744419651 
771	 0,170796211085721 
772	 0,170733387775332 
773	 0,170913233860156 
774	 0,171337916631249 
775	 0,171834775278134 
776	 0,171935023586012 
777	 0,171506381947719 
778	 0,171561510517527 
779	 0,171803291632182 
780	 0,171611297386143 
781	 0,171927092223721 
782	 0,1726085228521 
783	 0,172250370564616 
784	 0,171898519173381 
785	 0,1721877206289 
786	 0,172196811262275 
787	 0,172084589455305 
788	 0,172359392487043 
789	 0,172579746779174 
790	 0,172681645162852 
791	 0,173042804682185 
792	 0,173147006536314 
793	 0,172657814019465 
794	 0,1726360548591 
795	 0,172967881023628 
796	 0,1730241492236 
797	 0,172976822695891 
798	 0,172904415169777 
799	 0,17297089531287 
800	 0,173106456180384 
801	 0,173231059754697 
802	 0,173286448566779 
803	 0,1733324836266 
804	 0,173543233144332 
805	 0,17385032822075 
806	 0,174160007275474 
807	 0,174142070764396 
808	 0,174072650130309 
809	 0,174250946562631 
810	 0,174075124602361 
811	 0,17375783128223 
812	 0,174270253217289 
813	 0,174544987803059 
814	 0,174256978234265 
815	 0,174366746457088 
816	 0,174774946173079 
817	 0,17525455019431 
818	 0,175602675881955 
819	 0,175683465806586 
820	 0,175251969811891 
821	 0,174994605736081 
822	 0,175292906851897 
823	 0,176181458433456 
824	 0,176881513457681 
825	 0,17643360892936 
826	 0,176071744457972 
827	 0,176138259775405 
828	 0,176727839127047 
829	 0,176931699961475 
830	 0,17642681565544 
831	 0,176662677308159 
832	 0,177064165792951 
833	 0,176649783138149 
834	 0,176411502015571 
835	 0,176529444682985 
836	 0,17671897564263 
837	 0,177026384295668 
838	 0,177415192474203 
839	 0,177576423405935 
840	 0,177597885821431 
841	 0,177656973134828 
842	 0,177662758633743 
843	 0,177649597723771 
844	 0,177786892047681 
845	 0,177899708934586 
846	 0,177863341578326 
847	 0,177534838328856 
848	 0,177230355518329 
849	 0,177399810964388 
850	 0,177568345532675 
851	 0,177562324283371 
852	 0,177226689212789 
853	 0,177017519993404 
854	 0,177159159784125 
855	 0,177214876390714 
856	 0,177439663004208 
857	 0,178232120533414 
858	 0,17814919618345 
859	 0,17740943956115 
860	 0,17793992167436 
861	 0,178373205977123 
862	 0,178107115266643 
863	 0,178160431198756 
864	 0,178248731300035 
865	 0,177892866559362 
866	 0,178726573463896 
867	 0,180096200742555 
868	 0,178790573255955 
869	 0,177787442206625 
870	 0,178382830203396 
871	 0,178970753438458 
872	 0,179336166144923 
873	 0,179406064945734 
874	 0,179421316479409 
875	 0,17944906156175 
876	 0,179472559013231 
877	 0,179570445662128 
878	 0,179777570541197 
879	 0,180125504453509 
880	 0,180265003515253 
881	 0,179854210992549 
882	 0,179494202882983 
883	 0,179350338295834 
884	 0,179461273875237 
885	 0,179712120687777 
886	 0,180051904993025 
887	 0,180588779130739 
888	 0,180829173300551 
889	 0,180371457502206 
890	 0,18007726401901 
891	 0,180133441693904 
892	 0,18063613649216 
893	 0,180412777218416 
894	 0,179522086728442 
895	 0,180130515266581 
896	 0,18081016374341 
897	 0,180448958218283 
898	 0,180153919661156 
899	 0,180073560967973 
900	 0,180142811120975 
901	 0,180645670006098 
902	 0,181324602550521 
903	 0,180980573445516 
904	 0,180596284309844 
905	 0,180820174982652 
906	 0,181520029407034 
907	 0,182028519486257 
908	 0,181457151456767 
909	 0,181072860938293 
910	 0,181195752943984 
911	 0,18184256122349 
912	 0,181869831777394 
913	 0,180945165085606 
914	 0,180669561918996 
915	 0,180968824016738 
916	 0,181560364969811 
917	 0,181954233932857 
918	 0,182138712127907 
919	 0,182495051371414 
920	 0,182343677085027 
921	 0,181703121646728 
922	 0,181707972732545 
923	 0,182267858325483 
924	 0,183108756965334 
925	 0,182895667123349 
926	 0,182001441218505 
927	 0,181515997099655 
928	 0,180896103613678 
929	 0,180395114560629 
930	 0,181293933065704 
931	 0,182398923697814 
932	 0,182817326185509 
933	 0,181965903586849 
934	 0,180586530626517 
935	 0,179745109081676 
936	 0,179869198503765 
937	 0,180687835652601 
938	 0,18117183424277 
939	 0,181388011972669 
940	 0,181217848581275 
941	 0,180154730787414 
942	 0,179485573666378 
943	 0,180185701748593 
944	 0,179863910285928 
945	 0,178874281112829 
946	 0,178600734175056 
947	 0,178801827370549 
948	 0,179125570505307 
949	 0,178538674746422 
950	 0,177600802454707 
951	 0,176818851005407 
952	 0,177025486612481 
953	 0,177758362011652 
954	 0,178285624407753 
955	 0,177473093222582 
956	 0,175973563052979 
957	 0,1761940555938 
958	 0,17568476818066 
959	 0,174269591820645 
960	 0,175075073822157 
961	 0,176139999393596 
962	 0,175911289228973 
963	 0,17538319179187 
964	 0,174549353322472 
965	 0,173210271017509 
966	 0,173996670039052 
967	 0,176218945265923 
968	 0,175789879412247 
969	 0,174394633082188 
970	 0,173042322888248 
971	 0,173036354700568 
972	 0,173790395257821 
973	 0,17455639762615 
974	 0,174275822854245 
975	 0,174174260584166 
976	 0,176847340066493 
977	 0,176604419459436 
978	 0,173515585839756 
979	 0,173455030085888 
980	 0,174089574908242 
981	 0,174420237876558 
982	 0,175418324754477 
983	 0,176854411916693 
984	 0,178281129374268 
985	 0,17788121992745 
986	 0,176718112213474 
987	 0,177445236236255 
988	 0,178756942036702 
989	 0,17973023843731 
990	 0,178411103272528 
991	 0,177537641319305 
992	 0,178446348934691 
993	 0,179697805421997 
994	 0,179527495668046 
995	 0,176708965833013 
996	 0,17742604385287 
997	 0,180158100985556 
998	 0,179684606467783 
999	 0,179811114599174 
1000	 0,180659928254039 
1001	 0,178766255594614 
1002	 0,17777750815363 
1003	 0,17938431362945 
1004	 0,182074684538229 
1005	 0,182276690777558 
1006	 0,177596903872804 
1007	 0,17972061267796 
1008	 0,184665724676642 
1009	 0,181752004163989 
1010	 0,183115006965817 
1011	 0,188655133393207 
1012	 0,187310287717004 
1013	 0,185887098737495 
1014	 0,186743586095385 
1015	 0,186048142744922 
1016	 0,184402972947403 
1017	 0,182823796452288 
1018	 0,184124072185083 
1019	 0,185787071674398 
1020	 0,183631762297204 
1021	 0,183876840795464 
1022	 0,187112119036336 
1023	 0,191024633318884 
1024	 0,193076162185769 
1025	 0,191854327897075 
1026	 0,185696951296342 
1027	 0,18391510510381 
1028	 0,191024198532035 
1029	 0,193765401817043 
1030	 0,193171971583767 
1031	 0,192249218605166 
1032	 0,191419222602411 
1033	 0,191753761388622 
1034	 0,194999764993126 
1035	 0,19394300210329 
1036	 0,189633443462571 
1037	 0,19351656705625 
1038	 0,196724892121102 
1039	 0,195471214154157 
1040	 0,192746535225242 
1041	 0,190277209534579 
1042	 0,189919348899648 
1043	 0,194954649778758 
1044	 0,202348672813283 
1045	 0,207405787702624 
1046	 0,207240239552653 
1047	 0,202516283732683 
1048	 0,196359616319547 
1049	 0,196657631228703 
1050	 0,202752897903033 
1051	 0,200417263458055 
1052	 0,20250311309754 
1053	 0,212297052692102 
1054	 0,212463616897121 
1055	 0,204607886341701 
1056	 0,193184798954313 
1057	 0,19539629986028 
1058	 0,202161073748198 
1059	 0,197704489941263 
1060	 0,198927579128276 
1061	 0,202411206193098 
1062	 0,191952970325248 
1063	 0,193365822141698 
1064	 0,206365820042811 
1065	 0,199340887828431 
1066	 0,196278919993683 
1067	 0,202886177500972 
1068	 0,191235644919454 
1069	 0,179542827920259 
1070	 0,183306129928731 
1071	 0,193285614898053 
1072	 0,203319874267826 
1073	 0,2070592567598 
1074	 0,209353065077335 
1075	 0,20644519416682 
