Wavelength	ABBE00066.asd
325	 0,190424692471361 
326	 0,303700921056293 
327	 0,322253743305304 
328	 0,199098969841315 
329	 3,69378709338141E-02 
330	-2,12903551161225E-02 
331	 0,106471888085432 
332	 0,190590336908769 
333	 0,222758566310363 
334	 0,286432205088887 
335	 0,288326576653153 
336	 0,234774360929523 
337	 0,223479488365351 
338	 0,236588632164228 
339	 0,257539689145622 
340	 0,250455594702952 
341	 0,234233815706952 
342	 0,266297405614103 
343	 0,274074308020769 
344	 0,246739190831322 
345	 0,223667845454598 
346	 0,226045682485124 
347	 0,266520721641592 
348	 0,258722626336768 
349	 0,222377038540236 
350	 0,246010354244203 
351	 0,263259199695283 
352	 0,253118898651955 
353	 0,248249332718158 
354	 0,242380841679848 
355	 0,226631143745252 
356	 0,237532280590212 
357	 0,267606631567002 
358	 0,281250550556233 
359	 0,277764998824755 
360	 0,261469620100822 
361	 0,269525076683675 
362	 0,277740795077782 
363	 0,247439488102052 
364	 0,234258412026877 
365	 0,246816020192535 
366	 0,267130413749575 
367	 0,278229440021002 
368	 0,272310799165378 
369	 0,272366699561616 
370	 0,278969829632019 
371	 0,288056552500257 
372	 0,28520217167896 
373	 0,275481584891759 
374	 0,299556217614475 
375	 0,316043747259251 
376	 0,295018035189229 
377	 0,275493872314813 
378	 0,271297812650076 
379	 0,303470275146897 
380	 0,306443467448337 
381	 0,27050661567256 
382	 0,267594996288269 
383	 0,282110404966349 
384	 0,294358966575729 
385	 0,289426737995057 
386	 0,274969365873583 
387	 0,277492116369772 
388	 0,291965270870362 
389	 0,309979282452266 
390	 0,298901360186092 
391	 0,283318054871901 
392	 0,294593766390775 
393	 0,292659121305037 
394	 0,280603438582678 
395	 0,292423002695396 
396	 0,30539312897456 
397	 0,307356791382394 
398	 0,306001323738988 
399	 0,302049570862857 
400	 0,294563771606487 
401	 0,29744517338041 
402	 0,308576486103766 
403	 0,30768431403474 
404	 0,300268854051217 
405	 0,291461682482508 
406	 0,2911991723409 
407	 0,295937737147698 
408	 0,294977427347291 
409	 0,297895646452972 
410	 0,305353427002739 
411	 0,307986973504015 
412	 0,306794561021444 
413	 0,303559886164835 
414	 0,301838612812587 
415	 0,300971315466439 
416	 0,29648597390423 
417	 0,295573995976055 
418	 0,300088702313859 
419	 0,302942861559601 
420	 0,304395654042834 
421	 0,305715026544547 
422	 0,303170350973657 
423	 0,298657373130188 
424	 0,300225669288507 
425	 0,303198696951157 
426	 0,30426841879358 
427	 0,301980809222685 
428	 0,29906657183971 
429	 0,300669616873939 
430	 0,302895619740666 
431	 0,304655525265998 
432	 0,307042415827491 
433	 0,307959994994944 
434	 0,305776368832995 
435	 0,304050481762548 
436	 0,303852944922536 
437	 0,306122020086493 
438	 0,307446252845785 
439	 0,306407984258839 
440	 0,304153118038912 
441	 0,302105337108073 
442	 0,301810572259754 
443	 0,305683952248882 
444	 0,311772122695612 
445	 0,312504880115959 
446	 0,309923102430916 
447	 0,305901903330003 
448	 0,304692992273681 
449	 0,306255351213112 
450	 0,309463929159575 
451	 0,309894490700707 
452	 0,307547064920862 
453	 0,309653123457535 
454	 0,314079350341798 
455	 0,318296602069092 
456	 0,317782348451758 
457	 0,314239329389227 
458	 0,314256130118165 
459	 0,31651223560154 
460	 0,319420630279916 
461	 0,316043241659032 
462	 0,312019968572243 
463	 0,315608482871867 
464	 0,318862912041498 
465	 0,319562858020419 
466	 0,317310785311748 
467	 0,315734580383561 
468	 0,317136340533658 
469	 0,318661024332673 
470	 0,320073676640958 
471	 0,322157405354387 
472	 0,321372551813556 
473	 0,317979742701405 
474	 0,318762979767184 
475	 0,320484380469628 
476	 0,319696136592976 
477	 0,319721960028387 
478	 0,320539312700383 
479	 0,320423883597819 
480	 0,319777720820506 
481	 0,318920281715168 
482	 0,318784864997767 
483	 0,318848067559301 
484	 0,318180659796037 
485	 0,317525006865538 
486	 0,317480891722494 
487	 0,319636445265347 
488	 0,321211556061515 
489	 0,320205130214869 
490	 0,319243456156996 
491	 0,318833081427291 
492	 0,318950114849902 
493	 0,319643292853055 
494	 0,320417460860787 
495	 0,318729519215497 
496	 0,317002457638119 
497	 0,318095828014713 
498	 0,319194288978287 
499	 0,319551385815462 
500	 0,318714430919448 
501	 0,319190170272376 
502	 0,322098837645839 
503	 0,32435013098207 
504	 0,325010565841342 
505	 0,323086612238197 
506	 0,322798382406535 
507	 0,324771663535131 
508	 0,325396386790286 
509	 0,325546614143754 
510	 0,326180682256438 
511	 0,327675811538414 
512	 0,329679215567446 
513	 0,331361810346632 
514	 0,331599291485456 
515	 0,330433025842882 
516	 0,33153876995256 
517	 0,333620676762994 
518	 0,334393063411836 
519	 0,334792274386482 
520	 0,335032716905203 
521	 0,335295991719591 
522	 0,334878861691574 
523	 0,33345440258326 
524	 0,333094357560455 
525	 0,33375163497102 
526	 0,334655394465297 
527	 0,335028389553315 
528	 0,334633595418612 
529	 0,334234250951468 
530	 0,333872204871935 
531	 0,333522247588174 
532	 0,333570316015368 
533	 0,33387844378652 
534	 0,333754140475621 
535	 0,333579007163284 
536	 0,333631365478122 
537	 0,334254142465381 
538	 0,334997278682785 
539	 0,33496074214843 
540	 0,335012366828016 
541	 0,335259089100354 
542	 0,334858665780305 
543	 0,334494152363375 
544	 0,33483257428446 
545	 0,335020917168635 
546	 0,335075208792878 
547	 0,335601027379825 
548	 0,335888551218218 
549	 0,335719393414038 
550	 0,336200221209822 
551	 0,33691751708448 
552	 0,337078575139905 
553	 0,336626291870955 
554	 0,335809423288151 
555	 0,335700067540079 
556	 0,335760708003202 
557	 0,335482576363847 
558	 0,334546056922407 
559	 0,333369677100154 
560	 0,333086711680253 
561	 0,333046843411519 
562	 0,332955613674227 
563	 0,332723400315595 
564	 0,332232727060267 
565	 0,331344814629388 
566	 0,331483786882223 
567	 0,332537900776695 
568	 0,332690530432737 
569	 0,332891078288805 
570	 0,333819600870651 
571	 0,3352428922332 
572	 0,336895078913436 
573	 0,338335198771257 
574	 0,339575951421423 
575	 0,34080310598655 
576	 0,34302297524985 
577	 0,345425014925244 
578	 0,347043085215477 
579	 0,348658947967202 
580	 0,350347979817102 
581	 0,351872060496142 
582	 0,352980180107839 
583	 0,353657474201767 
584	 0,35500286778358 
585	 0,356692797474653 
586	 0,357906436271489 
587	 0,358876476661149 
588	 0,359723188964155 
589	 0,360759298262643 
590	 0,361604873986492 
591	 0,361949457704152 
592	 0,362967886215739 
593	 0,364292989282342 
594	 0,364226520110066 
595	 0,364301326997801 
596	 0,365161189382356 
597	 0,366095881952673 
598	 0,366452007249422 
599	 0,365382041438145 
600	 0,364556360412256 
601	 0,364370576770789 
602	 0,364142461347077 
603	 0,36415027888992 
604	 0,364483376277353 
605	 0,363472099193732 
606	 0,361743802731941 
607	 0,361520833117979 
608	 0,361164443000095 
609	 0,360259835985829 
610	 0,36008780791395 
611	 0,359842294554502 
612	 0,358432105862447 
613	 0,35735478954787 
614	 0,356908664568171 
615	 0,356776636084971 
616	 0,356527934397782 
617	 0,355868896781696 
618	 0,354851916032702 
619	 0,354091770405547 
620	 0,354825270630025 
621	 0,355084443745232 
622	 0,354413648081495 
623	 0,354109515449117 
624	 0,354095730514386 
625	 0,354219631250278 
626	 0,354564215268387 
627	 0,355055205628381 
628	 0,355527574781635 
629	 0,35575053315575 
630	 0,355730213420219 
631	 0,356464818728166 
632	 0,357550139886038 
633	 0,358169678740773 
634	 0,358336838167213 
635	 0,358413122259651 
636	 0,359900637628323 
637	 0,361445480660801 
638	 0,361930009767213 
639	 0,362843898099548 
640	 0,364114550163153 
641	 0,36484801156442 
642	 0,365796963390023 
643	 0,367072524942959 
644	 0,36750141247632 
645	 0,367722341779075 
646	 0,368697378879925 
647	 0,368970836687785 
648	 0,368357273644682 
649	 0,367570797627233 
650	 0,366656036735913 
651	 0,365708252030497 
652	 0,365261444594315 
653	 0,364645834345209 
654	 0,362301397729704 
655	 0,360243167627585 
656	 0,359004038134849 
657	 0,357609472153989 
658	 0,355536030984132 
659	 0,352401198953147 
660	 0,350823484767721 
661	 0,350329713521051 
662	 0,347826533363607 
663	 0,345218582971764 
664	 0,343409059410419 
665	 0,341610434980478 
666	 0,339825900189804 
667	 0,33815858268097 
668	 0,336954529894285 
669	 0,33625799280874 
670	 0,335844060413548 
671	 0,335374015399974 
672	 0,334604562426356 
673	 0,334000767631421 
674	 0,333575010327704 
675	 0,333137397328641 
676	 0,332821341115153 
677	 0,332648893672789 
678	 0,332433589231727 
679	 0,332391327792273 
680	 0,332786897442829 
681	 0,333483342887773 
682	 0,334513049851944 
683	 0,336089137700559 
684	 0,337765061329488 
685	 0,339358542332588 
686	 0,341550700989373 
687	 0,344608096865723 
688	 0,348836260227922 
689	 0,353180474084758 
690	 0,357511554694395 
691	 0,362746798057335 
692	 0,369034718612105 
693	 0,376393800722144 
694	 0,3835353161302 
695	 0,390787968626227 
696	 0,399791879376895 
697	 0,408780383419507 
698	 0,417125327025642 
699	 0,425902077754447 
700	 0,434920858241276 
701	 0,443824308246182 
702	 0,45285309810386 
703	 0,461767096763107 
704	 0,469823926146799 
705	 0,477374172809877 
706	 0,484631704119842 
707	 0,491466090140646 
708	 0,497828414623103 
709	 0,503646616751248 
710	 0,509289702654047 
711	 0,514794348073778 
712	 0,519836497171067 
713	 0,524209190117334 
714	 0,527783661117649 
715	 0,531425468824041 
716	 0,535095507277152 
717	 0,538191981593149 
718	 0,541102776956245 
719	 0,543901224617598 
720	 0,546104117758657 
721	 0,547965159002838 
722	 0,549846429644417 
723	 0,551674818269581 
724	 0,553377830973269 
725	 0,554644927297875 
726	 0,556065159668796 
727	 0,557897429054869 
728	 0,559045353753472 
729	 0,559709053436788 
730	 0,560505775931545 
731	 0,561360494314172 
732	 0,562219418154416 
733	 0,562814629424628 
734	 0,563442307383929 
735	 0,56433506963618 
736	 0,564948147412572 
737	 0,565355265263661 
738	 0,566041497028823 
739	 0,566409433545147 
740	 0,566367886309025 
741	 0,566755084487605 
742	 0,567162500742648 
743	 0,567058432386507 
744	 0,567378248220954 
745	 0,568092993889899 
746	 0,568485899199521 
747	 0,568614282368324 
748	 0,568545480438559 
749	 0,568650363596827 
750	 0,568772339923376 
751	 0,568578775150558 
752	 0,568737692971423 
753	 0,569194816286719 
754	 0,569012074301654 
755	 0,568795977778797 
756	 0,568974431615434 
757	 0,569073693959188 
758	 0,569145691233817 
759	 0,569464234693806 
760	 0,569582601995688 
761	 0,569467620615872 
762	 0,569742734569296 
763	 0,569924510251972 
764	 0,569574036074753 
765	 0,569468423517167 
766	 0,569682792592726 
767	 0,569989456484799 
768	 0,570419081091481 
769	 0,570825184213205 
770	 0,570468475387637 
771	 0,56992538543764 
772	 0,569939537786788 
773	 0,57028420702949 
774	 0,570790809876166 
775	 0,571200433181132 
776	 0,571103190811436 
777	 0,570443819073017 
778	 0,570492777427501 
779	 0,570867409904397 
780	 0,570786825587854 
781	 0,570775227664784 
782	 0,570868454841543 
783	 0,5707039040839 
784	 0,570650532542337 
785	 0,570921411310792 
786	 0,571205249567805 
787	 0,571156216873831 
788	 0,570207097786321 
789	 0,569886303158888 
790	 0,57042605833907 
791	 0,570598339082243 
792	 0,570693272020905 
793	 0,570890811631802 
794	 0,570281593569141 
795	 0,569418504614601 
796	 0,569780900838789 
797	 0,570101740375246 
798	 0,569986435693033 
799	 0,56970455306026 
800	 0,569560528208325 
801	 0,569790884132279 
802	 0,569717537027493 
803	 0,569399901188254 
804	 0,569297349713815 
805	 0,56936064839708 
806	 0,569556865647148 
807	 0,56968988008666 
808	 0,569902594116133 
809	 0,57032863350197 
810	 0,570129162224474 
811	 0,569641685012894 
812	 0,57036134179232 
813	 0,570750796178744 
814	 0,570259764522435 
815	 0,5697697353487 
816	 0,569692642537609 
817	 0,570384147236866 
818	 0,570818181393262 
819	 0,570842982541652 
820	 0,570792163654348 
821	 0,570874073350204 
822	 0,571152506948696 
823	 0,57120644488812 
824	 0,571199608474314 
825	 0,571393879399055 
826	 0,571689813231075 
827	 0,571972566142975 
828	 0,571950045806824 
829	 0,571984663346194 
830	 0,572269719139858 
831	 0,572721721764508 
832	 0,573085126335994 
833	 0,573040621132316 
834	 0,572847589581401 
835	 0,572672775591387 
836	 0,572789655708689 
837	 0,572963992878811 
838	 0,573037541124319 
839	 0,572866224374427 
840	 0,572770671728574 
841	 0,573211335416 
842	 0,573514112527091 
843	 0,573503544634831 
844	 0,573219710389169 
845	 0,573048076551367 
846	 0,57310918093215 
847	 0,572508589860989 
848	 0,571941825002104 
849	 0,572497044604532 
850	 0,572568569025258 
851	 0,57204368556887 
852	 0,571966858380857 
853	 0,571926209910133 
854	 0,571775749520551 
855	 0,572028098503861 
856	 0,572429882252018 
857	 0,572570664042775 
858	 0,572042423816058 
859	 0,571313406899334 
860	 0,572247536627112 
861	 0,572918505173493 
862	 0,572480108792814 
863	 0,572498978067177 
864	 0,572891930781757 
865	 0,573331130084648 
866	 0,573741109286826 
867	 0,573983441114609 
868	 0,573729838176163 
869	 0,573640311232794 
870	 0,574050669893487 
871	 0,574853826995566 
872	 0,57543084601007 
873	 0,575096849238058 
874	 0,574826765656287 
875	 0,574874792639445 
876	 0,575306672966929 
877	 0,575474075165784 
878	 0,575263808089696 
879	 0,575852357177208 
880	 0,576461965454986 
881	 0,576177670870292 
882	 0,575420108474895 
883	 0,574742201395519 
884	 0,575328154456428 
885	 0,575942955960951 
886	 0,576120708847301 
887	 0,57609030418192 
888	 0,575978940725179 
889	 0,575920611594954 
890	 0,576106823516363 
891	 0,576426928141975 
892	 0,576605878867267 
893	 0,576407272930393 
894	 0,575843278100317 
895	 0,575332819209616 
896	 0,575106944031007 
897	 0,575282413470397 
898	 0,575259909994576 
899	 0,575173463438877 
900	 0,575429725641663 
901	 0,5758707860665 
902	 0,576379315492285 
903	 0,576826966823729 
904	 0,576707355282472 
905	 0,575907449834445 
906	 0,575999073299693 
907	 0,576573204912947 
908	 0,576761253386102 
909	 0,577121268018495 
910	 0,577409333579364 
911	 0,576459037780725 
912	 0,575841767567388 
913	 0,576173358401482 
914	 0,576151501109298 
915	 0,575998631270434 
916	 0,576094520637952 
917	 0,57659673527193 
918	 0,577395850536788 
919	 0,578311853955209 
920	 0,578081441893206 
921	 0,576796679923375 
922	 0,57726689897406 
923	 0,577860710075367 
924	 0,577196757160127 
925	 0,576653228124156 
926	 0,576517594756239 
927	 0,576988731052458 
928	 0,575849737204417 
929	 0,573551268761186 
930	 0,57398159551062 
931	 0,57549434086666 
932	 0,576758145879199 
933	 0,576067870743323 
934	 0,574707743602032 
935	 0,574575885170202 
936	 0,574246272110536 
937	 0,573721287048552 
938	 0,573888696839911 
939	 0,573760224390131 
940	 0,573111363752333 
941	 0,572879506045997 
942	 0,572786349397003 
943	 0,572536124789282 
944	 0,572298835959264 
945	 0,571715327225101 
946	 0,570070076654176 
947	 0,569005609282778 
948	 0,568946673841391 
949	 0,569566101586475 
950	 0,569459295470214 
951	 0,568080569037147 
952	 0,567741158864218 
953	 0,567719140376372 
954	 0,566874110963397 
955	 0,565908664009778 
956	 0,56497665376712 
957	 0,564102938761861 
958	 0,563186070330754 
959	 0,562206500796406 
960	 0,561094288965635 
961	 0,560634034187436 
962	 0,561286522186805 
963	 0,561907624641077 
964	 0,561660763129788 
965	 0,559622376039868 
966	 0,559926592487805 
967	 0,562077821260187 
968	 0,561049946497099 
969	 0,560202360122521 
970	 0,560719848918265 
971	 0,560929681824091 
972	 0,560984113237195 
973	 0,561081932707696 
974	 0,560729507186526 
975	 0,560803901467833 
976	 0,563039470666861 
977	 0,562730043871863 
978	 0,559764552134455 
979	 0,558261607363369 
980	 0,558682705530084 
981	 0,56088911409875 
982	 0,562196789657306 
983	 0,562815326603871 
984	 0,563172859000422 
985	 0,562511864352842 
986	 0,561614703855239 
987	 0,562101656100613 
988	 0,563470066433047 
989	 0,565219483264429 
990	 0,56639971493154 
991	 0,566401775317794 
992	 0,565095452582615 
993	 0,56373669249439 
994	 0,563018542396026 
995	 0,56354405220805 
996	 0,565795976962956 
997	 0,568003694292552 
998	 0,56673622221162 
999	 0,565997310691152 
1000	 0,566701764921989 
1001	 0,567440692291439 
1002	 0,569173858129775 
1003	 0,571544871576619 
1004	 0,569969994771402 
1005	 0,568250522368289 
1006	 0,570215508434274 
1007	 0,572552150738447 
1008	 0,573425554375336 
1009	 0,570702821928625 
1010	 0,571425500828941 
1011	 0,575334595543658 
1012	 0,574626424754797 
1013	 0,575207687904333 
1014	 0,578337510433559 
1015	 0,577093344702374 
1016	 0,573571916250524 
1017	 0,570589675218509 
1018	 0,573524139084472 
1019	 0,576995361364657 
1020	 0,572186066102977 
1021	 0,572207095040517 
1022	 0,576633181290294 
1023	 0,575079711041666 
1024	 0,576293160407065 
1025	 0,580879208250564 
1026	 0,577857754263149 
1027	 0,574908948212822 
1028	 0,576700297906215 
1029	 0,57674018602291 
1030	 0,577438114303443 
1031	 0,581917300992524 
1032	 0,58413925299157 
1033	 0,583096682002407 
1034	 0,579257918458093 
1035	 0,580044247194167 
1036	 0,584884444867872 
1037	 0,583249998454854 
1038	 0,582433673594406 
1039	 0,584584317792231 
1040	 0,582757274584365 
1041	 0,580864550766923 
1042	 0,582282147694125 
1043	 0,585198156010494 
1044	 0,586429719240335 
1045	 0,582552994417274 
1046	 0,586267243797781 
1047	 0,591646595699208 
1048	 0,57784438576196 
1049	 0,574702213798438 
1050	 0,586012842837574 
1051	 0,589377797041579 
1052	 0,587880231754508 
1053	 0,584518965485945 
1054	 0,58840763352794 
1055	 0,589132274580061 
1056	 0,579025008568898 
1057	 0,57757682289132 
1058	 0,580976914183365 
1059	 0,580143476333638 
1060	 0,585180694132811 
1061	 0,59054813131128 
1062	 0,579090371080902 
1063	 0,577981175060891 
1064	 0,588554094985014 
1065	 0,583785406952983 
1066	 0,578296416357851 
1067	 0,577679451459568 
1068	 0,575684832910055 
1069	 0,574386047507575 
1070	 0,575601510832112 
1071	 0,578798551478317 
1072	 0,581089027734585 
1073	 0,579265705171009 
1074	 0,57701539304089 
1075	 0,573864899254053 
