Wavelength	ABBE00020.asd
325	 0,256287956713495 
326	 9,99582602888388E-02 
327	 4,87564720699174E-02 
328	 5,96286837498924E-02 
329	-7,56066411238825E-03 
330	-5,10974455726919E-02 
331	 1,51500821131011E-02 
332	-8,97221706577563E-03 
333	-6,01231045205675E-02 
334	 0,035438023666475 
335	 0,152114304228608 
336	 0,219715638047592 
337	 6,42080086146795E-02 
338	-7,26331135257921E-02 
339	 3,33679220330017E-03 
340	 4,80982941105005E-02 
341	 2,57105913141778E-02 
342	 7,86314748169359E-03 
343	-2,4482989501876E-03 
344	-1,74787585370509E-03 
345	 1,11799533452167E-02 
346	 4,04604509622765E-02 
347	 8,68645339104921E-02 
348	 6,35863004021249E-02 
349	 1,96394668300332E-03 
350	 1,37737506348423E-02 
351	 2,58484457329073E-02 
352	 1,54688862958302E-02 
353	 2,26314465326339E-02 
354	 2,12378907119993E-02 
355	-2,08862368605042E-02 
356	-2,05524222497652E-02 
357	 2,16822391339484E-02 
358	 7,22068773363975E-02 
359	 7,29129351076386E-02 
360	 1,06380206879353E-02 
361	-1,59431697859649E-03 
362	 2,12979223817668E-02 
363	 3,90930938297853E-02 
364	 4,83941613161001E-02 
365	 4,79368076306014E-02 
366	 4,10850256376477E-02 
367	 3,74878504361342E-02 
368	 0,04165800815294 
369	 4,03318956100421E-02 
370	 3,45910066201366E-02 
371	 2,88589255784528E-02 
372	 3,67435659205114E-02 
373	 4,95050848772165E-02 
374	 1,41916663758473E-02 
375	-1,43566147767149E-02 
376	 4,81478962099299E-03 
377	 2,58357881417924E-02 
378	 3,90244681916963E-02 
379	 0,039593869898849 
380	 0,03479226557977 
381	 2,96030345069157E-02 
382	 3,65146303548124E-02 
383	 3,88659522576872E-02 
384	 2,27959673839219E-02 
385	 1,93417425594472E-02 
386	 2,66710186576418E-02 
387	 2,30591985585835E-02 
388	 2,44604062376006E-02 
389	 3,23079387160838E-02 
390	 2,05186723238064E-02 
391	 8,67546413160742E-03 
392	 2,16227177975471E-02 
393	 0,027495739257868 
394	 2,21680778235655E-02 
395	 1,39419455267653E-02 
396	 9,70871490074736E-03 
397	 1,38284430362331E-02 
398	 2,72692180972081E-02 
399	 3,84084925866035E-02 
400	 3,05736156975419E-02 
401	 2,60717172229793E-02 
402	 2,84802595742976E-02 
403	 2,79906416929069E-02 
404	 2,46744574944291E-02 
405	 1,89809051699708E-02 
406	 0,01369334254829 
407	 1,08848807864038E-02 
408	 0,013644175735049 
409	 1,50606724132168E-02 
410	 1,41038715912132E-02 
411	 1,73965719222394E-02 
412	 1,88079678460504E-02 
413	 0,013257476498551 
414	 1,45871441459953E-02 
415	 0,021509890707513 
416	 0,025049209885431 
417	 2,39387133331929E-02 
418	 1,86678418310796E-02 
419	 1,55412647374062E-02 
420	 1,55169159438573E-02 
421	 1,89224511603909E-02 
422	 1,95363987109734E-02 
423	 0,01706042021442 
424	 1,53124532486162E-02 
425	 0,015884894243845 
426	 1,88724367125849E-02 
427	 1,59804767144256E-02 
428	 1,17684674825805E-02 
429	 1,66261571971078E-02 
430	 1,85246175962448E-02 
431	 1,59340599630964E-02 
432	 0,018931465955344 
433	 2,10844869076376E-02 
434	 1,69240918103628E-02 
435	 1,57939696574277E-02 
436	 1,78001583063431E-02 
437	 1,86168197576754E-02 
438	 1,96405577316752E-02 
439	 2,11144473249863E-02 
440	 0,022114934284907 
441	 0,022317717056331 
442	 2,14462959821678E-02 
443	 2,06656892428512E-02 
444	 1,97148097668247E-02 
445	 1,61830130277962E-02 
446	 1,45646421765336E-02 
447	 1,69938159074551E-02 
448	 1,61225206768506E-02 
449	 1,44569753586703E-02 
450	 1,87700325918812E-02 
451	 2,06011308424028E-02 
452	 1,86583306250474E-02 
453	 2,02948396025259E-02 
454	 2,18689767431004E-02 
455	 1,99462072167964E-02 
456	 1,83787494059991E-02 
457	 1,78136346818942E-02 
458	 1,76494756369341E-02 
459	 1,85210165142366E-02 
460	 2,00388920287635E-02 
461	 1,82173089599942E-02 
462	 1,65128973268027E-02 
463	 1,99328185033217E-02 
464	 2,26915932596222E-02 
465	 2,28270617543527E-02 
466	 0,018897340623393 
467	 0,015919997754643 
468	 1,70732941940556E-02 
469	 1,83131684957142E-02 
470	 1,98265790185017E-02 
471	 2,38146373237406E-02 
472	 2,33728499013533E-02 
473	 1,81044399356179E-02 
474	 1,70884549835065E-02 
475	 1,85344635204042E-02 
476	 2,01107163251377E-02 
477	 2,15078806488458E-02 
478	 2,21769313518727E-02 
479	 2,13329536742715E-02 
480	 1,99037621524165E-02 
481	 1,85471425722214E-02 
482	 1,78105602184083E-02 
483	 1,80852313840737E-02 
484	 1,98391848942167E-02 
485	 2,12570269582872E-02 
486	 2,13129891412688E-02 
487	 1,84828021756187E-02 
488	 1,54525972192979E-02 
489	 1,44719737644117E-02 
490	 1,63402872978081E-02 
491	 0,018945528036873 
492	 1,71030777870137E-02 
493	 1,69497910232289E-02 
494	 1,96975640136728E-02 
495	 1,98418875502069E-02 
496	 1,83901704585921E-02 
497	 1,69677654999581E-02 
498	 0,016805594791623 
499	 1,75114849759689E-02 
500	 1,66292561216289E-02 
501	 1,62223373953773E-02 
502	 1,74102506552388E-02 
503	 1,94904874139869E-02 
504	 2,07896387040065E-02 
505	 1,85053886326313E-02 
506	 1,78064995815544E-02 
507	 1,92358337598965E-02 
508	 0,017786927110198 
509	 1,56844572307264E-02 
510	 1,51613443025395E-02 
511	 1,59501435970971E-02 
512	 1,78154580366065E-02 
513	 2,08071556005888E-02 
514	 2,13886940613945E-02 
515	 1,86327473915021E-02 
516	 1,76213580919625E-02 
517	 1,79702394930522E-02 
518	 1,83534727172687E-02 
519	 1,84902250146767E-02 
520	 1,82621459436074E-02 
521	 1,77065540275754E-02 
522	 1,76035820684091E-02 
523	 1,83950738381052E-02 
524	 1,84021905541414E-02 
525	 1,79838553620703E-02 
526	 1,85654706891633E-02 
527	 0,019312087995035 
528	 1,97001985501193E-02 
529	 1,86842391857473E-02 
530	 1,71437827435661E-02 
531	 1,61718114889292E-02 
532	 1,66487641287752E-02 
533	 1,81276812246027E-02 
534	 1,86402964830072E-02 
535	 0,018776406421854 
536	 1,88012987196926E-02 
537	 1,79657360100453E-02 
538	 0,017092660587429 
539	 1,78272633693405E-02 
540	 1,85396537507815E-02 
541	 1,86705479002144E-02 
542	 1,82805514919487E-02 
543	 1,78104167763481E-02 
544	 1,77023496485388E-02 
545	 1,82848434251865E-02 
546	 1,90739643991275E-02 
547	 1,86247276272515E-02 
548	 1,78721257190929E-02 
549	 1,73947086728653E-02 
550	 1,76968321809692E-02 
551	 0,018304321104873 
552	 0,018423819455612 
553	 1,80006153719051E-02 
554	 1,73647419569332E-02 
555	 1,79067503881108E-02 
556	 1,86747781047484E-02 
557	 1,88424935654584E-02 
558	 1,87380254462003E-02 
559	 1,84517520011247E-02 
560	 1,79777149646036E-02 
561	 1,79814275955917E-02 
562	 1,85642474381765E-02 
563	 1,84844032117558E-02 
564	 1,80721183900983E-02 
565	 1,79142940905243E-02 
566	 1,77915675524623E-02 
567	 1,77407705849615E-02 
568	 1,80023788885251E-02 
569	 1,83683852283935E-02 
570	 1,86626817899479E-02 
571	 1,88247488878251E-02 
572	 1,86602730104284E-02 
573	 1,76571607272466E-02 
574	 1,73076390676156E-02 
575	 1,80973882098835E-02 
576	 1,92895767219972E-02 
577	 2,04044595590068E-02 
578	 2,09706999214649E-02 
579	 2,08013664296265E-02 
580	 2,01376654594821E-02 
581	 1,96777973602387E-02 
582	 1,99614502626785E-02 
583	 2,10598090988205E-02 
584	 2,07575514472755E-02 
585	 0,019936061506428 
586	 2,06823564198292E-02 
587	 2,12910829265423E-02 
588	 0,021357143737317 
589	 2,14641571943332E-02 
590	 2,17028031900258E-02 
591	 2,21188692314016E-02 
592	 2,24036002074691E-02 
593	 2,24554700437826E-02 
594	 2,21380774673715E-02 
595	 2,20570413745143E-02 
596	 0,022388752579893 
597	 2,21601810880057E-02 
598	 2,16909633260126E-02 
599	 2,16076762841728E-02 
600	 2,15031129007989E-02 
601	 2,13505681572415E-02 
602	 2,14980624264255E-02 
603	 2,14663140230865E-02 
604	 2,09529175040759E-02 
605	 2,11306141239675E-02 
606	 2,16692111774138E-02 
607	 2,12350204186653E-02 
608	 2,09744795719432E-02 
609	 2,12548267597269E-02 
610	 2,16698702578533E-02 
611	 2,16201449650625E-02 
612	 2,04386045572958E-02 
613	 1,97708301971115E-02 
614	 1,97971694542498E-02 
615	 0,019523738686232 
616	 1,95120120068223E-02 
617	 2,00016661162036E-02 
618	 1,98485055300329E-02 
619	 1,93406961200802E-02 
620	 1,92907131831737E-02 
621	 2,00275622815053E-02 
622	 2,11857846728185E-02 
623	 2,03871490153226E-02 
624	 1,94527735064301E-02 
625	 2,03173764779139E-02 
626	 2,02851032949823E-02 
627	 0,019470663204328 
628	 1,98088121865482E-02 
629	 2,06719882676378E-02 
630	 2,15840001902386E-02 
631	 2,15380589466152E-02 
632	 2,09958909891691E-02 
633	 2,08899844772025E-02 
634	 2,10152362052545E-02 
635	 2,13392890540827E-02 
636	 2,19379467707802E-02 
637	 2,21238136786046E-02 
638	 2,14435768461296E-02 
639	 2,19473206424179E-02 
640	 2,31098563719669E-02 
641	 2,25388301069477E-02 
642	 2,24555975927439E-02 
643	 2,34408877653531E-02 
644	 2,32712435091211E-02 
645	 2,28018241181591E-02 
646	 2,33882983678861E-02 
647	 2,37550359066164E-02 
648	 2,36831682333488E-02 
649	 2,35540632646964E-02 
650	 2,35171907481007E-02 
651	 2,36369537329268E-02 
652	 2,35198716539709E-02 
653	 0,023106639259343 
654	 2,23547516571224E-02 
655	 2,18517021180121E-02 
656	 2,18484064212227E-02 
657	 2,24104993273256E-02 
658	 2,27661009158732E-02 
659	 2,21573190523937E-02 
660	 2,16762677489936E-02 
661	 2,14435192702399E-02 
662	 2,10826783384373E-02 
663	 2,05879214619744E-02 
664	 2,00239718097824E-02 
665	 1,99337567384518E-02 
666	 1,99262743951084E-02 
667	 1,92600971469035E-02 
668	 1,92860095040008E-02 
669	 2,01201486306652E-02 
670	 2,06688044701154E-02 
671	 2,09464302240768E-02 
672	 0,020985226563919 
673	 2,07843644324269E-02 
674	 2,05784037886153E-02 
675	 2,09303746375591E-02 
676	 2,10694721604954E-02 
677	 2,07827856003708E-02 
678	 0,020570611900345 
679	 2,06675193315914E-02 
680	 2,12825731892294E-02 
681	 2,16053449224835E-02 
682	 2,16078522074222E-02 
683	 2,19204937348377E-02 
684	 2,21649911073215E-02 
685	 2,21379709958371E-02 
686	 2,19902872396251E-02 
687	 2,21152210750894E-02 
688	 2,31908081947167E-02 
689	 2,39126659590065E-02 
690	 0,024101248563596 
691	 2,49039329089922E-02 
692	 0,025924012270053 
693	 2,67890585264224E-02 
694	 2,78783067487108E-02 
695	 0,029433319380995 
696	 3,18614047687259E-02 
697	 3,46068067862644E-02 
698	 3,73826817593758E-02 
699	 4,00088147219471E-02 
700	 4,30531986210178E-02 
701	 0,047249348889111 
702	 0,051584775332812 
703	 5,57744195482053E-02 
704	 5,99352094435848E-02 
705	 6,40186660731624E-02 
706	 6,80807995546891E-02 
707	 0,072954531868089 
708	 7,78751305725295E-02 
709	 8,11867735348628E-02 
710	 8,49354124560588E-02 
711	 8,95176393426334E-02 
712	 9,36673017922293E-02 
713	 9,74019138616446E-02 
714	 0,100805880764367 
715	 0,104233544076437 
716	 0,107619446641136 
717	 0,110619859995608 
718	 0,113360531531714 
719	 0,115855100534757 
720	 0,117930340605127 
721	 0,119850360980349 
722	 0,12194793919425 
723	 0,123935781468738 
724	 0,125805706204711 
725	 0,127737279490207 
726	 0,129582025364922 
727	 0,131173582675645 
728	 0,131974598912619 
729	 0,132381331751262 
730	 0,13317347428137 
731	 0,134336060165091 
732	 0,135647830507728 
733	 0,136102010933273 
734	 0,13648021322473 
735	 0,137433090196897 
736	 0,137762463038062 
737	 0,13780624135673 
738	 0,138956368037316 
739	 0,139982245591473 
740	 0,140464319822692 
741	 0,140913235810062 
742	 0,141259867245533 
743	 0,141391020546803 
744	 0,141614443160937 
745	 0,141966791588855 
746	 0,142337881359512 
747	 0,142558440638899 
748	 0,142566834227951 
749	 0,14270090696788 
750	 0,142803471238681 
751	 0,142558648030639 
752	 0,14255152502588 
753	 0,142842557118058 
754	 0,142916684620129 
755	 0,143292852501102 
756	 0,144216419003152 
757	 0,144222807223065 
758	 0,143740877843213 
759	 0,144136870847989 
760	 0,144268807938353 
761	 0,144033498244535 
762	 0,144740597669988 
763	 0,145316123545039 
764	 0,144773920971173 
765	 0,144679517609812 
766	 0,145063614076537 
767	 0,145181229019844 
768	 0,145355436740593 
769	 0,145636713917857 
770	 0,145637572636885 
771	 0,14571358544757 
772	 0,146293366071609 
773	 0,146233781138226 
774	 0,14576485196188 
775	 0,146470487543081 
776	 0,146916277610614 
777	 0,146479508399125 
778	 0,146412795848764 
779	 0,146549202524997 
780	 0,146429264225466 
781	 0,146608329916154 
782	 0,147048520584134 
783	 0,147123175875685 
784	 0,147065691555776 
785	 0,147050821877438 
786	 0,147187415716427 
787	 0,147319755112621 
788	 0,147127912448259 
789	 0,147085885305099 
790	 0,147254745360411 
791	 0,147226355854042 
792	 0,147222617118083 
793	 0,147411887836209 
794	 0,147545366601188 
795	 0,14760093454167 
796	 0,147630972556221 
797	 0,147581263510541 
798	 0,14752660973381 
799	 0,147885597523602 
800	 0,148217843685423 
801	 0,14812204357433 
802	 0,148188736595741 
803	 0,148449238784464 
804	 0,148715196731375 
805	 0,148871907888388 
806	 0,148878578351137 
807	 0,148808914329626 
808	 0,148940770466273 
809	 0,149509805874594 
810	 0,149307464919264 
811	 0,148687425460691 
812	 0,14940526842493 
813	 0,149854594733593 
814	 0,149551138746609 
815	 0,149943339602369 
816	 0,150578808556591 
817	 0,150780410877328 
818	 0,150564971311288 
819	 0,150222704947617 
820	 0,150564580330013 
821	 0,151160698614613 
822	 0,151742710495927 
823	 0,152098065348032 
824	 0,152091860497343 
825	 0,151613267976912 
826	 0,151527531744782 
827	 0,151917093677336 
828	 0,152343637230593 
829	 0,152366755457352 
830	 0,151922647485652 
831	 0,152356965905898 
832	 0,153151914352669 
833	 0,153408920557374 
834	 0,153172487474825 
835	 0,152731793798654 
836	 0,153034145862802 
837	 0,153263590599947 
838	 0,15309013444395 
839	 0,153570714788982 
840	 0,154090323827624 
841	 0,153646278173362 
842	 0,153529097418597 
843	 0,15395540851171 
844	 0,154538790508081 
845	 0,154837888020431 
846	 0,154620724133069 
847	 0,154240592490336 
848	 0,153985955202526 
849	 0,154179448644519 
850	 0,154215895538837 
851	 0,154049413858619 
852	 0,154119892809718 
853	 0,15399547571935 
854	 0,153563305974524 
855	 0,153680963959059 
856	 0,154164631455288 
857	 0,154626923715012 
858	 0,154263762185235 
859	 0,153455119955066 
860	 0,154103448486004 
861	 0,154801706353085 
862	 0,154835930627891 
863	 0,154729240320961 
864	 0,15453822185888 
865	 0,154286785947971 
866	 0,155014100279283 
867	 0,156247311672662 
868	 0,155780370091297 
869	 0,155429927072202 
870	 0,155945419571221 
871	 0,156149179729082 
872	 0,156318448728324 
873	 0,156884643082862 
874	 0,157114666478261 
875	 0,157038490552525 
876	 0,157148342086292 
877	 0,157707101321285 
878	 0,158598405126159 
879	 0,158412992761394 
880	 0,158120135906776 
881	 0,158797915633068 
882	 0,158403890153355 
883	 0,157489725239998 
884	 0,15862950616431 
885	 0,159430030362281 
886	 0,159238608840359 
887	 0,159510570217938 
888	 0,159815092848018 
889	 0,15973402838996 
890	 0,160166865706267 
891	 0,160737668779513 
892	 0,160257334408927 
893	 0,160032800888792 
894	 0,160356419779074 
895	 0,16050466181736 
896	 0,1604436798392 
897	 0,16019460621017 
898	 0,160017082742789 
899	 0,160070937285105 
900	 0,160523115693202 
901	 0,161290639307143 
902	 0,162131655034542 
903	 0,162480611213028 
904	 0,162161299089069 
905	 0,161231623764699 
906	 0,160821155709862 
907	 0,160881650693876 
908	 0,161104554659914 
909	 0,16160877532277 
910	 0,16211508167807 
911	 0,161794206676438 
912	 0,161332844444776 
913	 0,161153560667932 
914	 0,161628178038254 
915	 0,161924121703736 
916	 0,16118608506577 
917	 0,161532583672659 
918	 0,162619514439038 
919	 0,162489015194991 
920	 0,162268348410289 
921	 0,16226414087517 
922	 0,162077661682429 
923	 0,161964104382479 
924	 0,162092099275905 
925	 0,16187890021884 
926	 0,161353250467577 
927	 0,16073092607181 
928	 0,160362894483515 
929	 0,160205944807707 
930	 0,159417004745974 
931	 0,159837156573689 
932	 0,161884238827232 
933	 0,160640157644979 
934	 0,158280585611661 
935	 0,158255152146622 
936	 0,158433873767263 
937	 0,158359195871746 
938	 0,158084022157104 
939	 0,157463385234439 
940	 0,15652910685723 
941	 0,155624229909806 
942	 0,155235812332915 
943	 0,155547077620966 
944	 0,154042552383903 
945	 0,151674067076298 
946	 0,150923492913139 
947	 0,151110358463623 
948	 0,151617401850147 
949	 0,150996670756814 
950	 0,149703332909224 
951	 0,148115860430685 
952	 0,14664247793973 
953	 0,145854941433788 
954	 0,146242584133705 
955	 0,145376398817145 
956	 0,143357220918074 
957	 0,141780535089952 
958	 0,140689738731722 
959	 0,14029541485515 
960	 0,141117455198217 
961	 0,141508905736019 
962	 0,14037804426373 
963	 0,139979014290879 
964	 0,139470907409154 
965	 0,137117444200107 
966	 0,137388368435972 
967	 0,139845609111364 
968	 0,139662205574294 
969	 0,13868091916249 
970	 0,137612260810518 
971	 0,135845969565751 
972	 0,135817499117354 
973	 0,139128176706127 
974	 0,13843294023283 
975	 0,136215031915427 
976	 0,139206587523021 
977	 0,13943728626366 
978	 0,136318080214864 
979	 0,135351404516873 
980	 0,136051972117094 
981	 0,137952723623032 
982	 0,139417880122823 
983	 0,140049022895968 
984	 0,13970132612601 
985	 0,13928163725664 
986	 0,139251867109962 
987	 0,140066962625502 
988	 0,140980382748458 
989	 0,141864571664314 
990	 0,143598717351903 
991	 0,143172651886247 
992	 0,139936762565988 
993	 0,140010344817772 
994	 0,141535976981478 
995	 0,142034101145094 
996	 0,142040335941646 
997	 0,142181174129795 
998	 0,143582702055838 
999	 0,144750353120039 
1000	 0,145122379247016 
1001	 0,144290948731247 
1002	 0,144427958232436 
1003	 0,146305678686989 
1004	 0,147479757148534 
1005	 0,147401301513966 
1006	 0,146077874633909 
1007	 0,147238126635184 
1008	 0,150187960886651 
1009	 0,152480839921357 
1010	 0,154239475903591 
1011	 0,154507084906762 
1012	 0,150088441494468 
1013	 0,14793465625152 
1014	 0,150372666948285 
1015	 0,151859985451368 
1016	 0,150795738646427 
1017	 0,14719391461772 
1018	 0,151645139882242 
1019	 0,157213894141172 
1020	 0,151776867065554 
1021	 0,151283535038365 
1022	 0,156577037866839 
1023	 0,159742372969354 
1024	 0,159090375669674 
1025	 0,154717887143672 
1026	 0,150905539308926 
1027	 0,150722124821862 
1028	 0,155623268341809 
1029	 0,162245406108634 
1030	 0,165793166724263 
1031	 0,161834968485092 
1032	 0,160265226417112 
1033	 0,161411174398604 
1034	 0,161589957507489 
1035	 0,161849684190928 
1036	 0,162623044396995 
1037	 0,164787047967515 
1038	 0,166727291777038 
1039	 0,16712183647398 
1040	 0,163783843463084 
1041	 0,160126162139603 
1042	 0,159111105500112 
1043	 0,159139232674376 
1044	 0,162013259212681 
1045	 0,170051957394026 
1046	 0,176353852537738 
1047	 0,177476164005076 
1048	 0,169921408582375 
1049	 0,16699691308559 
1050	 0,171359182761561 
1051	 0,174831783608051 
1052	 0,178865036185002 
1053	 0,182708390575429 
1054	 0,180773468196874 
1055	 0,17526518903459 
1056	 0,169450102596679 
1057	 0,171423064694133 
1058	 0,173163062117462 
1059	 0,163012928820085 
1060	 0,169328877643577 
1061	 0,185334671193542 
1062	 0,181701579649381 
1063	 0,177285345382789 
1064	 0,176218772372976 
1065	 0,1728419767728 
1066	 0,173016184367493 
1067	 0,177067131227815 
1068	 0,173658615761301 
1069	 0,168676399292553 
1070	 0,167411842302079 
1071	 0,166543560955793 
1072	 0,169326181437798 
1073	 0,178532058328243 
1074	 0,175397741219071 
1075	 0,161555347766199 
