Wavelength	ABBE00552.asd
325	 0,0298264030774 
326	 0,157444973147452 
327	 0,185932550536212 
328	 3,18631811529743E-02 
329	-5,82225227255653E-02 
330	-1,44674741397979E-02 
331	 0,154533130415094 
332	 0,103970105164607 
333	-2,94159681051859E-02 
334	 0,127334536265315 
335	 0,177830355660711 
336	 8,39583778908117E-02 
337	 8,60398014758161E-02 
338	 0,087762540048482 
339	-1,19118302601181E-03 
340	 5,50715730345109E-02 
341	 0,176125990104759 
342	 0,13268975623008 
343	 6,89060980077567E-02 
344	 2,87378814343453E-02 
345	 4,12373261192276E-02 
346	 0,087480471654994 
347	 0,143455131216027 
348	 0,115669684980878 
349	 4,41687219778054E-02 
350	 6,67193744554538E-02 
351	 8,39545464164039E-02 
352	 0,06667479497834 
353	 7,99664658606563E-02 
354	 8,36079378729921E-02 
355	 2,61957584360633E-02 
356	 1,23900316823054E-02 
357	 4,23919584856478E-02 
358	 0,071335122518745 
359	 6,48282571561089E-02 
360	 1,78689962616799E-02 
361	 2,38959552014516E-02 
362	 5,01816395681073E-02 
363	 3,70964737736346E-02 
364	 3,13009539072975E-02 
365	 3,95964368847794E-02 
366	 4,75661106848818E-02 
367	 5,30997144526941E-02 
368	 5,40531608540708E-02 
369	 4,44007172193864E-02 
370	 3,04919879384966E-02 
371	 0,025953543876061 
372	 1,98773193615086E-02 
373	 1,53113457231772E-02 
374	 3,60136361615477E-02 
375	 5,84493603127422E-02 
376	 6,41856324839729E-02 
377	 0,073940368473889 
378	 7,93087096673888E-02 
379	 5,42433292640391E-02 
380	 3,44321909234607E-02 
381	 3,17181056035557E-02 
382	 4,41221645828632E-02 
383	 5,33322325807838E-02 
384	 4,48516605894115E-02 
385	 3,59120084137047E-02 
386	 3,14058146489475E-02 
387	 3,41434818933724E-02 
388	 3,76896935009593E-02 
389	 3,85189796063568E-02 
390	 3,26496516141598E-02 
391	 3,11940496606202E-02 
392	 4,70044365737106E-02 
393	 4,34014523297297E-02 
394	 2,69261340779052E-02 
395	 4,12705282191588E-02 
396	 4,92005808987742E-02 
397	 0,035171645988621 
398	 3,75111367584186E-02 
399	 4,60510480310469E-02 
400	 0,039316963373895 
401	 4,21692767932353E-02 
402	 5,32238264975098E-02 
403	 4,40348565641217E-02 
404	 3,51016084247463E-02 
405	 3,92168793801123E-02 
406	 3,83910890952943E-02 
407	 3,39616681079364E-02 
408	 3,31380143286179E-02 
409	 3,64709505417408E-02 
410	 4,25424391342263E-02 
411	 4,38262059763668E-02 
412	 4,19577478650432E-02 
413	 3,90125024020684E-02 
414	 3,38076467302775E-02 
415	 3,03026561178265E-02 
416	 3,94867703921999E-02 
417	 4,48860297143995E-02 
418	 4,07704337304471E-02 
419	 3,63079174667221E-02 
420	 3,40755935551317E-02 
421	 3,61368320975561E-02 
422	 3,64590917777109E-02 
423	 0,034551730755856 
424	 3,30641091324129E-02 
425	 3,52117673509128E-02 
426	 4,17365188101742E-02 
427	 4,25480795368174E-02 
428	 3,93062260987232E-02 
429	 3,68890607311377E-02 
430	 3,85003909856171E-02 
431	 4,33180362010822E-02 
432	 4,31025744903742E-02 
433	 4,07575968457757E-02 
434	 3,91778200313848E-02 
435	 3,81002853255784E-02 
436	 3,80752344789122E-02 
437	 4,04388291218414E-02 
438	 4,23091657483086E-02 
439	 4,25985285760993E-02 
440	 4,28697144494772E-02 
441	 4,35815767191141E-02 
442	 4,51220828757103E-02 
443	 4,49547414581127E-02 
444	 4,37083565810551E-02 
445	 4,58047522553073E-02 
446	 4,71271579407043E-02 
447	 4,54894682465806E-02 
448	 4,55970233951137E-02 
449	 4,57611164257607E-02 
450	 4,12959328545829E-02 
451	 4,02199744558321E-02 
452	 4,37133053928925E-02 
453	 4,47831414000664E-02 
454	 4,40668534726674E-02 
455	 4,26584610560151E-02 
456	 4,40721105153768E-02 
457	 4,67773336760781E-02 
458	 4,43028541310822E-02 
459	 4,47221535600363E-02 
460	 4,96351719135679E-02 
461	 4,61782291176468E-02 
462	 4,08676863840619E-02 
463	 4,38458343015575E-02 
464	 4,54925123631187E-02 
465	 4,45306434584515E-02 
466	 4,49464353919888E-02 
467	 4,65963106854873E-02 
468	 4,90552445180154E-02 
469	 4,92895950472016E-02 
470	 4,83647210442282E-02 
471	 4,94260159366624E-02 
472	 4,96946472230771E-02 
473	 4,83678861838666E-02 
474	 4,55571789283977E-02 
475	 4,41862354871295E-02 
476	 4,69648266194468E-02 
477	 0,050882552255947 
478	 5,38919837685827E-02 
479	 5,28269322840754E-02 
480	 5,10309421935417E-02 
481	 0,050013880046171 
482	 4,75858884582722E-02 
483	 4,60823333863382E-02 
484	 4,91880793336526E-02 
485	 5,18653499404899E-02 
486	 5,24579497079284E-02 
487	 5,05172759784704E-02 
488	 4,88922466336171E-02 
489	 0,049619398859489 
490	 4,95754391048639E-02 
491	 0,049271518618132 
492	 0,05121909046492 
493	 5,24424702322011E-02 
494	 5,19575101470611E-02 
495	 5,06278796646089E-02 
496	 4,98631118316786E-02 
497	 5,10965022761449E-02 
498	 5,16267093285895E-02 
499	 5,11173999904097E-02 
500	 5,03961954754342E-02 
501	 5,07123395760925E-02 
502	 0,052563114584906 
503	 5,37297051793418E-02 
504	 5,41385862190815E-02 
505	 5,43194142710815E-02 
506	 5,35997483760177E-02 
507	 5,21610661729773E-02 
508	 5,12066427115255E-02 
509	 5,11879371810647E-02 
510	 5,24010319323306E-02 
511	 5,38887205469101E-02 
512	 5,54784926870822E-02 
513	 5,79117755544084E-02 
514	 5,76156233823473E-02 
515	 5,40783079606679E-02 
516	 5,46945670794159E-02 
517	 5,72100987388955E-02 
518	 5,74831542041894E-02 
519	 5,71207249458902E-02 
520	 5,66426801194298E-02 
521	 0,056657013855027 
522	 5,65520068488167E-02 
523	 5,59965058060902E-02 
524	 5,64116343213401E-02 
525	 5,76021175558724E-02 
526	 0,058778541691602 
527	 0,059446718217958 
528	 5,93573336792494E-02 
529	 5,85288668541835E-02 
530	 5,78254105607615E-02 
531	 5,81866665351936E-02 
532	 0,058797876309039 
533	 0,05936750339135 
534	 5,95130942192368E-02 
535	 6,03713209258941E-02 
536	 6,22561341677944E-02 
537	 6,18293357419542E-02 
538	 6,04878067477274E-02 
539	 0,06168766739459 
540	 6,21341983431636E-02 
541	 6,12840439201789E-02 
542	 6,14436288191669E-02 
543	 6,21714977836893E-02 
544	 6,28997107728315E-02 
545	 6,31776864849827E-02 
546	 6,30257823351246E-02 
547	 6,27376420411156E-02 
548	 6,29028237381185E-02 
549	 6,37177246906117E-02 
550	 6,42207079222138E-02 
551	 6,44190840037915E-02 
552	 6,44857204095887E-02 
553	 6,49372721590077E-02 
554	 0,065741675054336 
555	 6,61313335482818E-02 
556	 6,62226335751522E-02 
557	 6,61581753132206E-02 
558	 6,62910647798669E-02 
559	 6,64301309529501E-02 
560	 6,56680622005357E-02 
561	 6,61334389805114E-02 
562	 6,81410870182329E-02 
563	 0,067993148588084 
564	 6,69244649298986E-02 
565	 6,69920444300141E-02 
566	 0,067363434274255 
567	 0,067836324584849 
568	 6,83204118399549E-02 
569	 6,88516593146312E-02 
570	 6,93988076393086E-02 
571	 6,94854235798244E-02 
572	 6,92392026427037E-02 
573	 6,89855328718152E-02 
574	 6,93700343166692E-02 
575	 7,04782497569848E-02 
576	 7,12817733441651E-02 
577	 7,18970495305892E-02 
578	 7,25402299991908E-02 
579	 7,28715434941254E-02 
580	 7,28223434906232E-02 
581	 7,23213441993221E-02 
582	 7,21781579804858E-02 
583	 7,27933024105399E-02 
584	 7,32049517922163E-02 
585	 7,34518209189717E-02 
586	 7,38220664269864E-02 
587	 0,074441789933004 
588	 0,075184103225829 
589	 7,52946917088853E-02 
590	 7,53490550130199E-02 
591	 7,58654668197986E-02 
592	 7,56948799656104E-02 
593	 7,51780361328969E-02 
594	 7,59176692562623E-02 
595	 0,076276130517159 
596	 7,57154892669525E-02 
597	 7,61742709898555E-02 
598	 7,68486709323919E-02 
599	 0,076223506581802 
600	 7,62624852050275E-02 
601	 7,70711817570805E-02 
602	 7,67706344635396E-02 
603	 7,66062669866987E-02 
604	 7,74762757961827E-02 
605	 7,76241848434838E-02 
606	 0,077135031892044 
607	 7,69504684251934E-02 
608	 7,66903258376142E-02 
609	 7,64144731352099E-02 
610	 7,71819640808305E-02 
611	 7,76746340045532E-02 
612	 7,62056881789469E-02 
613	 7,56388352455147E-02 
614	 7,62810342384073E-02 
615	 7,66244900155321E-02 
616	 7,68180385361086E-02 
617	 7,69353702037551E-02 
618	 7,69792827340886E-02 
619	 7,69463006375141E-02 
620	 7,67650110050329E-02 
621	 7,70353002415426E-02 
622	 7,76361371006574E-02 
623	 7,68713285105326E-02 
624	 7,62909505400888E-02 
625	 7,74932370057439E-02 
626	 7,76703187061726E-02 
627	 7,69085654260703E-02 
628	 7,72509850806871E-02 
629	 7,77719369255056E-02 
630	 7,80132940371716E-02 
631	 7,81875739440505E-02 
632	 7,82880520198054E-02 
633	 7,82817028250754E-02 
634	 7,81581367244974E-02 
635	 7,80439116574165E-02 
636	 7,84497168541469E-02 
637	 0,078737615476847 
638	 7,84463423518875E-02 
639	 7,91579811934193E-02 
640	 8,03171313356386E-02 
641	 7,97153345665867E-02 
642	 7,95668902964826E-02 
643	 8,05148851725552E-02 
644	 8,06368584011576E-02 
645	 8,04780630768675E-02 
646	 8,09661951996524E-02 
647	 0,081180900566985 
648	 8,10525467941077E-02 
649	 8,11788240324261E-02 
650	 8,11813855079355E-02 
651	 8,08639804762611E-02 
652	 8,09303294027566E-02 
653	 8,10200374416386E-02 
654	 8,01521243819733E-02 
655	 0,079502294331373 
656	 7,93963284264693E-02 
657	 7,93555613794279E-02 
658	 7,89689074874394E-02 
659	 0,077903042842819 
660	 7,78076449913613E-02 
661	 7,84052005817622E-02 
662	 7,78220329060183E-02 
663	 7,71854961406814E-02 
664	 7,69902473698232E-02 
665	 7,65613875635576E-02 
666	 7,59361023956562E-02 
667	 7,52399208904202E-02 
668	 7,52925789945033E-02 
669	 0,076061726797422 
670	 7,64972670786549E-02 
671	 7,64708111261217E-02 
672	 7,59783386172991E-02 
673	 7,60210977444118E-02 
674	 7,64260617360129E-02 
675	 7,63030617640125E-02 
676	 7,62422507463101E-02 
677	 0,076413306572964 
678	 7,64903124324564E-02 
679	 7,67398432282197E-02 
680	 7,74891616534124E-02 
681	 7,77601957249257E-02 
682	 7,76202709764533E-02 
683	 7,80367581803282E-02 
684	 7,86947990734844E-02 
685	 7,93432322975371E-02 
686	 7,94478264743648E-02 
687	 7,95538997645336E-02 
688	 8,07651417494579E-02 
689	 8,18442410181008E-02 
690	 8,25305152987401E-02 
691	 0,083484654641319 
692	 8,45103173144867E-02 
693	 8,54400425632534E-02 
694	 0,086718043169187 
695	 8,83927673362275E-02 
696	 9,04200191645233E-02 
697	 9,22936720155329E-02 
698	 9,38644741902407E-02 
699	 9,57879758331191E-02 
700	 9,77762308712344E-02 
701	 9,93863987600318E-02 
702	 0,101299849829644 
703	 0,103529934232145 
704	 0,105612704942484 
705	 0,107402730664484 
706	 0,108873059046203 
707	 0,110742308467933 
708	 0,112674064820094 
709	 0,113822935507293 
710	 0,11515177591689 
711	 0,116899402548006 
712	 0,118742040916442 
713	 0,120222985612004 
714	 0,120983633124471 
715	 0,121968693701627 
716	 0,123169583690296 
717	 0,124030434485834 
718	 0,124915095944151 
719	 0,125879251837383 
720	 0,126351798291058 
721	 0,126717300030977 
722	 0,127520369930928 
723	 0,128113960737972 
724	 0,128495812730205 
725	 0,129156702478257 
726	 0,129969931673924 
727	 0,130785982235996 
728	 0,131106726123535 
729	 0,131073182458977 
730	 0,131023251349074 
731	 0,131360428225734 
732	 0,132101714304402 
733	 0,132664145177275 
734	 0,133077997275743 
735	 0,133367334945687 
736	 0,133142185693361 
737	 0,132898159044364 
738	 0,13409015070049 
739	 0,134898575172307 
740	 0,134760558988052 
741	 0,134871487163603 
742	 0,134971437970917 
743	 0,134671675844414 
744	 0,135023360261179 
745	 0,135814730958166 
746	 0,135597206544984 
747	 0,135555347802833 
748	 0,136205912694366 
749	 0,136461525726497 
750	 0,136341589166084 
751	 0,136058527085435 
752	 0,13622390631462 
753	 0,13679247468041 
754	 0,136823619639912 
755	 0,136865659011118 
756	 0,137278004690288 
757	 0,137402918836804 
758	 0,137362312763282 
759	 0,137610214467628 
760	 0,137817848446397 
761	 0,13792642116643 
762	 0,138151240948359 
763	 0,138443893624638 
764	 0,138724797560234 
765	 0,138528892176696 
766	 0,138247021821349 
767	 0,139188659534255 
768	 0,139794297075147 
769	 0,139530920824684 
770	 0,139231733648342 
771	 0,13928521837221 
772	 0,140030548129693 
773	 0,140388500129547 
774	 0,1402773488819 
775	 0,140295631799484 
776	 0,140323614903474 
777	 0,14036024441718 
778	 0,140724530136562 
779	 0,141130120758688 
780	 0,141117752761976 
781	 0,141188340628765 
782	 0,141369976705287 
783	 0,141267723679506 
784	 0,141122895458842 
785	 0,141122234720164 
786	 0,14139254701089 
787	 0,14170937878659 
788	 0,141631610964846 
789	 0,141769005216024 
790	 0,142173723978502 
791	 0,142319042613383 
792	 0,142130229553497 
793	 0,141660973117339 
794	 0,142011010483552 
795	 0,142814650643386 
796	 0,14288973462029 
797	 0,142943109500211 
798	 0,143148649009595 
799	 0,14326352193419 
800	 0,143280085421985 
801	 0,14321720992247 
802	 0,143307913540632 
803	 0,143502991378628 
804	 0,14353810863063 
805	 0,143696818857273 
806	 0,143965011671073 
807	 0,143657819737939 
808	 0,14347618696271 
809	 0,144156795063452 
810	 0,144257331083102 
811	 0,143885784429092 
812	 0,144250740879082 
813	 0,144414029520766 
814	 0,144133452749897 
815	 0,144394581966314 
816	 0,144862127518377 
817	 0,145049324901788 
818	 0,145404044594224 
819	 0,145847533274251 
820	 0,145892257152105 
821	 0,145819913881131 
822	 0,145819422659901 
823	 0,146183934220853 
824	 0,146492779555221 
825	 0,146184834362258 
826	 0,14589328455629 
827	 0,145812666086133 
828	 0,14601648683066 
829	 0,146198330888819 
830	 0,146235861208745 
831	 0,146592637806802 
832	 0,146825116936518 
833	 0,14628721394984 
834	 0,14643478327809 
835	 0,147172582145698 
836	 0,146914958416956 
837	 0,146701774687732 
838	 0,147022922231576 
839	 0,147094735778271 
840	 0,147095847294049 
841	 0,14739173624876 
842	 0,147310492977631 
843	 0,14699744897622 
844	 0,14753834231312 
845	 0,147924239783717 
846	 0,147606796683415 
847	 0,146902920931065 
848	 0,146489792524136 
849	 0,147228260098031 
850	 0,147482948246013 
851	 0,147057505599977 
852	 0,146756238691547 
853	 0,14673387130019 
854	 0,147051541741738 
855	 0,147347072590275 
856	 0,147547616400676 
857	 0,147625524113364 
858	 0,14742358720776 
859	 0,147137107571716 
860	 0,147490135908127 
861	 0,147807162897433 
862	 0,147774594454428 
863	 0,147826138809551 
864	 0,1479986271818 
865	 0,148278000523419 
866	 0,148664266624826 
867	 0,148855336570285 
868	 0,147857796480223 
869	 0,147473206439292 
870	 0,148385760018684 
871	 0,148905968090813 
872	 0,149063091963964 
873	 0,149085467847808 
874	 0,148497659633557 
875	 0,147826973644759 
876	 0,148813890856926 
877	 0,149773001300329 
878	 0,149914398198813 
879	 0,149240153526622 
880	 0,148821128751338 
881	 0,149696381073242 
882	 0,149396482582392 
883	 0,148252914948861 
884	 0,148458288687843 
885	 0,148791272294597 
886	 0,148913549412034 
887	 0,149323293395845 
888	 0,149691554288714 
889	 0,149715614268141 
890	 0,149779226382957 
891	 0,150018265592697 
892	 0,150631167669989 
893	 0,150709275039791 
894	 0,150099282081427 
895	 0,14958858002967 
896	 0,149319200146786 
897	 0,149349485809359 
898	 0,14922249954986 
899	 0,14920361667743 
900	 0,149905923138973 
901	 0,150310706461792 
902	 0,150343564816853 
903	 0,151023528867554 
904	 0,151270843382711 
905	 0,150623160711282 
906	 0,151034112207443 
907	 0,151691293920543 
908	 0,151130911593727 
909	 0,150589459784602 
910	 0,150425445679867 
911	 0,150767237341624 
912	 0,151022011494784 
913	 0,150878454595648 
914	 0,150348854965665 
915	 0,150218199689647 
916	 0,151277373374509 
917	 0,152319859553448 
918	 0,152784970182456 
919	 0,151902630123265 
920	 0,151556948027463 
921	 0,152146165904086 
922	 0,151842070587572 
923	 0,151864061066222 
924	 0,153036091308566 
925	 0,152435957563829 
926	 0,151144344150801 
927	 0,151950844311322 
928	 0,152111894442731 
929	 0,151443710535798 
930	 0,152110651390366 
931	 0,153288591418419 
932	 0,154297472350283 
933	 0,154260294827671 
934	 0,15357773978521 
935	 0,152941584668697 
936	 0,152975002761635 
937	 0,153345123555124 
938	 0,152562695077598 
939	 0,152207209176405 
940	 0,152644575785902 
941	 0,152455088899722 
942	 0,152145199934042 
943	 0,152141328335646 
944	 0,151216688178247 
945	 0,150176954492629 
946	 0,150823020161473 
947	 0,151588813048615 
948	 0,152139023475186 
949	 0,153191869060431 
950	 0,153443341061004 
951	 0,152500759756313 
952	 0,153085268809881 
953	 0,153910872248026 
954	 0,1531157734742 
955	 0,151379298310145 
956	 0,149780224368609 
957	 0,150673519610073 
958	 0,151186696176643 
959	 0,150781384865348 
960	 0,152037814885009 
961	 0,153170979123337 
962	 0,152862734840522 
963	 0,152659057074872 
964	 0,152301729936827 
965	 0,151081421309036 
966	 0,151821394261773 
967	 0,153868801057179 
968	 0,152987477649033 
969	 0,151904059998877 
970	 0,151660707659701 
971	 0,151153098780979 
972	 0,151137326536446 
973	 0,152153683764782 
974	 0,151782602524679 
975	 0,151438994932614 
976	 0,154452351837705 
977	 0,15380856154617 
978	 0,149872751628399 
979	 0,15070007059962 
980	 0,152879059020614 
981	 0,154398774647268 
982	 0,153972615003041 
983	 0,153491814355272 
984	 0,154788946468991 
985	 0,154240361334995 
986	 0,15313527706656 
987	 0,155185236182856 
988	 0,156713731147379 
989	 0,156768983558299 
990	 0,156006474029495 
991	 0,15565237327527 
992	 0,15631357723492 
993	 0,157057445966785 
994	 0,157522469037068 
995	 0,157473828964421 
996	 0,157865415366381 
997	 0,157863587290761 
998	 0,155473304254691 
999	 0,154849762294897 
1000	 0,156247649670403 
1001	 0,155768983268983 
1002	 0,155926210480873 
1003	 0,157734402859503 
1004	 0,159851321997215 
1005	 0,159724709076684 
1006	 0,155744683945094 
1007	 0,156977934928326 
1008	 0,160620718972247 
1009	 0,158883372777833 
1010	 0,158512692040755 
1011	 0,159882806314288 
1012	 0,158171766484265 
1013	 0,157548624213215 
1014	 0,159164859367691 
1015	 0,159025963095372 
1016	 0,158035497017105 
1017	 0,157440023876564 
1018	 0,15968909684221 
1019	 0,161833621264266 
1020	 0,159213503706338 
1021	 0,160404544865511 
1022	 0,164851011286745 
1023	 0,165137516573127 
1024	 0,165447645350717 
1025	 0,166298125223412 
1026	 0,163602470200493 
1027	 0,162203188323239 
1028	 0,164483455553804 
1029	 0,163085336525485 
1030	 0,161617910023344 
1031	 0,164729927043696 
1032	 0,16474806519073 
1033	 0,163051662396643 
1034	 0,16553345935597 
1035	 0,164570608534024 
1036	 0,161474250685782 
1037	 0,16901559773461 
1038	 0,172216715969457 
1039	 0,165897077725191 
1040	 0,161710354403298 
1041	 0,159917152419683 
1042	 0,160642674501492 
1043	 0,167771631013376 
1044	 0,173310598456984 
1045	 0,166821124112966 
1046	 0,166600894141661 
1047	 0,17107139792534 
1048	 0,166438834958838 
1049	 0,165587106035162 
1050	 0,16919351705121 
1051	 0,163909683687187 
1052	 0,162887767125081 
1053	 0,170370162360949 
1054	 0,171118899326883 
1055	 0,169523274590103 
1056	 0,170817887870242 
1057	 0,180418683683528 
1058	 0,18633186905271 
1059	 0,172596873417745 
1060	 0,171114718098057 
1061	 0,177443151558536 
1062	 0,164169053544396 
1063	 0,165345564090953 
1064	 0,181660606534517 
1065	 0,176814645299002 
1066	 0,171756465477003 
1067	 0,174259633753687 
1068	 0,176456486825355 
1069	 0,165264840498267 
1070	 0,139623375390635 
1071	 0,161250348106351 
1072	 0,184475983150038 
1073	 0,151781290425055 
1074	 0,15389347010326 
1075	 0,172722922324838 
