Wavelength	ABBE00383.asd
325	 0,189568684918767 
326	 0,204215710827281 
327	 0,129044487132189 
328	-4,07041808947172E-02 
329	-0,115501464953798 
330	-5,24086253081421E-02 
331	 0,119627180726207 
332	 0,164930065132646 
333	 0,110882774730555 
334	 8,87217415635031E-02 
335	 9,59581919163838E-02 
336	 0,113770818028808 
337	 5,27925228999993E-02 
338	 1,89859470088658E-04 
339	 2,75155880356393E-02 
340	 6,35456345094228E-02 
341	 7,59378411651297E-02 
342	 0,05770927346493 
343	 5,32258675796203E-02 
344	 6,10464062851055E-02 
345	 2,24905859359328E-03 
346	-3,01075782463736E-02 
347	 4,60709681824671E-02 
348	 3,52634080155379E-02 
349	-2,89128812676095E-02 
350	 2,83168458997388E-02 
351	 5,92098525086231E-02 
352	 2,40289804314988E-02 
353	 4,24626449191927E-02 
354	 4,90232098412198E-02 
355	-4,20289833140131E-02 
356	-5,25483360538921E-02 
357	 1,18538744321523E-02 
358	 5,53786162980305E-02 
359	 0,052063968505956 
360	 4,1130205948805E-04 
361	-1,13518522336811E-02 
362	 7,05289139757591E-03 
363	 2,66380688890706E-02 
364	 0,02277162507509 
365	 5,25884128519467E-03 
366	 3,68116344223147E-02 
367	 5,73756316991888E-02 
368	 3,57598703300984E-02 
369	 2,76616169684194E-02 
370	 3,09474903828586E-02 
371	 3,00632547670947E-02 
372	 2,47451135991167E-02 
373	 1,82376949849247E-02 
374	 2,46683344559758E-02 
375	 3,53302970434041E-02 
376	 4,10797778385433E-02 
377	 2,42669074246149E-02 
378	 3,83373583888722E-03 
379	 2,78513287810899E-02 
380	 3,37776607523608E-02 
381	 0,012927994985505 
382	 0,032973651354045 
383	 0,04896985764029 
384	 2,10156667969387E-02 
385	 8,70555691156131E-03 
386	 0,014707662907908 
387	 1,46202934665663E-02 
388	 1,47338583875509E-02 
389	 1,58615780618161E-02 
390	 0,011147967467336 
391	 1,06827538604284E-02 
392	 0,026341463706874 
393	 3,20107270618632E-02 
394	 2,56429192332583E-02 
395	 1,69832934140645E-02 
396	 1,68138448592403E-02 
397	 0,029030195611884 
398	 3,78235508567262E-02 
399	 3,77565790744241E-02 
400	 2,34491695533193E-02 
401	 1,61791133289203E-02 
402	 0,019419663464185 
403	 2,33843122550497E-02 
404	 2,06567244843211E-02 
405	 8,45489267463155E-03 
406	 1,06778219231008E-02 
407	 0,018606498067522 
408	 6,21925488836255E-03 
409	 7,19952496248195E-03 
410	 2,42134439780786E-02 
411	 2,17595442570319E-02 
412	 1,44330606097787E-02 
413	 1,68636986667931E-02 
414	 1,61159594187071E-02 
415	 1,28575038305142E-02 
416	 1,43193220797291E-02 
417	 1,65588095096799E-02 
418	 0,017459124352619 
419	 1,44137487156049E-02 
420	 1,12500002715083E-02 
421	 1,30130352451868E-02 
422	 1,33854390199857E-02 
423	 1,17599311905808E-02 
424	 1,07506660458019E-02 
425	 1,14086711831741E-02 
426	 1,39170951136559E-02 
427	 0,014476385424774 
428	 0,013270591081255 
429	 1,11287811717368E-02 
430	 1,27259736737716E-02 
431	 1,77908268985336E-02 
432	 1,91627986468402E-02 
433	 0,017684073700217 
434	 1,45294667665802E-02 
435	 0,011331861553907 
436	 1,03854369795941E-02 
437	 1,65201043639873E-02 
438	 2,11496605872204E-02 
439	 2,09257216370819E-02 
440	 2,01280712335281E-02 
441	 0,018245352361591 
442	 1,41457055826583E-02 
443	 0,015118014883647 
444	 1,99721518200307E-02 
445	 1,86545941363237E-02 
446	 1,61328122731882E-02 
447	 1,55515747828108E-02 
448	 0,016206161480412 
449	 1,74099446249722E-02 
450	 1,81510753273534E-02 
451	 0,017909797412226 
452	 1,68121609807231E-02 
453	 1,64257811106292E-02 
454	 1,64192388169469E-02 
455	 1,62698443808553E-02 
456	 1,33683813894102E-02 
457	 9,59044066128138E-03 
458	 0,010815947941351 
459	 1,34423296491166E-02 
460	 1,55437761115234E-02 
461	 1,56284814708322E-02 
462	 1,55724768197315E-02 
463	 1,80751354111766E-02 
464	 0,018448341679103 
465	 1,63089298138943E-02 
466	 1,45132657462972E-02 
467	 1,32027101283581E-02 
468	 0,012603239195792 
469	 1,34798445701009E-02 
470	 1,51380655029685E-02 
471	 1,61988222891442E-02 
472	 1,65123062104294E-02 
473	 1,57947094064026E-02 
474	 1,28844965665614E-02 
475	 1,15056198125788E-02 
476	 1,50895972064164E-02 
477	 1,75874159450806E-02 
478	 1,77085618836457E-02 
479	 1,54320613555306E-02 
480	 1,49963853320195E-02 
481	 1,75029133350562E-02 
482	 1,46061358748151E-02 
483	 1,11995988720623E-02 
484	 1,58302619494496E-02 
485	 1,78835361636167E-02 
486	 1,57056794538446E-02 
487	 1,45235637991624E-02 
488	 0,013429834973082 
489	 1,19413868406812E-02 
490	 1,29261136867294E-02 
491	 1,51607426576837E-02 
492	 0,015106767578063 
493	 1,42960619144582E-02 
494	 1,34490155425602E-02 
495	 1,37355666339674E-02 
496	 1,41165133684719E-02 
497	 1,33403517641221E-02 
498	 1,27385150322567E-02 
499	 1,27346968423161E-02 
500	 1,37461368005835E-02 
501	 1,41732112078082E-02 
502	 1,33963665095816E-02 
503	 1,45260991552238E-02 
504	 1,60385125889827E-02 
505	 1,45257337926766E-02 
506	 1,41476572207396E-02 
507	 1,51986354064815E-02 
508	 1,29205875511286E-02 
509	 0,011692271349936 
510	 1,52537046101816E-02 
511	 1,60000968376814E-02 
512	 1,45248038756965E-02 
513	 1,65185671882303E-02 
514	 1,72485178214994E-02 
515	 1,53310638084989E-02 
516	 1,55956295659843E-02 
517	 1,66715101768279E-02 
518	 1,60144152249657E-02 
519	 1,50398553283881E-02 
520	 1,42886567279203E-02 
521	 1,44182427389368E-02 
522	 0,014259912081407 
523	 1,31611599258316E-02 
524	 0,01386957488071 
525	 1,53998709235693E-02 
526	 1,45490040938549E-02 
527	 1,40063027324421E-02 
528	 1,44493176343691E-02 
529	 1,43503094092701E-02 
530	 1,39292550165043E-02 
531	 1,35663951435107E-02 
532	 1,32530699679639E-02 
533	 1,32690729765248E-02 
534	 1,45609550262599E-02 
535	 1,53075273972472E-02 
536	 1,45329692008239E-02 
537	 1,38215248730337E-02 
538	 1,35570404474452E-02 
539	 1,39995360183148E-02 
540	 1,45393287920569E-02 
541	 1,48734249368509E-02 
542	 1,47283150264401E-02 
543	 1,45604016278883E-02 
544	 1,48181781869444E-02 
545	 1,53450635391193E-02 
546	 1,56307803827822E-02 
547	 1,41895701601654E-02 
548	 1,35830648288771E-02 
549	 1,48768379689538E-02 
550	 1,58404576649005E-02 
551	 1,62047199688049E-02 
552	 1,60106956400179E-02 
553	 1,52106357891309E-02 
554	 0,014205404966991 
555	 1,44727026362962E-02 
556	 1,47309032225852E-02 
557	 1,39762378176164E-02 
558	 1,39521663666646E-02 
559	 1,44025078847527E-02 
560	 1,37845991184298E-02 
561	 1,37717445675267E-02 
562	 1,47681794067552E-02 
563	 1,50808292331234E-02 
564	 1,44699833288186E-02 
565	 1,28281855202439E-02 
566	 0,013152163829624 
567	 0,015114696739603 
568	 1,45567658632683E-02 
569	 1,39486670795947E-02 
570	 1,49001335703979E-02 
571	 1,53261887411797E-02 
572	 1,51226364753798E-02 
573	 1,47410983794072E-02 
574	 1,43905057177169E-02 
575	 1,43167244736553E-02 
576	 1,50617963729198E-02 
577	 1,59758861909808E-02 
578	 1,62936161922316E-02 
579	 1,61444324629585E-02 
580	 1,57360993963469E-02 
581	 1,56055136012715E-02 
582	 1,55674499330899E-02 
583	 1,55372048358206E-02 
584	 1,55662553245032E-02 
585	 0,01584925181653 
586	 0,016742167789074 
587	 0,017502258913518 
588	 1,77911473204204E-02 
589	 1,72837766514663E-02 
590	 1,70025371536769E-02 
591	 1,78278430241863E-02 
592	 1,79543626520776E-02 
593	 1,74299259823954E-02 
594	 1,73797919460047E-02 
595	 1,74398976389684E-02 
596	 1,74552419667208E-02 
597	 0,017340540183022 
598	 1,73799100463552E-02 
599	 1,80358908766841E-02 
600	 1,80350076343153E-02 
601	 1,73712085418441E-02 
602	 1,75098305043252E-02 
603	 1,78654882635097E-02 
604	 1,79081768843396E-02 
605	 1,73048120181765E-02 
606	 1,64785681036926E-02 
607	 1,65680650662587E-02 
608	 1,67621908629921E-02 
609	 1,68262136507237E-02 
610	 1,73273357156651E-02 
611	 1,75814961046122E-02 
612	 1,67232789012139E-02 
613	 1,59159816056394E-02 
614	 1,54927588730198E-02 
615	 0,015361703052789 
616	 0,015670989724422 
617	 1,64177981268023E-02 
618	 1,68561384947234E-02 
619	 1,69077383620815E-02 
620	 1,66674884789174E-02 
621	 0,016404375269377 
622	 0,016221189969374 
623	 1,59471066434099E-02 
624	 1,58677097036526E-02 
625	 0,016249044487888 
626	 1,61203502300367E-02 
627	 1,56609166310928E-02 
628	 1,59988918192783E-02 
629	 1,65396642435181E-02 
630	 0,0169093950561 
631	 1,67715713745888E-02 
632	 1,64730700777707E-02 
633	 1,66302025337925E-02 
634	 0,016905506028851 
635	 0,017178660226142 
636	 1,74181233518307E-02 
637	 1,73517652718445E-02 
638	 1,68725606498624E-02 
639	 1,77731857201037E-02 
640	 0,019298186025158 
641	 1,86746082465812E-02 
642	 1,82816697291611E-02 
643	 1,88358233889463E-02 
644	 1,84538234768385E-02 
645	 1,80033083450902E-02 
646	 1,88016486294783E-02 
647	 1,93508688210607E-02 
648	 1,93263836313594E-02 
649	 1,89741771550894E-02 
650	 1,89178548382648E-02 
651	 1,94549973938333E-02 
652	 1,91717733725548E-02 
653	 1,83343192668352E-02 
654	 0,017896882613192 
655	 1,75685651507385E-02 
656	 1,73363508018863E-02 
657	 1,75145244603924E-02 
658	 1,74177150397192E-02 
659	 0,016395726764441 
660	 1,64421549067686E-02 
661	 1,72557334285304E-02 
662	 1,66992582102654E-02 
663	 1,59921483490109E-02 
664	 1,57395139411614E-02 
665	 1,56651692375116E-02 
666	 1,55762629490603E-02 
667	 1,52043416572726E-02 
668	 1,50027803826261E-02 
669	 1,51028155085787E-02 
670	 1,54780568973309E-02 
671	 1,57785394826821E-02 
672	 1,57353594614235E-02 
673	 1,56777247354312E-02 
674	 1,56141271254875E-02 
675	 1,53781040893723E-02 
676	 1,53064380371872E-02 
677	 1,54907423559652E-02 
678	 1,56021995684669E-02 
679	 1,58342998340709E-02 
680	 1,64349274215749E-02 
681	 1,63140433523254E-02 
682	 1,57093160803881E-02 
683	 1,62421477642789E-02 
684	 1,68151949197449E-02 
685	 1,67768317111869E-02 
686	 1,63717077270205E-02 
687	 1,61968379486001E-02 
688	 1,72674749237821E-02 
689	 1,80248249810351E-02 
690	 1,81976332429171E-02 
691	 0,018898951130284 
692	 1,97881364035693E-02 
693	 2,05611513350298E-02 
694	 2,18713216256377E-02 
695	 2,36907247496732E-02 
696	 2,56084934497503E-02 
697	 2,78384972447851E-02 
698	 3,03662670282075E-02 
699	 3,25978559863832E-02 
700	 3,50460858214542E-02 
701	 3,84237743724668E-02 
702	 4,20450502484989E-02 
703	 4,56114054634137E-02 
704	 4,88483404918222E-02 
705	 5,20637244106396E-02 
706	 5,54935034423669E-02 
707	 5,93887729057743E-02 
708	 6,32846787246173E-02 
709	 6,62448222248559E-02 
710	 6,95218426829599E-02 
711	 7,32660430908628E-02 
712	 7,63613206536121E-02 
713	 7,89965867732048E-02 
714	 8,14238141223361E-02 
715	 8,41594595748916E-02 
716	 8,69289287832524E-02 
717	 8,86673075073214E-02 
718	 0,090644263334589 
719	 9,31511999565533E-02 
720	 9,44882334078791E-02 
721	 9,55166457239713E-02 
722	 9,75097269501697E-02 
723	 0,099064935430812 
724	 0,100070908005696 
725	 0,101272772704994 
726	 0,102593338703942 
727	 0,103924612711745 
728	 0,104736386951708 
729	 0,105225209898885 
730	 0,105843528194029 
731	 0,106780735026496 
732	 0,107858197992018 
733	 0,10795745487726 
734	 0,108085021351157 
735	 0,109081315330182 
736	 0,109602866773691 
737	 0,109756834401021 
738	 0,110471375162525 
739	 0,110919996299468 
740	 0,110911822112828 
741	 0,111201787272411 
742	 0,111581420349093 
743	 0,111740402889435 
744	 0,111669810767784 
745	 0,111591234710526 
746	 0,112166394707254 
747	 0,112850443697049 
748	 0,113272994824816 
749	 0,113136160050626 
750	 0,112795685204936 
751	 0,112837594933233 
752	 0,113134334462432 
753	 0,113482067699908 
754	 0,113179943850276 
755	 0,11309582361697 
756	 0,113760848542642 
757	 0,113775433295148 
758	 0,113436419142534 
759	 0,113814683486394 
760	 0,114012160251914 
761	 0,113892388101007 
762	 0,114222010741948 
763	 0,114583335575695 
764	 0,114561786149382 
765	 0,114415404035652 
766	 0,114365131129275 
767	 0,114893971936376 
768	 0,115182793751483 
769	 0,114957110893646 
770	 0,114725842390054 
771	 0,114733350686724 
772	 0,115192380355487 
773	 0,115413374695082 
774	 0,115367784641307 
775	 0,115525455045342 
776	 0,115638295474533 
777	 0,115606928842129 
778	 0,115661745633286 
779	 0,115704195931386 
780	 0,115545198069389 
781	 0,115775823899848 
782	 0,116324008346899 
783	 0,116392368888258 
784	 0,116221087878961 
785	 0,116000434893107 
786	 0,115896738529697 
787	 0,11587971186407 
788	 0,115808193819097 
789	 0,116129507254865 
790	 0,116713021382357 
791	 0,116470682472485 
792	 0,116176651089389 
793	 0,116432861715459 
794	 0,11647892775934 
795	 0,116362835786341 
796	 0,116454775730033 
797	 0,116531339219063 
798	 0,116505708317333 
799	 0,116316122847402 
800	 0,11616109686348 
801	 0,116217339429222 
802	 0,116178529826161 
803	 0,116192199988526 
804	 0,116863023900608 
805	 0,117107281519352 
806	 0,116713782171991 
807	 0,116954426916856 
808	 0,11742294849452 
809	 0,117582291692015 
810	 0,117405082999385 
811	 0,117092207917626 
812	 0,117203107744741 
813	 0,11744822232786 
814	 0,117708998789318 
815	 0,118037132748616 
816	 0,118305897508526 
817	 0,11837742751914 
818	 0,11859789958016 
819	 0,118914628387111 
820	 0,118945776956624 
821	 0,118835849321309 
822	 0,118722092102156 
823	 0,119020542120911 
824	 0,119312788599789 
825	 0,119025507706606 
826	 0,119137943316196 
827	 0,119629906211608 
828	 0,119678922682627 
829	 0,119614650020211 
830	 0,119631738578943 
831	 0,119883303414334 
832	 0,120108958102628 
833	 0,119938553394943 
834	 0,11999502838349 
835	 0,120244604063271 
836	 0,119984660929712 
837	 0,119995133013557 
838	 0,120600383138598 
839	 0,120895513186236 
840	 0,120955870192137 
841	 0,121040957320681 
842	 0,12089838084375 
843	 0,120671479090787 
844	 0,120975465545325 
845	 0,121423843304914 
846	 0,121671405915538 
847	 0,120961875266274 
848	 0,120082928227057 
849	 0,12023297292135 
850	 0,120711720851517 
851	 0,121111910897475 
852	 0,120675423567891 
853	 0,120527753730728 
854	 0,121126534010021 
855	 0,12101352226323 
856	 0,12071694900561 
857	 0,121162975780092 
858	 0,120960108797271 
859	 0,120314088548516 
860	 0,121032057515366 
861	 0,12149102802912 
862	 0,121046804850022 
863	 0,121426922393502 
864	 0,122036475537173 
865	 0,121896523218552 
866	 0,122478543674139 
867	 0,123376183009798 
868	 0,122265101560653 
869	 0,121418433584281 
870	 0,121813917317577 
871	 0,122089995648162 
872	 0,122274383449614 
873	 0,122531512708022 
874	 0,122237989875754 
875	 0,121726850765483 
876	 0,122266982556913 
877	 0,123140959545484 
878	 0,123930786416141 
879	 0,124222284627728 
880	 0,124201866146034 
881	 0,124109171921281 
882	 0,123583791147039 
883	 0,122953867966302 
884	 0,123169926292517 
885	 0,123531442213444 
886	 0,123912249633729 
887	 0,125184705634964 
888	 0,125798537919246 
889	 0,124496073795921 
890	 0,12469518312878 
891	 0,125879914414479 
892	 0,12551286953937 
893	 0,125129577610548 
894	 0,125138330012831 
895	 0,125173670749847 
896	 0,125105696789489 
897	 0,124856679688868 
898	 0,124573933309288 
899	 0,124588214908071 
900	 0,125446655295072 
901	 0,125759241319245 
902	 0,125439493687473 
903	 0,125839800165943 
904	 0,12626288651883 
905	 0,126284127124214 
906	 0,126293629043257 
907	 0,126108564788352 
908	 0,125421450207718 
909	 0,125821950235035 
910	 0,126976108385211 
911	 0,126575084433447 
912	 0,126019225765962 
913	 0,125927557878156 
914	 0,125772600910331 
915	 0,125660090083798 
916	 0,125761088015299 
917	 0,126537323710731 
918	 0,127400735817989 
919	 0,126595361697621 
920	 0,126369749545085 
921	 0,127102506880055 
922	 0,126579453391956 
923	 0,125744923424716 
924	 0,125455295117936 
925	 0,125194862182054 
926	 0,12495013320788 
927	 0,124819744143335 
928	 0,12464834464886 
929	 0,124539608916769 
930	 0,1250156129815 
931	 0,125679726464105 
932	 0,126043459927893 
933	 0,124572835521469 
934	 0,123067806506012 
935	 0,123947876309816 
936	 0,124458425969778 
937	 0,124113618087119 
938	 0,123336750508606 
939	 0,122803854949352 
940	 0,122701077680118 
941	 0,122186439493994 
942	 0,12196885898778 
943	 0,122588203936617 
944	 0,122626767502234 
945	 0,121954006579215 
946	 0,120753150103289 
947	 0,120565889202153 
948	 0,121316157346118 
949	 0,120873395074 
950	 0,12026381216287 
951	 0,120089265641188 
952	 0,120185407490654 
953	 0,12027171665572 
954	 0,12000743985175 
955	 0,118994894712013 
956	 0,11757391287703 
957	 0,116726795621307 
958	 0,116334013096375 
959	 0,116299218847023 
960	 0,116190182148546 
961	 0,116275854957947 
962	 0,116628137393263 
963	 0,116114206666759 
964	 0,11491618239832 
965	 0,113563353176972 
966	 0,113723055374156 
967	 0,115156437885478 
968	 0,115847286107487 
969	 0,115470502941942 
970	 0,1143180622982 
971	 0,115104589840965 
972	 0,115929378782444 
973	 0,115003144791167 
974	 0,113961979295046 
975	 0,11363163182519 
976	 0,114981717384876 
977	 0,114905070767783 
978	 0,113247012683456 
979	 0,112698442564661 
980	 0,112465140871003 
981	 0,112338074148368 
982	 0,113188159348381 
983	 0,114452923366405 
984	 0,115377377489861 
985	 0,114560340849675 
986	 0,113470194140979 
987	 0,115355213537771 
988	 0,118001583434459 
989	 0,119837950288094 
990	 0,117808940143622 
991	 0,116464888754426 
992	 0,117859754124892 
993	 0,118259021914975 
994	 0,117757790376941 
995	 0,116923205240116 
996	 0,117752756816029 
997	 0,118950747952071 
998	 0,117157588786429 
999	 0,118462044089692 
1000	 0,122334761579738 
1001	 0,120420148293283 
1002	 0,118909386194974 
1003	 0,120404771732142 
1004	 0,120547873248101 
1005	 0,119656458451233 
1006	 0,118580799092414 
1007	 0,119724536904709 
1008	 0,122185504281574 
1009	 0,123608321227595 
1010	 0,124112247223996 
1011	 0,123696785178044 
1012	 0,122297504710413 
1013	 0,122083513490915 
1014	 0,123633098026009 
1015	 0,124639540615932 
1016	 0,12343792505781 
1017	 0,119653331657785 
1018	 0,12160166329409 
1019	 0,125655938405452 
1020	 0,124726849630057 
1021	 0,126719443714128 
1022	 0,131365996886745 
1023	 0,133205237144866 
1024	 0,131779956269338 
1025	 0,128052409420597 
1026	 0,127831470213276 
1027	 0,127321392848247 
1028	 0,124642951124782 
1029	 0,125237353303175 
1030	 0,127881794316979 
1031	 0,130266189801077 
1032	 0,129638698155887 
1033	 0,127913350420894 
1034	 0,130143923207635 
1035	 0,131062934602355 
1036	 0,130844854336744 
1037	 0,136467919677126 
1038	 0,13580373264791 
1039	 0,126646522427431 
1040	 0,128218430492531 
1041	 0,133028251280028 
1042	 0,134246079255832 
1043	 0,136988066862835 
1044	 0,136738152496229 
1045	 0,127556515237666 
1046	 0,129618240635751 
1047	 0,138971618523882 
1048	 0,135044218448544 
1049	 0,137507752127044 
1050	 0,145954185965707 
1051	 0,134433986102713 
1052	 0,130950430962305 
1053	 0,145907340801297 
1054	 0,153673334950183 
1055	 0,154779328910457 
1056	 0,15075993468037 
1057	 0,140176555727013 
1058	 0,129670724034216 
1059	 0,127972135620003 
1060	 0,134989831479448 
1061	 0,143334968742643 
1062	 0,136537539598237 
1063	 0,136883793930249 
1064	 0,146002289027176 
1065	 0,144016443114175 
1066	 0,140389135621973 
1067	 0,139527412080911 
1068	 0,14291384133454 
1069	 0,137022324973935 
1070	 0,1178508098432 
1071	 0,132375986800406 
1072	 0,154485569842783 
1073	 0,147426612267433 
1074	 0,132918119793603 
1075	 0,120627978489177 
