Wavelength	ABBE00084.asd
325	-0,060758922910003 
326	-6,44572446225339E-02 
327	 1,42430063480352E-02 
328	 0,106401905363138 
329	 9,05356472090752E-02 
330	 2,98159898665385E-02 
331	 6,7553430837267E-03 
332	-2,15736757572578E-02 
333	-2,99334210539285E-02 
334	 3,48585893970138E-02 
335	 0,109384218768438 
336	 0,146981095230568 
337	 1,28685225962766E-02 
338	-0,103202183383906 
339	-4,83002521090783E-02 
340	 0,037147941426601 
341	 6,96476272328169E-02 
342	-4,44540182179152E-04 
343	-1,20507346160163E-02 
344	 4,92038528160491E-02 
345	 0,025527158930035 
346	-2,00630335350131E-02 
347	-2,02757367775256E-02 
348	-0,015656992515381 
349	-8,17517321113221E-03 
350	 1,77374708947531E-02 
351	 3,30583828850752E-02 
352	 2,68807085705682E-02 
353	 4,21389404949318E-03 
354	-0,01126027633318 
355	 8,99372572995518E-03 
356	-1,04440880532348E-03 
357	-2,72291783445843E-02 
358	 9,11949500861641E-03 
359	 2,83428798397142E-02 
360	 3,06088138991559E-03 
361	 1,31735822465012E-02 
362	 4,02198123733473E-02 
363	 0,047701388321022 
364	 3,54742286769566E-02 
365	 1,32015774864741E-02 
366	 1,73095290415132E-02 
367	 2,21817439325104E-02 
368	 1,32729382180203E-02 
369	 6,89549806984777E-03 
370	 4,03358739128969E-03 
371	 3,65996140149936E-03 
372	 4,75295057039843E-03 
373	 5,89826367681703E-03 
374	-4,39814493895423E-05 
375	 1,03758086669839E-02 
376	 4,90871585938904E-02 
377	 5,54178226782564E-02 
378	 0,038898793174335 
379	 3,90748671889673E-02 
380	 3,44255459471043E-02 
381	 2,24386920581343E-02 
382	 2,46560644513077E-02 
383	 2,36412328531429E-02 
384	 4,17224749668945E-03 
385	 6,03895294461003E-03 
386	 2,34230718734956E-02 
387	 2,17135276695179E-02 
388	 1,93803979758779E-02 
389	 2,05089752757169E-02 
390	 5,02161266425293E-03 
391	-1,20691079410151E-03 
392	 3,27259841354522E-02 
393	 3,29910799138997E-02 
394	 5,2269766075653E-03 
395	 1,19062656797523E-02 
396	 0,028457312192094 
397	 3,94989620511326E-02 
398	 3,56671137616217E-02 
399	 2,32477351422363E-02 
400	 1,25966348963524E-02 
401	 6,37138739564498E-03 
402	 5,82298593979694E-03 
403	 1,10066685199993E-02 
404	 1,40088038442409E-02 
405	 1,03696264572572E-02 
406	 1,05382773079735E-02 
407	 1,30005470942237E-02 
408	 1,13228489651507E-02 
409	 1,18452549458986E-02 
410	 1,53513923520405E-02 
411	 1,67026859628729E-02 
412	 1,67010118273663E-02 
413	 1,64287613756829E-02 
414	 1,58528466376854E-02 
415	 1,49356260440653E-02 
416	 1,24714101229555E-02 
417	 1,54109228463186E-02 
418	 2,33457848644312E-02 
419	 1,60127409310464E-02 
420	 6,70267083790282E-03 
421	 0,014181990566013 
422	 1,76475658855631E-02 
423	 0,015043110063671 
424	 1,54272392549776E-02 
425	 1,82062787043329E-02 
426	 2,20469707137376E-02 
427	 1,92218184343561E-02 
428	 1,45240215643991E-02 
429	 1,82907367749471E-02 
430	 2,20730158165907E-02 
431	 2,31535328992221E-02 
432	 2,17984475525828E-02 
433	 1,91859725201635E-02 
434	 1,64791830317338E-02 
435	 1,51918915503382E-02 
436	 0,016019357341384 
437	 0,020715179241574 
438	 2,09081872539208E-02 
439	 1,48474815566991E-02 
440	 0,014213450282626 
441	 1,73118607588056E-02 
442	 0,020657156365461 
443	 2,10137100256254E-02 
444	 1,89249817154283E-02 
445	 1,94445760148802E-02 
446	 0,02078015202132 
447	 2,15890730520515E-02 
448	 2,01802333351682E-02 
449	 1,78176976397992E-02 
450	 1,71780027911083E-02 
451	 0,016523810168726 
452	 0,015861926604968 
453	 1,77307756651724E-02 
454	 1,86737064204494E-02 
455	 1,57276348362546E-02 
456	 1,43991230385969E-02 
457	 1,53204167160017E-02 
458	 1,68055264885016E-02 
459	 2,02100474357616E-02 
460	 2,46102999164804E-02 
461	 2,21339492002267E-02 
462	 1,72074438757225E-02 
463	 1,66212074979889E-02 
464	 1,75331040345857E-02 
465	 1,83351003957085E-02 
466	 0,01539717236312 
467	 0,014149476748495 
468	 1,75715058353167E-02 
469	 1,79367878768815E-02 
470	 0,016440169409088 
471	 1,79281389939619E-02 
472	 1,79941645101412E-02 
473	 1,61821182893928E-02 
474	 1,72101826289384E-02 
475	 1,77626987429401E-02 
476	 1,46713438952196E-02 
477	 1,63335698933294E-02 
478	 2,11956380440369E-02 
479	 2,04987011796576E-02 
480	 1,93469331593955E-02 
481	 1,96519242020448E-02 
482	 1,74270726023679E-02 
483	 1,50451404299743E-02 
484	 1,65435168041778E-02 
485	 1,75598657021135E-02 
486	 1,70619205706637E-02 
487	 1,59155342002635E-02 
488	 1,48733932860952E-02 
489	 1,46633791577829E-02 
490	 1,66765512357269E-02 
491	 1,94452907461275E-02 
492	 1,94320006091487E-02 
493	 1,88870797037827E-02 
494	 1,85721920341785E-02 
495	 1,83559515196982E-02 
496	 1,78604378547937E-02 
497	 1,66728127363357E-02 
498	 1,54609092682826E-02 
499	 1,46830853138432E-02 
500	 1,50728970826882E-02 
501	 1,58164820724816E-02 
502	 1,64007160194207E-02 
503	 1,69578965061934E-02 
504	 0,017275280315857 
505	 1,69626063871281E-02 
506	 1,69219504711289E-02 
507	 1,72323762992297E-02 
508	 1,68818066144893E-02 
509	 1,65895741829976E-02 
510	 1,69746830778302E-02 
511	 1,64527448027035E-02 
512	 1,58488638006749E-02 
513	 1,83339593462899E-02 
514	 1,95354768939102E-02 
515	 1,79973666196976E-02 
516	 1,75802897563145E-02 
517	 1,81293376866991E-02 
518	 0,018904437150484 
519	 1,82226191150296E-02 
520	 1,65258427497843E-02 
521	 1,72529479138933E-02 
522	 1,76947797406481E-02 
523	 1,61531119640001E-02 
524	 1,69149429985179E-02 
525	 1,89621648189879E-02 
526	 1,85059461377295E-02 
527	 1,83178036466109E-02 
528	 1,88873973913224E-02 
529	 1,76857330756759E-02 
530	 1,62358535765004E-02 
531	 1,64371248909478E-02 
532	 1,68854391409859E-02 
533	 1,70969211808496E-02 
534	 1,65506551392548E-02 
535	 1,63467662086412E-02 
536	 1,70520188817443E-02 
537	 1,75142264868391E-02 
538	 1,77476896231347E-02 
539	 1,81597430597231E-02 
540	 1,79364310992776E-02 
541	 1,70731253823825E-02 
542	 1,67261297255206E-02 
543	 1,65616870119588E-02 
544	 1,62355697142943E-02 
545	 1,69403861018289E-02 
546	 1,80178620081367E-02 
547	 1,69864819113949E-02 
548	 1,61448198019814E-02 
549	 1,65389414597833E-02 
550	 1,68999491597675E-02 
551	 1,71766897523139E-02 
552	 1,75331627528219E-02 
553	 1,75436880641542E-02 
554	 0,01727790887939 
555	 1,76219666919534E-02 
556	 1,75839955646899E-02 
557	 1,64570143869507E-02 
558	 1,63194287556778E-02 
559	 1,69303768032258E-02 
560	 1,67104607409706E-02 
561	 1,64442360160919E-02 
562	 1,64443006989753E-02 
563	 0,016854791388134 
564	 1,69775019877711E-02 
565	 1,58836374681802E-02 
566	 1,60809384631066E-02 
567	 1,73997853649611E-02 
568	 1,67674570462339E-02 
569	 1,63283644812061E-02 
570	 1,74118513784433E-02 
571	 0,017494263710139 
572	 1,68115624536501E-02 
573	 1,66969636769255E-02 
574	 1,67505528708097E-02 
575	 1,69256804111236E-02 
576	 0,017348486343661 
577	 1,82415113781525E-02 
578	 1,97949982897121E-02 
579	 1,98903239406752E-02 
580	 1,88142233913418E-02 
581	 1,90718226603229E-02 
582	 1,95530512412824E-02 
583	 1,96135291316111E-02 
584	 1,92183096469013E-02 
585	 1,89968289465813E-02 
586	 2,01399117365028E-02 
587	 0,020469243331459 
588	 1,96977175027586E-02 
589	 1,97672918338133E-02 
590	 2,01978948661968E-02 
591	 2,04547463889082E-02 
592	 2,06158570909428E-02 
593	 2,05640711843664E-02 
594	 1,98853727221357E-02 
595	 1,96624228567698E-02 
596	 2,02835588677464E-02 
597	 2,05365494569851E-02 
598	 2,04736851338403E-02 
599	 2,03872522140839E-02 
600	 2,01594958255003E-02 
601	 1,99165669169905E-02 
602	 2,02200916773756E-02 
603	 2,03881640092691E-02 
604	 1,99309371288623E-02 
605	 0,019824732357372 
606	 1,99910972015062E-02 
607	 1,98354174007905E-02 
608	 1,95814985194677E-02 
609	 1,93493481075805E-02 
610	 1,94113942564382E-02 
611	 1,94149348498088E-02 
612	 1,89065505266583E-02 
613	 1,84772044121546E-02 
614	 1,84061372275021E-02 
615	 1,91727629528461E-02 
616	 1,95061485291238E-02 
617	 1,87166359493878E-02 
618	 1,85284857524371E-02 
619	 1,88037233801256E-02 
620	 1,87573812034135E-02 
621	 1,87480875553924E-02 
622	 1,87569253100383E-02 
623	 1,81292949139988E-02 
624	 1,78456931285555E-02 
625	 1,88713642114533E-02 
626	 1,90032645214384E-02 
627	 1,84024854296999E-02 
628	 1,90290267451416E-02 
629	 1,95199123875266E-02 
630	 1,92740943509167E-02 
631	 1,92727805575424E-02 
632	 1,95295737595587E-02 
633	 1,98942532465138E-02 
634	 1,99751378386528E-02 
635	 1,97818046783259E-02 
636	 1,99112831055085E-02 
637	 2,00850259877209E-02 
638	 2,01069971156557E-02 
639	 2,09023450208975E-02 
640	 2,19511353418632E-02 
641	 2,15379202794168E-02 
642	 2,11978717544707E-02 
643	 2,14055324129006E-02 
644	 0,020906558291483 
645	 2,05570276332052E-02 
646	 2,15844567107032E-02 
647	 2,19603729369179E-02 
648	 2,15295830888859E-02 
649	 2,16674031515065E-02 
650	 2,19826982676679E-02 
651	 2,21674798486133E-02 
652	 2,20324682145989E-02 
653	 2,13821966569355E-02 
654	 1,97236902768193E-02 
655	 1,91718453679151E-02 
656	 2,01656851474449E-02 
657	 2,09560279350409E-02 
658	 2,09593609761667E-02 
659	 1,97685578573492E-02 
660	 1,93114063142505E-02 
661	 1,95265992942099E-02 
662	 1,88488563708233E-02 
663	 1,83148968129724E-02 
664	 1,83374593450223E-02 
665	 1,79815243129196E-02 
666	 1,74131524945323E-02 
667	 1,70324876685102E-02 
668	 1,70714580642859E-02 
669	 1,74679733329141E-02 
670	 1,76620000128212E-02 
671	 1,78323730451561E-02 
672	 1,81012576846586E-02 
673	 1,80576654576642E-02 
674	 1,77767283039444E-02 
675	 0,017571554874075 
676	 1,75008266641385E-02 
677	 1,75426446481993E-02 
678	 1,72523955215637E-02 
679	 1,72110478129334E-02 
680	 1,81202943554172E-02 
681	 1,83650787768694E-02 
682	 1,79502514703894E-02 
683	 1,82441861496205E-02 
684	 1,84213691251988E-02 
685	 1,80909056545588E-02 
686	 1,81338135220827E-02 
687	 1,85903601442889E-02 
688	 0,019319577068627 
689	 2,00662345789972E-02 
690	 0,020737363296099 
691	 2,13789852467452E-02 
692	 2,21782366769057E-02 
693	 2,33069451092874E-02 
694	 2,47083575848304E-02 
695	 2,64718100159351E-02 
696	 2,88614938137955E-02 
697	 3,13912107972274E-02 
698	 3,38941997365469E-02 
699	 3,66659958948225E-02 
700	 3,99752769727626E-02 
701	 4,41171569646404E-02 
702	 4,83591699598009E-02 
703	 5,24901916210097E-02 
704	 5,66604884994611E-02 
705	 6,06744165928029E-02 
706	 0,064519544569116 
707	 6,92418606280073E-02 
708	 7,42429822446869E-02 
709	 0,078159193079178 
710	 8,20943051021999E-02 
711	 0,086308183761244 
712	 9,04665758726562E-02 
713	 9,42525328669436E-02 
714	 0,09741767870398 
715	 0,100646694529561 
716	 0,103875887219403 
717	 0,106571165255514 
718	 0,109118440327146 
719	 0,111629110689701 
720	 0,113765325921289 
721	 0,11579151131209 
722	 0,118063558630155 
723	 0,119927468104175 
724	 0,12138176387429 
725	 0,122929944961054 
726	 0,124486608249399 
727	 0,125946541143748 
728	 0,126834165922995 
729	 0,12746040566585 
730	 0,128475955992598 
731	 0,129576068875092 
732	 0,130576122378482 
733	 0,131068662026057 
734	 0,131545405001187 
735	 0,13240733329303 
736	 0,132922138385226 
737	 0,133183735337352 
738	 0,13375266950631 
739	 0,134291156676364 
740	 0,134702505088417 
741	 0,13518134855767 
742	 0,135542778311302 
743	 0,135571178343984 
744	 0,135753171427102 
745	 0,136114978302552 
746	 0,136341123914327 
747	 0,136626421367228 
748	 0,137021142149227 
749	 0,137140766970869 
750	 0,137137614147133 
751	 0,137309866864001 
752	 0,137559271130139 
753	 0,137786023540752 
754	 0,137701067893682 
755	 0,13763926545491 
756	 0,137841080089571 
757	 0,138082312233893 
758	 0,138338438365816 
759	 0,138662375288998 
760	 0,138765433671707 
761	 0,13861650741129 
762	 0,138533026439022 
763	 0,138619968381618 
764	 0,138934592659726 
765	 0,139055484978799 
766	 0,139044226253883 
767	 0,139301495340273 
768	 0,139547094134128 
769	 0,139638261843068 
770	 0,139416551061155 
771	 0,139253648027248 
772	 0,139583048549883 
773	 0,139754218866075 
774	 0,139742750344581 
775	 0,139986972473764 
776	 0,140110757898195 
777	 0,139981496776957 
778	 0,140133195274907 
779	 0,140328898584415 
780	 0,140133239444338 
781	 0,140204484646893 
782	 0,140541912622374 
783	 0,140529729951173 
784	 0,140276486739972 
785	 0,139950029172885 
786	 0,140349475618006 
787	 0,140892204251392 
788	 0,140317175175599 
789	 0,140122390773263 
790	 0,140555979835356 
791	 0,140709728401271 
792	 0,140459594230483 
793	 0,139813493836624 
794	 0,139746321494696 
795	 0,14012789471377 
796	 0,14034921220842 
797	 0,140186562002149 
798	 0,139719906484793 
799	 0,139892643208695 
800	 0,139992277918828 
801	 0,139385616562412 
802	 0,139452436818114 
803	 0,140043483806301 
804	 0,140103665150911 
805	 0,140227947228122 
806	 0,14053857191579 
807	 0,140567323634466 
808	 0,140686926732775 
809	 0,141261252144327 
810	 0,140714387896105 
811	 0,139577043109415 
812	 0,14023365814371 
813	 0,140922162321522 
814	 0,140959030200315 
815	 0,140994592495953 
816	 0,141201029914338 
817	 0,141706403605681 
818	 0,141916420496329 
819	 0,141820624952467 
820	 0,14178783847891 
821	 0,141976629115704 
822	 0,142438049559819 
823	 0,142941595920214 
824	 0,143091163565398 
825	 0,14244886401665 
826	 0,142253235545693 
827	 0,14269384485354 
828	 0,143351633516398 
829	 0,143709329797732 
830	 0,143549069334983 
831	 0,143573360371156 
832	 0,143796804250173 
833	 0,144123031170315 
834	 0,144264594414307 
835	 0,14417533154401 
836	 0,143919442572446 
837	 0,144015272020866 
838	 0,144660672272315 
839	 0,145096069281659 
840	 0,145163944946423 
841	 0,144793179842181 
842	 0,14428958597357 
843	 0,144034244343655 
844	 0,144938639640781 
845	 0,145649142109758 
846	 0,145431943125532 
847	 0,144964562119197 
848	 0,144571492407514 
849	 0,144582842380629 
850	 0,144599630275936 
851	 0,144594710412145 
852	 0,144855118972227 
853	 0,145031340176437 
854	 0,14496221615477 
855	 0,144978312580513 
856	 0,145059711970011 
857	 0,145129015955594 
858	 0,144559458353005 
859	 0,143748381851201 
860	 0,144493420977528 
861	 0,144986497660469 
862	 0,144525075017162 
863	 0,145223973975069 
864	 0,146072340688084 
865	 0,145527607803512 
866	 0,146090163514509 
867	 0,147301320779987 
868	 0,145841309283152 
869	 0,144870833953839 
870	 0,145730111981308 
871	 0,146517678308064 
872	 0,146991241249309 
873	 0,14708557578227 
874	 0,147024029374012 
875	 0,146992889466723 
876	 0,14729114484281 
877	 0,147746106400552 
878	 0,148236168246054 
879	 0,148640786690676 
880	 0,148676942146533 
881	 0,148096947602192 
882	 0,147478697688593 
883	 0,147226315934011 
884	 0,148058221659002 
885	 0,148611190276742 
886	 0,148566326584502 
887	 0,149340541367349 
888	 0,149690409468785 
889	 0,148575441201855 
890	 0,148806315383292 
891	 0,149950682366726 
892	 0,149911993213966 
893	 0,149916031651578 
894	 0,150232398788723 
895	 0,150451612697426 
896	 0,150253023729186 
897	 0,149489924607306 
898	 0,149026272372241 
899	 0,149165302488107 
900	 0,150170565327268 
901	 0,150777900835298 
902	 0,150824675794629 
903	 0,151485024449341 
904	 0,151304193739483 
905	 0,149799606587577 
906	 0,150542746508634 
907	 0,151820990018989 
908	 0,150635091407603 
909	 0,150472086682037 
910	 0,151464752777839 
911	 0,151318620265882 
912	 0,150896384927139 
913	 0,150567560779278 
914	 0,150063788985251 
915	 0,149782196234592 
916	 0,150142468273983 
917	 0,150705834459829 
918	 0,151008973855015 
919	 0,150045489976462 
920	 0,14992806401356 
921	 0,15101527626292 
922	 0,151204308919591 
923	 0,15071907987254 
924	 0,149860549046609 
925	 0,148802201057203 
926	 0,147931077415664 
927	 0,14782005045858 
928	 0,147668265360239 
929	 0,14746923342725 
930	 0,148096278871898 
931	 0,148957764688494 
932	 0,149428132376071 
933	 0,148042205507126 
934	 0,146112779051134 
935	 0,14552003685488 
936	 0,145789276794523 
937	 0,146360734431129 
938	 0,145910507445261 
939	 0,145707372989321 
940	 0,1459347846025 
941	 0,145034774277613 
942	 0,143831954948066 
943	 0,143100724517863 
944	 0,142185620234837 
945	 0,141050121966267 
946	 0,139780640966714 
947	 0,13894363568329 
948	 0,138606101117014 
949	 0,138404088319772 
950	 0,137732787132023 
951	 0,136360670507499 
952	 0,135265877340356 
953	 0,134469519577585 
954	 0,133817222505741 
955	 0,132129006851101 
956	 0,130069768435957 
957	 0,129981677615409 
958	 0,129769607938884 
959	 0,129051712543537 
960	 0,129730172322975 
961	 0,129763636715147 
962	 0,127916696369851 
963	 0,128014482290225 
964	 0,128502095894104 
965	 0,12624497927308 
966	 0,125612613106203 
967	 0,126813119986179 
968	 0,127060704007547 
969	 0,126636297422856 
970	 0,125754585199253 
971	 0,125172039793892 
972	 0,125421751908535 
973	 0,126706531824664 
974	 0,126392364239909 
975	 0,125906045924657 
976	 0,128669113509327 
977	 0,128577949705337 
978	 0,125260987644927 
979	 0,123224493323696 
980	 0,123381633677134 
981	 0,12578192716471 
982	 0,127314613498898 
983	 0,127880132923343 
984	 0,12774452044499 
985	 0,127607965148313 
986	 0,127685782623875 
987	 0,127953234486286 
988	 0,130000820352163 
989	 0,132937183209673 
990	 0,13219149977684 
991	 0,130696838449956 
992	 0,130113430970906 
993	 0,130002457710388 
994	 0,130027651060751 
995	 0,129971410923652 
996	 0,131821175401628 
997	 0,133817378411404 
998	 0,132018906823187 
999	 0,129857091551026 
1000	 0,128725631735609 
1001	 0,129448798478649 
1002	 0,131003382782837 
1003	 0,132535598938438 
1004	 0,132858761666423 
1005	 0,132871164961174 
1006	 0,133575966003888 
1007	 0,134564926610942 
1008	 0,136452664454848 
1009	 0,140420271556393 
1010	 0,141701684296622 
1011	 0,139863942511637 
1012	 0,137681277350144 
1013	 0,138337339028086 
1014	 0,14186871098866 
1015	 0,139931009226157 
1016	 0,137529531259178 
1017	 0,139078893457376 
1018	 0,140863624632441 
1019	 0,141765606083278 
1020	 0,141002351202704 
1021	 0,139462488465323 
1022	 0,138461386989859 
1023	 0,140568432613288 
1024	 0,14534434028441 
1025	 0,150362267901614 
1026	 0,145876516493608 
1027	 0,141587945756974 
1028	 0,143736203618271 
1029	 0,146462339267784 
1030	 0,149770568263183 
1031	 0,153881133956122 
1032	 0,152608457513015 
1033	 0,148370349640323 
1034	 0,148535013284857 
1035	 0,14618062732636 
1036	 0,142133285852143 
1037	 0,145551833470336 
1038	 0,149549789903363 
1039	 0,150528341347187 
1040	 0,147274649964604 
1041	 0,146984633286467 
1042	 0,154080610888191 
1043	 0,154027590564574 
1044	 0,150235049457037 
1045	 0,150083315965302 
1046	 0,153683039987872 
1047	 0,156016173673251 
1048	 0,144543639897652 
1049	 0,147079277257872 
1050	 0,163215760450112 
1051	 0,155095751202055 
1052	 0,153756115828541 
1053	 0,16933596480191 
1054	 0,167369125202491 
1055	 0,159065681212795 
1056	 0,156117051058359 
1057	 0,156620646851893 
1058	 0,155949485917997 
1059	 0,148380420005824 
1060	 0,148622141595455 
1061	 0,152737559536772 
1062	 0,143622871385408 
1063	 0,147627186597481 
1064	 0,164920626476443 
1065	 0,165562473101611 
1066	 0,165354853036823 
1067	 0,167655634013407 
1068	 0,152185428945699 
1069	 0,137454449309737 
1070	 0,138898412181724 
1071	 0,14375120402376 
1072	 0,15241093756827 
1073	 0,165410600685864 
1074	 0,165202364404486 
1075	 0,156217906043723 
