Wavelength	ABBE00185.asd
325	 0,41923234088123 
326	 0,396343601302279 
327	 0,419901535486661 
328	 0,458931389709891 
329	 0,298946735782436 
330	 0,198531004061097 
331	 0,369784098432543 
332	 0,296640059402265 
333	 0,100999423409571 
334	 0,155502091911935 
335	 0,243422486844974 
336	 0,296660746333888 
337	 0,258134935700529 
338	 0,207706260276991 
339	 0,212145257741302 
340	 0,312287835800096 
341	 0,404486152083188 
342	 0,335926941741912 
343	 0,254803744457218 
344	 0,206484897241328 
345	 0,211310632590716 
346	 0,260612074515496 
347	 0,339259073800868 
348	 0,340818280298834 
349	 0,288215479411246 
350	 0,280996921735138 
351	 0,298914446537021 
352	 0,327952827425033 
353	 0,330637435474235 
354	 0,310717949301526 
355	 0,28128887368832 
356	 0,291936549664782 
357	 0,329139485059716 
358	 0,333048185986541 
359	 0,32115792397738 
360	 0,304639586489441 
361	 0,304957846719976 
362	 0,314398321501154 
363	 0,318169583231117 
364	 0,330055937150671 
365	 0,343408585256109 
366	 0,323583450448909 
367	 0,306239849319364 
368	 0,311917803623406 
369	 0,318991433876423 
370	 0,326441740734048 
371	 0,336974805033596 
372	 0,342243493219048 
373	 0,340983431734675 
374	 0,337026978316667 
375	 0,341938855940167 
376	 0,361702060565981 
377	 0,371127059128483 
378	 0,36596349119152 
379	 0,341810237852486 
380	 0,338804917614753 
381	 0,36267519622438 
382	 0,366870371185182 
383	 0,358081619772808 
384	 0,346452489271526 
385	 0,345046610520564 
386	 0,353415340403495 
387	 0,365853123876324 
388	 0,358549592077443 
389	 0,331488885719512 
390	 0,336331060928711 
391	 0,353063019554059 
392	 0,353546188623428 
393	 0,349913285353055 
394	 0,348908948105315 
395	 0,364502460749058 
396	 0,372712895038235 
397	 0,363647813630514 
398	 0,365589317289903 
399	 0,3724194893878 
400	 0,370756780492396 
401	 0,364346957169429 
402	 0,358075829264098 
403	 0,365914757744261 
404	 0,372693984170312 
405	 0,369044890754401 
406	 0,36894239301228 
407	 0,370374847784268 
408	 0,364573739151315 
409	 0,363827772738408 
410	 0,369191143011415 
411	 0,368125771855556 
412	 0,364694013016332 
413	 0,363385462030404 
414	 0,366711126426965 
415	 0,371485402452257 
416	 0,368163654954327 
417	 0,366097716574172 
418	 0,367994111264041 
419	 0,365528501882437 
420	 0,362979757862391 
421	 0,366602848005951 
422	 0,365558425426271 
423	 0,361250526874693 
424	 0,366539840883638 
425	 0,37131530106055 
426	 0,36960347452868 
427	 0,367512382249811 
428	 0,366728537848558 
429	 0,368696739265354 
430	 0,371921638406246 
431	 0,374562716484306 
432	 0,371258172273697 
433	 0,368574419120904 
434	 0,372043059694339 
435	 0,373431626555921 
436	 0,37320066114126 
437	 0,377218628256907 
438	 0,377869904237611 
439	 0,373345761925312 
440	 0,372083005480242 
441	 0,37314769205837 
442	 0,374353675073611 
443	 0,3763149450143 
444	 0,37849858713846 
445	 0,379494982046981 
446	 0,378689565680626 
447	 0,376172730376526 
448	 0,375790824427498 
449	 0,377463271541263 
450	 0,380172212435662 
451	 0,380684475600917 
452	 0,379185994819668 
453	 0,382455132845421 
454	 0,384728083342132 
455	 0,380929734684586 
456	 0,379951567922509 
457	 0,38235002276362 
458	 0,384853617657539 
459	 0,387183869486917 
460	 0,388708869840661 
461	 0,388058722618593 
462	 0,386685991214931 
463	 0,386654842583797 
464	 0,385955393477801 
465	 0,384853648730088 
466	 0,385917817405525 
467	 0,387104425765296 
468	 0,387000353142057 
469	 0,385556485315985 
470	 0,384855401024944 
471	 0,38929616008821 
472	 0,391242729689597 
473	 0,389295038950188 
474	 0,389552871673643 
475	 0,391098956216159 
476	 0,392583212258704 
477	 0,391498107910395 
478	 0,388813189134655 
479	 0,388480043089473 
480	 0,388775909093203 
481	 0,388872304312547 
482	 0,388518143660936 
483	 0,388412737977939 
484	 0,389706469321428 
485	 0,389424176959437 
486	 0,387643587152472 
487	 0,387930576985361 
488	 0,387887730556035 
489	 0,385999806551726 
490	 0,386917127133433 
491	 0,389522875447339 
492	 0,389722242491926 
493	 0,389965199455233 
494	 0,3904478217345 
495	 0,387880612186451 
496	 0,385336142119255 
497	 0,386416788172365 
498	 0,387178436693753 
499	 0,387262451597966 
500	 0,38847712475184 
501	 0,389881550068221 
502	 0,390949907167218 
503	 0,392055716801754 
504	 0,393087014535588 
505	 0,393875191131011 
506	 0,393744186996296 
507	 0,392993676647734 
508	 0,393783944276123 
509	 0,394455566034758 
510	 0,393642586236947 
511	 0,39571456888819 
512	 0,399441206410427 
513	 0,399720735729085 
514	 0,399166143071484 
515	 0,399004542097563 
516	 0,399416865726497 
517	 0,400601117335145 
518	 0,402838257748412 
519	 0,402984153605495 
520	 0,401349879936913 
521	 0,402312094093926 
522	 0,403330972041491 
523	 0,402639252497696 
524	 0,402465139963 
525	 0,402560638886605 
526	 0,401400493816874 
527	 0,401186364627539 
528	 0,402188064840146 
529	 0,401475503965015 
530	 0,400283458246372 
531	 0,400254212537458 
532	 0,40076202123691 
533	 0,401457561666274 
534	 0,40172859037987 
535	 0,401908473044049 
536	 0,4020994393055 
537	 0,401349640452631 
538	 0,400591818804087 
539	 0,401737847569514 
540	 0,402968896768562 
541	 0,403536797481528 
542	 0,402992609112591 
543	 0,402325478981057 
544	 0,402492953625467 
545	 0,402636681736855 
546	 0,402744394263346 
547	 0,403307992485567 
548	 0,403732609005026 
549	 0,403755845528171 
550	 0,40371541831466 
551	 0,404046130449008 
552	 0,405392397904643 
553	 0,405988303681479 
554	 0,405544347150032 
555	 0,405258965568847 
556	 0,404865753305679 
557	 0,40414024021655 
558	 0,403342359811818 
559	 0,402684854563313 
560	 0,402550623852819 
561	 0,402419400666435 
562	 0,40208183059855 
563	 0,401641949533062 
564	 0,401486082600289 
565	 0,402100575951017 
566	 0,402353716596557 
567	 0,402100767819893 
568	 0,401843649987021 
569	 0,402194436793771 
570	 0,403528371038883 
571	 0,404975416874561 
572	 0,406307704722304 
573	 0,407376598067022 
574	 0,408599668898429 
575	 0,410185064480711 
576	 0,412302495572732 
577	 0,414441018962047 
578	 0,41604255712059 
579	 0,418068179042662 
580	 0,420271075969606 
581	 0,421270252761753 
582	 0,421918762860734 
583	 0,422739579334907 
584	 0,423616564730284 
585	 0,424715775386445 
586	 0,426344912966223 
587	 0,427747715627753 
588	 0,428637897299129 
589	 0,428913083184143 
590	 0,429407502842703 
591	 0,430831448316324 
592	 0,431692550139335 
593	 0,432005621981792 
594	 0,432686029479086 
595	 0,433221350729725 
596	 0,433424039406468 
597	 0,43360368961736 
598	 0,433885026535824 
599	 0,434414069074154 
600	 0,434550253168556 
601	 0,434228588409684 
602	 0,434052995614474 
603	 0,43364581254372 
604	 0,432715445340533 
605	 0,431474187309763 
606	 0,43026957636945 
607	 0,429771325891437 
608	 0,429444744991299 
609	 0,429080825378966 
610	 0,428853194482987 
611	 0,428263992944783 
612	 0,426716994093065 
613	 0,425613525121375 
614	 0,425158581513656 
615	 0,424745908658354 
616	 0,424255619779221 
617	 0,423604693951046 
618	 0,422803179334443 
619	 0,422290428973015 
620	 0,422965591687901 
621	 0,42330421577318 
622	 0,422913358856744 
623	 0,422616108413574 
624	 0,422692321021566 
625	 0,42333651128709 
626	 0,423293435717375 
627	 0,422935265628753 
628	 0,424244406940113 
629	 0,425297197692558 
630	 0,425210497901245 
631	 0,425343224068526 
632	 0,425908921901992 
633	 0,42699021805659 
634	 0,42786688433901 
635	 0,428438663845399 
636	 0,429345848722359 
637	 0,430258569362933 
638	 0,43090867752162 
639	 0,431712181504208 
640	 0,432700015109957 
641	 0,433797242210857 
642	 0,434759251818309 
643	 0,435470988176607 
644	 0,436080573577666 
645	 0,436512355165282 
646	 0,436657165511692 
647	 0,436598845086283 
648	 0,43628155368242 
649	 0,435383848056043 
650	 0,434545166000071 
651	 0,434131472445151 
652	 0,433304559504578 
653	 0,431991080208452 
654	 0,430293246753834 
655	 0,428567800373614 
656	 0,42699600338086 
657	 0,425687374819251 
658	 0,424133798281925 
659	 0,421840745713169 
660	 0,419851205433971 
661	 0,418048770174126 
662	 0,415276947657989 
663	 0,412999377211824 
664	 0,411833741784977 
665	 0,41044099947761 
666	 0,40875352536638 
667	 0,406894273206853 
668	 0,405666870007074 
669	 0,40512579867616 
670	 0,404445234195453 
671	 0,403737979672188 
672	 0,403117283769782 
673	 0,402673598696868 
674	 0,402355209037177 
675	 0,402002382128463 
676	 0,40164130407135 
677	 0,401374410791222 
678	 0,401724708529428 
679	 0,402165062559244 
680	 0,402038759747598 
681	 0,402594887611626 
682	 0,403896707447477 
683	 0,405149093644538 
684	 0,406416664298761 
685	 0,40783917870114 
686	 0,410164803031042 
687	 0,413277313822911 
688	 0,416740200334328 
689	 0,420890065993218 
690	 0,425759023340263 
691	 0,430975914060352 
692	 0,436937976043709 
693	 0,443976782465009 
694	 0,4513555099263 
695	 0,459206919644301 
696	 0,468365029251852 
697	 0,477531932926134 
698	 0,486298109971504 
699	 0,495920270619797 
700	 0,505701234346761 
701	 0,514630391235375 
702	 0,523731234813427 
703	 0,532860316011548 
704	 0,540851180001464 
705	 0,548427667572228 
706	 0,556043844466568 
707	 0,563453952921774 
708	 0,57038481111464 
709	 0,576445050361651 
710	 0,581847781436874 
711	 0,586798397243413 
712	 0,591916646507086 
713	 0,59654795565343 
714	 0,600101530812121 
715	 0,603510889123248 
716	 0,606825914617031 
717	 0,609619824287638 
718	 0,612359831273392 
719	 0,615183838022656 
720	 0,617733276069246 
721	 0,619824745400174 
722	 0,621268793702108 
723	 0,622788853938231 
724	 0,624478854577589 
725	 0,625860851056583 
726	 0,627350062094033 
727	 0,629119595186621 
728	 0,630395266240566 
729	 0,6312236819532 
730	 0,631871039567052 
731	 0,632571185509221 
732	 0,633395879791793 
733	 0,63418098512698 
734	 0,634926560016659 
735	 0,635636796921465 
736	 0,63635058525198 
737	 0,637014265160371 
738	 0,637469493154284 
739	 0,637954806412277 
740	 0,638440981319731 
741	 0,638196431987639 
742	 0,637913821326374 
743	 0,638437609951957 
744	 0,638956366714904 
745	 0,639311895936198 
746	 0,639689186406199 
747	 0,639771314906254 
748	 0,639504054348667 
749	 0,639803369609269 
750	 0,640230675219835 
751	 0,639945963586468 
752	 0,639660304988795 
753	 0,63958731365969 
754	 0,639723253367525 
755	 0,639893248014016 
756	 0,639956856374395 
757	 0,639877718399903 
758	 0,639815527883246 
759	 0,640091705442103 
760	 0,640510278605091 
761	 0,640874412182734 
762	 0,640612555525698 
763	 0,640382828256518 
764	 0,640788083014423 
765	 0,640941878025086 
766	 0,640808140469613 
767	 0,64071854872423 
768	 0,64078278657575 
769	 0,64100562355134 
770	 0,641018548341666 
771	 0,641038783107485 
772	 0,641346677533573 
773	 0,641309893814767 
774	 0,641048097190735 
775	 0,641421405742988 
776	 0,641577273914046 
777	 0,64119157644067 
778	 0,641338152712005 
779	 0,641628857837319 
780	 0,64132383265432 
781	 0,641181105692312 
782	 0,64129964902253 
783	 0,641279704319449 
784	 0,641265744267838 
785	 0,641320091245996 
786	 0,641118777385253 
787	 0,640881311177912 
788	 0,641087968424605 
789	 0,641062567383838 
790	 0,64074348835083 
791	 0,640771456407572 
792	 0,640895863195176 
793	 0,640879517882412 
794	 0,640517104839165 
795	 0,640141180155962 
796	 0,6405629577745 
797	 0,64074931179826 
798	 0,640435440732443 
799	 0,640208215699068 
800	 0,639991417186588 
801	 0,639704353913802 
802	 0,639535182617946 
803	 0,639588423473764 
804	 0,640098911399978 
805	 0,640266580827544 
806	 0,639973294333128 
807	 0,640435240788468 
808	 0,641041329510434 
809	 0,641050382183225 
810	 0,640642536899749 
811	 0,640107833119335 
812	 0,640114658780599 
813	 0,640212023868537 
814	 0,640255411223674 
815	 0,64052096536448 
816	 0,640978418621328 
817	 0,641551322535492 
818	 0,641703618184613 
819	 0,641430366146783 
820	 0,641057654407093 
821	 0,641021419018145 
822	 0,641479292549023 
823	 0,641825326620333 
824	 0,641988966708825 
825	 0,641974711214413 
826	 0,641977684887442 
827	 0,642082269050108 
828	 0,642362226335779 
829	 0,642616169023426 
830	 0,64274398111295 
831	 0,642907006440512 
832	 0,64300511581548 
833	 0,64288505561498 
834	 0,643150231035875 
835	 0,643715080370363 
836	 0,643813790907273 
837	 0,643755166674052 
838	 0,643703708153823 
839	 0,643592852095048 
840	 0,643486582241589 
841	 0,643472328696062 
842	 0,643662408683705 
843	 0,643860583009185 
844	 0,643303853210837 
845	 0,64297865583157 
846	 0,643289519512244 
847	 0,642866478765905 
848	 0,642398897095659 
849	 0,643045254331784 
850	 0,643395923965795 
851	 0,643130304932799 
852	 0,642453348581264 
853	 0,641840959683403 
854	 0,641578936895092 
855	 0,641395195914303 
856	 0,64156737518013 
857	 0,642489112032757 
858	 0,642373299406938 
859	 0,641408412820671 
860	 0,641681868327538 
861	 0,642202983933278 
862	 0,642478016422715 
863	 0,642831371018073 
864	 0,642975952544121 
865	 0,642539732800483 
866	 0,642780310713981 
867	 0,643598235371844 
868	 0,643757887328154 
869	 0,643652506778283 
870	 0,643613894237509 
871	 0,644564480350944 
872	 0,645512616706761 
873	 0,645214707881821 
874	 0,645127085557483 
875	 0,645363929082619 
876	 0,645255882826571 
877	 0,645260745179225 
878	 0,645464046277614 
879	 0,64518961849074 
880	 0,645000232717082 
881	 0,645515179860504 
882	 0,645937045095495 
883	 0,646020461119883 
884	 0,645503946580559 
885	 0,645412781471985 
886	 0,645962027194746 
887	 0,646048696290901 
888	 0,645906103118302 
889	 0,64586193587459 
890	 0,64658721522291 
891	 0,647322691569131 
892	 0,646093305180612 
893	 0,645480366502207 
894	 0,645944386749317 
895	 0,645396420295369 
896	 0,644877634520541 
897	 0,645197323225321 
898	 0,645555862234015 
899	 0,645632944718797 
900	 0,645072035947345 
901	 0,644979335833111 
902	 0,645576874889422 
903	 0,646404035092753 
904	 0,646919359663706 
905	 0,646767954467115 
906	 0,64605195945818 
907	 0,645673763527608 
908	 0,646824405733937 
909	 0,647387011309055 
910	 0,647019471261245 
911	 0,646394014566383 
912	 0,64622179915964 
913	 0,646677780825318 
914	 0,646290092875629 
915	 0,645968699397962 
916	 0,64679843038586 
917	 0,64751563518658 
918	 0,647881594113243 
919	 0,648094682123189 
920	 0,647617639210165 
921	 0,646630594681504 
922	 0,646793838047645 
923	 0,647130851035693 
924	 0,64682906012619 
925	 0,646950757213782 
926	 0,647210216854846 
927	 0,646834919009291 
928	 0,646110075474514 
929	 0,645458183450581 
930	 0,645977667191263 
931	 0,646831957833048 
932	 0,647409025319775 
933	 0,64744165174015 
934	 0,646941405735576 
935	 0,646031255289991 
936	 0,645957990456806 
937	 0,646403942253657 
938	 0,645554406503022 
939	 0,645012211880423 
940	 0,645181319880478 
941	 0,644860263671864 
942	 0,644299346222128 
943	 0,643762037543741 
944	 0,642944837246681 
945	 0,642135859094711 
946	 0,641884785829705 
947	 0,642409517830303 
948	 0,643185023177865 
949	 0,642172851015796 
950	 0,640980623248699 
951	 0,640620727685296 
952	 0,641131856468238 
953	 0,641360312884337 
954	 0,639988461785212 
955	 0,638712349040293 
956	 0,637995184464448 
957	 0,638008930718891 
958	 0,637972466850107 
959	 0,637614790942769 
960	 0,637100445071204 
961	 0,637247915909762 
962	 0,638376657102688 
963	 0,637719775277579 
964	 0,636500270180514 
965	 0,637144389867356 
966	 0,637476761679904 
967	 0,636998480030179 
968	 0,635819523853231 
969	 0,635157163544335 
970	 0,635416438131292 
971	 0,63536603522893 
972	 0,63570226610412 
973	 0,636883231724404 
974	 0,635928162011015 
975	 0,634699189811618 
976	 0,637390543803932 
977	 0,638347936574486 
978	 0,636492216591212 
979	 0,633552234344986 
980	 0,632594948188095 
981	 0,634930235774237 
982	 0,63802670372025 
983	 0,639469469691365 
984	 0,637351600705749 
985	 0,635490298891032 
986	 0,6349539389125 
987	 0,636202537149649 
988	 0,638016241424998 
989	 0,639734596266584 
990	 0,640835776891538 
991	 0,641540552418428 
992	 0,641799527824298 
993	 0,64077595173914 
994	 0,639199305935253 
995	 0,638067380861472 
996	 0,63966344428163 
997	 0,641818281150721 
998	 0,639530277465897 
999	 0,638669340656042 
1000	 0,640433736774772 
1001	 0,642642098388367 
1002	 0,64469488613881 
1003	 0,646080388482743 
1004	 0,64663747315612 
1005	 0,646522166248669 
1006	 0,646084724099825 
1007	 0,647252256860197 
1008	 0,648629251522265 
1009	 0,647173485924109 
1010	 0,647455907199368 
1011	 0,64910489407027 
1012	 0,646626374752539 
1013	 0,644606281872714 
1014	 0,645334350004112 
1015	 0,649542299244914 
1016	 0,651742295450372 
1017	 0,648128687351835 
1018	 0,648617368086106 
1019	 0,650602886564281 
1020	 0,648187157116272 
1021	 0,64818101469603 
1022	 0,650770849956932 
1023	 0,652007927666314 
1024	 0,653255985722066 
1025	 0,654052990118046 
1026	 0,650478746044788 
1027	 0,648894536698625 
1028	 0,65281840251832 
1029	 0,656036601330123 
1030	 0,655835856189124 
1031	 0,65085136464279 
1032	 0,656656513836591 
1033	 0,666951065215699 
1034	 0,663249086813269 
1035	 0,657002393616602 
1036	 0,653247187736479 
1037	 0,657178233630207 
1038	 0,660342643829378 
1039	 0,658604196084679 
1040	 0,653126483277387 
1041	 0,64900969258372 
1042	 0,650621780543065 
1043	 0,658124369555181 
1044	 0,66545644123788 
1045	 0,665045664433441 
1046	 0,666757836503309 
1047	 0,668802921131891 
1048	 0,662019569587461 
1049	 0,657004926520288 
1050	 0,656041803478133 
1051	 0,653276540791992 
1052	 0,657249330950431 
1053	 0,669096032829955 
1054	 0,67278727154694 
1055	 0,669958280579769 
1056	 0,663919903857904 
1057	 0,66251539561941 
1058	 0,663999249862139 
1059	 0,664019451651851 
1060	 0,665425311500453 
1061	 0,66606934697381 
1062	 0,659638869282969 
1063	 0,6634793873798 
1064	 0,674558405124481 
1065	 0,661435541973412 
1066	 0,649303925688227 
1067	 0,64918885655364 
1068	 0,656806956251662 
1069	 0,658069293602385 
1070	 0,645617193560297 
1071	 0,648677844665214 
1072	 0,660798908196494 
1073	 0,669309449509361 
1074	 0,667274818524755 
1075	 0,65645282530196 
