Wavelength	ABBE00014.asd
325	 5,72045541010864E-02 
326	 0,100331135041879 
327	 0,106308598470874 
328	-9,75637751441935E-05 
329	-0,107499060927053 
330	-0,128323558814717 
331	-0,031581300568343 
332	-0,108390300858481 
333	-0,231587299240576 
334	-8,10723279377648E-02 
335	 5,85301170602341E-02 
336	 0,106621783724974 
337	 1,31705195728555E-02 
338	-0,063618179044261 
339	 3,80105763735136E-03 
340	 4,05318487497052E-02 
341	 2,55464449141716E-02 
342	 0,02280600897587 
343	 3,45263211086827E-02 
344	 5,87175157212192E-02 
345	 0,07042006499573 
346	 8,04182404241899E-02 
347	 9,91501943979457E-02 
348	 0,070949898214298 
349	 2,41463649242671E-02 
350	 5,64812410202502E-02 
351	 4,48500751211461E-02 
352	-3,07683873047773E-02 
353	 5,83815270489875E-03 
354	 5,04846966561377E-02 
355	-3,97340169553598E-02 
356	-5,00344683480553E-02 
357	 1,50059664845198E-02 
358	 3,76694652867362E-02 
359	 3,42580686518875E-02 
360	 1,65556833507656E-02 
361	 2,01118023119719E-02 
362	 3,11504661876607E-02 
363	 0,024746504211301 
364	 1,76225986534516E-02 
365	 1,73974791407776E-02 
366	 4,10661287718819E-02 
367	 4,34571538403039E-02 
368	 5,14353270364449E-03 
369	-9,96204390604884E-03 
370	-7,33333769541936E-04 
371	 0,022585919642759 
372	 3,04937045461827E-02 
373	 1,80854879834027E-02 
374	 8,38181252333527E-03 
375	 3,17903482632652E-03 
376	 3,76515827584762E-03 
377	 1,15783484795564E-02 
378	 2,32636981450195E-02 
379	 3,43426356953127E-02 
380	 2,69545159674629E-02 
381	 3,41520295339008E-03 
382	 1,00182417739449E-02 
383	 2,47893074749071E-02 
384	 2,58655819936179E-02 
385	 2,18900381348626E-02 
386	 1,65592040962203E-02 
387	 1,41355549513511E-02 
388	 2,03482288932009E-02 
389	 3,25821367761001E-02 
390	 2,48506906535464E-02 
391	 1,46240090785928E-02 
392	 2,43857287965715E-02 
393	 3,53777877251978E-02 
394	 3,88198865540351E-02 
395	 2,00341083216461E-02 
396	 1,14500446501546E-02 
397	 2,74864237097466E-02 
398	 3,87566503749944E-02 
399	 3,99209884591525E-02 
400	 2,82569826837394E-02 
401	 2,06645700554543E-02 
402	 0,020734199594865 
403	 2,25922477918032E-02 
404	 2,10180032348645E-02 
405	 0,013614305019499 
406	 1,24532108372439E-02 
407	 1,59410903058433E-02 
408	 1,69893110492232E-02 
409	 2,03178016498736E-02 
410	 2,55191425409611E-02 
411	 2,48958604284137E-02 
412	 2,27152085978951E-02 
413	 2,30735827380502E-02 
414	 2,03579325688721E-02 
415	 1,70617109231656E-02 
416	 2,21229335402755E-02 
417	 2,63946930641515E-02 
418	 2,61770409632197E-02 
419	 2,30941679457486E-02 
420	 0,021418854534764 
421	 2,62172645628334E-02 
422	 2,78613705240013E-02 
423	 2,48329774208578E-02 
424	 1,91780633228483E-02 
425	 1,69302352819292E-02 
426	 2,08422378965545E-02 
427	 1,95159198851514E-02 
428	 1,67127786941387E-02 
429	 2,19739778726901E-02 
430	 0,026685392913311 
431	 2,86969854165848E-02 
432	 3,13087395572821E-02 
433	 3,17886766255471E-02 
434	 2,79898412495546E-02 
435	 2,55959909884702E-02 
436	 0,025292811484596 
437	 2,55781121555452E-02 
438	 2,66296426307177E-02 
439	 2,80124819074467E-02 
440	 2,76536935621804E-02 
441	 2,64062472741729E-02 
442	 2,55715468048903E-02 
443	 2,47269657168179E-02 
444	 2,45559426085335E-02 
445	 2,77777813628033E-02 
446	 2,94549522610024E-02 
447	 2,70322513125335E-02 
448	 0,02657214164167 
449	 2,75774130999753E-02 
450	 2,74872363716337E-02 
451	 2,76230250748543E-02 
452	 2,79703812529931E-02 
453	 2,69522817949021E-02 
454	 2,55899186197787E-02 
455	 2,48701766658726E-02 
456	 2,44109190574705E-02 
457	 2,43805400707614E-02 
458	 2,50138583149593E-02 
459	 2,77473898560448E-02 
460	 3,19235050498185E-02 
461	 3,01406387091943E-02 
462	 2,66742517528786E-02 
463	 2,80965970197036E-02 
464	 0,027499901663094 
465	 2,47481824181473E-02 
466	 0,02511438318953 
467	 2,68124460313973E-02 
468	 2,84314659457977E-02 
469	 0,028676993039867 
470	 2,82397054044625E-02 
471	 2,90622099596285E-02 
472	 2,90348539104574E-02 
473	 2,76111933260612E-02 
474	 2,50361461229998E-02 
475	 2,42922270517565E-02 
476	 2,80157930232298E-02 
477	 3,03323297099837E-02 
478	 3,02711500918742E-02 
479	 2,87102645820897E-02 
480	 2,83554204783327E-02 
481	 2,99925125169261E-02 
482	 2,87925329261282E-02 
483	 2,66134867717486E-02 
484	 2,69173902144719E-02 
485	 2,79569268232846E-02 
486	 2,87377102514604E-02 
487	 2,74341756569466E-02 
488	 2,55778009660009E-02 
489	 2,46388479154698E-02 
490	 2,69280915844886E-02 
491	 3,06523005536891E-02 
492	 3,13123822153975E-02 
493	 3,08746200333531E-02 
494	 3,00216905102942E-02 
495	 2,88864165898303E-02 
496	 2,83098604533182E-02 
497	 2,91384113439946E-02 
498	 2,92271448885943E-02 
499	 2,84924725916876E-02 
500	 2,81665413919176E-02 
501	 2,86465274267027E-02 
502	 2,99997631748139E-02 
503	 3,08232048637797E-02 
504	 3,09557422915409E-02 
505	 3,04164387200455E-02 
506	 3,06502239642323E-02 
507	 3,15654511403796E-02 
508	 0,030570136212959 
509	 2,96231164185768E-02 
510	 3,04759464555892E-02 
511	 3,05135875087574E-02 
512	 3,01113473443383E-02 
513	 3,16365620923468E-02 
514	 3,27624151877284E-02 
515	 3,26323019785981E-02 
516	 3,26424950078641E-02 
517	 3,30584725522523E-02 
518	 3,40532565563329E-02 
519	 3,46304460305887E-02 
520	 3,45289393244572E-02 
521	 3,39576842450858E-02 
522	 3,31929938168162E-02 
523	 3,25267203594502E-02 
524	 3,27069066420613E-02 
525	 3,34748091454407E-02 
526	 3,40496227735598E-02 
527	 3,45233742053441E-02 
528	 3,46940620558953E-02 
529	 3,35136654140334E-02 
530	 3,25547585629788E-02 
531	 3,36280677436814E-02 
532	 3,41393898138213E-02 
533	 3,39000880449541E-02 
534	 0,034296117282254 
535	 3,48303262465328E-02 
536	 3,51896282212185E-02 
537	 3,52840815406319E-02 
538	 0,035326575999227 
539	 3,57784577748883E-02 
540	 3,57928581019061E-02 
541	 3,53466333237246E-02 
542	 3,56268717628429E-02 
543	 3,59812841192156E-02 
544	 3,57603220622605E-02 
545	 3,60765039879577E-02 
546	 3,66721593932295E-02 
547	 3,61852287421979E-02 
548	 3,57978787017248E-02 
549	 3,60799613295829E-02 
550	 0,036588090875259 
551	 3,71837841798019E-02 
552	 3,77799804678431E-02 
553	 3,76339253984579E-02 
554	 3,68412486460567E-02 
555	 3,66118736191908E-02 
556	 3,68671732825775E-02 
557	 3,74557209442904E-02 
558	 3,77186025099871E-02 
559	 3,75600614107614E-02 
560	 3,70526537131514E-02 
561	 3,67099876221387E-02 
562	 0,036804747633629 
563	 3,74839398306799E-02 
564	 3,77747950627069E-02 
565	 3,64035529611671E-02 
566	 3,64393300815094E-02 
567	 3,80023707270477E-02 
568	 3,85818870125819E-02 
569	 3,88040153514637E-02 
570	 3,90673953226951E-02 
571	 3,88963376034836E-02 
572	 3,85168916749493E-02 
573	 0,038438432185614 
574	 3,89082796697461E-02 
575	 3,99358642951716E-02 
576	 4,09501933874641E-02 
577	 4,18284732693534E-02 
578	 0,042491593795393 
579	 4,28864356390668E-02 
580	 4,30754890283662E-02 
581	 4,32619968189886E-02 
582	 4,34216610519776E-02 
583	 4,35988622924415E-02 
584	 4,42082228245993E-02 
585	 4,48421619216715E-02 
586	 4,46385866786783E-02 
587	 4,51318657912375E-02 
588	 4,63461625909748E-02 
589	 4,61765151634973E-02 
590	 4,57905771072294E-02 
591	 4,63332129573712E-02 
592	 4,69369808952544E-02 
593	 4,74339352516522E-02 
594	 0,047932963840668 
595	 4,79301687609335E-02 
596	 4,73424137028295E-02 
597	 4,73094717369969E-02 
598	 4,76035943448162E-02 
599	 4,77028214404585E-02 
600	 4,74774070042588E-02 
601	 4,70781342540527E-02 
602	 4,72685404566773E-02 
603	 4,76184065174294E-02 
604	 4,77236920151342E-02 
605	 4,71453208525926E-02 
606	 4,63346362827112E-02 
607	 4,65632409576493E-02 
608	 4,68179458507053E-02 
609	 4,67037596825228E-02 
610	 4,63073096447112E-02 
611	 4,58993875601065E-02 
612	 4,58033689066687E-02 
613	 4,57398488824333E-02 
614	 4,56826387987809E-02 
615	 4,58304519670028E-02 
616	 4,57978961200121E-02 
617	 4,53671194274451E-02 
618	 4,49293572906256E-02 
619	 4,46699077771206E-02 
620	 4,48046117202996E-02 
621	 4,51666045773274E-02 
622	 4,54717135708497E-02 
623	 4,46295524754859E-02 
624	 4,41668490462222E-02 
625	 4,56134789333792E-02 
626	 0,046052652002692 
627	 4,54301765458991E-02 
628	 4,54639880522864E-02 
629	 4,58037709113876E-02 
630	 4,62313133300413E-02 
631	 4,62592265916678E-02 
632	 4,61661123936783E-02 
633	 4,65047665312263E-02 
634	 4,67939142957014E-02 
635	 4,69647045264697E-02 
636	 4,73658289351589E-02 
637	 4,75847493280142E-02 
638	 4,73711174737083E-02 
639	 4,83876985941706E-02 
640	 0,049943646027215 
641	 4,95298900152989E-02 
642	 0,049159627444164 
643	 4,95549623170733E-02 
644	 4,98649614252492E-02 
645	 5,00166823688614E-02 
646	 5,00115292053999E-02 
647	 5,00404693527744E-02 
648	 5,01385251146943E-02 
649	 5,02047681408334E-02 
650	 5,03562091557982E-02 
651	 5,05847134081069E-02 
652	 5,01602269881603E-02 
653	 4,92149402758864E-02 
654	 4,81551800421347E-02 
655	 4,76132169547575E-02 
656	 4,76631349890177E-02 
657	 4,74109001114737E-02 
658	 4,67367591289911E-02 
659	 4,56146865387557E-02 
660	 4,49035893960393E-02 
661	 4,46002566815802E-02 
662	 4,41267477880538E-02 
663	 4,34193564366509E-02 
664	 4,25046391696965E-02 
665	 4,19266058530273E-02 
666	 4,15498215927315E-02 
667	 4,10314427279877E-02 
668	 4,09458086999409E-02 
669	 4,12774827444829E-02 
670	 4,13608373693438E-02 
671	 0,041317280902252 
672	 0,041254016022443 
673	 0,041150580654067 
674	 4,09172939985779E-02 
675	 0,04023317626625 
676	 0,040020236892267 
677	 4,04867526523106E-02 
678	 4,05698890242436E-02 
679	 0,040636462020778 
680	 4,12157123878918E-02 
681	 4,16991135328143E-02 
682	 4,19507970929965E-02 
683	 4,19839120150568E-02 
684	 4,22283650709773E-02 
685	 4,28914402816687E-02 
686	 4,32249872003845E-02 
687	 4,37838238035149E-02 
688	 4,57733991804824E-02 
689	 4,72627232118824E-02 
690	 4,79516006111072E-02 
691	 0,049248318847935 
692	 5,12758911840851E-02 
693	 5,40195729850722E-02 
694	 5,62899561577215E-02 
695	 5,84054393342285E-02 
696	 6,18754150050791E-02 
697	 6,52762092883496E-02 
698	 6,81628639936476E-02 
699	 7,16705624324424E-02 
700	 7,54443327522965E-02 
701	 7,89065091684494E-02 
702	 8,25179571179177E-02 
703	 8,62077118802035E-02 
704	 8,94376422517783E-02 
705	 9,26034657226628E-02 
706	 9,59434679275465E-02 
707	 9,93015281463096E-02 
708	 0,102297215600595 
709	 0,104230236265414 
710	 0,106505440478752 
711	 0,109460452160621 
712	 0,112505307095395 
713	 0,114767556022519 
714	 0,115583143688193 
715	 0,117070999876902 
716	 0,119120012899462 
717	 0,120235900938804 
718	 0,121480854520578 
719	 0,123095354856508 
720	 0,123766401566148 
721	 0,124351666988175 
722	 0,126071096624881 
723	 0,127100573319668 
724	 0,127417997566357 
725	 0,128504524913795 
726	 0,129573158520373 
727	 0,130157421451437 
728	 0,130687503829697 
729	 0,131040879288848 
730	 0,130839022894241 
731	 0,13125007192815 
732	 0,132309833443369 
733	 0,132444167856412 
734	 0,132526502898052 
735	 0,133295580032438 
736	 0,133459303197472 
737	 0,13327226384799 
738	 0,133951928135565 
739	 0,134577763796005 
740	 0,1348704855088 
741	 0,135348395692042 
742	 0,135739580091175 
743	 0,135699854655829 
744	 0,135601519122015 
745	 0,135646382026404 
746	 0,136147936765107 
747	 0,136622870117072 
748	 0,136790642823486 
749	 0,136770461249362 
750	 0,136621416874064 
751	 0,136385382730031 
752	 0,136757563536238 
753	 0,137560364990545 
754	 0,13736089059182 
755	 0,13702526880821 
756	 0,137204495232162 
757	 0,137620090646473 
758	 0,138056509097817 
759	 0,138173346981624 
760	 0,138176669976401 
761	 0,138168129445867 
762	 0,138227501037191 
763	 0,138524255397653 
764	 0,1391576999723 
765	 0,139236486134131 
766	 0,138964914192517 
767	 0,139338928256406 
768	 0,139741553286319 
769	 0,139949937804561 
770	 0,140158830899311 
771	 0,140248893076535 
772	 0,140078612053583 
773	 0,140078354209513 
774	 0,140280792004209 
775	 0,140455500880222 
776	 0,140565266244616 
777	 0,140618835118257 
778	 0,140886796060084 
779	 0,141179671808552 
780	 0,141174865788465 
781	 0,141444342928249 
782	 0,14193016742413 
783	 0,141886773614485 
784	 0,141729007267519 
785	 0,141725833510222 
786	 0,141646282016704 
787	 0,14156893297661 
788	 0,141662133297957 
789	 0,141995707538535 
790	 0,142416302966254 
791	 0,142220806378349 
792	 0,142016197492746 
793	 0,142299598307151 
794	 0,142799046244327 
795	 0,143248189869204 
796	 0,143196865840499 
797	 0,143079178821502 
798	 0,143041057264362 
799	 0,142964327734475 
800	 0,143020217228977 
801	 0,143340470086052 
802	 0,143430278277043 
803	 0,143351353991184 
804	 0,143487516202989 
805	 0,143803877986161 
806	 0,144187066711674 
807	 0,14402825793896 
808	 0,143953322739463 
809	 0,144613902173378 
810	 0,144479589754088 
811	 0,143856955529141 
812	 0,144553895150125 
813	 0,144988719650158 
814	 0,144633279452202 
815	 0,144571013835158 
816	 0,144827752892475 
817	 0,145307933021222 
818	 0,145611556061399 
819	 0,145694611671254 
820	 0,145800373806897 
821	 0,145701485043009 
822	 0,145426667375301 
823	 0,145825455243128 
824	 0,146339484946338 
825	 0,146160638545994 
826	 0,14600219623088 
827	 0,14608438914035 
828	 0,146569425196529 
829	 0,146857109178945 
830	 0,146681944784113 
831	 0,146609032186431 
832	 0,146740050964129 
833	 0,147117039135073 
834	 0,147239118372996 
835	 0,147044420701452 
836	 0,146752773437211 
837	 0,146710483717806 
838	 0,147073180072888 
839	 0,147418485558328 
840	 0,147613900916914 
841	 0,147559523672492 
842	 0,147318585089425 
843	 0,147143394467047 
844	 0,14779076452715 
845	 0,148269528348942 
846	 0,14805262682749 
847	 0,147647990168861 
848	 0,147393496791879 
849	 0,147663019420433 
850	 0,147615218538835 
851	 0,147287995748511 
852	 0,147575338036054 
853	 0,147762356748289 
854	 0,147561296142599 
855	 0,147847003089471 
856	 0,148273962591348 
857	 0,148252273668085 
858	 0,147945959896899 
859	 0,147657261876338 
860	 0,148223103016834 
861	 0,148714881569363 
862	 0,148681585169851 
863	 0,148694300284566 
864	 0,148629925233192 
865	 0,14827254269068 
866	 0,14873954963002 
867	 0,149688488177549 
868	 0,149254631966532 
869	 0,148814475514265 
870	 0,149008345767217 
871	 0,149419701222839 
872	 0,149763142619034 
873	 0,149749904366892 
874	 0,149663632886189 
875	 0,149660286783993 
876	 0,150011302906158 
877	 0,150223875491557 
878	 0,150048656595033 
879	 0,149354083563804 
880	 0,149006641010629 
881	 0,149849508344239 
882	 0,149959052378344 
883	 0,14943306156477 
884	 0,149558769727852 
885	 0,149980953597518 
886	 0,150566959707283 
887	 0,151301852618046 
888	 0,15138830751695 
889	 0,150246786820789 
890	 0,149973670997912 
891	 0,15062686107042 
892	 0,151478723948048 
893	 0,151846895014098 
894	 0,151606691635216 
895	 0,15159904135836 
896	 0,151549240263617 
897	 0,151229463343627 
898	 0,150696842133782 
899	 0,150347666424095 
900	 0,150848295641297 
901	 0,151176091620617 
902	 0,151231351939854 
903	 0,151937853997237 
904	 0,152296175015117 
905	 0,151857094328824 
906	 0,152340655368402 
907	 0,152878014731882 
908	 0,151976358351836 
909	 0,151864899804485 
910	 0,152674613153873 
911	 0,153121124312447 
912	 0,152849082809062 
913	 0,151906361042627 
914	 0,151786287940074 
915	 0,152258053293739 
916	 0,15286235585061 
917	 0,153017400185769 
918	 0,15271912219028 
919	 0,152325707424134 
920	 0,151934663705117 
921	 0,15173182676663 
922	 0,152205622376963 
923	 0,152711334588042 
924	 0,152693128944138 
925	 0,152460576221531 
926	 0,15221929842701 
927	 0,152261041097465 
928	 0,151923934881787 
929	 0,151484983667948 
930	 0,152627604198708 
931	 0,153815497427989 
932	 0,154046945962952 
933	 0,153366013711489 
934	 0,152525329381054 
935	 0,152469856973577 
936	 0,152658049625624 
937	 0,152692575159757 
938	 0,151718814041649 
939	 0,151284502839669 
940	 0,151718990387458 
941	 0,151324718071578 
942	 0,150811352244453 
943	 0,150861618095012 
944	 0,150975319106648 
945	 0,150935698637123 
946	 0,150467348386353 
947	 0,150621633738215 
948	 0,1513153390807 
949	 0,151121934388546 
950	 0,150588276305394 
951	 0,15006196769734 
952	 0,149561301442431 
953	 0,149250896837924 
954	 0,149263152314708 
955	 0,148546984021417 
956	 0,14722016728913 
957	 0,146002968537619 
958	 0,145846507429987 
959	 0,146966854976803 
960	 0,148507598127926 
961	 0,149631308645659 
962	 0,149670200854273 
963	 0,148659898762801 
964	 0,147044905443425 
965	 0,145452879519101 
966	 0,146162837086799 
967	 0,148552352805764 
968	 0,148986494729296 
969	 0,1484726281847 
970	 0,14735846384534 
971	 0,145347809652102 
972	 0,144067269095947 
973	 0,144843819084212 
974	 0,145490003869046 
975	 0,146498184774924 
976	 0,149541090610137 
977	 0,149337536117402 
978	 0,146037145978878 
979	 0,145449701848416 
980	 0,145394411052474 
981	 0,145258498160644 
982	 0,147888758664749 
983	 0,149812074340572 
984	 0,147683073833711 
985	 0,146837523215278 
986	 0,147561099817751 
987	 0,148413108593804 
988	 0,149701848423686 
989	 0,150762996880447 
990	 0,149150073666681 
991	 0,148473586228896 
992	 0,150202733084849 
993	 0,150649819966017 
994	 0,149897770641728 
995	 0,148638625094102 
996	 0,150632468282891 
997	 0,153283857329276 
998	 0,150133044440649 
999	 0,150461891389134 
1000	 0,154569031312658 
1001	 0,153626270193434 
1002	 0,152154141472573 
1003	 0,152451531744415 
1004	 0,154126230051422 
1005	 0,153946032423428 
1006	 0,149636593682622 
1007	 0,151643372032599 
1008	 0,156730147177745 
1009	 0,156016522278629 
1010	 0,154768289723681 
1011	 0,154461543618498 
1012	 0,155504900752003 
1013	 0,156040440014694 
1014	 0,155640702958725 
1015	 0,157184401401959 
1016	 0,157310855019268 
1017	 0,153797276972075 
1018	 0,154125079416308 
1019	 0,156228014092746 
1020	 0,155438597702657 
1021	 0,154798132837293 
1022	 0,155377532524339 
1023	 0,158524564364057 
1024	 0,159884449503145 
1025	 0,158259240553996 
1026	 0,155780295672338 
1027	 0,155357488532729 
1028	 0,158536543140342 
1029	 0,162645465354178 
1030	 0,164128917490731 
1031	 0,159941295882181 
1032	 0,160974051351402 
1033	 0,165785435670262 
1034	 0,167129968220727 
1035	 0,165212403888483 
1036	 0,16156871623335 
1037	 0,161441703698668 
1038	 0,163464731394851 
1039	 0,165290666960684 
1040	 0,157595064008648 
1041	 0,153030538427263 
1042	 0,160937719544957 
1043	 0,166649088367087 
1044	 0,166377406690886 
1045	 0,158693011778561 
1046	 0,160651020359787 
1047	 0,167633839464594 
1048	 0,158741929103045 
1049	 0,160172393369057 
1050	 0,172840460606735 
1051	 0,167799306859875 
1052	 0,165519514326338 
1053	 0,173529072726926 
1054	 0,173691889416401 
1055	 0,168611120119434 
1056	 0,162530216975911 
1057	 0,16384832348873 
1058	 0,166547162938294 
1059	 0,161101147476831 
1060	 0,165127225855731 
1061	 0,175958934303785 
1062	 0,179180332754189 
1063	 0,176751739986246 
1064	 0,171142490339361 
1065	 0,170279027766184 
1066	 0,171090692511515 
1067	 0,171194437847834 
1068	 0,165038843468668 
1069	 0,164364098104792 
1070	 0,174803002045563 
1071	 0,16587854057847 
1072	 0,154740272591054 
1073	 0,164525282921059 
1074	 0,170397084083151 
1075	 0,166336165513744 
