Wavelength	ABBE00072.asd
325	 0,042060618016317 
326	 3,98113365055514E-02 
327	 8,18196852697597E-02 
328	 0,119785359694683 
329	 9,12929156336864E-03 
330	-6,85254567622167E-02 
331	 4,02540490500388E-02 
332	-8,58750131153098E-03 
333	-0,131339414637512 
334	-8,60514969453018E-02 
335	 0,041748083496167 
336	 0,184892922567627 
337	 0,171144275172742 
338	 8,13412215422692E-02 
339	-2,38957973805071E-02 
340	 0,028625640512553 
341	 0,156914667100261 
342	 0,140607785215746 
343	 0,110933966673825 
344	 9,68253162966775E-02 
345	 6,26526740527188E-02 
346	 7,03020420216329E-02 
347	 0,168546846904634 
348	 0,123570498774538 
349	-7,25997218909547E-03 
350	 1,09268209669457E-02 
351	 0,060389783524134 
352	 8,81711789706939E-02 
353	 5,81504266752114E-02 
354	 1,63258969286017E-02 
355	 2,72475234339295E-02 
356	 4,01754492493758E-02 
357	 4,72394262545952E-02 
358	 5,62281857385871E-02 
359	 5,79068829116907E-02 
360	 5,01621013999159E-02 
361	 4,79956724815674E-02 
362	 5,13003254412317E-02 
363	 5,72023695950427E-02 
364	 6,20485546504513E-02 
365	 5,99255721043052E-02 
366	 3,17148797700413E-02 
367	 1,96236942799905E-02 
368	 4,25863677355487E-02 
369	 3,99253120416915E-02 
370	 2,53249292712917E-02 
371	 3,90102712788977E-02 
372	 3,73039833008436E-02 
373	 1,66138304782402E-02 
374	 0,01273215153904 
375	 1,95477916460575E-02 
376	 3,04397594947714E-02 
377	 4,00334776563005E-02 
378	 4,80091522507489E-02 
379	 5,79836702798422E-02 
380	 5,21190414289357E-02 
381	 3,09614062373648E-02 
382	 3,18744623641807E-02 
383	 0,033828080454724 
384	 1,67489404327815E-02 
385	 0,014062650451326 
386	 2,22075535003136E-02 
387	 1,28991358501787E-02 
388	 1,73214217772487E-02 
389	 3,94984904487134E-02 
390	 3,62848034087018E-02 
391	 2,39015363748558E-02 
392	 2,51196161499551E-02 
393	 2,70954068781602E-02 
394	 2,63000740444394E-02 
395	 1,85518434317137E-02 
396	 1,74766329105541E-02 
397	 2,88738962941381E-02 
398	 4,15944523834125E-02 
399	 4,38329405680032E-02 
400	 1,95821744456644E-02 
401	 1,37008098421203E-02 
402	 2,87088093627017E-02 
403	 2,68084772990274E-02 
404	 2,18603995410095E-02 
405	 2,32281604054436E-02 
406	 2,29379440879017E-02 
407	 2,17443481637047E-02 
408	 2,36864663996178E-02 
409	 2,24086062277134E-02 
410	 1,75099460455919E-02 
411	 1,60860327905324E-02 
412	 1,68245763651244E-02 
413	 1,80807466557523E-02 
414	 0,021341087051192 
415	 2,48833948312624E-02 
416	 2,33271445245256E-02 
417	 2,50838481315076E-02 
418	 0,031345481387907 
419	 2,78906971650802E-02 
420	 2,12509538086205E-02 
421	 2,11637695089979E-02 
422	 2,05434191542463E-02 
423	 1,92014707201464E-02 
424	 0,021629701108718 
425	 2,43399408025515E-02 
426	 2,49497645323597E-02 
427	 2,34485841566829E-02 
428	 2,14621729180843E-02 
429	 2,16993734369389E-02 
430	 2,32555148957452E-02 
431	 2,53993603075535E-02 
432	 2,64392136902796E-02 
433	 2,69020244963586E-02 
434	 2,70903026163409E-02 
435	 2,22586564015178E-02 
436	 1,61688963512191E-02 
437	 2,00999320919261E-02 
438	 2,35744494492383E-02 
439	 2,31487137666396E-02 
440	 0,025842178063496 
441	 2,82780127803279E-02 
442	 2,56063118382198E-02 
443	 2,40461042726498E-02 
444	 2,43463776913499E-02 
445	 2,33398926393848E-02 
446	 0,022976879046084 
447	 2,43522512388233E-02 
448	 2,63011907855547E-02 
449	 2,75532993443613E-02 
450	 2,63260633616942E-02 
451	 2,38051905012009E-02 
452	 2,13819048902502E-02 
453	 2,29506319041375E-02 
454	 2,51080883031458E-02 
455	 2,46354061445591E-02 
456	 2,35063576101722E-02 
457	 2,24634406253075E-02 
458	 2,20963495271573E-02 
459	 0,023632072695599 
460	 2,65055530777962E-02 
461	 2,37329410818412E-02 
462	 2,05481363891161E-02 
463	 2,46780076606051E-02 
464	 2,72976488519265E-02 
465	 2,65343668260306E-02 
466	 2,38914074680968E-02 
467	 2,24204597631587E-02 
468	 2,40390783024893E-02 
469	 2,63498749778631E-02 
470	 2,79969420788483E-02 
471	 2,72393212163079E-02 
472	 2,55389788277578E-02 
473	 2,40265838826414E-02 
474	 2,53345915232392E-02 
475	 2,63701977106847E-02 
476	 2,41968056101394E-02 
477	 0,025261660338882 
478	 2,85306580167159E-02 
479	 2,76794750781035E-02 
480	 2,65326164195101E-02 
481	 2,65879841933371E-02 
482	 2,50276512354776E-02 
483	 2,38497308035175E-02 
484	 2,63868333819788E-02 
485	 2,81204669632742E-02 
486	 2,78412586911704E-02 
487	 2,61365276854888E-02 
488	 2,42065640299463E-02 
489	 2,31462527318315E-02 
490	 2,42490494865559E-02 
491	 2,61986038663709E-02 
492	 2,56204512141729E-02 
493	 2,52749429043793E-02 
494	 2,58875133702045E-02 
495	 2,60414171467399E-02 
496	 2,59710227976453E-02 
497	 2,60429450638029E-02 
498	 2,51227518093896E-02 
499	 2,38501404641431E-02 
500	 2,47016905924366E-02 
501	 0,026558455007794 
502	 0,028424673847314 
503	 2,81820899198779E-02 
504	 2,64983063520619E-02 
505	 2,48941609635399E-02 
506	 2,43518377738307E-02 
507	 2,49948046136257E-02 
508	 0,025534933136067 
509	 0,02593773982407 
510	 2,62555902901388E-02 
511	 2,69651741236985E-02 
512	 2,82239062897682E-02 
513	 0,030578135136832 
514	 3,10782938053687E-02 
515	 2,90597762404481E-02 
516	 0,029316526991358 
517	 3,06016458099326E-02 
518	 3,04945251659488E-02 
519	 3,04757197144162E-02 
520	 3,08199122360577E-02 
521	 0,031455547208503 
522	 3,10361321690981E-02 
523	 2,89220977580201E-02 
524	 0,029199678703129 
525	 3,09814294414923E-02 
526	 0,030903998871744 
527	 3,02150812687656E-02 
528	 2,94580979472166E-02 
529	 2,94606908260443E-02 
530	 2,97972725040641E-02 
531	 2,98972851127741E-02 
532	 2,96490256481257E-02 
533	 2,93920214443489E-02 
534	 3,03374985754604E-02 
535	 3,11512338022152E-02 
536	 0,031047215055448 
537	 3,05123779805578E-02 
538	 3,02345234621569E-02 
539	 3,14290288613278E-02 
540	 3,17391799178528E-02 
541	 3,08531296873244E-02 
542	 3,10418778979027E-02 
543	 3,16676318636182E-02 
544	 3,19985717371201E-02 
545	 3,22672190513684E-02 
546	 3,23055892918257E-02 
547	 3,14094303336693E-02 
548	 3,12788942717752E-02 
549	 0,032538779708523 
550	 3,30875838664105E-02 
551	 3,32051870457833E-02 
552	 0,033765510614867 
553	 3,33393827692222E-02 
554	 0,032111104758495 
555	 3,24357464289331E-02 
556	 3,28558906581996E-02 
557	 3,22093597393488E-02 
558	 3,23375494092652E-02 
559	 3,29662053598657E-02 
560	 3,25905027325765E-02 
561	 3,22324108907406E-02 
562	 3,22394490567091E-02 
563	 0,032165196454341 
564	 3,19381351139328E-02 
565	 3,15063390035934E-02 
566	 3,18314930636282E-02 
567	 3,27713260774614E-02 
568	 3,29322685918093E-02 
569	 3,29808753489834E-02 
570	 3,33261779115881E-02 
571	 3,31247516490164E-02 
572	 3,27683690465434E-02 
573	 3,33574179062243E-02 
574	 3,39266604666297E-02 
575	 3,43531160173773E-02 
576	 3,58243817310993E-02 
577	 3,75295011004123E-02 
578	 3,84753705423947E-02 
579	 3,86048869016463E-02 
580	 0,038164021854314 
581	 3,77653024977884E-02 
582	 3,83426527758544E-02 
583	 4,01326701890011E-02 
584	 4,03568130056086E-02 
585	 3,97199587886703E-02 
586	 4,01070961751563E-02 
587	 4,07036929861641E-02 
588	 4,12787370438558E-02 
589	 4,18168052191559E-02 
590	 4,21722976779201E-02 
591	 4,22478334732196E-02 
592	 4,26974670543932E-02 
593	 4,33133768588093E-02 
594	 4,31457963046017E-02 
595	 4,29758400801031E-02 
596	 4,31568122505526E-02 
597	 4,34195844549558E-02 
598	 4,36466113673405E-02 
599	 4,37233797316163E-02 
600	 4,34176071095532E-02 
601	 0,042892287090243 
602	 4,29818223067229E-02 
603	 4,32180956315506E-02 
604	 0,043225550390909 
605	 4,33847081467354E-02 
606	 4,34469915059083E-02 
607	 4,26334628257067E-02 
608	 4,19436611332115E-02 
609	 4,17607450611959E-02 
610	 4,18098571006633E-02 
611	 4,17105166879208E-02 
612	 4,10366809653514E-02 
613	 4,04745392871319E-02 
614	 4,02713790699829E-02 
615	 4,06612906972519E-02 
616	 4,07996455348741E-02 
617	 4,02401917103797E-02 
618	 4,02969612450512E-02 
619	 4,06307187602876E-02 
620	 0,040184274477557 
621	 3,98093676176753E-02 
622	 3,97492004137764E-02 
623	 3,97149406808463E-02 
624	 3,97823812329301E-02 
625	 4,00354141843824E-02 
626	 0,0403073783716 
627	 4,05348167695826E-02 
628	 4,06498957435242E-02 
629	 4,08299494341974E-02 
630	 4,11700538055709E-02 
631	 4,16452359581227E-02 
632	 4,20326673708643E-02 
633	 4,19769190565384E-02 
634	 4,20819177898927E-02 
635	 4,24646325181489E-02 
636	 4,28046752074997E-02 
637	 4,29990117989649E-02 
638	 4,30298831430289E-02 
639	 4,37396109909061E-02 
640	 4,49284508158198E-02 
641	 4,58191008761094E-02 
642	 4,61918445848025E-02 
643	 4,60327220280201E-02 
644	 4,60954685783527E-02 
645	 4,63269764004836E-02 
646	 4,65540515856353E-02 
647	 4,65594460709755E-02 
648	 4,64300771018851E-02 
649	 4,67566857226959E-02 
650	 4,67846779902011E-02 
651	 4,61116093209055E-02 
652	 4,60949433137497E-02 
653	 4,61812000734916E-02 
654	 0,044810806177461 
655	 4,34549684899364E-02 
656	 4,26681147208245E-02 
657	 4,25111745907479E-02 
658	 4,21713674980999E-02 
659	 4,08612749180021E-02 
660	 4,02731242459163E-02 
661	 0,040240873155396 
662	 3,92343388560012E-02 
663	 0,037966665821605 
664	 3,68743760150777E-02 
665	 3,63569050518067E-02 
666	 3,60743676181612E-02 
667	 3,53972581798855E-02 
668	 3,50962162460332E-02 
669	 3,52677734547438E-02 
670	 3,54917675802848E-02 
671	 3,54027416119939E-02 
672	 3,47966204999923E-02 
673	 3,48092793212734E-02 
674	 3,52297946290312E-02 
675	 3,50656746591323E-02 
676	 3,48603592770986E-02 
677	 3,47592880071346E-02 
678	 3,44167916314777E-02 
679	 3,43322630874921E-02 
680	 3,50988206499108E-02 
681	 3,54374411595087E-02 
682	 3,53132374854552E-02 
683	 3,56256516588991E-02 
684	 3,61743739606455E-02 
685	 0,036851618501408 
686	 3,76269784983874E-02 
687	 3,86680710510853E-02 
688	 4,02807784749939E-02 
689	 4,20560146251347E-02 
690	 4,38287061848016E-02 
691	 4,54729077234311E-02 
692	 4,74285750112381E-02 
693	 5,00858932272653E-02 
694	 5,30692206918063E-02 
695	 5,64724591298997E-02 
696	 6,08727517915191E-02 
697	 6,48556410608954E-02 
698	 6,80210714505254E-02 
699	 7,19141682544551E-02 
700	 7,64057838115302E-02 
701	 8,11326166284604E-02 
702	 8,60040263774739E-02 
703	 9,07415415233948E-02 
704	 9,47258858316169E-02 
705	 9,85392057833465E-02 
706	 0,102573798803366 
707	 0,106856020682482 
708	 0,110826854129918 
709	 0,113428511617732 
710	 0,116182056326812 
711	 0,119458423561259 
712	 0,122561683638351 
713	 0,125288052477656 
714	 0,127495626374511 
715	 0,129604155280939 
716	 0,131644504487353 
717	 0,13341536045131 
718	 0,135286705635025 
719	 0,137212188190982 
720	 0,137898866782132 
721	 0,138455126442193 
722	 0,140411084023327 
723	 0,141918702920567 
724	 0,142740449393037 
725	 0,143641138981678 
726	 0,144662481748232 
727	 0,145755817099536 
728	 0,146201809736485 
729	 0,146284274782355 
730	 0,146643234343283 
731	 0,147408039932002 
732	 0,148415234218772 
733	 0,148693246106001 
734	 0,148945533263966 
735	 0,149752757251848 
736	 0,14997148694634 
737	 0,149866067508324 
738	 0,150644711432674 
739	 0,151202092697888 
740	 0,151216013409476 
741	 0,151348897625006 
742	 0,151665754428622 
743	 0,152168678840533 
744	 0,152408548268565 
745	 0,152374063732518 
746	 0,152326943417771 
747	 0,152602532300134 
748	 0,153266269260793 
749	 0,153323258655241 
750	 0,15313152556955 
751	 0,153421124636139 
752	 0,153826404048287 
753	 0,154153128243595 
754	 0,154014807580235 
755	 0,154029537670954 
756	 0,154580520487094 
757	 0,154731419483281 
758	 0,154605185852387 
759	 0,15476250061213 
760	 0,15482057141944 
761	 0,154768408524149 
762	 0,155100921469786 
763	 0,155451407403325 
764	 0,155475407367167 
765	 0,155634502661458 
766	 0,155932268144407 
767	 0,156180518170378 
768	 0,156239563363069 
769	 0,156128492197861 
770	 0,156314786210076 
771	 0,156713768367492 
772	 0,157164396673901 
773	 0,157198653575111 
774	 0,1568969774766 
775	 0,156813462451981 
776	 0,157018640935387 
777	 0,157480291560306 
778	 0,157624124838478 
779	 0,157542892636012 
780	 0,157474015611728 
781	 0,157600283031804 
782	 0,15790913586915 
783	 0,15817368001006 
784	 0,158193959843692 
785	 0,157912128447983 
786	 0,158039989653846 
787	 0,158368241984333 
788	 0,158325880356461 
789	 0,158442780936923 
790	 0,158749459939621 
791	 0,158725309219215 
792	 0,158610212417212 
793	 0,158627277698456 
794	 0,158871926367541 
795	 0,159272074211709 
796	 0,159668181388948 
797	 0,159888243035173 
798	 0,159818923266215 
799	 0,1592429547505 
800	 0,158962685185812 
801	 0,159668409338 
802	 0,160109025181961 
803	 0,160223287756969 
804	 0,160574374713359 
805	 0,160547886781075 
806	 0,160116931912302 
807	 0,160341239632141 
808	 0,160824681604593 
809	 0,161040076049874 
810	 0,160616805579621 
811	 0,159940983611034 
812	 0,160314718756153 
813	 0,16067143821447 
814	 0,160628903148204 
815	 0,160764483627364 
816	 0,161091589679128 
817	 0,161562775618207 
818	 0,161980228081492 
819	 0,162191327695347 
820	 0,161907019512741 
821	 0,161692274771854 
822	 0,161865640782772 
823	 0,162489105494926 
824	 0,162977400072059 
825	 0,162603961925191 
826	 0,162583251658164 
827	 0,162981418419253 
828	 0,163042518690565 
829	 0,162907664974145 
830	 0,162713420863435 
831	 0,162933285257425 
832	 0,163225845395874 
833	 0,163062079194226 
834	 0,163192883251544 
835	 0,163507249730007 
836	 0,162937325503033 
837	 0,162800827055745 
838	 0,163647341271957 
839	 0,163871041265833 
840	 0,163843427805096 
841	 0,164341872727119 
842	 0,164325336112333 
843	 0,163860557353565 
844	 0,164043203775089 
845	 0,164211240936224 
846	 0,164017139863636 
847	 0,163691430783828 
848	 0,163502893520838 
849	 0,163775792762249 
850	 0,164239091716408 
851	 0,164560302836248 
852	 0,163915346110417 
853	 0,163460250226729 
854	 0,163781754971308 
855	 0,164175022536688 
856	 0,164296022689735 
857	 0,163806843597907 
858	 0,163665707754391 
859	 0,163976521844945 
860	 0,164233513990835 
861	 0,164400935466813 
862	 0,164488324235826 
863	 0,164845390535895 
864	 0,165110398381705 
865	 0,164789874770693 
866	 0,164950609082799 
867	 0,165462684738266 
868	 0,165093321661013 
869	 0,164844267229913 
870	 0,165161055713766 
871	 0,16566539883724 
872	 0,165893373208915 
873	 0,165374281421183 
874	 0,165132987510645 
875	 0,165415520663395 
876	 0,166299286462932 
877	 0,16659960884577 
878	 0,165962816219573 
879	 0,16562533558901 
880	 0,165819494832456 
881	 0,166594721938644 
882	 0,166250526639924 
883	 0,165289833124227 
884	 0,166010254220716 
885	 0,166614735426767 
886	 0,166644473870764 
887	 0,167318788886688 
888	 0,167687551165645 
889	 0,166936330270683 
890	 0,167036483620085 
891	 0,167668946872123 
892	 0,167283165196638 
893	 0,167331608915503 
894	 0,167954007399728 
895	 0,167687241845051 
896	 0,167107996148518 
897	 0,166764148537473 
898	 0,166982202113146 
899	 0,167372592093999 
900	 0,167119379518321 
901	 0,167287867168006 
902	 0,167966904467031 
903	 0,16835366435631 
904	 0,168469474802123 
905	 0,1684157775557 
906	 0,168990788368832 
907	 0,169260085117861 
908	 0,167810767400593 
909	 0,167140975251694 
910	 0,167512779388869 
911	 0,167617683698036 
912	 0,167713017189054 
913	 0,1678355910245 
914	 0,16768302967712 
915	 0,167569741730181 
916	 0,167850905261153 
917	 0,168091282989029 
918	 0,168357587121626 
919	 0,169143173099267 
920	 0,169344774092702 
921	 0,168846259964167 
922	 0,169155917941148 
923	 0,169449784441082 
924	 0,169019326793063 
925	 0,168410588907423 
926	 0,16803159508251 
927	 0,168450694200891 
928	 0,168546237868938 
929	 0,168288279907147 
930	 0,168831511414907 
931	 0,169610354852468 
932	 0,170102121504384 
933	 0,169329155090044 
934	 0,168173913165375 
935	 0,167896629667707 
936	 0,167936714441889 
937	 0,167888415467494 
938	 0,166721202093707 
939	 0,166949061796519 
940	 0,168771528523404 
941	 0,167864204093767 
942	 0,166704006465421 
943	 0,167532320383679 
944	 0,167836044321504 
945	 0,1671862180649 
946	 0,165494204982424 
947	 0,165337762591862 
948	 0,166639165362048 
949	 0,166059748147437 
950	 0,165339706195649 
951	 0,1653257548089 
952	 0,164580022400823 
953	 0,163800941725311 
954	 0,163959330748654 
955	 0,164407238183899 
956	 0,164699741132979 
957	 0,164136580849217 
958	 0,163243080089555 
959	 0,162466601703706 
960	 0,162735795427876 
961	 0,163422424323931 
962	 0,163947614838764 
963	 0,164283948224677 
964	 0,163624737153272 
965	 0,160851517745455 
966	 0,160698463732794 
967	 0,163023540693424 
968	 0,163407269191043 
969	 0,163475643644361 
970	 0,163751138143529 
971	 0,163617949865102 
972	 0,163504484305895 
973	 0,163767366408648 
974	 0,163397507647175 
975	 0,163442960446151 
976	 0,166088001297355 
977	 0,166295034678821 
978	 0,163909985710005 
979	 0,163619645442494 
980	 0,163141307669393 
981	 0,161976104783583 
982	 0,163848467148687 
983	 0,165965325121251 
984	 0,165325387571162 
985	 0,164131521971209 
986	 0,163547092812596 
987	 0,164966753262406 
988	 0,16683857945962 
989	 0,168262758267317 
990	 0,168274016057897 
991	 0,166882486070184 
992	 0,164763630236845 
993	 0,16560795099446 
994	 0,166182339568083 
995	 0,163325016086384 
996	 0,164424290315179 
997	 0,167732336004295 
998	 0,167270858196277 
999	 0,167530024005862 
1000	 0,168835001819944 
1001	 0,167862233235368 
1002	 0,166942563924733 
1003	 0,167355728155262 
1004	 0,169168266318013 
1005	 0,170069817472614 
1006	 0,168251597954054 
1007	 0,169256348285654 
1008	 0,171986014398678 
1009	 0,17281331730387 
1010	 0,172469100677124 
1011	 0,171334128572073 
1012	 0,169823236120216 
1013	 0,170781452808772 
1014	 0,174469087926459 
1015	 0,175694704678808 
1016	 0,173388773282239 
1017	 0,168056128252756 
1018	 0,169478142013725 
1019	 0,173825037748425 
1020	 0,173258918861065 
1021	 0,174054421030644 
1022	 0,176413869232561 
1023	 0,177176218004039 
1024	 0,176632524711794 
1025	 0,175103272644909 
1026	 0,173474332182276 
1027	 0,174380664623241 
1028	 0,178418584282661 
1029	 0,177772984976734 
1030	 0,175837975898866 
1031	 0,177233045766738 
1032	 0,175484071782345 
1033	 0,172541176958191 
1034	 0,17471708584556 
1035	 0,173543909531706 
1036	 0,170529448174166 
1037	 0,180219760976203 
1038	 0,18456776197441 
1039	 0,177265434716647 
1040	 0,171608599003404 
1041	 0,172254420982708 
1042	 0,180674526273855 
1043	 0,181771880653101 
1044	 0,178668153742115 
1045	 0,178726024528382 
1046	 0,183503521369819 
1047	 0,188427343986091 
1048	 0,181579721570601 
1049	 0,182852085931893 
1050	 0,192048898611508 
1051	 0,182737671612826 
1052	 0,17848019948181 
1053	 0,188304165786864 
1054	 0,193301079199398 
1055	 0,187535238777545 
1056	 0,170135784859052 
1057	 0,170919040656711 
1058	 0,181137236353898 
1059	 0,182201219252091 
1060	 0,17846966152671 
1061	 0,172974622668341 
1062	 0,170702175060456 
1063	 0,175531246407435 
1064	 0,186962287454725 
1065	 0,198993769872286 
1066	 0,199850283453224 
1067	 0,188346773568454 
1068	 0,187502265683853 
1069	 0,181710700007589 
1070	 0,16385510593955 
1071	 0,174381818018484 
1072	 0,19627969497354 
1073	 0,203235347806606 
1074	 0,198845849831995 
1075	 0,185986134458697 
