Wavelength	ABBE00092.asd
325	 0,44790330989587 
326	 0,399454601107494 
327	 0,358522777869655 
328	 0,293015581508795 
329	 0,150365862820224 
330	 0,204538105790253 
331	 0,614612979315524 
332	 0,499791500203119 
333	 0,131711487948274 
334	 0,27852722349639 
335	 0,385918771837544 
336	 0,34494276495039 
337	 0,258652644803236 
338	 0,191954704954993 
339	 0,190263743459129 
340	 0,284250001786646 
341	 0,372841513553692 
342	 0,303906328249019 
343	 0,259193754184722 
344	 0,271951122288497 
345	 0,253827239744832 
346	 0,251477314549933 
347	 0,307451886767076 
348	 0,270472504085695 
349	 0,192583509758564 
350	 0,271371250442063 
351	 0,314700467655585 
352	 0,269723566484953 
353	 0,286116194317717 
354	 0,305192261110307 
355	 0,242919881233788 
356	 0,220322395139427 
357	 0,242314239436571 
358	 0,26390028064502 
359	 0,276137881970238 
360	 0,27499668104673 
361	 0,267406800074228 
362	 0,260903515106078 
363	 0,263803708852364 
364	 0,267355952642331 
365	 0,269126691675059 
366	 0,26886460611643 
367	 0,268310291266586 
368	 0,266743646069669 
369	 0,242804043142647 
370	 0,227710453453942 
371	 0,287736730641033 
372	 0,303895566196531 
373	 0,260215804321903 
374	 0,241238727960872 
375	 0,2501292651661 
376	 0,281473285981295 
377	 0,279522613893227 
378	 0,256550216454703 
379	 0,256869030211156 
380	 0,257447980217905 
381	 0,256230723754033 
382	 0,277735953248743 
383	 0,292504801004257 
384	 0,275979222237821 
385	 0,250627183760177 
386	 0,231654169888112 
387	 0,243032546779388 
388	 0,258651368891353 
389	 0,266429873033953 
390	 0,265614916738045 
391	 0,264022332645158 
392	 0,270630397254722 
393	 0,27598100901642 
394	 0,276812096756954 
395	 0,269165238724441 
396	 0,264948866506287 
397	 0,270096349171664 
398	 0,277398862637223 
399	 0,282415857701977 
400	 0,28031533624763 
401	 0,275959525401447 
402	 0,271831377808223 
403	 0,270933300276097 
404	 0,271012324598677 
405	 0,270163610125247 
406	 0,265660490701946 
407	 0,261271729347193 
408	 0,26551938091236 
409	 0,265824800362641 
410	 0,261921024734371 
411	 0,271994227642657 
412	 0,27933028309575 
413	 0,269274155241417 
414	 0,263657503559663 
415	 0,264653959116572 
416	 0,266559304179329 
417	 0,27152018289613 
418	 0,277561566127961 
419	 0,269782145560081 
420	 0,258685278668506 
421	 0,258921508285513 
422	 0,26202025177229 
423	 0,264941403317357 
424	 0,264521960284807 
425	 0,264662633198222 
426	 0,267462030432199 
427	 0,269895340570182 
428	 0,270359139489177 
429	 0,266280446829758 
430	 0,265644564382558 
431	 0,269021213664117 
432	 0,267798271031783 
433	 0,264655182028365 
434	 0,262356542540333 
435	 0,26197868971112 
436	 0,263626296998286 
437	 0,267419564673505 
438	 0,26862621503137 
439	 0,266135735001462 
440	 0,266553037451332 
441	 0,268043434874597 
442	 0,267576604784241 
443	 0,266162572235928 
444	 0,265337066058435 
445	 0,269444414688733 
446	 0,273152873071762 
447	 0,273308791659669 
448	 0,27291320288979 
449	 0,272980175439722 
450	 0,27462253501991 
451	 0,275569167238235 
452	 0,275360992100096 
453	 0,275577438896498 
454	 0,276013606385026 
455	 0,276366574901325 
456	 0,275612000979202 
457	 0,274414965430506 
458	 0,274846402440723 
459	 0,276328966418306 
460	 0,277968950622859 
461	 0,275712438945692 
462	 0,273801414708558 
463	 0,278283780717339 
464	 0,28086079788255 
465	 0,280058492152542 
466	 0,278432689630214 
467	 0,277694252982444 
468	 0,278979835490766 
469	 0,281295175907849 
470	 0,283494773435842 
471	 0,283788704953498 
472	 0,283759821114039 
473	 0,283518665803205 
474	 0,280613869882869 
475	 0,279035848433884 
476	 0,282555311871512 
477	 0,285219821229347 
478	 0,28583106865657 
479	 0,284679194405641 
480	 0,284743296880056 
481	 0,286807698135355 
482	 0,285514190774556 
483	 0,282367878575772 
484	 0,280325807181173 
485	 0,281159467680123 
486	 0,283674018869667 
487	 0,281283605831728 
488	 0,278810891413714 
489	 0,279860241960431 
490	 0,28093634378523 
491	 0,281429720386304 
492	 0,281181312144267 
493	 0,281809970643683 
494	 0,283358612286893 
495	 0,282732530909993 
496	 0,281534051498737 
497	 0,281793279119043 
498	 0,282052862771632 
499	 0,282119486310669 
500	 0,282293448394248 
501	 0,282873665133321 
502	 0,284001200542222 
503	 0,285358980993328 
504	 0,286582555478126 
505	 0,287245691872592 
506	 0,28694315325653 
507	 0,28622796558478 
508	 0,287740364123925 
509	 0,289948401653672 
510	 0,291340566408568 
511	 0,292155193068422 
512	 0,292875829059898 
513	 0,294793352505389 
514	 0,296126082859285 
515	 0,296333977489938 
516	 0,297294841878916 
517	 0,298414656475221 
518	 0,298641169276347 
519	 0,298457999446205 
520	 0,298238407063845 
521	 0,298873820984017 
522	 0,299219883734895 
523	 0,298575584931417 
524	 0,29887893481438 
525	 0,299742368729844 
526	 0,299655299704089 
527	 0,299360668936713 
528	 0,299005502241477 
529	 0,298081806760849 
530	 0,297109787033082 
531	 0,29670566486079 
532	 0,297143920251982 
533	 0,298016431022575 
534	 0,297993838540258 
535	 0,297514357890153 
536	 0,296976807978176 
537	 0,297431337276224 
538	 0,298239417824484 
539	 0,297948061834589 
540	 0,297771197756398 
541	 0,298041020721808 
542	 0,298473573003861 
543	 0,298817426788238 
544	 0,298862007151415 
545	 0,299071005486434 
546	 0,299424180875665 
547	 0,299639869770189 
548	 0,299604209022318 
549	 0,299347311806468 
550	 0,299458816903383 
551	 0,299951077792584 
552	 0,300753761137753 
553	 0,301235178375843 
554	 0,301181594663254 
555	 0,30060870113842 
556	 0,30025866080621 
557	 0,300642967055527 
558	 0,300157989001212 
559	 0,298953287741138 
560	 0,298060529134611 
561	 0,297534448362009 
562	 0,297310783392124 
563	 0,296524230577682 
564	 0,295592240314422 
565	 0,295155746691965 
566	 0,295449756113204 
567	 0,296158938523875 
568	 0,295803191811999 
569	 0,296157234854138 
570	 0,298225203509058 
571	 0,298788859649551 
572	 0,298792501959126 
573	 0,301475533521504 
574	 0,303816793806161 
575	 0,305045146704979 
576	 0,307065900958102 
577	 0,309446535569426 
578	 0,311565226680764 
579	 0,313534292450774 
580	 0,315315012227705 
581	 0,316784246820981 
582	 0,318134855973953 
583	 0,319578595608705 
584	 0,321835345637109 
585	 0,324158727336748 
586	 0,325033009000445 
587	 0,326359808875176 
588	 0,328451675813442 
589	 0,329979152669323 
590	 0,331001923902392 
591	 0,331670039011006 
592	 0,33266610633992 
593	 0,333816186578435 
594	 0,334206543471234 
595	 0,33454403172118 
596	 0,335107680024622 
597	 0,335450811136877 
598	 0,335569025931009 
599	 0,335536541832164 
600	 0,335134971962673 
601	 0,334521785911547 
602	 0,334496434192416 
603	 0,33441157387735 
604	 0,333753700487088 
605	 0,332934738153127 
606	 0,33204276745751 
607	 0,33104461525188 
608	 0,330276913102718 
609	 0,329827283821613 
610	 0,329385314174063 
611	 0,32861046748898 
612	 0,327143429442842 
613	 0,325393070634877 
614	 0,323909417668914 
615	 0,323992395376869 
616	 0,324328628100274 
617	 0,324039646496679 
618	 0,323495160855045 
619	 0,322981034467183 
620	 0,322965253294621 
621	 0,323015764794171 
622	 0,322959608050036 
623	 0,322660248203928 
624	 0,322612635793645 
625	 0,323286550641433 
626	 0,323339362158682 
627	 0,322991312094732 
628	 0,323781038594151 
629	 0,324512680779711 
630	 0,324681053089575 
631	 0,325352015599827 
632	 0,326376685913031 
633	 0,327336692611738 
634	 0,327963568988518 
635	 0,328445667079661 
636	 0,329991339661325 
637	 0,33142319240608 
638	 0,33183533963859 
639	 0,333361386217456 
640	 0,335545620914938 
641	 0,336286404186763 
642	 0,336912734709725 
643	 0,337934033601904 
644	 0,339191569514944 
645	 0,340174284060094 
646	 0,340253536225911 
647	 0,340086640345151 
648	 0,339825005258762 
649	 0,33935461285103 
650	 0,338679066470611 
651	 0,337772812647636 
652	 0,336383106983976 
653	 0,334697929827404 
654	 0,333157105958689 
655	 0,331517514071103 
656	 0,329711303030828 
657	 0,327824137287474 
658	 0,325611849396117 
659	 0,322851337457302 
660	 0,320373268251575 
661	 0,318163565939924 
662	 0,315544351697329 
663	 0,313116512759819 
664	 0,311140646512697 
665	 0,309163691775363 
666	 0,30715847669358 
667	 0,305138894738096 
668	 0,303650899943541 
669	 0,302817786335154 
670	 0,302421886769471 
671	 0,302120502984882 
672	 0,301623970291766 
673	 0,300910572670826 
674	 0,300186383477113 
675	 0,299910776922744 
676	 0,299939108189332 
677	 0,300085024337192 
678	 0,299517222304234 
679	 0,299236877505728 
680	 0,300474244126453 
681	 0,301720030694742 
682	 0,302661187096066 
683	 0,303439465829982 
684	 0,30475910103585 
685	 0,307070134124532 
686	 0,310052436338602 
687	 0,313684074409139 
688	 0,318008422106275 
689	 0,322706892014138 
690	 0,327808144210641 
691	 0,333752669754065 
692	 0,340788714263688 
693	 0,349059919953408 
694	 0,357560890285259 
695	 0,366446951737431 
696	 0,376790211115465 
697	 0,387144545049895 
698	 0,397028824917672 
699	 0,40752593234653 
700	 0,418543139309814 
701	 0,429842502668771 
702	 0,440785323214916 
703	 0,45103467920642 
704	 0,460309524742543 
705	 0,469394419399497 
706	 0,478737166396626 
707	 0,487639951580435 
708	 0,495736193110872 
709	 0,50258847517726 
710	 0,508862705208965 
711	 0,514872757140024 
712	 0,520921059739772 
713	 0,526455966867582 
714	 0,530991644752254 
715	 0,535418169848698 
716	 0,539763233237411 
717	 0,54362226506099 
718	 0,547210129155065 
719	 0,550519816365634 
720	 0,553038349938065 
721	 0,555231117985303 
722	 0,55772257828884 
723	 0,56008469872045 
724	 0,562236556044865 
725	 0,56420419115285 
726	 0,566046179106893 
727	 0,567758939293487 
728	 0,568967667908909 
729	 0,569853052133185 
730	 0,570782890746709 
731	 0,571988597693354 
732	 0,573384778590306 
733	 0,574212684735088 
734	 0,57491074794207 
735	 0,575866234769355 
736	 0,576687841908106 
737	 0,577354600437677 
738	 0,577949304577596 
739	 0,578680782553218 
740	 0,57950611027735 
741	 0,579687690599544 
742	 0,579670581198719 
743	 0,580031241025319 
744	 0,580269827743994 
745	 0,580447510755388 
746	 0,581157685608301 
747	 0,581495299851596 
748	 0,581107192337176 
749	 0,5812190899909 
750	 0,581668218541016 
751	 0,581975083865735 
752	 0,582242211605047 
753	 0,582336991500535 
754	 0,581687762528579 
755	 0,581257817539577 
756	 0,581701953014251 
757	 0,582101455863894 
758	 0,582306776515024 
759	 0,582313341989454 
760	 0,582445002833214 
761	 0,58277030527641 
762	 0,583029559488313 
763	 0,583194468333075 
764	 0,583255387412294 
765	 0,583266498966975 
766	 0,583277879371728 
767	 0,583364017225371 
768	 0,583518232002417 
769	 0,583691916119417 
770	 0,583609446310521 
771	 0,583549910377836 
772	 0,583857872209821 
773	 0,584203696755529 
774	 0,584423745062616 
775	 0,584281751674048 
776	 0,584127666967515 
777	 0,58414897763803 
778	 0,584212861280187 
779	 0,584271707752328 
780	 0,584273056917521 
781	 0,584433752180291 
782	 0,584698728224228 
783	 0,584662787294377 
784	 0,584621700868167 
785	 0,584755993666828 
786	 0,584856867149192 
787	 0,584809423323462 
788	 0,584446141799025 
789	 0,584322876824829 
790	 0,584494295080027 
791	 0,584389536868166 
792	 0,584245401624334 
793	 0,584244839779213 
794	 0,584129267562249 
795	 0,583899893465309 
796	 0,583594700473716 
797	 0,58367454727386 
798	 0,584149695095054 
799	 0,584287388123788 
800	 0,584090855510659 
801	 0,583656787397304 
802	 0,583803719770073 
803	 0,584268840493471 
804	 0,583929484497884 
805	 0,583734625236103 
806	 0,583967873164716 
807	 0,584183680119384 
808	 0,584282249006367 
809	 0,584207343172113 
810	 0,584374743719628 
811	 0,584723326968012 
812	 0,584818446009051 
813	 0,584952937436247 
814	 0,585203751825567 
815	 0,585260195914881 
816	 0,5853343929697 
817	 0,585696867900645 
818	 0,58603257290589 
819	 0,586197866506791 
820	 0,585988409645118 
821	 0,585845530924343 
822	 0,58599508574932 
823	 0,586325530731819 
824	 0,586608767011798 
825	 0,586577197126655 
826	 0,586547653099384 
827	 0,586616376797605 
828	 0,586812195088956 
829	 0,587027511523261 
830	 0,587195541672204 
831	 0,587288850558825 
832	 0,58746366506248 
833	 0,5879304014316 
834	 0,588091010170307 
835	 0,58789486403164 
836	 0,587677274107427 
837	 0,587605382993677 
838	 0,587805949537147 
839	 0,588378148820733 
840	 0,588874557894803 
841	 0,588679701366779 
842	 0,588456361114448 
843	 0,588320831142564 
844	 0,58801678574515 
845	 0,587847751825327 
846	 0,587905147821997 
847	 0,587552544923784 
848	 0,587162145373372 
849	 0,587344922398284 
850	 0,587413343894406 
851	 0,587264679262337 
852	 0,587128139023343 
853	 0,587233654876742 
854	 0,587582862037144 
855	 0,587250358906822 
856	 0,58670126232571 
857	 0,586702967052698 
858	 0,586555111886755 
859	 0,586444772848176 
860	 0,587596457553098 
861	 0,588207830165316 
862	 0,587575598496519 
863	 0,587837686431621 
864	 0,588439151981772 
865	 0,588380815442809 
866	 0,588703327660556 
867	 0,589350918137512 
868	 0,589488373244015 
869	 0,589293958468231 
870	 0,588988887276454 
871	 0,589316190954617 
872	 0,590098814441623 
873	 0,590991552634436 
874	 0,590840076496312 
875	 0,590033203266916 
876	 0,590423201591312 
877	 0,59115531450082 
878	 0,591762040032183 
879	 0,591720951026183 
880	 0,591489413822415 
881	 0,591600906256793 
882	 0,591641115430321 
883	 0,591625221175697 
884	 0,591828046984025 
885	 0,591806357248931 
886	 0,591520748819971 
887	 0,591697652767969 
888	 0,59171454268919 
889	 0,591082600849288 
890	 0,591835114776563 
891	 0,592966910016026 
892	 0,591370486420521 
893	 0,591003589960149 
894	 0,592428031272409 
895	 0,591997951424878 
896	 0,591297247587419 
897	 0,591593848310656 
898	 0,591702127539481 
899	 0,591807567311233 
900	 0,592564047132888 
901	 0,5927611804556 
902	 0,592355301647812 
903	 0,592572857630531 
904	 0,59287678878918 
905	 0,592938273167336 
906	 0,592981227966598 
907	 0,593068445945276 
908	 0,593253198252142 
909	 0,593026954452958 
910	 0,592618873834284 
911	 0,593165483040511 
912	 0,593570069901873 
913	 0,593399218944329 
914	 0,593464109175893 
915	 0,593561830514829 
916	 0,593432571556931 
917	 0,593920657479132 
918	 0,594648291077984 
919	 0,59422685339613 
920	 0,593963688801645 
921	 0,594156918540029 
922	 0,593866943845396 
923	 0,593701256562252 
924	 0,594104129665178 
925	 0,593928562978754 
926	 0,593549850708374 
927	 0,594010920261832 
928	 0,593583835272739 
929	 0,59233209440103 
930	 0,592238884768926 
931	 0,592730521002341 
932	 0,593282525037781 
933	 0,592897476980699 
934	 0,592007584114759 
935	 0,591354144940211 
936	 0,591401182043153 
937	 0,591944361637805 
938	 0,592171111263454 
939	 0,591743460622764 
940	 0,590731062776639 
941	 0,590347946657326 
942	 0,590171455743874 
943	 0,589767804131897 
944	 0,589241771583424 
945	 0,589034676745325 
946	 0,590018420593065 
947	 0,589122849633535 
948	 0,586635747794341 
949	 0,58703994406323 
950	 0,58756001951397 
951	 0,586877000991539 
952	 0,587620470644326 
953	 0,588383236193848 
954	 0,587243721480326 
955	 0,585795523392995 
956	 0,584467403493658 
957	 0,583307097526403 
958	 0,58288688913901 
959	 0,583093518321462 
960	 0,582418696536956 
961	 0,581692301662402 
962	 0,581572090834392 
963	 0,581651007592138 
964	 0,581813620686372 
965	 0,581966259999526 
966	 0,582149226852625 
967	 0,582255041562536 
968	 0,581947273211022 
969	 0,581745797515798 
970	 0,581738507627288 
971	 0,580948208324864 
972	 0,580739307783821 
973	 0,582131047495688 
974	 0,581664786020519 
975	 0,5808089760156 
976	 0,583262543590299 
977	 0,583314685977765 
978	 0,580673465260494 
979	 0,579862681674224 
980	 0,580153325206407 
981	 0,58118098049172 
982	 0,582637219017693 
983	 0,583888104235946 
984	 0,584281860516703 
985	 0,583057574628398 
986	 0,581633220226138 
987	 0,582923538797015 
988	 0,583966797407068 
989	 0,584291501102644 
990	 0,585531455912771 
991	 0,586714906543753 
992	 0,587264546760279 
993	 0,587427312964138 
994	 0,586402339255258 
995	 0,583842530021212 
996	 0,586250749555545 
997	 0,590445475385779 
998	 0,58792163515833 
999	 0,587750098124934 
1000	 0,590922765554022 
1001	 0,591439712633743 
1002	 0,591437387206325 
1003	 0,591817107361385 
1004	 0,591321418283979 
1005	 0,591647158388663 
1006	 0,59420549936242 
1007	 0,595216924205688 
1008	 0,594817470308737 
1009	 0,594488765534464 
1010	 0,595361891579874 
1011	 0,596970290666694 
1012	 0,596414319184463 
1013	 0,596581705623483 
1014	 0,598142615037536 
1015	 0,597545469483944 
1016	 0,596987851597572 
1017	 0,598245779385257 
1018	 0,598391662797153 
1019	 0,598004298559438 
1020	 0,598559586243565 
1021	 0,601064015525687 
1022	 0,603899431224958 
1023	 0,601454526467665 
1024	 0,602209460255442 
1025	 0,606250000970936 
1026	 0,599636874398129 
1027	 0,594200610083174 
1028	 0,597387038672408 
1029	 0,602020252798981 
1030	 0,604908271032945 
1031	 0,603531899305449 
1032	 0,603175170802178 
1033	 0,605600884037643 
1034	 0,612278066284626 
1035	 0,610999729396673 
1036	 0,603827506312977 
1037	 0,611960151712743 
1038	 0,614399794508337 
1039	 0,604970918762228 
1040	 0,604676730169238 
1041	 0,607276317456036 
1042	 0,607041383223533 
1043	 0,608530272997164 
1044	 0,610362594460856 
1045	 0,610226086243912 
1046	 0,61416873036104 
1047	 0,617286312817154 
1048	 0,604773645611885 
1049	 0,604447386575058 
1050	 0,617957818341681 
1051	 0,616466031793597 
1052	 0,613481919677517 
1053	 0,614697179166427 
1054	 0,611905070736114 
1055	 0,608702193994069 
1056	 0,609227241373962 
1057	 0,618323150258966 
1058	 0,626048357255676 
1059	 0,618867434618673 
1060	 0,616407695612737 
1061	 0,618023399747416 
1062	 0,61191998171166 
1063	 0,608643706938148 
1064	 0,609907167705959 
1065	 0,610309034715048 
1066	 0,609541178969482 
1067	 0,609488694408079 
1068	 0,624030258076301 
1069	 0,621832719545989 
1070	 0,587595247501366 
1071	 0,593699749163796 
1072	 0,620831395005153 
1073	 0,634194391126066 
1074	 0,620170887460053 
1075	 0,595922008438594 
