Wavelength	ABBE00171.asd
325	 0,103196466062647 
326	 0,166883713164705 
327	 0,116872543157734 
328	-5,54477890326839E-02 
329	-5,08662008864849E-02 
330	 6,33608325101379E-02 
331	 0,160623543674712 
332	 9,88611875610366E-02 
333	-4,09280641838781E-02 
334	-7,91908189411114E-02 
335	-5,69761139522279E-02 
336	-7,12299723821125E-03 
337	-1,18538127549717E-02 
338	-3,92890440914716E-02 
339	-6,36802006514513E-02 
340	-6,29703345315772E-02 
341	-3,83947720920149E-02 
342	-9,09249317068285E-03 
343	 2,78143436461715E-02 
344	 6,41882342709292E-02 
345	 4,88969640001605E-02 
346	 2,92423056420768E-02 
347	 5,01710163939854E-02 
348	 5,29639858670873E-02 
349	 3,87251436538747E-02 
350	 3,43244702113836E-02 
351	 4,02370019256406E-02 
352	 5,02059626894128E-02 
353	 2,63323305325389E-02 
354	-1,04506874190208E-02 
355	-2,52658165782377E-02 
356	-5,97641864934082E-03 
357	 0,026511136864621 
358	 9,31002824720513E-03 
359	-1,59003694164879E-03 
360	 1,42851470947682E-02 
361	 9,27784536156247E-03 
362	-9,55818371007705E-03 
363	-2,63813930456747E-02 
364	-1,12453845442276E-02 
365	 2,78698125697865E-02 
366	 3,53387587134798E-02 
367	 3,37911535548608E-02 
368	 3,58580140615932E-02 
369	 1,95090441205378E-02 
370	 3,64905273107689E-04 
371	 1,30472326913909E-02 
372	 1,72107775606318E-02 
373	 5,7334535477804E-03 
374	-1,96482344555455E-03 
375	 5,86017669823573E-03 
376	 3,35391001190633E-02 
377	 4,16845148266038E-02 
378	 0,033570345187381 
379	 2,95844121434896E-02 
380	 1,67058858708698E-02 
381	-5,00276325156148E-04 
382	 2,33497935841756E-02 
383	 4,12816926076494E-02 
384	 1,29826864629616E-02 
385	-6,55585238397007E-03 
386	-7,62425055797873E-03 
387	 4,66848092990596E-03 
388	 0,019031516841413 
389	 2,65351598909316E-02 
390	 1,19219825663217E-02 
391	-0,005490964566448 
392	-1,86916615718909E-03 
393	 8,18950834972783E-03 
394	 1,66309863346781E-02 
395	 1,01164578737884E-02 
396	 7,74557979237547E-03 
397	 1,72111345812999E-02 
398	 0,015487404984199 
399	 1,14117837135613E-02 
400	 0,022346826921012 
401	 1,85395184472164E-02 
402	 2,37032048592213E-03 
403	 1,15555086426466E-02 
404	 1,98411548387855E-02 
405	 1,06043002937972E-02 
406	 4,82996736196315E-03 
407	 4,33316273405926E-03 
408	 5,49719867376745E-03 
409	 1,27604159517392E-02 
410	 0,023541883457598 
411	 2,15406928370444E-02 
412	 1,34454114272774E-02 
413	 6,6525856238598E-03 
414	 6,43440094393553E-03 
415	 1,14515088352689E-02 
416	 1,57122405957421E-02 
417	 1,89280456685166E-02 
418	 0,020026683334815 
419	 1,49544642363775E-02 
420	 8,57781568757519E-03 
421	 7,27983216827174E-03 
422	 8,7115100162912E-03 
423	 1,10034032021265E-02 
424	 1,02098326458289E-02 
425	 9,32293139737292E-03 
426	 1,01600034647323E-02 
427	 1,15416843647812E-02 
428	 1,26644499333511E-02 
429	 0,01217583647138 
430	 1,31818710121781E-02 
431	 1,60774106487346E-02 
432	 1,89292048673583E-02 
433	 1,90817005152183E-02 
434	 1,47440086522097E-02 
435	 1,34142676130824E-02 
436	 1,54086246133213E-02 
437	 1,82325315415133E-02 
438	 0,018068519921761 
439	 1,41708916638452E-02 
440	 1,31648432726387E-02 
441	 1,33400590890283E-02 
442	 1,17712271663827E-02 
443	 1,23366206436187E-02 
444	 1,52056952964064E-02 
445	 1,85042381669529E-02 
446	 1,87411544378601E-02 
447	 1,45087029787105E-02 
448	 0,013566500548137 
449	 1,50968933694088E-02 
450	 1,54962034041099E-02 
451	 1,49284282792108E-02 
452	 1,42613957788662E-02 
453	 1,83806808842785E-02 
454	 2,01421762258101E-02 
455	 0,013422987972006 
456	 9,44713511541618E-03 
457	 9,94333037839069E-03 
458	 1,33233691801747E-02 
459	 1,57424932612969E-02 
460	 1,54400167039262E-02 
461	 1,45775684413828E-02 
462	 1,42887172512658E-02 
463	 1,57804440386113E-02 
464	 0,015191220481036 
465	 1,28114447436312E-02 
466	 1,31249107311937E-02 
467	 1,40253681486461E-02 
468	 1,41464841074669E-02 
469	 1,45587879811564E-02 
470	 1,51052913864498E-02 
471	 1,53043263176973E-02 
472	 1,48290878357401E-02 
473	 1,39422054892227E-02 
474	 1,46508639472792E-02 
475	 1,43552051391208E-02 
476	 0,01074779315433 
477	 0,012431501047344 
478	 1,76459149139026E-02 
479	 1,69400603313223E-02 
480	 1,56658513800329E-02 
481	 1,57943589132938E-02 
482	 1,28498446715559E-02 
483	 1,01302673085243E-02 
484	 1,30535183998441E-02 
485	 1,60602450225612E-02 
486	 1,69999162920665E-02 
487	 1,40217906569346E-02 
488	 1,13578317426709E-02 
489	 1,21663955333461E-02 
490	 1,34724503408024E-02 
491	 1,45010027836912E-02 
492	 1,46836154876045E-02 
493	 1,52750616989087E-02 
494	 1,63294790358113E-02 
495	 1,59764665273158E-02 
496	 1,41829018626396E-02 
497	 1,11432172873367E-02 
498	 1,14582535693525E-02 
499	 1,41804092456362E-02 
500	 1,29029972079537E-02 
501	 1,15762368029429E-02 
502	 1,23501306978996E-02 
503	 1,36812304491554E-02 
504	 1,44399183063936E-02 
505	 1,29795737733838E-02 
506	 1,21480558713816E-02 
507	 1,25486205406267E-02 
508	 1,26769244180138E-02 
509	 1,23488373110359E-02 
510	 1,15556998709505E-02 
511	 1,19097845611639E-02 
512	 1,33878408896193E-02 
513	 1,54821033686546E-02 
514	 1,57625472170337E-02 
515	 1,37385655371277E-02 
516	 1,38977000907061E-02 
517	 1,52200486156386E-02 
518	 1,56847836823684E-02 
519	 1,48337146267421E-02 
520	 1,33654595245853E-02 
521	 1,45547055189764E-02 
522	 1,49969021233369E-02 
523	 1,25661760008201E-02 
524	 1,25549127333736E-02 
525	 1,42447420566445E-02 
526	 1,41724350061902E-02 
527	 1,38820093261989E-02 
528	 1,38024762559045E-02 
529	 1,37524414679729E-02 
530	 1,34501459713175E-02 
531	 1,26046267245273E-02 
532	 1,29227671823982E-02 
533	 1,40737051883266E-02 
534	 1,37782961984717E-02 
535	 1,33430781303663E-02 
536	 1,35525559321524E-02 
537	 1,42016543497044E-02 
538	 1,47630667708356E-02 
539	 1,43194437498611E-02 
540	 1,38816546178873E-02 
541	 1,37901321828878E-02 
542	 1,39795261227561E-02 
543	 1,40795580556861E-02 
544	 1,37722327357511E-02 
545	 1,41272633990616E-02 
546	 1,46941178568258E-02 
547	 1,35416825762898E-02 
548	 1,26974655556457E-02 
549	 1,30867074188246E-02 
550	 1,34959326884983E-02 
551	 0,013933924939567 
552	 1,46849523207145E-02 
553	 1,46064414190853E-02 
554	 1,37282536552087E-02 
555	 1,35131634720247E-02 
556	 1,37118681709768E-02 
557	 1,40301312617975E-02 
558	 1,38235496936147E-02 
559	 1,33284141691709E-02 
560	 1,34893896545435E-02 
561	 1,34782146835156E-02 
562	 1,31612372374189E-02 
563	 1,38586167443372E-02 
564	 1,45512146360918E-02 
565	 1,37689637884758E-02 
566	 1,36106326397152E-02 
567	 1,41920375602192E-02 
568	 1,38733930354237E-02 
569	 1,36307867937763E-02 
570	 1,41084442991895E-02 
571	 0,014647253824733 
572	 1,48235109929858E-02 
573	 1,38838588247502E-02 
574	 1,33203955126862E-02 
575	 1,36895696849362E-02 
576	 1,45895791291444E-02 
577	 0,015634043063421 
578	 1,64121721819883E-02 
579	 1,64351876686466E-02 
580	 1,58697294395054E-02 
581	 0,015510974147736 
582	 1,56016308627454E-02 
583	 1,62390308343632E-02 
584	 1,68623461640551E-02 
585	 1,72249400505261E-02 
586	 1,70187995169549E-02 
587	 1,72830203007027E-02 
588	 1,79943039801585E-02 
589	 1,73962248391763E-02 
590	 1,69725283008635E-02 
591	 1,80825996119105E-02 
592	 1,87583877521351E-02 
593	 1,87204244221228E-02 
594	 1,82853513483888E-02 
595	 1,80569118702262E-02 
596	 1,82931101663371E-02 
597	 1,83761114449554E-02 
598	 1,83476708789276E-02 
599	 0,018389779403873 
600	 1,80561749635124E-02 
601	 1,74649708112622E-02 
602	 1,75065109650606E-02 
603	 1,77173808568254E-02 
604	 1,77189961997352E-02 
605	 1,77777338186422E-02 
606	 1,77882003024102E-02 
607	 1,73503515658063E-02 
608	 1,71907935434433E-02 
609	 1,74526594906736E-02 
610	 1,72368749624718E-02 
611	 1,66942753778303E-02 
612	 1,61115740069108E-02 
613	 1,57785887968196E-02 
614	 1,57205416780074E-02 
615	 1,56596303750512E-02 
616	 1,58085777716375E-02 
617	 1,62152280468327E-02 
618	 1,60907525679826E-02 
619	 1,57206744133795E-02 
620	 1,58936918175055E-02 
621	 1,61132773997177E-02 
622	 0,016157057212967 
623	 1,56947244854104E-02 
624	 1,54861249906832E-02 
625	 1,62639972485031E-02 
626	 1,60633184704256E-02 
627	 1,51980224099624E-02 
628	 0,015845332237366 
629	 1,65797388792653E-02 
630	 1,66861921328163E-02 
631	 0,016650097239524 
632	 1,66244811979875E-02 
633	 1,67811096587934E-02 
634	 1,66733865013029E-02 
635	 1,64212746860561E-02 
636	 1,70703917278866E-02 
637	 0,017717710611203 
638	 1,76384165341447E-02 
639	 1,80937803593408E-02 
640	 1,89773148390844E-02 
641	 1,95206374475745E-02 
642	 1,97336645643056E-02 
643	 1,96045780579412E-02 
644	 1,92042436267901E-02 
645	 1,89968487813696E-02 
646	 1,95484454843879E-02 
647	 1,98289143029231E-02 
648	 1,96894268259887E-02 
649	 1,95934745202485E-02 
650	 1,97038095656864E-02 
651	 2,00320489613555E-02 
652	 1,96392095999219E-02 
653	 1,87266180507275E-02 
654	 1,79465728243225E-02 
655	 1,73868570308095E-02 
656	 1,71762956841836E-02 
657	 1,75651261381305E-02 
658	 0,017899153933974 
659	 1,75139141444182E-02 
660	 1,70941147205596E-02 
661	 1,67126373392181E-02 
662	 1,61120174328927E-02 
663	 1,55278717723511E-02 
664	 1,51092943565621E-02 
665	 1,49916543142316E-02 
666	 1,48216469237391E-02 
667	 0,013989036163773 
668	 1,39751035089199E-02 
669	 1,48761888175461E-02 
670	 1,53622152489078E-02 
671	 1,54582741764914E-02 
672	 1,52237317809279E-02 
673	 1,47676970561563E-02 
674	 1,44529495788338E-02 
675	 1,51254114636691E-02 
676	 1,54224889643228E-02 
677	 1,49566887420059E-02 
678	 1,46173522544408E-02 
679	 1,48562736146245E-02 
680	 0,016081559032474 
681	 1,63159204952101E-02 
682	 1,55529021598819E-02 
683	 1,53657196568034E-02 
684	 1,55342130781664E-02 
685	 1,58775162898758E-02 
686	 1,57478625222615E-02 
687	 1,57340105869312E-02 
688	 1,70929019444231E-02 
689	 0,017879152616081 
690	 1,78288977053414E-02 
691	 0,018522436507433 
692	 1,98167176774689E-02 
693	 2,14950502850996E-02 
694	 2,30839483734407E-02 
695	 2,48155976272219E-02 
696	 2,75412997803487E-02 
697	 3,06054247929492E-02 
698	 0,033682778889043 
699	 3,65215267000251E-02 
700	 3,97599613949161E-02 
701	 4,42274198491666E-02 
702	 4,89646354159307E-02 
703	 5,36976037633952E-02 
704	 5,85505662425213E-02 
705	 6,32584656720801E-02 
706	 6,77483903829311E-02 
707	 7,29797236657039E-02 
708	 7,84869401961872E-02 
709	 8,31450460346782E-02 
710	 0,088107100512561 
711	 9,35388326232399E-02 
712	 9,86766664840972E-02 
713	 0,103235249935454 
714	 0,107022436754302 
715	 0,110753876752226 
716	 0,114570404886907 
717	 0,118413200362035 
718	 0,122196580153447 
719	 0,125702028741861 
720	 0,127980392770016 
721	 0,130179122225172 
722	 0,133828684485486 
723	 0,13645961489396 
724	 0,137935349430972 
725	 0,139839933784367 
726	 0,141974246039583 
727	 0,144116355981216 
728	 0,145316832885134 
729	 0,146120062219463 
730	 0,147729351776552 
731	 0,149291133130715 
732	 0,150485893320815 
733	 0,15107091487918 
734	 0,151742684967507 
735	 0,153036117981232 
736	 0,153596040041505 
737	 0,153683363615738 
738	 0,154556668706702 
739	 0,155427127468496 
740	 0,156037354969664 
741	 0,156655536116176 
742	 0,157187233145432 
743	 0,15751033728306 
744	 0,157758377096382 
745	 0,158029568882037 
746	 0,158526043409157 
747	 0,15887476959544 
748	 0,158944730929089 
749	 0,159408892120763 
750	 0,159866893994893 
751	 0,159580605137376 
752	 0,159483910479803 
753	 0,159747397576387 
754	 0,159920462899008 
755	 0,160168390644394 
756	 0,16056320338329 
757	 0,160562385040634 
758	 0,160436949482542 
759	 0,16092504102757 
760	 0,161226452151515 
761	 0,161225439794387 
762	 0,16172514764546 
763	 0,162092709905005 
764	 0,161755060657973 
765	 0,161733167712415 
766	 0,162092896992332 
767	 0,162497819546062 
768	 0,162769749299426 
769	 0,162801131332408 
770	 0,162571701576951 
771	 0,162414593484655 
772	 0,162703569121135 
773	 0,162890669094904 
774	 0,162958594302278 
775	 0,163308002510951 
776	 0,163461130935826 
777	 0,163266628288491 
778	 0,163543562994308 
779	 0,16393458491377 
780	 0,163786731205927 
781	 0,163761751117314 
782	 0,163940328695475 
783	 0,16395505762099 
784	 0,163960563841086 
785	 0,164032207438502 
786	 0,163888938015926 
787	 0,163702078376246 
788	 0,16382393471771 
789	 0,164161827986353 
790	 0,164544772798167 
791	 0,164449102215281 
792	 0,164157994264268 
793	 0,163953061154842 
794	 0,164145988609821 
795	 0,164521793148262 
796	 0,164512689332645 
797	 0,164435875987186 
798	 0,164359601328934 
799	 0,16409847906082 
800	 0,163928585016887 
801	 0,164096757263522 
802	 0,164257841218386 
803	 0,164350272467226 
804	 0,164372696219042 
805	 0,164582760123412 
806	 0,164970170977861 
807	 0,164896817153511 
808	 0,164803465610369 
809	 0,165173884280155 
810	 0,165105681547012 
811	 0,164795146615903 
812	 0,165364679141707 
813	 0,165643819940304 
814	 0,165291145183019 
815	 0,16542214825758 
816	 0,165872749837628 
817	 0,166325390543868 
818	 0,166661878939245 
819	 0,166779204465298 
820	 0,166436265082251 
821	 0,166488204090477 
822	 0,167237997599223 
823	 0,167702289385041 
824	 0,16784003823324 
825	 0,167745283213052 
826	 0,167708420057388 
827	 0,167752520980348 
828	 0,167616820650768 
829	 0,167656175439354 
830	 0,168027635431866 
831	 0,168541893509103 
832	 0,168639778034403 
833	 0,167630227551051 
834	 0,167714584337544 
835	 0,168797349911649 
836	 0,168621575786301 
837	 0,168330818717455 
838	 0,168542890571201 
839	 0,169006103493721 
840	 0,169535996657507 
841	 0,16990865120091 
842	 0,17010607812229 
843	 0,170094561949342 
844	 0,169805724362287 
845	 0,169493234717023 
846	 0,1693243462859 
847	 0,169351302714276 
848	 0,169305514922472 
849	 0,168812870714999 
850	 0,168371879246511 
851	 0,168198096272877 
852	 0,168522459650323 
853	 0,168817266468794 
854	 0,168826627951422 
855	 0,169006141419586 
856	 0,169350137933255 
857	 0,169782639614498 
858	 0,169120573753887 
859	 0,167820825252901 
860	 0,16829352262044 
861	 0,168764435336772 
862	 0,168506900518364 
863	 0,169243837548131 
864	 0,170088373794377 
865	 0,169710044426758 
866	 0,169679983859895 
867	 0,170101117438158 
868	 0,170191675226278 
869	 0,169755897256302 
870	 0,168973701890197 
871	 0,169540927061166 
872	 0,170654537519584 
873	 0,171158462169204 
874	 0,171433782315157 
875	 0,171541437675216 
876	 0,171424732512984 
877	 0,171639847856107 
878	 0,172284599789243 
879	 0,17241483626369 
880	 0,172306642725386 
881	 0,172319263425498 
882	 0,17181500705966 
883	 0,171242408564508 
884	 0,172130145948331 
885	 0,172599555304035 
886	 0,172334041896239 
887	 0,173615176376517 
888	 0,17461909759465 
889	 0,173691114813488 
890	 0,173497791655281 
891	 0,174076641510214 
892	 0,174457217657177 
893	 0,174428554077327 
894	 0,173973300888194 
895	 0,173551458625305 
896	 0,173222777845221 
897	 0,173027690950046 
898	 0,172868678778396 
899	 0,173043518775147 
900	 0,17412202949168 
901	 0,174682756507935 
902	 0,174540171053162 
903	 0,174838814697359 
904	 0,174656998958997 
905	 0,173714344471613 
906	 0,174419032497074 
907	 0,175458821473638 
908	 0,17460111618245 
909	 0,174409029198267 
910	 0,175016006055728 
911	 0,174790141190616 
912	 0,174566099811431 
913	 0,174687832473467 
914	 0,174785376475722 
915	 0,174827974163412 
916	 0,174840845027888 
917	 0,17546789908758 
918	 0,176193931401055 
919	 0,175432314561488 
920	 0,174448058681902 
921	 0,173919990301871 
922	 0,174701024170614 
923	 0,175344549873467 
924	 0,174706196630067 
925	 0,174381803479735 
926	 0,174303142993691 
927	 0,173880353207161 
928	 0,173609320744021 
929	 0,173514425661108 
930	 0,173057773064988 
931	 0,173231241494116 
932	 0,174180147063866 
933	 0,172678509868453 
934	 0,170686155073279 
935	 0,171096126198102 
936	 0,171578818642495 
937	 0,171503276135399 
938	 0,170551404218368 
939	 0,169926183493061 
940	 0,16988381058348 
941	 0,168946027801039 
942	 0,168232595242238 
943	 0,168606026198951 
944	 0,167586825147862 
945	 0,165936144546562 
946	 0,165837913613563 
947	 0,165136646450863 
948	 0,16376810141289 
949	 0,163878305536323 
950	 0,16348757112465 
951	 0,161751324537329 
952	 0,161047304711741 
953	 0,160971896684118 
954	 0,160699150304388 
955	 0,159397730717332 
956	 0,157802141531758 
957	 0,158461512196763 
958	 0,157828577230115 
959	 0,155337234546347 
960	 0,154309039211535 
961	 0,154257487686254 
962	 0,154599285729983 
963	 0,154558938360807 
964	 0,154021358185171 
965	 0,153050327797955 
966	 0,153230099552856 
967	 0,154136220173234 
968	 0,153150397176255 
969	 0,152019280812577 
970	 0,151540758346281 
971	 0,151607693747339 
972	 0,152110735798052 
973	 0,152855159014341 
974	 0,153071579631643 
975	 0,152921330697842 
976	 0,152988517607687 
977	 0,152455661103716 
978	 0,151385315277614 
979	 0,150681559434681 
980	 0,150068138124043 
981	 0,149846027696157 
982	 0,152592611141243 
983	 0,154658369849444 
984	 0,152565784577127 
985	 0,152318086398761 
986	 0,15368054558248 
987	 0,153958503463893 
988	 0,155609699658238 
989	 0,157933792391506 
990	 0,156004794333185 
991	 0,155030072510435 
992	 0,157218791169774 
993	 0,157850174760285 
994	 0,157394448570115 
995	 0,156784863631499 
996	 0,156142713264388 
997	 0,156089135850643 
998	 0,157669862233952 
999	 0,158465466880102 
1000	 0,158097376735285 
1001	 0,15791981213623 
1002	 0,15839803334407 
1003	 0,159817665260768 
1004	 0,162285717061807 
1005	 0,16381778804475 
1006	 0,162701212281704 
1007	 0,161356477961362 
1008	 0,161337920890323 
1009	 0,164429769768178 
1010	 0,166937625536012 
1011	 0,167072781682693 
1012	 0,161933375056916 
1013	 0,162265411685897 
1014	 0,170139352279243 
1015	 0,169763344261507 
1016	 0,165137347297857 
1017	 0,16127879685154 
1018	 0,163665990370121 
1019	 0,168814495395372 
1020	 0,170193240551169 
1021	 0,170484799622002 
1022	 0,170787219813173 
1023	 0,172944530377809 
1024	 0,173149376668644 
1025	 0,170500724939713 
1026	 0,166825630715967 
1027	 0,167204595466999 
1028	 0,173424269364728 
1029	 0,174252075618367 
1030	 0,173082006876761 
1031	 0,175160575280409 
1032	 0,177268905738508 
1033	 0,17808340146141 
1034	 0,176185854777671 
1035	 0,175047414752063 
1036	 0,176196676061524 
1037	 0,181836807851814 
1038	 0,179920752207641 
1039	 0,169125878633635 
1040	 0,173683644653186 
1041	 0,181359841157169 
1042	 0,181052216660319 
1043	 0,176796166776058 
1044	 0,174492050720163 
1045	 0,181034539450388 
1046	 0,188841906033073 
1047	 0,191468102218297 
1048	 0,178717309973897 
1049	 0,173482220627278 
1050	 0,179043654137922 
1051	 0,176599564424039 
1052	 0,181584011009253 
1053	 0,196875159508606 
1054	 0,196938353726143 
1055	 0,188827663384875 
1056	 0,181212885508788 
1057	 0,181134383786771 
1058	 0,183939994730318 
1059	 0,181556540172817 
1060	 0,181121879028023 
1061	 0,182952710274402 
1062	 0,184562432861251 
1063	 0,183509780224625 
1064	 0,179850578698288 
1065	 0,176696482097191 
1066	 0,178108875296177 
1067	 0,182754919804563 
1068	 0,174520920418425 
1069	 0,165139891794906 
1070	 0,165821120269469 
1071	 0,178013852386937 
1072	 0,192760890405854 
1073	 0,197931870306874 
1074	 0,183432198161144 
1075	 0,164090353728279 
