Wavelength	ABBE00049.asd
325	-5,35691640011836E-02 
326	 0,181603917967554 
327	 0,23800679328813 
328	 6,24436856150822E-02 
329	-5,39944406881527E-02 
330	-3,44466495204701E-02 
331	 0,120375226778329 
332	 0,175220538978701 
333	 0,141252334698423 
334	 0,123569315099881 
335	 0,124026248052496 
336	 0,135024502738541 
337	 0,109196929639882 
338	 9,21598209896425E-02 
339	 0,123681421429087 
340	 0,154101781643285 
341	 0,146036096722492 
342	 6,16977867661485E-02 
343	 4,07519233927511E-02 
344	 9,66018491004539E-02 
345	 0,106134473528855 
346	 8,55143377950422E-02 
347	 5,96808935477263E-02 
348	 3,61607358087905E-02 
349	 0,03712821125828 
350	 0,119034809299143 
351	 0,154962862644688 
352	 0,107657033253523 
353	 6,85564995341115E-02 
354	 3,92024736355257E-02 
355	 1,71982493787777E-02 
356	 2,67431518714706E-02 
357	 5,92466754473144E-02 
358	 9,14611746113154E-02 
359	 8,38546517693403E-02 
360	 3,14047423189495E-02 
361	 4,14188875318227E-02 
362	 7,42439616521063E-02 
363	 5,87145991768201E-02 
364	 0,055351476778671 
365	 6,88958534846667E-02 
366	 6,50613689213507E-02 
367	 6,24828760166307E-02 
368	 6,99794849557177E-02 
369	 6,39859024488075E-02 
370	 4,83658031917383E-02 
371	 3,43143868865042E-02 
372	 4,41147549467801E-02 
373	 0,070571212517814 
374	 5,70740575898835E-02 
375	 4,17201570443204E-02 
376	 5,33965034212126E-02 
377	 5,94272333265236E-02 
378	 6,02838441526135E-02 
379	 6,71777320168496E-02 
380	 7,32089504509032E-02 
381	 0,075587814207261 
382	 7,17355035621716E-02 
383	 6,30854659771018E-02 
384	 5,06918964450903E-02 
385	 3,49972643517036E-02 
386	 0,022607255911657 
387	 2,62176005690993E-02 
388	 4,18521477761291E-02 
389	 6,15006106104903E-02 
390	 5,64989918516572E-02 
391	 4,71252102657648E-02 
392	 5,92540649121866E-02 
393	 5,26321709753833E-02 
394	 3,38644339875915E-02 
395	 4,64446605329391E-02 
396	 5,93276774718814E-02 
397	 5,72508214566085E-02 
398	 5,84482425854046E-02 
399	 5,94621430903056E-02 
400	 5,20118381317794E-02 
401	 5,07838357790966E-02 
402	 5,48378121166516E-02 
403	 4,49103823654375E-02 
404	 3,99127839807631E-02 
405	 5,05233055951891E-02 
406	 4,97987238544093E-02 
407	 4,35538181882357E-02 
408	 5,23023937842714E-02 
409	 5,32707033982074E-02 
410	 4,38511252058629E-02 
411	 4,38918009461697E-02 
412	 4,72857640212149E-02 
413	 0,04749426484506 
414	 4,84973284603184E-02 
415	 0,048960392976706 
416	 4,21592332362731E-02 
417	 4,49722947012958E-02 
418	 5,93026796677301E-02 
419	 5,36158476851134E-02 
420	 4,19387994250975E-02 
421	 4,52966520084544E-02 
422	 4,93097438247111E-02 
423	 5,06734850047721E-02 
424	 4,92697888205317E-02 
425	 4,94694358039843E-02 
426	 5,32924996738307E-02 
427	 5,40858179966237E-02 
428	 5,23920369065738E-02 
429	 5,05297339450612E-02 
430	 5,02670636124221E-02 
431	 5,13814723154188E-02 
432	 4,97090057731034E-02 
433	 4,87552214301963E-02 
434	 0,051377845713111 
435	 5,06427515480923E-02 
436	 4,82430874738507E-02 
437	 5,18405947317631E-02 
438	 0,05477619345769 
439	 5,47909828415973E-02 
440	 5,56723364648774E-02 
441	 0,056692287449135 
442	 5,65620432302523E-02 
443	 5,49669555157763E-02 
444	 5,35436399960077E-02 
445	 5,82554525979253E-02 
446	 6,09783168596885E-02 
447	 5,73730089755475E-02 
448	 5,59636333816997E-02 
449	 5,70309013104985E-02 
450	 5,89964852136091E-02 
451	 5,86306245668403E-02 
452	 5,60091596806843E-02 
453	 5,72050160045869E-02 
454	 5,84556685268655E-02 
455	 5,63124805890672E-02 
456	 5,60392496627995E-02 
457	 5,72889802874911E-02 
458	 5,59214875322595E-02 
459	 5,73827347952494E-02 
460	 6,22499997672251E-02 
461	 5,91225399147019E-02 
462	 5,43429691879325E-02 
463	 5,76535452012535E-02 
464	 5,94269364678217E-02 
465	 5,83124987127607E-02 
466	 5,80469686058575E-02 
467	 5,92326930996057E-02 
468	 6,17839463641196E-02 
469	 0,060708394860541 
470	 0,058478044758127 
471	 6,17175334811297E-02 
472	 6,27570500208173E-02 
473	 6,02052487337393E-02 
474	 5,95155016915788E-02 
475	 6,04218667220672E-02 
476	 6,23288530521847E-02 
477	 6,52951456795791E-02 
478	 6,73201170932305E-02 
479	 6,29305727687865E-02 
480	 6,05146550623392E-02 
481	 6,32417207275725E-02 
482	 6,27455506316739E-02 
483	 6,09304655621811E-02 
484	 6,19438643344424E-02 
485	 6,24280058358606E-02 
486	 6,19720035795929E-02 
487	 6,25810763353855E-02 
488	 0,0624664289991 
489	 6,06357777579512E-02 
490	 6,20736587754925E-02 
491	 0,06508335264832 
492	 6,38268019061277E-02 
493	 6,40975421880796E-02 
494	 6,68201284615554E-02 
495	 6,59133853710053E-02 
496	 6,36287252085811E-02 
497	 6,29760397011692E-02 
498	 6,25576373624076E-02 
499	 0,062361021930906 
500	 6,30926234831936E-02 
501	 6,40588845114876E-02 
502	 6,48350660594254E-02 
503	 0,065637616538627 
504	 6,62189945418252E-02 
505	 6,61223755972286E-02 
506	 6,60423516585249E-02 
507	 6,62390613362105E-02 
508	 6,68124311000727E-02 
509	 6,71596660354317E-02 
510	 6,68008962078735E-02 
511	 0,066804218985914 
512	 6,77975705324523E-02 
513	 0,071232553749189 
514	 7,27730095781065E-02 
515	 7,11184782559573E-02 
516	 7,14882937970468E-02 
517	 7,24999959581278E-02 
518	 7,14636969430821E-02 
519	 7,13741322145354E-02 
520	 7,24336276602157E-02 
521	 7,26401965176213E-02 
522	 7,20918975272127E-02 
523	 0,07107177057326 
524	 7,17241694365997E-02 
525	 7,30865514494932E-02 
526	 0,072127706691695 
527	 7,17086778938893E-02 
528	 7,24712056175542E-02 
529	 7,22485514875047E-02 
530	 7,18317420656626E-02 
531	 7,22851362514716E-02 
532	 7,30713332487241E-02 
533	 7,39555481940948E-02 
534	 0,074703025386972 
535	 7,50697923957721E-02 
536	 7,50144234743635E-02 
537	 7,54909992379953E-02 
538	 7,62589986495037E-02 
539	 7,66534730557223E-02 
540	 7,68393357113301E-02 
541	 0,0768385304785 
542	 0,076539729119185 
543	 7,63948585961633E-02 
544	 7,68420154064282E-02 
545	 7,79788004842979E-02 
546	 7,91233065803429E-02 
547	 7,83732696693853E-02 
548	 7,78282898882552E-02 
549	 7,84214607075587E-02 
550	 7,87466832926015E-02 
551	 7,89556169835907E-02 
552	 7,95384892492486E-02 
553	 7,98649614040928E-02 
554	 7,98843462579794E-02 
555	 0,080208841777384 
556	 8,03332811768414E-02 
557	 7,99077309781834E-02 
558	 8,01459000097701E-02 
559	 8,08270754155141E-02 
560	 8,08074322888876E-02 
561	 0,080915196449731 
562	 8,14208464022784E-02 
563	 8,19724483507967E-02 
564	 8,22353395099148E-02 
565	 8,18182947401182E-02 
566	 8,20250592394672E-02 
567	 8,28223212911776E-02 
568	 8,28093240731479E-02 
569	 8,26999409025709E-02 
570	 8,29970446100583E-02 
571	 8,34275935512659E-02 
572	 8,39233016974927E-02 
573	 8,44923767363108E-02 
574	 8,46085449087409E-02 
575	 8,43034836680003E-02 
576	 8,47337900600338E-02 
577	 8,57080766075426E-02 
578	 8,68829795599772E-02 
579	 0,087073237555506 
580	 8,65034568755009E-02 
581	 0,086767280098641 
582	 0,087415196985931 
583	 8,80815858213455E-02 
584	 8,78726508012147E-02 
585	 8,75140621019404E-02 
586	 8,85334414750008E-02 
587	 0,089063988979004 
588	 8,87782335141315E-02 
589	 8,88492888789609E-02 
590	 8,93979597315898E-02 
591	 9,04286196736443E-02 
592	 9,09417248839633E-02 
593	 0,090850814714871 
594	 9,04078077114662E-02 
595	 9,05665075588915E-02 
596	 9,15858592368828E-02 
597	 9,17041901325686E-02 
598	 9,13988771248917E-02 
599	 9,16919601412704E-02 
600	 9,14131705207716E-02 
601	 9,06866226326262E-02 
602	 9,11825957178773E-02 
603	 9,19031677603232E-02 
604	 9,20056075531435E-02 
605	 9,15919161547425E-02 
606	 9,10394926788395E-02 
607	 9,11802071434471E-02 
608	 9,15499563852442E-02 
609	 9,19151214861739E-02 
610	 9,20607484465347E-02 
611	 9,18831526171754E-02 
612	 9,12970372164869E-02 
613	 9,11041774525155E-02 
614	 9,13796519380002E-02 
615	 0,091609381828044 
616	 9,18117040051281E-02 
617	 9,19934722018771E-02 
618	 9,22384506690756E-02 
619	 9,24263615281805E-02 
620	 9,23491817408787E-02 
621	 9,18008150596106E-02 
622	 9,09979286326576E-02 
623	 0,091136010467817 
624	 9,18848535401177E-02 
625	 9,27695961479043E-02 
626	 9,25241875808205E-02 
627	 0,091552872374351 
628	 9,18157428026204E-02 
629	 9,24812387796845E-02 
630	 9,30988995514159E-02 
631	 9,36381575247865E-02 
632	 9,38886654832277E-02 
633	 9,35414469754511E-02 
634	 9,32573153190239E-02 
635	 9,33362594659694E-02 
636	 9,40383723147907E-02 
637	 9,46560433912169E-02 
638	 9,46328888997606E-02 
639	 9,50047209841489E-02 
640	 9,55998417173038E-02 
641	 9,54558530940742E-02 
642	 9,55866106538689E-02 
643	 9,61766137555178E-02 
644	 9,56456656064486E-02 
645	 0,095117048910672 
646	 9,62075233748331E-02 
647	 9,65960975602806E-02 
648	 9,61196770010588E-02 
649	 9,64048889090159E-02 
650	 9,66698980892472E-02 
651	 9,64354427617942E-02 
652	 9,64289897097336E-02 
653	 9,63772742560351E-02 
654	 9,54608801295286E-02 
655	 9,48219578432835E-02 
656	 9,48189191565972E-02 
657	 9,51716183441005E-02 
658	 0,095119213196657 
659	 9,39623234709311E-02 
660	 9,34754521963824E-02 
661	 0,093604352029791 
662	 9,29747748073947E-02 
663	 9,24409085101819E-02 
664	 9,23343633839216E-02 
665	 9,18805881644338E-02 
666	 9,11586278569549E-02 
667	 9,03953740549177E-02 
668	 9,01821059360256E-02 
669	 9,05765183061071E-02 
670	 9,10328948211922E-02 
671	 9,14122842816189E-02 
672	 0,091607393931006 
673	 9,16470679572591E-02 
674	 0,091640530389253 
675	 9,18755104602579E-02 
676	 9,18270086782392E-02 
677	 9,14184020601267E-02 
678	 9,12866421860748E-02 
679	 9,16086797757592E-02 
680	 9,25051763358614E-02 
681	 9,30232351812364E-02 
682	 9,31283613055064E-02 
683	 9,35403099291572E-02 
684	 9,40105958083593E-02 
685	 9,44031899427288E-02 
686	 9,47199300461831E-02 
687	 9,52768608003346E-02 
688	 9,66599433835586E-02 
689	 9,77024747831011E-02 
690	 9,82723195172406E-02 
691	 9,95424059153996E-02 
692	 0,10090209820876 
693	 0,101811386693505 
694	 0,103175209420845 
695	 0,104946755799267 
696	 0,106534441121478 
697	 0,108357814348061 
698	 0,110484886541282 
699	 0,112338800448828 
700	 0,113986088535039 
701	 0,115580406413343 
702	 0,118032945957821 
703	 0,12105482394896 
704	 0,122959866538026 
705	 0,124552407492577 
706	 0,126377985352709 
707	 0,128525071723662 
708	 0,130570488758965 
709	 0,131662309134177 
710	 0,133030716430662 
711	 0,134940513236893 
712	 0,136721616131724 
713	 0,138152136879522 
714	 0,139091874399992 
715	 0,140257760407992 
716	 0,141507589570107 
717	 0,141998481561084 
718	 0,14283729084012 
719	 0,144252300566045 
720	 0,144554202605452 
721	 0,144698068769711 
722	 0,146077955474115 
723	 0,146972200718699 
724	 0,147228335497704 
725	 0,147801515699735 
726	 0,148401170063582 
727	 0,148845853134901 
728	 0,149125769337265 
729	 0,149339491973838 
730	 0,149636814519781 
731	 0,150248133599829 
732	 0,151039221671326 
733	 0,151095954444241 
734	 0,151170341394909 
735	 0,151888771131463 
736	 0,15219059334898 
737	 0,152191458444058 
738	 0,15266905325835 
739	 0,153108073287056 
740	 0,153335774288666 
741	 0,153490292185421 
742	 0,153680354006 
743	 0,154015705651041 
744	 0,154309552076876 
745	 0,154556262425623 
746	 0,154939209818645 
747	 0,155036143467863 
748	 0,154750277791452 
749	 0,155160648117571 
750	 0,155708074355855 
751	 0,155328719327591 
752	 0,155295207058401 
753	 0,155723173867413 
754	 0,155616474009698 
755	 0,155579249129465 
756	 0,156022916512562 
757	 0,156407213181765 
758	 0,156627398185711 
759	 0,156640131487131 
760	 0,156734178273053 
761	 0,156972372480567 
762	 0,157070506682809 
763	 0,157311016233482 
764	 0,157925526908151 
765	 0,158108198558012 
766	 0,157974285052277 
767	 0,15825672922457 
768	 0,158469035797349 
769	 0,158464140305945 
770	 0,158475804762718 
771	 0,158661080981508 
772	 0,159163952626649 
773	 0,159345042341859 
774	 0,159250297776281 
775	 0,159532206054391 
776	 0,159699237230494 
777	 0,1595874619861 
778	 0,159930869384849 
779	 0,160353352264772 
780	 0,160193041485859 
781	 0,160186166496298 
782	 0,160433940647696 
783	 0,160566220652772 
784	 0,160634529410815 
785	 0,160682064704071 
786	 0,160792000300657 
787	 0,160927449026237 
788	 0,161004361160056 
789	 0,160994948159749 
790	 0,160960290099819 
791	 0,161184926366684 
792	 0,161405769291136 
793	 0,16144385557561 
794	 0,161830381525026 
795	 0,162363030087716 
796	 0,162447145925836 
797	 0,162406575707486 
798	 0,162379213667956 
799	 0,162461884174819 
800	 0,162674877449235 
801	 0,162995260686301 
802	 0,162913067209635 
803	 0,162620696485308 
804	 0,162874325846588 
805	 0,16305237205505 
806	 0,162977461277777 
807	 0,162960829699123 
808	 0,163088999489006 
809	 0,163407149210365 
810	 0,163342503417585 
811	 0,163138803736573 
812	 0,163866366851305 
813	 0,16435588373706 
814	 0,164219363407162 
815	 0,164410657470442 
816	 0,16464455677079 
817	 0,164504336210474 
818	 0,164538676008675 
819	 0,164760531499433 
820	 0,164844064312884 
821	 0,164778707398639 
822	 0,164669175650353 
823	 0,165296871948691 
824	 0,165865696279627 
825	 0,165290736928227 
826	 0,164902098330584 
827	 0,165069541243332 
828	 0,165945506126706 
829	 0,166293880274769 
830	 0,165644047906818 
831	 0,165741951108856 
832	 0,166135874162006 
833	 0,165956129379874 
834	 0,165733708734707 
835	 0,165659957756518 
836	 0,165975701875866 
837	 0,166056997263686 
838	 0,165656434618247 
839	 0,16559662248737 
840	 0,165941555457289 
841	 0,166637122574219 
842	 0,166481700432725 
843	 0,165739831492335 
844	 0,166411971962499 
845	 0,167041917693955 
846	 0,166829485626067 
847	 0,166199612845951 
848	 0,165645120890659 
849	 0,165766510529726 
850	 0,166336007835139 
851	 0,166923081690389 
852	 0,166354524381657 
853	 0,165912039327232 
854	 0,166246970534902 
855	 0,166585641459068 
856	 0,166817672643774 
857	 0,166915819660936 
858	 0,166405240170231 
859	 0,165724506551017 
860	 0,16663944344111 
861	 0,167393585641807 
862	 0,167180675158369 
863	 0,167316892396382 
864	 0,167406905077224 
865	 0,166797136971812 
866	 0,167197161951193 
867	 0,168205462618357 
868	 0,167257677210139 
869	 0,166720852928122 
870	 0,167510074440535 
871	 0,167777397490287 
872	 0,167610555060245 
873	 0,167339300198138 
874	 0,167341222078263 
875	 0,167695835471555 
876	 0,168417663691681 
877	 0,168599901304705 
878	 0,168018080452654 
879	 0,167866875633242 
880	 0,168149507252199 
881	 0,168689443778576 
882	 0,168105428041393 
883	 0,166983291775922 
884	 0,16754910953458 
885	 0,168623577436031 
886	 0,169554464710276 
887	 0,169388313084352 
888	 0,168882821227626 
889	 0,168790866897965 
890	 0,168425139378874 
891	 0,168197433841458 
892	 0,169304843307597 
893	 0,169765708633106 
894	 0,169057399421962 
895	 0,168054795204636 
896	 0,167450627251617 
897	 0,167698598085086 
898	 0,167758926459822 
899	 0,167848490164944 
900	 0,168686439333299 
901	 0,168894759752747 
902	 0,168477783569412 
903	 0,169092063142597 
904	 0,169500325475871 
905	 0,16904801353845 
906	 0,16905781593565 
907	 0,169262471791929 
908	 0,169062470171959 
909	 0,168688890743552 
910	 0,168485187630957 
911	 0,169410915539989 
912	 0,169883798745037 
913	 0,169339047854727 
914	 0,169406397735541 
915	 0,169638932671331 
916	 0,169416857466152 
917	 0,169386573978463 
918	 0,169651320218919 
919	 0,170169060707169 
920	 0,170562789233634 
921	 0,170675776084604 
922	 0,170621802425028 
923	 0,170420893467759 
924	 0,170127559339491 
925	 0,17010114111919 
926	 0,170114870973894 
927	 0,169646281345982 
928	 0,169279587686869 
929	 0,169373711599005 
930	 0,170510181901022 
931	 0,171842639531547 
932	 0,172558354437845 
933	 0,17106439640802 
934	 0,16926432825205 
935	 0,169748804314699 
936	 0,170441271139203 
937	 0,170758377285012 
938	 0,170366810306337 
939	 0,170316108990521 
940	 0,170748693722948 
941	 0,170041346103872 
942	 0,169458961724785 
943	 0,170077321834967 
944	 0,170201340452369 
945	 0,169870968119133 
946	 0,169657555665701 
947	 0,170079977602163 
948	 0,171005911922488 
949	 0,171415328228646 
950	 0,171295332255306 
951	 0,170672092914341 
952	 0,169725779109719 
953	 0,169180005987539 
954	 0,169762211600354 
955	 0,169210528328094 
956	 0,16795296001114 
957	 0,168363432959103 
958	 0,168732812636065 
959	 0,16864383721883 
960	 0,16885236924534 
961	 0,169686923474068 
962	 0,17113201560181 
963	 0,171228959974415 
964	 0,170165565782433 
965	 0,168706571075515 
966	 0,168355213000777 
967	 0,169182565927772 
968	 0,170065098100269 
969	 0,170354311506931 
970	 0,169809430341491 
971	 0,168920478031916 
972	 0,16921762548731 
973	 0,171603407583617 
974	 0,170685085129123 
975	 0,168771395459712 
976	 0,171622369982262 
977	 0,172475556292317 
978	 0,170592844590125 
979	 0,170128604203341 
980	 0,169916303739669 
981	 0,169637073764921 
982	 0,170360852495364 
983	 0,171983969857044 
984	 0,174057468379184 
985	 0,173742045564295 
986	 0,17183397998922 
987	 0,170810649788444 
988	 0,171982767961069 
989	 0,17447501971698 
990	 0,173652763580345 
991	 0,172084948145538 
992	 0,17121792818072 
993	 0,170579289704956 
994	 0,170714782640629 
995	 0,172074521079112 
996	 0,173359177163963 
997	 0,173851667483627 
998	 0,172686503486851 
999	 0,173577355248581 
1000	 0,175781987055115 
1001	 0,172297393342169 
1002	 0,170535816676106 
1003	 0,173595709311723 
1004	 0,175922782739514 
1005	 0,176439463519778 
1006	 0,17483377663428 
1007	 0,174591179816838 
1008	 0,1761255797282 
1009	 0,178932284993429 
1010	 0,179622991777338 
1011	 0,177990380847692 
1012	 0,176410856763932 
1013	 0,177473847370677 
1014	 0,181105205449973 
1015	 0,180558276187537 
1016	 0,177320466950515 
1017	 0,173751749180879 
1018	 0,175327563884375 
1019	 0,179304136683308 
1020	 0,180312941282079 
1021	 0,180062928668309 
1022	 0,179365177959565 
1023	 0,179578500902903 
1024	 0,180272570635554 
1025	 0,180704408686724 
1026	 0,178141388577502 
1027	 0,176241216878833 
1028	 0,176979589104428 
1029	 0,175470219329972 
1030	 0,175602019646973 
1031	 0,181683937699267 
1032	 0,18081020240829 
1033	 0,177549454076138 
1034	 0,186464065430527 
1035	 0,186438000280859 
1036	 0,177811855647781 
1037	 0,184193670669625 
1038	 0,187822612194477 
1039	 0,182279826662887 
1040	 0,17829826688158 
1041	 0,178265244383049 
1042	 0,182877194163719 
1043	 0,184907785594116 
1044	 0,185711751323555 
1045	 0,188629090677313 
1046	 0,193489744305076 
1047	 0,195226511904806 
1048	 0,182024614513231 
1049	 0,180147029106188 
1050	 0,191230950543349 
1051	 0,187762610506739 
1052	 0,183802454551821 
1053	 0,185755906724875 
1054	 0,187648213439463 
1055	 0,188263678325047 
1056	 0,186755782067236 
1057	 0,183498070626149 
1058	 0,180007350199197 
1059	 0,17825302355601 
1060	 0,180332267150427 
1061	 0,185657114059901 
1062	 0,192201974956734 
1063	 0,191097690168516 
1064	 0,182693168448172 
1065	 0,179198072964151 
1066	 0,179173760593665 
1067	 0,18161179023123 
1068	 0,185356209938324 
1069	 0,183315940409377 
1070	 0,173610753563996 
1071	 0,182231803395522 
1072	 0,195183265181286 
1073	 0,19286414389298 
1074	 0,192228986305609 
1075	 0,191274606330006 
