Wavelength	ABBE00214.asd
325	 0,300747509475968 
326	 0,229114839858642 
327	 0,214779854211457 
328	 0,187391316824012 
329	 0,118990308767185 
330	 0,126300426281738 
331	 0,285226233774423 
332	 0,306720688291458 
333	 0,232154033422532 
334	 0,227162468522178 
335	 0,25255850511701 
336	 0,288269372041771 
337	 0,291114731239948 
338	 0,26404027733044 
339	 0,205345896244999 
340	 0,200969076732868 
341	 0,240000619420377 
342	 0,252866529554376 
343	 0,253248607198353 
344	 0,240656051370881 
345	 0,198200294601457 
346	 0,165150901587998 
347	 0,176173784935246 
348	 0,205692718362062 
349	 0,232173424990404 
350	 0,22010967592687 
351	 0,202253211164484 
352	 0,19743123530153 
353	 0,241973564411854 
354	 0,266007669960837 
355	 0,183678271897142 
356	 0,163152800151446 
357	 0,202226341255403 
358	 0,212659889686475 
359	 0,195448220729808 
360	 0,160031241586298 
361	 0,182424671706544 
362	 0,219017424825073 
363	 0,199322421202788 
364	 0,188196915710883 
365	 0,199324961439404 
366	 0,227742326657701 
367	 0,237647552741869 
368	 0,212270870690126 
369	 0,192491690417218 
370	 0,186155544270056 
371	 0,200100543996994 
372	 0,205709652536295 
373	 0,197441565114543 
374	 0,191881502501923 
375	 0,193739264913647 
376	 0,203327106121333 
377	 0,186739421258312 
378	 0,164925355085908 
379	 0,193955253414183 
380	 0,219189528846258 
381	 0,223619327425827 
382	 0,214750769089175 
383	 0,1995971708602 
384	 0,184482320309921 
385	 0,196288176849026 
386	 0,22039685781389 
387	 0,203530423794403 
388	 0,201196726835923 
389	 0,225824843968634 
390	 0,223611950312531 
391	 0,210698903756212 
392	 0,210705948711159 
393	 0,2146297834023 
394	 0,219561058344075 
395	 0,223015137765432 
396	 0,223710940312809 
397	 0,221602841916139 
398	 0,222297008817778 
399	 0,223223618110572 
400	 0,219704997119059 
401	 0,214949335835497 
402	 0,211388419615698 
403	 0,214340580764084 
404	 0,216349381028656 
405	 0,212691077674197 
406	 0,208603613160322 
407	 0,206212696115631 
408	 0,207337098660586 
409	 0,212637264057782 
410	 0,220296222499589 
411	 0,221530989618009 
412	 0,220320629020093 
413	 0,220654627070042 
414	 0,216386739062222 
415	 0,210677113255841 
416	 0,213855772567138 
417	 0,218427014795941 
418	 0,220228140091313 
419	 0,214425023875823 
420	 0,207409526378768 
421	 0,207582809295699 
422	 0,211670846500475 
423	 0,216814915437406 
424	 0,217434349100212 
425	 0,215703185809696 
426	 0,213185215425226 
427	 0,210286658597145 
428	 0,208133630757128 
429	 0,208310795823293 
430	 0,210926399609334 
431	 0,214377434524534 
432	 0,212428982345113 
433	 0,209547389219971 
434	 0,209729726959844 
435	 0,20949605328647 
436	 0,209215979402728 
437	 0,211848386289717 
438	 0,211934830046089 
439	 0,208413208529017 
440	 0,20895412857552 
441	 0,211631013044163 
442	 0,213176187390722 
443	 0,21358767384704 
444	 0,213209919973297 
445	 0,213679708745645 
446	 0,213534079353605 
447	 0,212147016457003 
448	 0,211969540639416 
449	 0,213317510057212 
450	 0,216354132642474 
451	 0,217007495722283 
452	 0,215434847504774 
453	 0,219444010232348 
454	 0,222357978881464 
455	 0,218272600356407 
456	 0,217164767463628 
457	 0,219206337029751 
458	 0,21956118201496 
459	 0,219499923490707 
460	 0,219177869346247 
461	 0,21660706080422 
462	 0,215208806204685 
463	 0,219686529549445 
464	 0,219775038971282 
465	 0,215830793181169 
466	 0,218733700998004 
467	 0,221766773628107 
468	 0,220720574907883 
469	 0,220032066680771 
470	 0,220535161823001 
471	 0,222680892146918 
472	 0,224307478914657 
473	 0,22439392465718 
474	 0,222218779010954 
475	 0,21981040725603 
476	 0,219291082421548 
477	 0,223109940282264 
478	 0,228147983846867 
479	 0,224620590298505 
480	 0,222297079905381 
481	 0,224975410383012 
482	 0,22459574659795 
483	 0,222846658268923 
484	 0,22345903874823 
485	 0,223911413265715 
486	 0,223741641072463 
487	 0,22382942921236 
488	 0,223369593882135 
489	 0,221980184893191 
490	 0,222527273170049 
491	 0,224089029202892 
492	 0,223471457261242 
493	 0,223409329528365 
494	 0,224360793173023 
495	 0,223673893997966 
496	 0,222370565854487 
497	 0,221807626945385 
498	 0,221799746514575 
499	 0,222182396541583 
500	 0,222426217098132 
501	 0,222937536952718 
502	 0,224028317026035 
503	 0,226526862160136 
504	 0,228646006565999 
505	 0,227049429194468 
506	 0,22686799003586 
507	 0,22893821015108 
508	 0,229665401002995 
509	 0,229712871435795 
510	 0,229856355965201 
511	 0,230656900457683 
512	 0,231847332688291 
513	 0,232526336143452 
514	 0,23252230024105 
515	 0,232047800014441 
516	 0,233081186298964 
517	 0,234412722035196 
518	 0,234128297009648 
519	 0,233623185402388 
520	 0,233521846751124 
521	 0,234740614613965 
522	 0,235667950926845 
523	 0,235145434699668 
524	 0,233912204141199 
525	 0,232886767249151 
526	 0,23380052885291 
527	 0,234693753459584 
528	 0,234752385947412 
529	 0,233741144107708 
530	 0,232762630068068 
531	 0,23305952113758 
532	 0,232977878539645 
533	 0,232632156716992 
534	 0,233695594690359 
535	 0,234412188043138 
536	 0,233888090314651 
537	 0,233972356059562 
538	 0,234487155657024 
539	 0,234690288752195 
540	 0,234459298610846 
541	 0,23383639877225 
542	 0,233184960492359 
543	 0,233081041114741 
544	 0,233996368869877 
545	 0,234678778957929 
546	 0,234854499186994 
547	 0,234603700832901 
548	 0,234341785688478 
549	 0,234342165743206 
550	 0,234650851343197 
551	 0,235318754970728 
552	 0,236474280704859 
553	 0,236675330268826 
554	 0,235847024262011 
555	 0,235633686045305 
556	 0,23527288473461 
557	 0,23419031582479 
558	 0,233872202546702 
559	 0,234011210325146 
560	 0,233107947512371 
561	 0,23238512301742 
562	 0,232265044023343 
563	 0,232152934063156 
564	 0,231924186653494 
565	 0,231489708111746 
566	 0,231209220970943 
567	 0,231314896842061 
568	 0,232183016574949 
569	 0,233267308618506 
570	 0,234144935813708 
571	 0,234766845227497 
572	 0,235338745579535 
573	 0,236301959614378 
574	 0,237552474449342 
575	 0,238941968444011 
576	 0,239893147764724 
577	 0,240772845263128 
578	 0,24203186762178 
579	 0,243032289749461 
580	 0,243852732906873 
581	 0,245200219278022 
582	 0,246521569400018 
583	 0,247560795430597 
584	 0,248951289807934 
585	 0,250654495533824 
586	 0,252518107281324 
587	 0,253649816060683 
588	 0,25416552938558 
589	 0,25602583621694 
590	 0,257677450914879 
591	 0,257676934223089 
592	 0,257904334719048 
593	 0,258504322743368 
594	 0,258770258726883 
595	 0,259040162648963 
596	 0,259457403188014 
597	 0,259949474399379 
598	 0,260365647615284 
599	 0,260527625777962 
600	 0,260020749196241 
601	 0,259097149668601 
602	 0,259208194448652 
603	 0,259115278880091 
604	 0,257933190645981 
605	 0,257540518905054 
606	 0,257634941398536 
607	 0,256662330922081 
608	 0,255751392725727 
609	 0,255336759861224 
610	 0,255377362451984 
611	 0,255260284428091 
612	 0,254256405685322 
613	 0,253059675503576 
614	 0,252066888032341 
615	 0,251867428161407 
616	 0,25196590680275 
617	 0,251942223174351 
618	 0,251087640838236 
619	 0,250236217978949 
620	 0,251311346471694 
621	 0,251816233377959 
622	 0,251159026006137 
623	 0,250760206445438 
624	 0,250943380998883 
625	 0,251902260441657 
626	 0,252312949469061 
627	 0,252125481841189 
628	 0,252075735777413 
629	 0,252290079039297 
630	 0,252831866043784 
631	 0,253408107978162 
632	 0,253970816124654 
633	 0,254510368196332 
634	 0,255108768850539 
635	 0,255806917338951 
636	 0,256620070162956 
637	 0,257553816029069 
638	 0,258605159727832 
639	 0,259722679152817 
640	 0,260712469850375 
641	 0,261080661359732 
642	 0,26177889542522 
643	 0,262994834667482 
644	 0,263308850410449 
645	 0,263287622134693 
646	 0,263832567801241 
647	 0,263916457400257 
648	 0,263477453001755 
649	 0,263169826033318 
650	 0,26299346016935 
651	 0,262855940985046 
652	 0,261942392631474 
653	 0,260446324422756 
654	 0,258983772947428 
655	 0,257599009995234 
656	 0,256348307498418 
657	 0,255247186088066 
658	 0,253924475836231 
659	 0,252024688578081 
660	 0,250248900497336 
661	 0,248624270291297 
662	 0,246700802924547 
663	 0,244907155525919 
664	 0,243461965862682 
665	 0,242237781533758 
666	 0,241051473058762 
667	 0,239617663420601 
668	 0,23874070772196 
669	 0,238554051967518 
670	 0,238667451431649 
671	 0,238531178821636 
672	 0,237782851574271 
673	 0,23753950598503 
674	 0,237688744011281 
675	 0,237454816916668 
676	 0,237336623032674 
677	 0,237452841473069 
678	 0,237451209669775 
679	 0,237465163403268 
680	 0,237684018166833 
681	 0,238263822514403 
682	 0,2391864461367 
683	 0,240287908536094 
684	 0,241291155391802 
685	 0,242149397424371 
686	 0,243784241148239 
687	 0,246242412972292 
688	 0,249384762934699 
689	 0,252519907308738 
690	 0,255682242819682 
691	 0,259990501667054 
692	 0,265175483067311 
693	 0,270929293754733 
694	 0,276904268374193 
695	 0,283419118198459 
696	 0,291563615692149 
697	 0,299895439326862 
698	 0,307912270737164 
699	 0,316623528170703 
700	 0,325769662125311 
701	 0,334914548839563 
702	 0,344220210941081 
703	 0,353492516196008 
704	 0,362224187139914 
705	 0,370579488979315 
706	 0,378675232368719 
707	 0,386730397798849 
708	 0,394288129410609 
709	 0,400411037054877 
710	 0,406750907219708 
711	 0,41358724990801 
712	 0,419713487339638 
713	 0,425005651068559 
714	 0,429450526501319 
715	 0,433942781983244 
716	 0,438485734927643 
717	 0,442596128527316 
718	 0,446304959176269 
719	 0,44959811208742 
720	 0,452500055157442 
721	 0,455106687552637 
722	 0,457514359422381 
723	 0,459969785410068 
724	 0,462382602746292 
725	 0,464145776572161 
726	 0,465859659009312 
727	 0,467841275119596 
728	 0,469397578801928 
729	 0,470574967739863 
730	 0,471586080498959 
731	 0,472891832938911 
732	 0,474496477162707 
733	 0,475727276927342 
734	 0,476620726352637 
735	 0,477269552038819 
736	 0,478159893948178 
737	 0,479277291089818 
738	 0,480338305076176 
739	 0,481352542324838 
740	 0,482196748424749 
741	 0,482275811608272 
742	 0,482328297513303 
743	 0,483233828080697 
744	 0,483862867608229 
745	 0,484120552249665 
746	 0,484567695942869 
747	 0,484950352421661 
748	 0,485164859557081 
749	 0,485447569361627 
750	 0,485740579348406 
751	 0,485912974373511 
752	 0,48603134851561 
753	 0,486145603185591 
754	 0,486373866374885 
755	 0,486524989728701 
756	 0,486517210269697 
757	 0,487020841666471 
758	 0,487674711943718 
759	 0,487495793464712 
760	 0,48767211988294 
761	 0,488406961241622 
762	 0,488720566974089 
763	 0,488856985158864 
764	 0,489088664717795 
765	 0,489261700225421 
766	 0,489431936495327 
767	 0,489790158698379 
768	 0,490200612236151 
769	 0,490578930909257 
770	 0,490789365611711 
771	 0,490992214833538 
772	 0,491381485593826 
773	 0,491543400271134 
774	 0,491491560584427 
775	 0,491504969510721 
776	 0,491825104713784 
777	 0,492459682652758 
778	 0,492478417590184 
779	 0,492234354042482 
780	 0,492397742401711 
781	 0,492580034474813 
782	 0,492744695817887 
783	 0,493096029580323 
784	 0,493486303048653 
785	 0,493789933624247 
786	 0,493856031498291 
787	 0,493837458491292 
788	 0,494036820896174 
789	 0,494320407363886 
790	 0,494558779633853 
791	 0,494402165313308 
792	 0,494195219048828 
793	 0,494228691112156 
794	 0,494400773090304 
795	 0,494645638584828 
796	 0,494878243099403 
797	 0,494990151446967 
798	 0,494930295465086 
799	 0,494637852181164 
800	 0,494582638814811 
801	 0,495146018863879 
802	 0,495312997263346 
803	 0,495175103991776 
804	 0,4954483803449 
805	 0,495936248866318 
806	 0,496500094348532 
807	 0,496788030114465 
808	 0,496812356778471 
809	 0,496637818605801 
810	 0,496576310043601 
811	 0,496720115260983 
812	 0,497067220363979 
813	 0,497567015373118 
814	 0,498103331942064 
815	 0,498183382829846 
816	 0,498332710676468 
817	 0,499191348026611 
818	 0,499615164092784 
819	 0,499507194535096 
820	 0,499402996636632 
821	 0,499291545614353 
822	 0,499272304929208 
823	 0,499763330030717 
824	 0,500457670003062 
825	 0,50091310239574 
826	 0,50118064926333 
827	 0,501305405434392 
828	 0,501382642274852 
829	 0,501674797514854 
830	 0,50227324445054 
831	 0,502779123857237 
832	 0,503057021329192 
833	 0,503002969946402 
834	 0,502986180460303 
835	 0,503112255975098 
836	 0,50332319985781 
837	 0,503679089659819 
838	 0,504138677848927 
839	 0,504245114383394 
840	 0,504212069953949 
841	 0,504412736343147 
842	 0,504467811356072 
843	 0,504367713755432 
844	 0,504329347659111 
845	 0,504615057268637 
846	 0,505204378080103 
847	 0,504908042550307 
848	 0,504175847517063 
849	 0,503825962697489 
850	 0,504220075377437 
851	 0,505047094115737 
852	 0,50494989270805 
853	 0,504729037843186 
854	 0,504853031040461 
855	 0,505362902180141 
856	 0,50588744103127 
857	 0,505922924423449 
858	 0,505471055060607 
859	 0,504914820305909 
860	 0,505454530160745 
861	 0,505882890842518 
862	 0,505714899926554 
863	 0,506234446707626 
864	 0,506941876684347 
865	 0,507041624804794 
866	 0,50793813995017 
867	 0,509214655430778 
868	 0,508610142256174 
869	 0,508033658760018 
870	 0,508402141471855 
871	 0,509175386444162 
872	 0,509965792079281 
873	 0,510369364614284 
874	 0,510558084777392 
875	 0,510691662256016 
876	 0,511165373959344 
877	 0,511313209702268 
878	 0,511012955452291 
879	 0,511246511819737 
880	 0,511768772307157 
881	 0,512207192524882 
882	 0,512223914365862 
883	 0,512033741985106 
884	 0,51241700181087 
885	 0,512736839533868 
886	 0,512815403895725 
887	 0,513043752629799 
888	 0,513004842172002 
889	 0,512423914965354 
890	 0,513185985467216 
891	 0,514476028528223 
892	 0,51372643836502 
893	 0,513459238315309 
894	 0,514113155042287 
895	 0,513774808751807 
896	 0,513380018969158 
897	 0,513688642373105 
898	 0,514231141109156 
899	 0,514674931836583 
900	 0,514569468975401 
901	 0,514513187615133 
902	 0,514630699259927 
903	 0,514639741845877 
904	 0,514764586619672 
905	 0,515132985436033 
906	 0,515597976983986 
907	 0,516020927324989 
908	 0,516245513786387 
909	 0,516000717410007 
910	 0,515535373383159 
911	 0,51572390482107 
912	 0,51640120768459 
913	 0,517283895757773 
914	 0,517223573231249 
915	 0,516904115197597 
916	 0,517190951181426 
917	 0,51771320340992 
918	 0,518150419207779 
919	 0,517835649959357 
920	 0,517758982445977 
921	 0,518241354924896 
922	 0,519031243481167 
923	 0,519407211406572 
924	 0,518846990580023 
925	 0,518251306547334 
926	 0,518052101858362 
927	 0,518787746171313 
928	 0,51811071279435 
929	 0,516124393823945 
930	 0,515608992033371 
931	 0,516415371968434 
932	 0,518063348736236 
933	 0,51805440767476 
934	 0,517065621081011 
935	 0,516404335509555 
936	 0,516895530532253 
937	 0,517938243811136 
938	 0,517318685101424 
939	 0,516051414497107 
940	 0,514795844822862 
941	 0,514776791033639 
942	 0,514972858251201 
943	 0,514433576989344 
944	 0,513891920140136 
945	 0,513265064103627 
946	 0,512160513784809 
947	 0,511825843424118 
948	 0,51219924455858 
949	 0,511695491925957 
950	 0,510872538192051 
951	 0,510079496077077 
952	 0,509368803826303 
953	 0,508695913667582 
954	 0,507978143485153 
955	 0,506852963863 
956	 0,505681020805466 
957	 0,505540650939242 
958	 0,505571269523096 
959	 0,505349447308117 
960	 0,504461664109446 
961	 0,503666154251994 
962	 0,503524986318669 
963	 0,503532471251382 
964	 0,503417681682774 
965	 0,502887043762894 
966	 0,503564201626663 
967	 0,504913079597622 
968	 0,503958866087062 
969	 0,503335841213181 
970	 0,503894900369736 
971	 0,503715018121131 
972	 0,503366134777489 
973	 0,50345790027587 
974	 0,503469356495755 
975	 0,504077830109052 
976	 0,506697133154761 
977	 0,506234901971022 
978	 0,502858866771989 
979	 0,502197278662475 
980	 0,502521584629776 
981	 0,5031454142515 
982	 0,504947839485987 
983	 0,506844773448496 
984	 0,507613476662546 
985	 0,506411394515218 
986	 0,504988423888192 
987	 0,5069190517366 
988	 0,509067174459496 
989	 0,510252907940543 
990	 0,510077977901595 
991	 0,508829897075923 
992	 0,507183224034319 
993	 0,507452362189499 
994	 0,508845143178906 
995	 0,510353990439968 
996	 0,513320842500433 
997	 0,515602878035948 
998	 0,51277023599296 
999	 0,511942239902212 
1000	 0,514235622391782 
1001	 0,51559730305999 
1002	 0,516477710149953 
1003	 0,517200553678303 
1004	 0,518814652786086 
1005	 0,520448180137944 
1006	 0,521107156100698 
1007	 0,519996524931734 
1008	 0,519072511376005 
1009	 0,521911071565453 
1010	 0,523330537202213 
1011	 0,522875077009856 
1012	 0,524049848006107 
1013	 0,524425581088224 
1014	 0,523434714870783 
1015	 0,523963910976802 
1016	 0,52351736472949 
1017	 0,520606496153438 
1018	 0,522391658522432 
1019	 0,526100689673935 
1020	 0,526154419812249 
1021	 0,527903495360698 
1022	 0,530988126279845 
1023	 0,530929742628139 
1024	 0,531492966726103 
1025	 0,532726526765911 
1026	 0,528665572960132 
1027	 0,52594099250432 
1028	 0,528339177799952 
1029	 0,528811182157779 
1030	 0,530824761915812 
1031	 0,538353926848515 
1032	 0,537539715178268 
1033	 0,531898035465681 
1034	 0,534100170214181 
1035	 0,533918608357304 
1036	 0,531039485591788 
1037	 0,533842613480679 
1038	 0,539506659467699 
1039	 0,544414596571891 
1040	 0,53683909273485 
1041	 0,531612293006341 
1042	 0,53942779029732 
1043	 0,538811989634576 
1044	 0,535746480860486 
1045	 0,541804051169256 
1046	 0,545855302007898 
1047	 0,544256416624784 
1048	 0,534073409643492 
1049	 0,535481955835522 
1050	 0,548187468331736 
1051	 0,544754894878504 
1052	 0,539210262718031 
1053	 0,539588620227483 
1054	 0,549395609456213 
1055	 0,550036882910874 
1056	 0,529618729641944 
1057	 0,53365780976828 
1058	 0,545489706121615 
1059	 0,534177079025118 
1060	 0,537432185993221 
1061	 0,549901316801782 
1062	 0,541149465380056 
1063	 0,536231188349519 
1064	 0,540479824022223 
1065	 0,545001859173313 
1066	 0,549814029468416 
1067	 0,554056795655928 
1068	 0,555872173098948 
1069	 0,552344806218337 
1070	 0,543158248170694 
1071	 0,537511640975836 
1072	 0,543422834833878 
1073	 0,565660101723301 
1074	 0,558718908838518 
1075	 0,532635549228167 
