Wavelength	ABBE00048.asd
325	 0,200538263185334 
326	 0,128307872109525 
327	 7,05357029272202E-02 
328	-2,24109730551809E-03 
329	 2,02328900909023E-02 
330	 7,99315338726376E-02 
331	 0,105454430811472 
332	 0,142872131782633 
333	 0,171683496207809 
334	 0,15098999539537 
335	 0,102980205960412 
336	 4,65282362677726E-02 
337	 3,22498257046021E-02 
338	 1,47310606702717E-02 
339	-4,71682583017503E-02 
340	 3,97028450549215E-02 
341	 0,163678737621271 
342	 6,51772741180199E-02 
343	 8,96698965347348E-03 
344	 0,044629418912814 
345	 6,01732073157451E-02 
346	 7,28978598345234E-02 
347	 0,104250683341369 
348	 0,098898904020363 
349	 6,97215080645086E-02 
350	 7,35761141537253E-02 
351	 6,19379139598366E-02 
352	 2,66123106280675E-02 
353	 2,98037531684107E-02 
354	 4,02575403128135E-02 
355	 1,46498000889839E-02 
356	 3,04400161447599E-02 
357	 7,10193919344134E-02 
358	 5,07660153953467E-02 
359	 3,18013673060752E-02 
360	 0,037536430940337 
361	 1,84908022040265E-02 
362	 1,74148368064104E-03 
363	 2,96369740416678E-02 
364	 5,51904303895094E-02 
365	 6,53143773922363E-02 
366	 5,67067946110458E-02 
367	 4,68840340406559E-02 
368	 4,56518571447885E-02 
369	 0,035768903274416 
370	 0,024656020156864 
371	 2,95155598331729E-02 
372	 4,86951935707262E-02 
373	 6,98557426635256E-02 
374	 4,73154344769626E-02 
375	 0,030541642083689 
376	 5,48385076855088E-02 
377	 0,064512146633892 
378	 6,02536130487809E-02 
379	 6,32139431461458E-02 
380	 4,90756422577304E-02 
381	 2,17909305851934E-02 
382	 4,46097959819657E-02 
383	 6,81271955576919E-02 
384	 4,82961552033572E-02 
385	 3,60146418763935E-02 
386	 3,58014470977812E-02 
387	 3,05936827009871E-02 
388	 3,85790516412021E-02 
389	 5,87904681736947E-02 
390	 5,01686992467581E-02 
391	 3,65420783678334E-02 
392	 4,90641138969209E-02 
393	 5,65042618958276E-02 
394	 5,46982126888348E-02 
395	 0,05161311263455 
396	 5,04982999302522E-02 
397	 5,26678118500174E-02 
398	 5,25369876847435E-02 
399	 5,13711615883515E-02 
400	 5,23083854347297E-02 
401	 4,67232120834304E-02 
402	 3,80853482449754E-02 
403	 4,75148670622489E-02 
404	 0,05323897659227 
405	 4,22393949888606E-02 
406	 3,71738786416606E-02 
407	 4,07274588355717E-02 
408	 5,19615160829626E-02 
409	 0,058291089025448 
410	 5,64947339654902E-02 
411	 5,17607790747814E-02 
412	 4,82443646983486E-02 
413	 4,90662505022507E-02 
414	 5,06310484608707E-02 
415	 5,05838447184657E-02 
416	 4,32460788620375E-02 
417	 4,45531736900644E-02 
418	 5,70045829336656E-02 
419	 5,50534306129101E-02 
420	 4,70541242000551E-02 
421	 4,63997108517041E-02 
422	 4,70114331431902E-02 
423	 4,71669865819481E-02 
424	 4,50260545103439E-02 
425	 0,044659188515087 
426	 4,79381916240096E-02 
427	 4,83845114285684E-02 
428	 4,71986889620546E-02 
429	 4,78571244534663E-02 
430	 5,03926278631905E-02 
431	 5,36922629943321E-02 
432	 5,32071427925403E-02 
433	 5,10945046590871E-02 
434	 4,95036373402654E-02 
435	 4,90977908113972E-02 
436	 5,02462704665617E-02 
437	 0,05385567747239 
438	 5,53445066433997E-02 
439	 0,053188267294793 
440	 5,07664925081036E-02 
441	 4,99623781127978E-02 
442	 5,26223391179818E-02 
443	 5,44871316791049E-02 
444	 0,054874658647089 
445	 5,60174717508236E-02 
446	 5,47933064780668E-02 
447	 5,02990567703648E-02 
448	 5,22586858896075E-02 
449	 5,68806109266717E-02 
450	 5,45615450543131E-02 
451	 5,43776127563268E-02 
452	 5,78574224878706E-02 
453	 5,90559285035951E-02 
454	 5,80265686364504E-02 
455	 0,055279140521585 
456	 5,41006465610345E-02 
457	 5,46107706825536E-02 
458	 5,48930375232775E-02 
459	 5,63332038560684E-02 
460	 5,86452478074933E-02 
461	 5,68674135716921E-02 
462	 5,45835018057176E-02 
463	 5,71084217088979E-02 
464	 5,82826780864461E-02 
465	 5,70074619581618E-02 
466	 5,46047523526797E-02 
467	 5,48031014870666E-02 
468	 5,92913673984163E-02 
469	 0,059450525230859 
470	 5,71155169108036E-02 
471	 5,86502684173231E-02 
472	 5,91772402374426E-02 
473	 5,78536583464043E-02 
474	 5,80603904824374E-02 
475	 5,82579331554832E-02 
476	 5,69536939916585E-02 
477	 0,059174790121317 
478	 0,063252908886842 
479	 6,21138859765281E-02 
480	 6,04700208766472E-02 
481	 6,02883860695212E-02 
482	 5,87166963120985E-02 
483	 5,74605302130162E-02 
484	 5,93467109427813E-02 
485	 6,21935152421946E-02 
486	 6,44238693603937E-02 
487	 6,28826862754935E-02 
488	 6,08442613578106E-02 
489	 6,08307686150188E-02 
490	 6,10494927875444E-02 
491	 6,14626072182887E-02 
492	 6,25908170840816E-02 
493	 6,41477563230342E-02 
494	 6,56331217412168E-02 
495	 6,54619258976257E-02 
496	 6,43936054126621E-02 
497	 6,34318691335301E-02 
498	 6,33229029085066E-02 
499	 6,36751157009715E-02 
500	 6,24464719590237E-02 
501	 6,18270053578789E-02 
502	 6,30690027856562E-02 
503	 6,58559199878215E-02 
504	 6,78481707408828E-02 
505	 6,50540431060019E-02 
506	 6,34794233037506E-02 
507	 6,45379784276523E-02 
508	 6,55813227437546E-02 
509	 6,63241575484011E-02 
510	 6,66203184796636E-02 
511	 6,67521062195706E-02 
512	 6,72570992321138E-02 
513	 6,96536059218282E-02 
514	 7,05166543859473E-02 
515	 6,88098037503178E-02 
516	 6,82159492194283E-02 
517	 6,88864611832743E-02 
518	 7,04984306612922E-02 
519	 7,07563425176495E-02 
520	 6,97451797360062E-02 
521	 7,02886850363315E-02 
522	 7,08772436210027E-02 
523	 7,05324634635563E-02 
524	 7,13801728211347E-02 
525	 7,27316955833919E-02 
526	 7,22560184891922E-02 
527	 7,22328572387071E-02 
528	 7,31279571951919E-02 
529	 0,07297215948612 
530	 7,25964921952388E-02 
531	 7,30892935232931E-02 
532	 7,29638411039193E-02 
533	 7,24334320825038E-02 
534	 7,31351752165114E-02 
535	 0,074208473029378 
536	 7,50857278998554E-02 
537	 7,57069742028557E-02 
538	 7,59331368246226E-02 
539	 7,54927027072081E-02 
540	 7,55017296810188E-02 
541	 7,60982623343642E-02 
542	 7,60805545745566E-02 
543	 7,57442860506028E-02 
544	 7,54741598608939E-02 
545	 7,60573222935976E-02 
546	 7,71399057231594E-02 
547	 7,72712100732097E-02 
548	 7,75038441549754E-02 
549	 7,82058131779189E-02 
550	 7,82104423942511E-02 
551	 7,80800245023182E-02 
552	 7,88839805274758E-02 
553	 7,94441940298598E-02 
554	 7,94757004575213E-02 
555	 0,079309152812326 
556	 7,90615267447972E-02 
557	 7,88725283566542E-02 
558	 7,92882682432527E-02 
559	 0,08004194113864 
560	 8,02100883143004E-02 
561	 8,04872154676261E-02 
562	 8,10662252310527E-02 
563	 8,14496817282318E-02 
564	 8,16315461060125E-02 
565	 8,16640334421242E-02 
566	 8,18232900151291E-02 
567	 8,20653922787281E-02 
568	 8,19386211709926E-02 
569	 8,17726006176642E-02 
570	 8,18134596323984E-02 
571	 8,20024409840795E-02 
572	 0,082350914609371 
573	 8,29416852385547E-02 
574	 8,32555907711276E-02 
575	 8,33253069609833E-02 
576	 8,44584369537929E-02 
577	 8,55980696038299E-02 
578	 8,55003542127694E-02 
579	 8,58845652185326E-02 
580	 8,66099018864103E-02 
581	 8,58631425068055E-02 
582	 8,55226991428313E-02 
583	 0,086484811933172 
584	 8,65962938308984E-02 
585	 8,64357958873998E-02 
586	 8,75494167811181E-02 
587	 0,08830428733775 
588	 8,84200649425213E-02 
589	 8,89984073090022E-02 
590	 8,97458794926252E-02 
591	 0,090301401738524 
592	 8,98961638958924E-02 
593	 8,89732541642583E-02 
594	 8,90735325534098E-02 
595	 0,089466484448167 
596	 8,98582153176415E-02 
597	 9,05891346359329E-02 
598	 9,12244394813631E-02 
599	 0,091100514625461 
600	 9,09480106412231E-02 
601	 9,09441504405345E-02 
602	 9,08476853267651E-02 
603	 9,08501980749038E-02 
604	 9,10916788748932E-02 
605	 9,14087949556378E-02 
606	 9,15627511502309E-02 
607	 9,09917869896344E-02 
608	 9,07368457927055E-02 
609	 9,11058530898386E-02 
610	 9,12982156448443E-02 
611	 9,12643506174427E-02 
612	 9,10371236283233E-02 
613	 9,05292410057664E-02 
614	 0,090013802857554 
615	 0,090417349905384 
616	 9,07447732589471E-02 
617	 9,04324823344556E-02 
618	 9,05789184264001E-02 
619	 0,091040186732413 
620	 9,12300426520558E-02 
621	 9,14518870767692E-02 
622	 0,091667170137284 
623	 9,12537181629617E-02 
624	 9,09571152475797E-02 
625	 9,15264855201529E-02 
626	 0,09139919202577 
627	 9,08078358939978E-02 
628	 9,13436957640128E-02 
629	 9,23549337794603E-02 
630	 9,33522800951342E-02 
631	 9,34103095665849E-02 
632	 9,30713273226068E-02 
633	 0,09341682214045 
634	 9,33530752628533E-02 
635	 9,29362617452372E-02 
636	 9,37582981540504E-02 
637	 9,42853422486352E-02 
638	 9,33471601015075E-02 
639	 9,38798071563294E-02 
640	 9,52657402491347E-02 
641	 0,094448359821857 
642	 9,42938843415486E-02 
643	 9,55719803113069E-02 
644	 9,55298605129108E-02 
645	 9,50721012474891E-02 
646	 9,56855270443494E-02 
647	 9,59705244911823E-02 
648	 9,57429987458851E-02 
649	 9,55703289363007E-02 
650	 9,55622366878181E-02 
651	 9,57742469828102E-02 
652	 9,60398476564403E-02 
653	 0,095968440303485 
654	 9,47739713398592E-02 
655	 9,39804044682783E-02 
656	 9,40231655073706E-02 
657	 9,41575701524429E-02 
658	 9,40575130666518E-02 
659	 9,34646007171626E-02 
660	 0,09325728616175 
661	 9,33096550921289E-02 
662	 9,27072785713262E-02 
663	 9,19215500387116E-02 
664	 0,091209157256234 
665	 9,05475943940572E-02 
666	 9,00672709862552E-02 
667	 8,99303416513962E-02 
668	 0,090257790749742 
669	 0,090894940598933 
670	 9,12721506460288E-02 
671	 0,09119449312124 
672	 9,05950253182216E-02 
673	 9,03865438162583E-02 
674	 9,06383932212418E-02 
675	 9,11580229311887E-02 
676	 9,13362515155509E-02 
677	 9,10204463505851E-02 
678	 9,08710169774247E-02 
679	 9,10795040668711E-02 
680	 9,17844799280818E-02 
681	 9,21392783239195E-02 
682	 9,22083526724913E-02 
683	 9,29359251653579E-02 
684	 9,36433318200765E-02 
685	 9,39406890387797E-02 
686	 9,40336377377942E-02 
687	 9,44333245369886E-02 
688	 9,60165372395221E-02 
689	 9,72272748436803E-02 
690	 9,78082314265848E-02 
691	 9,89786736873269E-02 
692	 0,100262276970618 
693	 0,101227071212009 
694	 0,102542335295318 
695	 0,104208736957006 
696	 0,105908646460913 
697	 0,107670217595269 
698	 0,109460774809773 
699	 0,111060294298289 
700	 0,112862106463411 
701	 0,11538277385732 
702	 0,117703990205052 
703	 0,119750406941639 
704	 0,12224084445761 
705	 0,124347822957254 
706	 0,125681251729215 
707	 0,127793274858002 
708	 0,13007232028182 
709	 0,130913495371915 
710	 0,132242534801207 
711	 0,134396432726213 
712	 0,136030040623998 
713	 0,137263105747858 
714	 0,138286468828461 
715	 0,139501255094353 
716	 0,140786739059865 
717	 0,141605648344996 
718	 0,142271223521671 
719	 0,142932198769098 
720	 0,143629261629894 
721	 0,144382544918898 
722	 0,145200780071431 
723	 0,145912702114327 
724	 0,146555248534289 
725	 0,147453716825989 
726	 0,14811454314592 
727	 0,148254855686259 
728	 0,148213610272481 
729	 0,148258569376939 
730	 0,148742872707214 
731	 0,149397871656025 
732	 0,150056482586126 
733	 0,15042908670614 
734	 0,150795945188723 
735	 0,151363717676234 
736	 0,151365784537809 
737	 0,151073517888339 
738	 0,151438739591428 
739	 0,152128411484015 
740	 0,152879710092469 
741	 0,152921632022034 
742	 0,152802948379963 
743	 0,15322240470203 
744	 0,153406163304511 
745	 0,153382997533846 
746	 0,15378936641454 
747	 0,154171083706104 
748	 0,154284279333371 
749	 0,154250490358173 
750	 0,154220458159766 
751	 0,154393746164735 
752	 0,154661406348748 
753	 0,154953008306545 
754	 0,155133525881493 
755	 0,155299816561441 
756	 0,15553514017828 
757	 0,155962384845569 
758	 0,156311733791626 
759	 0,155955113498349 
760	 0,155982550686882 
761	 0,156561785466342 
762	 0,156609739453499 
763	 0,156595523333948 
764	 0,156983748342697 
765	 0,157202050351841 
766	 0,15728317930888 
767	 0,157632292329485 
768	 0,157786723453788 
769	 0,157653573176635 
770	 0,157811332880659 
771	 0,158104986147739 
772	 0,158291977940352 
773	 0,158279534750212 
774	 0,158223655541436 
775	 0,158685422233681 
776	 0,159111999937019 
777	 0,159218224237407 
778	 0,159227892969608 
779	 0,15921656577142 
780	 0,159249385321392 
781	 0,159528863663168 
782	 0,159972072126105 
783	 0,160122402980641 
784	 0,160085985589766 
785	 0,159967042464568 
786	 0,159996694978578 
787	 0,16012984321846 
788	 0,160203156871771 
789	 0,160442111691786 
790	 0,160827263816582 
791	 0,161068175947114 
792	 0,161034935731028 
793	 0,160699390459531 
794	 0,160807567828593 
795	 0,161256257143601 
796	 0,161550506124747 
797	 0,161788983846163 
798	 0,161931357969704 
799	 0,161719851777631 
800	 0,161618014968221 
801	 0,162032171518556 
802	 0,162257232313063 
803	 0,162256479305245 
804	 0,162283251310515 
805	 0,162371024021167 
806	 0,162526179382263 
807	 0,162613064583313 
808	 0,162747097153436 
809	 0,163034858991268 
810	 0,162840841333392 
811	 0,162414605633062 
812	 0,162838559975086 
813	 0,163151225494997 
814	 0,163019994205714 
815	 0,163036018107419 
816	 0,163289662255944 
817	 0,163810895145407 
818	 0,164111448426795 
819	 0,164105967581796 
820	 0,163934552359599 
821	 0,163717184453106 
822	 0,163610875288636 
823	 0,164088834715749 
824	 0,164579092988026 
825	 0,164312254710653 
826	 0,164307463255791 
827	 0,164648809888311 
828	 0,164833789356109 
829	 0,164745039622641 
830	 0,164418301066633 
831	 0,164574649872067 
832	 0,165013182980051 
833	 0,165346642208001 
834	 0,165463693810007 
835	 0,165436194305906 
836	 0,165697654612644 
837	 0,165681184899534 
838	 0,165203175349364 
839	 0,16522890295215 
840	 0,165586297455953 
841	 0,165874884989069 
842	 0,165725290765606 
843	 0,165358826104577 
844	 0,16589753619354 
845	 0,16633334737169 
846	 0,16611940929118 
847	 0,165590423464874 
848	 0,165312506261948 
849	 0,165997602451559 
850	 0,166128719478356 
851	 0,165640891048086 
852	 0,165705759001586 
853	 0,165734098029516 
854	 0,165484349594676 
855	 0,165503125785115 
856	 0,165780427479068 
857	 0,166215344777133 
858	 0,165821798274127 
859	 0,164992552888825 
860	 0,165833089497348 
861	 0,16655691032761 
862	 0,16631517109146 
863	 0,166101120581071 
864	 0,166125071891162 
865	 0,166514882711174 
866	 0,16705750684464 
867	 0,167406667778403 
868	 0,166711022656529 
869	 0,166161352503633 
870	 0,166316705077057 
871	 0,166660111307695 
872	 0,166862262584468 
873	 0,166620476287891 
874	 0,167050945893008 
875	 0,16788598999099 
876	 0,16760612837756 
877	 0,167507690000438 
878	 0,167909080020902 
879	 0,167303402230568 
880	 0,166659162561456 
881	 0,167082705606121 
882	 0,167326483334308 
883	 0,167239747340028 
884	 0,167047832592743 
885	 0,167206102686192 
886	 0,167808557371189 
887	 0,168383799486444 
888	 0,16849735515374 
889	 0,167870843278163 
890	 0,167818839426266 
891	 0,168290760520225 
892	 0,168641993624186 
893	 0,168692633897135 
894	 0,168408110877128 
895	 0,168112433379235 
896	 0,16771881189436 
897	 0,167203509358539 
898	 0,167030659191238 
899	 0,167075322908688 
900	 0,166933070272124 
901	 0,167654915506505 
902	 0,168996997746684 
903	 0,16908770084851 
904	 0,168480748993528 
905	 0,167719193973163 
906	 0,167875589884536 
907	 0,168513660355616 
908	 0,168801004997236 
909	 0,169187803365155 
910	 0,169561157164566 
911	 0,169423696146346 
912	 0,168642141544368 
913	 0,167452264918434 
914	 0,16743259908457 
915	 0,168134355657316 
916	 0,168863047098185 
917	 0,169461251469181 
918	 0,169710536758442 
919	 0,169166013958557 
920	 0,169208462541436 
921	 0,170013442334206 
922	 0,16977761464837 
923	 0,169540506422663 
924	 0,170090367257907 
925	 0,169561733184764 
926	 0,16881136954244 
927	 0,169935546832206 
928	 0,169808979048623 
929	 0,168381642833094 
930	 0,168783525964901 
931	 0,169841172997842 
932	 0,170684282958887 
933	 0,170559812581609 
934	 0,169932058063367 
935	 0,169549818138266 
936	 0,169790779187305 
937	 0,170264224155527 
938	 0,16947293170949 
939	 0,169318086370422 
940	 0,170157301551373 
941	 0,169782400273268 
942	 0,169412060066882 
943	 0,170096860047189 
944	 0,17001634546522 
945	 0,169444125452912 
946	 0,169457934495651 
947	 0,169052249116098 
948	 0,168341672234665 
949	 0,1687172473991 
950	 0,169220955770306 
951	 0,169312897984007 
952	 0,169514115924261 
953	 0,16932715655307 
954	 0,168209650118609 
955	 0,168582955145698 
956	 0,169775175167412 
957	 0,168758401107076 
958	 0,167304313290802 
959	 0,166440438566974 
960	 0,1677310338857 
961	 0,16961006655545 
962	 0,170612687806758 
963	 0,16969468280923 
964	 0,167968237030592 
965	 0,167347324284061 
966	 0,167506927115077 
967	 0,168245680055542 
968	 0,169134228959883 
969	 0,169708103740288 
970	 0,169718026154988 
971	 0,169257428083567 
972	 0,168766935006066 
973	 0,168660817147519 
974	 0,168721897640993 
975	 0,16968175756348 
976	 0,173012314109678 
977	 0,171710253038313 
978	 0,166621313785207 
979	 0,167654707145587 
980	 0,169499010973549 
981	 0,169486000009778 
982	 0,168316738622558 
983	 0,167751738047853 
984	 0,169316425603703 
985	 0,169737528136787 
986	 0,169129870274239 
987	 0,168807835649397 
988	 0,170601132395552 
989	 0,173503613105135 
990	 0,172020378715528 
991	 0,169712495174085 
992	 0,16895631734982 
993	 0,171469247061672 
994	 0,173201873485176 
995	 0,170431058000014 
996	 0,172263040155063 
997	 0,176274247483265 
998	 0,174579653132121 
999	 0,173843839959438 
1000	 0,174842137962533 
1001	 0,173346395435948 
1002	 0,171960573730615 
1003	 0,172224455545355 
1004	 0,174949024713677 
1005	 0,176551719872467 
1006	 0,173945190152238 
1007	 0,173075108754378 
1008	 0,173889391574981 
1009	 0,174325683365406 
1010	 0,175551198895425 
1011	 0,176944549435993 
1012	 0,175471073752506 
1013	 0,175773728849881 
1014	 0,178530746509146 
1015	 0,176126178819918 
1016	 0,172038644754845 
1017	 0,170139698846359 
1018	 0,173766622654848 
1019	 0,178591881707997 
1020	 0,177610197521743 
1021	 0,17557166179696 
1022	 0,174338317408704 
1023	 0,176234007458331 
1024	 0,176001688067241 
1025	 0,173466973492824 
1026	 0,177396336398046 
1027	 0,177980995024964 
1028	 0,17091313827742 
1029	 0,173489154286732 
1030	 0,179649210550994 
1031	 0,180320603838206 
1032	 0,179780718575154 
1033	 0,179400720604936 
1034	 0,180573995398479 
1035	 0,179225297387534 
1036	 0,176743226729601 
1037	 0,18268488702922 
1038	 0,183762947791429 
1039	 0,176485283144342 
1040	 0,176484728351141 
1041	 0,180256588760904 
1042	 0,183825920618856 
1043	 0,186104145154153 
1044	 0,184797449344455 
1045	 0,177940036786503 
1046	 0,182733006007571 
1047	 0,191402279749224 
1048	 0,176114747352534 
1049	 0,17386630803643 
1050	 0,18755645839304 
1051	 0,181788453729121 
1052	 0,179708693229736 
1053	 0,189311212944939 
1054	 0,188244971220181 
1055	 0,180271585309984 
1056	 0,17203721943997 
1057	 0,182466522474404 
1058	 0,192399742851013 
1059	 0,173590970041711 
1060	 0,171977657898506 
1061	 0,183410794759921 
1062	 0,17487445266482 
1063	 0,169055666786299 
1064	 0,171549276576398 
1065	 0,17725651062981 
1066	 0,188303702299542 
1067	 0,20055633204589 
1068	 0,19139818946426 
1069	 0,176001728497343 
1070	 0,169581607651668 
1071	 0,176291786486786 
1072	 0,183484415841431 
1073	 0,176762213025735 
1074	 0,182655412645222 
1075	 0,189756540943829 
