Wavelength	ABBE00407.asd
325	-0,270181346785216 
326	 1,00203133260984E-02 
327	 0,124485096747109 
328	 2,57252718872851E-02 
329	-7,81579145067989E-02 
330	-8,85402297827654E-02 
331	 3,34499826602352E-02 
332	 0,024390440755119 
333	-5,01190141782108E-02 
334	 2,21066291246136E-02 
335	 5,40401080802162E-02 
336	 1,69352513971675E-02 
337	-2,68259600052461E-02 
338	-6,17043277788137E-02 
339	-7,91378350433469E-02 
340	 4,60239982276473E-03 
341	 9,43655973922402E-02 
342	 6,35116204724474E-03 
343	 5,54594034640019E-03 
344	 0,115113388463295 
345	 8,02989574318089E-02 
346	 1,34437523952418E-02 
347	 3,17068325860203E-02 
348	 2,94327451835045E-02 
349	 1,87653564661287E-02 
350	 8,31893766624447E-02 
351	 0,106232727426625 
352	 5,66908824891618E-02 
353	 2,88154302933254E-02 
354	 1,31883334660972E-02 
355	-7,78154765327772E-03 
356	-4,50481663910389E-03 
357	 1,78843224171312E-02 
358	 3,95663150284397E-02 
359	 3,54785634110503E-02 
360	-2,1402595855713E-04 
361	-1,96842658076316E-02 
362	-1,72080209307067E-02 
363	 5,70819818100871E-03 
364	 5,13899585068715E-03 
365	-1,63107588625772E-02 
366	-9,35610819589463E-03 
367	 1,14661671759153E-02 
368	 3,17399832054043E-02 
369	 1,90482162327868E-02 
370	-6,27737733268842E-03 
371	 8,17044905987365E-04 
372	 1,21226609228403E-02 
373	 1,75803934114727E-02 
374	 1,18998504152662E-02 
375	 5,23184981491472E-03 
376	 5,90091029616272E-03 
377	 1,21134637731779E-02 
378	 1,95534779589341E-02 
379	 2,11541815352419E-02 
380	 1,18936770558103E-02 
381	-4,64326820383621E-03 
382	-7,75043283341696E-05 
383	 1,35631745806403E-02 
384	 2,34208938687389E-02 
385	 1,70908974195335E-02 
386	 1,87779901095535E-03 
387	 5,65705050579335E-04 
388	 1,45755539974236E-02 
389	 3,57640038374733E-02 
390	 1,76316086518952E-02 
391	-3,07776174819837E-03 
392	 2,01252880507862E-02 
393	 2,55084985545636E-02 
394	 1,03212451459525E-02 
395	 4,36240294613671E-03 
396	 9,0023016248031E-03 
397	 2,28356338164955E-02 
398	 2,92219280580028E-02 
399	 2,89227741557744E-02 
400	 2,63337660456537E-02 
401	 2,01435567765966E-02 
402	 1,35868243938665E-02 
403	 1,78044717684864E-02 
404	 2,11785715684393E-02 
405	 1,64440392940298E-02 
406	 1,33075319435228E-02 
407	 1,30547270705752E-02 
408	 1,52227921242138E-02 
409	 1,75763558698931E-02 
410	 0,019050714376238 
411	 1,88819805932596E-02 
412	 1,77239238721051E-02 
413	 0,016179473122761 
414	 0,011629638535581 
415	 7,49907324171988E-03 
416	 1,35025040853372E-02 
417	 0,02009005059603 
418	 2,22966462269693E-02 
419	 0,015991264435393 
420	 9,58826093727702E-03 
421	 1,39150522116964E-02 
422	 1,64056919038891E-02 
423	 1,59527239458324E-02 
424	 1,95496830184434E-02 
425	 2,06819931753498E-02 
426	 1,62464253065203E-02 
427	 0,015005312064964 
428	 1,75346256842175E-02 
429	 2,34402413497714E-02 
430	 2,29944755825039E-02 
431	 1,67061080816226E-02 
432	 2,05955487442229E-02 
433	 2,59564722053613E-02 
434	 2,47156472247157E-02 
435	 0,01990000448427 
436	 1,55300296431826E-02 
437	 0,020368919546803 
438	 2,33235534523795E-02 
439	 2,10391784289306E-02 
440	 2,28871182567493E-02 
441	 2,56870162088332E-02 
442	 2,45180730554542E-02 
443	 2,31561531566006E-02 
444	 2,23178128543403E-02 
445	 2,11184315897763E-02 
446	 0,020303326732135 
447	 2,03542370924439E-02 
448	 2,11606824233008E-02 
449	 0,022594589010321 
450	 0,024876721914977 
451	 2,37925748757469E-02 
452	 1,96964162773948E-02 
453	 0,020795320292089 
454	 2,26316328617467E-02 
455	 0,020966521229153 
456	 0,020308352493364 
457	 2,07228753775771E-02 
458	 2,00763259665397E-02 
459	 1,96680673752604E-02 
460	 1,96544642965217E-02 
461	 1,70783912819579E-02 
462	 1,58433919004604E-02 
463	 2,14251722226441E-02 
464	 2,19635620343578E-02 
465	 1,73781219470042E-02 
466	 1,81403633070052E-02 
467	 2,10890332290909E-02 
468	 2,36846870499842E-02 
469	 2,29951430310985E-02 
470	 2,07832736282164E-02 
471	 2,15196183399509E-02 
472	 2,19052407391787E-02 
473	 2,11368173047012E-02 
474	 2,02259293455073E-02 
475	 2,00129955101143E-02 
476	 2,12672501023107E-02 
477	 0,024520702512923 
478	 2,74269488843899E-02 
479	 2,34151285866229E-02 
480	 2,04433450569345E-02 
481	 2,18785379832164E-02 
482	 2,23153313333003E-02 
483	 2,20335186576654E-02 
484	 2,22921777808482E-02 
485	 2,29608870214353E-02 
486	 0,023611850627076 
487	 2,28773912506327E-02 
488	 2,14087731653092E-02 
489	 0,019950979206812 
490	 2,07229928851602E-02 
491	 0,022406899685991 
492	 0,021142494780992 
493	 2,05212078715131E-02 
494	 0,021248077372657 
495	 1,99061928497041E-02 
496	 1,88630676718068E-02 
497	 2,09447216928824E-02 
498	 2,01272012875871E-02 
499	 1,71548981425706E-02 
500	 1,86843217774665E-02 
501	 0,020112477263683 
502	 1,92670072105196E-02 
503	 0,021049137040651 
504	 2,35067917150313E-02 
505	 2,21810438315223E-02 
506	 2,16096292079955E-02 
507	 0,022525478849107 
508	 2,18717085159227E-02 
509	 2,10158153979955E-02 
510	 2,12569218082503E-02 
511	 2,11938131178233E-02 
512	 2,14055286156031E-02 
513	 2,44284843234439E-02 
514	 2,57712711922524E-02 
515	 0,023974496695505 
516	 0,023462497416794 
517	 2,37019679067265E-02 
518	 2,32698298600409E-02 
519	 2,34089245813507E-02 
520	 2,40065132412761E-02 
521	 2,35622539509936E-02 
522	 0,023193315852862 
523	 2,36115718259794E-02 
524	 2,32051604942385E-02 
525	 2,22531661019283E-02 
526	 2,16987585598823E-02 
527	 2,25252654444202E-02 
528	 2,43744336146044E-02 
529	 2,32786637901696E-02 
530	 2,14741669087174E-02 
531	 2,18165835099611E-02 
532	 2,23258300354974E-02 
533	 2,27632639466052E-02 
534	 0,023924146710077 
535	 2,45523332570944E-02 
536	 2,39771653855114E-02 
537	 0,023212855263141 
538	 2,28796001917686E-02 
539	 2,39242119257185E-02 
540	 0,023947652677745 
541	 2,27174579236717E-02 
542	 2,30169784679841E-02 
543	 2,35850924585834E-02 
544	 0,023129679723724 
545	 2,35591443793925E-02 
546	 2,43967749665075E-02 
547	 2,31404673356345E-02 
548	 2,25006681714066E-02 
549	 0,023581475796016 
550	 2,40342260235723E-02 
551	 2,40423460981971E-02 
552	 0,024344092109077 
553	 2,39952367906138E-02 
554	 0,023243357926822 
555	 2,41846881099265E-02 
556	 2,48443910166835E-02 
557	 2,36926807802048E-02 
558	 2,34248678733145E-02 
559	 0,023924687630034 
560	 2,35841125575982E-02 
561	 2,35448295828312E-02 
562	 2,40584251649712E-02 
563	 2,38723669607323E-02 
564	 2,34734085534084E-02 
565	 2,36323851769758E-02 
566	 2,43739484922997E-02 
567	 2,52260335328464E-02 
568	 2,45426153230055E-02 
569	 2,37643789251225E-02 
570	 2,39029817994708E-02 
571	 2,43326581103065E-02 
572	 0,024602435169826 
573	 2,38608369655042E-02 
574	 2,36039748594311E-02 
575	 2,43519424277293E-02 
576	 2,56875827599437E-02 
577	 2,68122748307512E-02 
578	 2,69024940756245E-02 
579	 2,71820878586333E-02 
580	 2,75527215709852E-02 
581	 2,66896703657025E-02 
582	 2,60716139670736E-02 
583	 2,65340096257507E-02 
584	 2,73009607495162E-02 
585	 2,81211823182498E-02 
586	 2,88160007295417E-02 
587	 2,88328610300163E-02 
588	 2,83297763651926E-02 
589	 2,88151730954603E-02 
590	 2,94210639925941E-02 
591	 2,93021791577039E-02 
592	 2,91769742717286E-02 
593	 0,029225501770456 
594	 2,95372061070202E-02 
595	 0,029917727926231 
596	 3,02002963714702E-02 
597	 3,00627794637436E-02 
598	 2,96995881997659E-02 
599	 2,94413408200348E-02 
600	 2,93146003165089E-02 
601	 2,92774960779453E-02 
602	 2,90876962107044E-02 
603	 2,88097099691752E-02 
604	 2,85450055422891E-02 
605	 2,88190712199654E-02 
606	 2,93299913933807E-02 
607	 2,91712598983268E-02 
608	 2,88039563450048E-02 
609	 2,84722343776014E-02 
610	 0,028620641249718 
611	 2,86453327406822E-02 
612	 2,77707759338629E-02 
613	 2,71042308371461E-02 
614	 2,69853245588935E-02 
615	 2,75553798112365E-02 
616	 2,80458902674961E-02 
617	 2,79245052017778E-02 
618	 2,72782362868111E-02 
619	 2,66711031707461E-02 
620	 2,71733791807885E-02 
621	 2,76247995719586E-02 
622	 2,76445399615304E-02 
623	 2,74133792333812E-02 
624	 2,73811332345556E-02 
625	 2,79574812464508E-02 
626	 2,78893888660082E-02 
627	 2,73722283058744E-02 
628	 2,77753566442613E-02 
629	 2,82487621830388E-02 
630	 2,84047694155773E-02 
631	 2,88305021483668E-02 
632	 2,91876877735879E-02 
633	 2,88263373203448E-02 
634	 2,85760967906456E-02 
635	 2,87345711718387E-02 
636	 2,94623781867662E-02 
637	 2,98132729895071E-02 
638	 2,91151650281037E-02 
639	 2,95779098894948E-02 
640	 3,08146534296428E-02 
641	 3,08878935746123E-02 
642	 3,04754353332099E-02 
643	 3,00012788374467E-02 
644	 0,030442277998694 
645	 3,12013598874064E-02 
646	 3,13868158054129E-02 
647	 3,12473313913506E-02 
648	 0,030997518396792 
649	 0,031153386117302 
650	 3,15035614086459E-02 
651	 3,18280032637861E-02 
652	 3,16271289652101E-02 
653	 3,09093531808258E-02 
654	 2,97922304016594E-02 
655	 2,89925532445137E-02 
656	 2,88016094314045E-02 
657	 2,91781361659642E-02 
658	 2,92300357108783E-02 
659	 2,81115956868277E-02 
660	 2,76921210629005E-02 
661	 2,79304318959041E-02 
662	 2,75093036976169E-02 
663	 2,68570312518242E-02 
664	 0,026217512326166 
665	 2,57954388862225E-02 
666	 0,025557705407297 
667	 2,54050195341767E-02 
668	 2,51846997430123E-02 
669	 2,49343985977083E-02 
670	 2,49653025966158E-02 
671	 2,52893408729137E-02 
672	 2,58229015852214E-02 
673	 2,55422488861907E-02 
674	 0,02482389535407 
675	 2,49940768949453E-02 
676	 2,52790714075951E-02 
677	 2,53512260183202E-02 
678	 2,49359232574327E-02 
679	 2,46360155068973E-02 
680	 2,51742003950481E-02 
681	 2,56005213563573E-02 
682	 2,57799804902188E-02 
683	 2,61364543253155E-02 
684	 2,61753236926904E-02 
685	 2,57387627349201E-02 
686	 2,59053895814032E-02 
687	 2,67138909147903E-02 
688	 2,79789240064599E-02 
689	 2,90802380213714E-02 
690	 2,98852610444102E-02 
691	 3,08581100608316E-02 
692	 3,20541000783113E-02 
693	 0,033514794572858 
694	 3,52254984461052E-02 
695	 3,74116076712543E-02 
696	 4,06966060081895E-02 
697	 4,40033787574218E-02 
698	 4,69747013159606E-02 
699	 5,04038733409743E-02 
700	 5,45392721177188E-02 
701	 5,95880929508308E-02 
702	 6,46740018280345E-02 
703	 6,95879057561336E-02 
704	 0,074652031456621 
705	 7,95828654428753E-02 
706	 8,42948261638079E-02 
707	 8,97804077023849E-02 
708	 0,095356974773196 
709	 9,95130109285887E-02 
710	 0,10377829165686 
711	 0,108447014979393 
712	 0,112640690272361 
713	 0,116374721161727 
714	 0,119734215389978 
715	 0,123416212740978 
716	 0,127108396976376 
717	 0,129599845435501 
718	 0,132103853323976 
719	 0,134951752664324 
720	 0,136814910937024 
721	 0,138511489643868 
722	 0,141206085659117 
723	 0,143133885593207 
724	 0,1442603189284 
725	 0,145921704632645 
726	 0,147667819617674 
727	 0,149149264874387 
728	 0,149812580941951 
729	 0,150207876350579 
730	 0,151425527165814 
731	 0,152742601826616 
732	 0,153919731363642 
733	 0,154953986649793 
734	 0,155805539488516 
735	 0,15644093716448 
736	 0,156809887775452 
737	 0,157155279372148 
738	 0,158120377829039 
739	 0,158791517857691 
740	 0,158929803507736 
741	 0,159361244198275 
742	 0,159824022298068 
743	 0,159949388608994 
744	 0,160147405487574 
745	 0,160608166970771 
746	 0,161694445023551 
747	 0,162350479980364 
748	 0,162095488174523 
749	 0,16203076414688 
750	 0,162109049286492 
751	 0,162015482080144 
752	 0,162458729033891 
753	 0,163319677469176 
754	 0,16344382981946 
755	 0,163368000823877 
756	 0,163495555592673 
757	 0,16359455431934 
758	 0,163767656927088 
759	 0,164296431096006 
760	 0,164644123975551 
761	 0,164727788041254 
762	 0,16506412692007 
763	 0,165545185139102 
764	 0,166018088473775 
765	 0,166029697253492 
766	 0,16586860248279 
767	 0,166565493961969 
768	 0,167007567713196 
769	 0,166846683700043 
770	 0,166827433940373 
771	 0,167007339796217 
772	 0,167367462319388 
773	 0,167482022045504 
774	 0,167403181014624 
775	 0,167619325388018 
776	 0,167877152147437 
777	 0,168044322146279 
778	 0,168162789786289 
779	 0,168245702493707 
780	 0,168306597949085 
781	 0,168461162534115 
782	 0,168668424667554 
783	 0,168655302283458 
784	 0,168676414736043 
785	 0,168870365704766 
786	 0,168852660155369 
787	 0,168832577396534 
788	 0,169284705645624 
789	 0,169598690817124 
790	 0,169633665392035 
791	 0,16971882675233 
792	 0,169536795812857 
793	 0,16895134742106 
794	 0,169363102233069 
795	 0,17027985505711 
796	 0,170160866852657 
797	 0,169943388947292 
798	 0,169927488598224 
799	 0,170036829083941 
800	 0,170171621838954 
801	 0,170239266072093 
802	 0,170305418373022 
803	 0,170388993609004 
804	 0,1704738896579 
805	 0,170787933608954 
806	 0,171266391136409 
807	 0,171070852845675 
808	 0,170865768423517 
809	 0,171380534574123 
810	 0,171514448200997 
811	 0,171340780933627 
812	 0,171718327711795 
813	 0,172104187038848 
814	 0,172250592890472 
815	 0,172069428348664 
816	 0,172082720353829 
817	 0,172880277220426 
818	 0,173347429052047 
819	 0,173311188177007 
820	 0,173047772368934 
821	 0,172995897711117 
822	 0,173365356806648 
823	 0,173859803570974 
824	 0,17420251652594 
825	 0,174099683900404 
826	 0,174267506306642 
827	 0,174648453541551 
828	 0,17443871822339 
829	 0,174379105415281 
830	 0,174790620916598 
831	 0,175012821154123 
832	 0,175199145998719 
833	 0,175651581328082 
834	 0,175892450220718 
835	 0,175903281859042 
836	 0,176034762387896 
837	 0,17615973323439 
838	 0,176238629562349 
839	 0,176480205402489 
840	 0,176685437703009 
841	 0,176551179960357 
842	 0,176534613959916 
843	 0,176785703040556 
844	 0,177413806467603 
845	 0,177859126036887 
846	 0,177783745300773 
847	 0,17725129067943 
848	 0,176786869346714 
849	 0,177086062342067 
850	 0,177254036271994 
851	 0,177181728088166 
852	 0,177392226769563 
853	 0,177194492538544 
854	 0,176443426630771 
855	 0,176780902863391 
856	 0,177690385954887 
857	 0,178213752394283 
858	 0,178061279410481 
859	 0,177530763387349 
860	 0,177873444360033 
861	 0,178291908716344 
862	 0,178385438738368 
863	 0,178398451826481 
864	 0,178468822924081 
865	 0,178742358257643 
866	 0,179193265620576 
867	 0,179533821725695 
868	 0,178881294746038 
869	 0,178546004408725 
870	 0,179080855952303 
871	 0,179579849792575 
872	 0,179898902467313 
873	 0,179983995167972 
874	 0,180211261888106 
875	 0,180556879197953 
876	 0,180657647986791 
877	 0,180925059221015 
878	 0,181397750640625 
879	 0,181250384225099 
880	 0,181073536148312 
881	 0,181525803068014 
882	 0,181607500983658 
883	 0,181351744078244 
884	 0,1813042387156 
885	 0,181692997438087 
886	 0,182465288228275 
887	 0,18282693581627 
888	 0,182910091670935 
889	 0,182914633777577 
890	 0,183124877099573 
891	 0,183452828080852 
892	 0,183592515882082 
893	 0,183534493462501 
894	 0,183328727791864 
895	 0,183252986377921 
896	 0,183148408991004 
897	 0,18289936345975 
898	 0,182637224970099 
899	 0,182606962294059 
900	 0,183170873389105 
901	 0,184077048604939 
902	 0,184940921453855 
903	 0,184823491041487 
904	 0,184306201608042 
905	 0,183877191475858 
906	 0,184106957898898 
907	 0,184425555950045 
908	 0,183929390984971 
909	 0,184218053866561 
910	 0,185177212740969 
911	 0,185221183429017 
912	 0,185119363895108 
913	 0,185081307399956 
914	 0,184084302147793 
915	 0,183309320420059 
916	 0,184083792019641 
917	 0,185316769689662 
918	 0,186225319832629 
919	 0,185459855457391 
920	 0,184893351226784 
921	 0,185182332138604 
922	 0,185901238425369 
923	 0,186425123345257 
924	 0,186243834805511 
925	 0,185715551410685 
926	 0,1850019214332 
927	 0,184278094339001 
928	 0,183337161596823 
929	 0,18272424084017 
930	 0,184454149660168 
931	 0,186459099665278 
932	 0,1872121289516 
933	 0,185701141514477 
934	 0,183787841040431 
935	 0,183960048102472 
936	 0,184907912178746 
937	 0,185544475104956 
938	 0,183479420209808 
939	 0,182675879485433 
940	 0,183943537140479 
941	 0,182709888588953 
942	 0,18168269048511 
943	 0,18317078223323 
944	 0,183138136089024 
945	 0,181875574511991 
946	 0,181132682832597 
947	 0,181254872735099 
948	 0,181957708141524 
949	 0,181655732947626 
950	 0,181073076046786 
951	 0,180648013476782 
952	 0,18033736510315 
953	 0,180012499897047 
954	 0,179498852283909 
955	 0,178327422129555 
956	 0,176986924145843 
957	 0,17700713965433 
958	 0,176543424264102 
959	 0,175336636790919 
960	 0,175207333087868 
961	 0,175707487744359 
962	 0,176352629415211 
963	 0,176699225403767 
964	 0,176402420694121 
965	 0,175116257696286 
966	 0,174356850530286 
967	 0,174496688046411 
968	 0,175292958878867 
969	 0,17606334831508 
970	 0,176247626794016 
971	 0,174820585450261 
972	 0,173858590633402 
973	 0,175120778662748 
974	 0,175863438824618 
975	 0,176343827978969 
976	 0,177966645489158 
977	 0,1769645989133 
978	 0,173789905696709 
979	 0,17349597800102 
980	 0,174184898206397 
981	 0,175098358583301 
982	 0,177676206574107 
983	 0,179197922835253 
984	 0,177191894972338 
985	 0,176475555455234 
986	 0,177418297226961 
987	 0,178931641747665 
988	 0,179832029024988 
989	 0,180054563915667 
990	 0,181193160276622 
991	 0,181488337284979 
992	 0,180416141676155 
993	 0,18092996714068 
994	 0,180991400356893 
995	 0,17866152456097 
996	 0,179789959052449 
997	 0,182711093553873 
998	 0,182114741065455 
999	 0,182727806437959 
1000	 0,18431532106704 
1001	 0,180828387022417 
1002	 0,180398254870749 
1003	 0,185516129603889 
1004	 0,185015644296648 
1005	 0,182654383409562 
1006	 0,182838431320563 
1007	 0,183125889451997 
1008	 0,183488619623991 
1009	 0,18436948607866 
1010	 0,188900622709525 
1011	 0,19417464506114 
1012	 0,187394135843635 
1013	 0,18517478376131 
1014	 0,191968913599773 
1015	 0,189876489431201 
1016	 0,184847122829221 
1017	 0,183122057154526 
1018	 0,185535064203643 
1019	 0,189290397616748 
1020	 0,189966544560643 
1021	 0,188303066938408 
1022	 0,187137095156993 
1023	 0,194962285766205 
1024	 0,195195755199157 
1025	 0,185785200666078 
1026	 0,185598420845074 
1027	 0,187872904219336 
1028	 0,188159233740632 
1029	 0,190037841572827 
1030	 0,193638688720538 
1031	 0,198184275438496 
1032	 0,195063786946017 
1033	 0,188456356242228 
1034	 0,190103644278986 
1035	 0,189549544076785 
1036	 0,187051049463893 
1037	 0,194199315603297 
1038	 0,198289949412887 
1039	 0,194846897559989 
1040	 0,19367014901792 
1041	 0,193077028567471 
1042	 0,192080401878469 
1043	 0,197845215009678 
1044	 0,203524623125531 
1045	 0,199289689661941 
1046	 0,198429065569086 
1047	 0,199834750959223 
1048	 0,1933224786877 
1049	 0,194919621765882 
1050	 0,204382015065764 
1051	 0,200982097150206 
1052	 0,197639373909655 
1053	 0,200289128498504 
1054	 0,203338720353727 
1055	 0,203630378085641 
1056	 0,199299353058871 
1057	 0,196817879139105 
1058	 0,196727973519126 
1059	 0,198185031798109 
1060	 0,201191196830095 
1061	 0,203625512306831 
1062	 0,201192742185005 
1063	 0,199299555356306 
1064	 0,198967822653165 
1065	 0,197377860985871 
1066	 0,196815096769914 
1067	 0,197684353795907 
1068	 0,198257335378042 
1069	 0,191549504096239 
1070	 0,176682147677275 
1071	 0,18233311606839 
1072	 0,196154271218589 
1073	 0,19925523729598 
1074	 0,196509872162304 
1075	 0,188720828591646 
