Wavelength	ABBE00507.asd
325	 8,86936549761163E-02 
326	 0,18751426106798 
327	 0,144251784192248 
328	-8,89437286579242E-02 
329	-0,154990609270528 
330	-9,47223532413134E-02 
331	-1,58751995505992E-02 
332	 2,73282701511691E-02 
333	 4,05732393047404E-02 
334	 6,34733889854613E-02 
335	 0,091750183500367 
336	 0,108135653111894 
337	 3,07605491858162E-02 
338	-3,50629757081589E-02 
339	-3,40522973740333E-03 
340	 6,88751992110172E-02 
341	 0,107549960124813 
342	 3,63974134347178E-02 
343	 8,09909420518716E-03 
344	 4,58385576340018E-02 
345	 5,49666710608518E-02 
346	 0,040482164202033 
347	 1,53076743218833E-02 
348	 1,27298541547162E-02 
349	 3,32470118219691E-02 
350	 6,75995118029698E-02 
351	 7,42450853841759E-02 
352	 4,43887646002753E-02 
353	 3,02053105554686E-02 
354	 2,08834923519859E-02 
355	 3,69252747452307E-04 
356	-2,37199384213139E-02 
357	-3,43559463669783E-02 
358	 2,00855964049249E-02 
359	 5,16944263234701E-02 
360	 0,027728458752545 
361	 2,21506359681306E-02 
362	 2,92462325139233E-02 
363	 2,93360045792788E-02 
364	 2,04534486774692E-02 
365	 1,12919362037128E-02 
366	 3,71048057969105E-02 
367	 5,44889057423032E-02 
368	 4,10135643650126E-02 
369	 3,93455447747044E-02 
370	 4,55462178952566E-02 
371	 4,41029346653914E-02 
372	 2,45425352848542E-02 
373	-3,35243191887464E-03 
374	 9,58699984845522E-03 
375	 3,10713253863696E-02 
376	 3,46801800320475E-02 
377	 3,42539688815959E-02 
378	 3,37690067268525E-02 
379	 4,00810113761369E-02 
380	 2,62023877061292E-02 
381	-4,7899153678267E-03 
382	 1,42559523929663E-02 
383	 3,69648394431529E-02 
384	 2,09098049333905E-02 
385	 5,81726466520218E-03 
386	 2,85882044025616E-03 
387	 2,21530097806868E-02 
388	 2,90818073605427E-02 
389	 1,57124585007409E-02 
390	 2,04756714849739E-02 
391	 3,06074557447995E-02 
392	 2,77109873720452E-02 
393	 2,39080343074466E-02 
394	 2,16983245745082E-02 
395	 1,93619498815946E-02 
396	 0,021316703888269 
397	 2,90956996948875E-02 
398	 3,91387605981975E-02 
399	 4,13001812074625E-02 
400	 2,12029036961491E-02 
401	 9,48682962200941E-03 
402	 1,16215532517794E-02 
403	 1,41239904093104E-02 
404	 1,53280097750868E-02 
405	 1,43607877079437E-02 
406	 1,24792493856645E-02 
407	 1,16518715916912E-02 
408	 1,57900260527957E-02 
409	 1,56003703277252E-02 
410	 1,08334929291957E-02 
411	 1,48983708718433E-02 
412	 1,72423834746666E-02 
413	 8,61569595373831E-03 
414	 6,41536782375974E-03 
415	 1,19076090884182E-02 
416	 2,13350515322478E-02 
417	 2,41623322798077E-02 
418	 1,72176806437669E-02 
419	 9,54272290197568E-03 
420	 6,32701196873702E-03 
421	 1,27475635851246E-02 
422	 1,45000838257358E-02 
423	 1,07656065199527E-02 
424	 1,03311231925508E-02 
425	 1,18645741568756E-02 
426	 0,013960044108708 
427	 1,18692821644744E-02 
428	 8,88912522132184E-03 
429	 1,20934215704302E-02 
430	 1,47538404190586E-02 
431	 1,52606952875819E-02 
432	 1,65216139739604E-02 
433	 1,58439210796132E-02 
434	 1,11824023506617E-02 
435	 9,43097578086521E-03 
436	 1,06718656129195E-02 
437	 1,15082025805068E-02 
438	 1,28090563329019E-02 
439	 1,44066604117845E-02 
440	 1,45074012558322E-02 
441	 1,32423923869547E-02 
442	 1,09804891573389E-02 
443	 1,12000255554043E-02 
444	 1,34649058937679E-02 
445	 1,34434369232187E-02 
446	 1,18579105302715E-02 
447	 9,67160022806943E-03 
448	 1,12098201357425E-02 
449	 0,014667269739025 
450	 1,59951163359864E-02 
451	 1,40128678142804E-02 
452	 9,86236776982301E-03 
453	 1,09261045689935E-02 
454	 1,26169638860679E-02 
455	 1,06971050195542E-02 
456	 1,14658983454374E-02 
457	 0,014085392045288 
458	 1,31431369770672E-02 
459	 1,28314323716704E-02 
460	 1,41596384167955E-02 
461	 1,15999718939849E-02 
462	 9,25401576901517E-03 
463	 1,31469120885767E-02 
464	 1,49420815347635E-02 
465	 1,34857342547131E-02 
466	 1,23194553973984E-02 
467	 1,27899832519172E-02 
468	 1,52457215878423E-02 
469	 1,37868522299959E-02 
470	 1,09980647257842E-02 
471	 1,39123961179044E-02 
472	 1,54507974680635E-02 
473	 1,38321181662756E-02 
474	 1,19776154810019E-02 
475	 1,07592235998304E-02 
476	 1,09151835952813E-02 
477	 1,36212299714488E-02 
478	 1,69652886859669E-02 
479	 1,55188008884552E-02 
480	 1,36233816952914E-02 
481	 1,31521271493334E-02 
482	 1,14379627386834E-02 
483	 1,03467688209665E-02 
484	 1,29885196381061E-02 
485	 1,48254535779881E-02 
486	 1,46060851352832E-02 
487	 1,27456435920985E-02 
488	 1,10486726242491E-02 
489	 1,10076653878513E-02 
490	 1,32731190476835E-02 
491	 1,56486790439729E-02 
492	 1,30106378928533E-02 
493	 1,08043233705884E-02 
494	 1,08464463421933E-02 
495	 1,15179405740446E-02 
496	 1,20353493083033E-02 
497	 1,16726018465742E-02 
498	 1,14019411001856E-02 
499	 1,14453236832391E-02 
500	 1,18771889837471E-02 
501	 0,011597592205716 
502	 1,03387649728014E-02 
503	 1,13239958834207E-02 
504	 1,31774008004354E-02 
505	 1,28616703486525E-02 
506	 1,21873643007037E-02 
507	 0,011625680840825 
508	 1,06215152710413E-02 
509	 1,04840398282199E-02 
510	 1,22211981855198E-02 
511	 1,23537375935245E-02 
512	 1,15320053659168E-02 
513	 1,35279020114963E-02 
514	 1,41099643884063E-02 
515	 1,21646962032806E-02 
516	 1,31344941845381E-02 
517	 1,48807587079105E-02 
518	 1,37216474724166E-02 
519	 1,28064333217165E-02 
520	 1,27519579401493E-02 
521	 1,28211444345061E-02 
522	 1,22842071779908E-02 
523	 1,08571594609257E-02 
524	 1,14352122796091E-02 
525	 1,31770883771925E-02 
526	 1,32706241792698E-02 
527	 1,29950349732459E-02 
528	 1,26543971945195E-02 
529	 1,17096264011093E-02 
530	 1,08151258884111E-02 
531	 1,07277510814441E-02 
532	 1,13256146666205E-02 
533	 1,22277575261941E-02 
534	 1,24552806287192E-02 
535	 1,24623933822035E-02 
536	 1,25433462980809E-02 
537	 1,28453622101813E-02 
538	 1,31056970295903E-02 
539	 1,27807332299793E-02 
540	 1,25626166769312E-02 
541	 1,26091062549774E-02 
542	 1,26003104052088E-02 
543	 1,22813944794708E-02 
544	 1,14888223803336E-02 
545	 0,011852218818458 
546	 1,28323215017797E-02 
547	 1,19057437557911E-02 
548	 1,13406279454368E-02 
549	 1,20776199957033E-02 
550	 1,23432021022798E-02 
551	 1,24062516589599E-02 
552	 1,30393399929712E-02 
553	 1,28570660549801E-02 
554	 1,18792545488324E-02 
555	 0,011831850114931 
556	 1,18780942316093E-02 
557	 1,13612696909329E-02 
558	 1,16797511965978E-02 
559	 1,22351281188427E-02 
560	 0,010696439047029 
561	 1,02717774239316E-02 
562	 1,18618127751459E-02 
563	 1,23658958480638E-02 
564	 1,21791247895318E-02 
565	 1,22024280872071E-02 
566	 1,25623173998541E-02 
567	 1,30457146624728E-02 
568	 1,26593109348643E-02 
569	 1,23259174907134E-02 
570	 1,26377522854356E-02 
571	 1,25966715258332E-02 
572	 1,24014967213404E-02 
573	 1,28559194686068E-02 
574	 1,30251902421307E-02 
575	 1,28318170760373E-02 
576	 0,013751583897121 
577	 1,46071018719045E-02 
578	 1,40262721214634E-02 
579	 1,44939330031526E-02 
580	 1,58503848727712E-02 
581	 1,58066180748392E-02 
582	 1,54025847190858E-02 
583	 1,52637434491544E-02 
584	 1,53982443270938E-02 
585	 1,56390652348971E-02 
586	 1,56727811844552E-02 
587	 1,56470226235923E-02 
588	 1,56554261311808E-02 
589	 1,58560475783665E-02 
590	 1,63019763822392E-02 
591	 1,69881378362496E-02 
592	 1,71419624290388E-02 
593	 0,016827343777809 
594	 0,016593258652645 
595	 1,66964456337313E-02 
596	 1,72038788825933E-02 
597	 1,75090975174755E-02 
598	 1,76032826439087E-02 
599	 1,76099770228898E-02 
600	 1,70660027563408E-02 
601	 1,61724188055659E-02 
602	 1,60661161971524E-02 
603	 1,63511637476109E-02 
604	 1,66467403390906E-02 
605	 1,65755128318429E-02 
606	 1,62672585878134E-02 
607	 1,62210588025423E-02 
608	 1,62539520606376E-02 
609	 1,62322565951469E-02 
610	 1,57854204499167E-02 
611	 1,51366584459563E-02 
612	 0,014600735102228 
613	 1,44825592011015E-02 
614	 1,47229524780565E-02 
615	 0,014845228685682 
616	 1,49176871422106E-02 
617	 1,49411081430178E-02 
618	 1,45307502754374E-02 
619	 1,41417149536982E-02 
620	 1,47793144055469E-02 
621	 0,015362699988095 
622	 1,54120680759829E-02 
623	 1,44736410964499E-02 
624	 1,39006927891159E-02 
625	 1,50249259921027E-02 
626	 1,53974462189331E-02 
627	 1,48640308423355E-02 
628	 0,014540338675582 
629	 1,45709511640237E-02 
630	 1,49898359823687E-02 
631	 0,015072137803038 
632	 1,52176031728266E-02 
633	 1,62579296238395E-02 
634	 1,66947789461171E-02 
635	 1,63029227841955E-02 
636	 1,61312790893853E-02 
637	 1,60949413801524E-02 
638	 1,61345090558699E-02 
639	 0,016828613486771 
640	 0,01768211897105 
641	 1,71440365393397E-02 
642	 1,70029278048913E-02 
643	 0,017788268647724 
644	 1,79480940776597E-02 
645	 1,78188594392735E-02 
646	 1,80183750032714E-02 
647	 1,81802206088404E-02 
648	 1,82534519224881E-02 
649	 1,83541943106458E-02 
650	 1,84773214583584E-02 
651	 1,85679287113565E-02 
652	 1,82624851054108E-02 
653	 1,75056424491809E-02 
654	 1,61641007763968E-02 
655	 1,56995750719001E-02 
656	 0,016316341263609 
657	 0,016212179585933 
658	 1,58785229354024E-02 
659	 1,59108453851775E-02 
660	 1,54337662810158E-02 
661	 1,45394001003073E-02 
662	 1,39384690766724E-02 
663	 1,36774995505051E-02 
664	 1,36921379767079E-02 
665	 1,32571049172751E-02 
666	 1,24935379915191E-02 
667	 1,16725357343052E-02 
668	 1,19462353903162E-02 
669	 1,31320320691986E-02 
670	 1,31432541997481E-02 
671	 1,28140270569178E-02 
672	 1,28450465770718E-02 
673	 1,28022745468326E-02 
674	 1,26915316897265E-02 
675	 1,26617626772497E-02 
676	 1,26881287175799E-02 
677	 1,27051385392049E-02 
678	 1,23472871895011E-02 
679	 1,21077252577388E-02 
680	 1,25853481982533E-02 
681	 1,27867704647612E-02 
682	 0,012674536598088 
683	 1,29155006698555E-02 
684	 1,33095933362659E-02 
685	 1,36848511689167E-02 
686	 1,35793653074114E-02 
687	 1,34921243129164E-02 
688	 1,44167677418397E-02 
689	 1,52804196590525E-02 
690	 1,58259445593063E-02 
691	 1,64345830954345E-02 
692	 1,73234393556156E-02 
693	 1,86850528069591E-02 
694	 2,05416148079018E-02 
695	 2,28664583722905E-02 
696	 0,025644620990467 
697	 2,83597791530619E-02 
698	 3,09894982562577E-02 
699	 0,034797384769723 
700	 3,92597862818278E-02 
701	 4,35523026518647E-02 
702	 4,86427533591554E-02 
703	 5,44002987408782E-02 
704	 5,97723984587922E-02 
705	 6,49709188084571E-02 
706	 7,02265739748454E-02 
707	 7,64198873254758E-02 
708	 8,28630649693194E-02 
709	 8,80602367298337E-02 
710	 9,34366495308202E-02 
711	 9,92707549111989E-02 
712	 0,10480627589061 
713	 0,110011583837379 
714	 0,114897030032434 
715	 0,119746014447975 
716	 0,124483434198098 
717	 0,128795702557954 
718	 0,132819367489707 
719	 0,136575116219302 
720	 0,139898585643603 
721	 0,143075674314529 
722	 0,146460669447805 
723	 0,149351984915996 
724	 0,151759773685038 
725	 0,154258059007591 
726	 0,156657856709238 
727	 0,158821166261944 
728	 0,160605733742387 
729	 0,161993340842051 
730	 0,162946144744076 
731	 0,164170688660899 
732	 0,165740421523158 
733	 0,166847539424647 
734	 0,167869981879692 
735	 0,16910695290052 
736	 0,169665292752927 
737	 0,169931240193172 
738	 0,171311229170412 
739	 0,172326262184499 
740	 0,172563921937692 
741	 0,173098520619802 
742	 0,173758403009255 
743	 0,17424685192808 
744	 0,17460228941066 
745	 0,174834694134305 
746	 0,174917788947362 
747	 0,175199646328519 
748	 0,175803666715309 
749	 0,17616755054381 
750	 0,176249942749752 
751	 0,176089871640543 
752	 0,17617587511703 
753	 0,176535396416254 
754	 0,176645717696717 
755	 0,176784756370867 
756	 0,177116334859091 
757	 0,177115233377877 
758	 0,177017249533475 
759	 0,177487520386764 
760	 0,177733781148073 
761	 0,177615190489061 
762	 0,177757335762446 
763	 0,178033644149835 
764	 0,17828057304371 
765	 0,178255735936962 
766	 0,178139188583878 
767	 0,178557641535091 
768	 0,178822283831837 
769	 0,178718831463206 
770	 0,178739334800298 
771	 0,17882080167074 
772	 0,178841065150286 
773	 0,178790018351543 
774	 0,178748538017988 
775	 0,178993453175375 
776	 0,179129913896308 
777	 0,178995664678199 
778	 0,179062144912198 
779	 0,179112796789775 
780	 0,1787465927907 
781	 0,178892850890875 
782	 0,17946614105805 
783	 0,179267109613517 
784	 0,178868310591598 
785	 0,178660971176043 
786	 0,178515536916758 
787	 0,178423110922088 
788	 0,178375436160523 
789	 0,178452088045944 
790	 0,178579423834007 
791	 0,178427044441128 
792	 0,178045910812278 
793	 0,177546036966536 
794	 0,177508120156238 
795	 0,1777912813936 
796	 0,177907478324329 
797	 0,177766669973687 
798	 0,177403900799139 
799	 0,17723482647201 
800	 0,177201557581061 
801	 0,177208934745958 
802	 0,176942533557888 
803	 0,176670521265151 
804	 0,17723399172138 
805	 0,177844574841584 
806	 0,178156485733845 
807	 0,17810046407683 
808	 0,178008734455243 
809	 0,178217205039646 
810	 0,17793227908709 
811	 0,177477504148383 
812	 0,178276991573778 
813	 0,178653858999645 
814	 0,17808556482029 
815	 0,178088490811427 
816	 0,178396502560166 
817	 0,178535345591469 
818	 0,178473543310399 
819	 0,178326696603278 
820	 0,178479312717181 
821	 0,178699102827481 
822	 0,178913977540246 
823	 0,179452948325121 
824	 0,179844521986479 
825	 0,179476028352862 
826	 0,179489771301283 
827	 0,179890764149302 
828	 0,179707182892166 
829	 0,179751987985177 
830	 0,180328390908212 
831	 0,180468349784918 
832	 0,180431664447346 
833	 0,180712258470068 
834	 0,180802117623332 
835	 0,18069212839208 
836	 0,180721797216935 
837	 0,180939144505449 
838	 0,181311404869059 
839	 0,181433544887428 
840	 0,181286205067913 
841	 0,180918103775735 
842	 0,181090955722823 
843	 0,181677743804382 
844	 0,181529722373852 
845	 0,181499840182742 
846	 0,181905938404508 
847	 0,181522505917663 
848	 0,180842567619017 
849	 0,18073753652301 
850	 0,180690062351591 
851	 0,180607725827544 
852	 0,18059561216428 
853	 0,180554126473741 
854	 0,180477890605114 
855	 0,180744116383787 
856	 0,181037061555524 
857	 0,18088492638884 
858	 0,180185097757349 
859	 0,179374279673116 
860	 0,179879866180179 
861	 0,180422756117889 
862	 0,1804023331274 
863	 0,180695874980196 
864	 0,180911381610406 
865	 0,180461908365384 
866	 0,180897084695746 
867	 0,181851670084253 
868	 0,180992748241588 
869	 0,180494641469691 
870	 0,181238691429641 
871	 0,18176023119026 
872	 0,181869151229284 
873	 0,181539684635296 
874	 0,181799290410904 
875	 0,182535561429265 
876	 0,182670027696172 
877	 0,183044331036648 
878	 0,183725612541859 
879	 0,183067258263077 
880	 0,182287731400393 
881	 0,18278013875379 
882	 0,183276636243887 
883	 0,183506948028948 
884	 0,183399066747635 
885	 0,183613948633494 
886	 0,184269929139266 
887	 0,184624597900209 
888	 0,184609030464491 
889	 0,184233194305209 
890	 0,183815024512351 
891	 0,183615470205498 
892	 0,183998360299422 
893	 0,184653061089727 
894	 0,185179396667153 
895	 0,184453653352798 
896	 0,183649079452611 
897	 0,183703865155478 
898	 0,183963176571722 
899	 0,184303908263486 
900	 0,184707144204903 
901	 0,184599318972359 
902	 0,184183736532174 
903	 0,184918817414278 
904	 0,185429134682789 
905	 0,184977493802529 
906	 0,185113899521812 
907	 0,185137328621696 
908	 0,183825799056054 
909	 0,183720741507499 
910	 0,184729937234904 
911	 0,184541148665767 
912	 0,183947460585257 
913	 0,183473942635414 
914	 0,183987509758102 
915	 0,184682820548702 
916	 0,184612086757335 
917	 0,184740893889564 
918	 0,184856074817182 
919	 0,1838627781724 
920	 0,18339307582112 
921	 0,183799514176843 
922	 0,183780870894997 
923	 0,183424075087653 
924	 0,182881945084642 
925	 0,182452531284701 
926	 0,182087496438599 
927	 0,181611439474154 
928	 0,180753870872294 
929	 0,179771809047897 
930	 0,179775624211661 
931	 0,180248113113478 
932	 0,180626553694098 
933	 0,179431233819761 
934	 0,178052288057114 
935	 0,178411618780837 
936	 0,177998151291874 
937	 0,176689858941597 
938	 0,175677936943433 
939	 0,175137169781077 
940	 0,175042551539236 
941	 0,174615596209615 
942	 0,174196282467367 
943	 0,174002412158672 
944	 0,172707636493002 
945	 0,170640009193937 
946	 0,16877952269969 
947	 0,167361471434274 
948	 0,166580775892636 
949	 0,166816951034762 
950	 0,166234034864763 
951	 0,163974645873165 
952	 0,161805697452663 
953	 0,160796158781254 
954	 0,161814304323952 
955	 0,16138922046617 
956	 0,159399567559869 
957	 0,157570599426679 
958	 0,155946868613869 
959	 0,154870882250941 
960	 0,155299758115744 
961	 0,155447713472336 
962	 0,154101960624566 
963	 0,153442707862591 
964	 0,153103547989156 
965	 0,152052220032281 
966	 0,152780363121828 
967	 0,154694003838521 
968	 0,154164047677416 
969	 0,153004646856888 
970	 0,152116054741842 
971	 0,152052722117444 
972	 0,151803059359843 
973	 0,150566218092824 
974	 0,150255692953285 
975	 0,151302955361372 
976	 0,153940857324823 
977	 0,153859226679753 
978	 0,150957249486234 
979	 0,149302934503573 
980	 0,148797366919745 
981	 0,149632024004174 
982	 0,152810812635995 
983	 0,154716595064287 
984	 0,152122611564893 
985	 0,151715627050243 
986	 0,153231944961041 
987	 0,15364382947187 
988	 0,155071362899032 
989	 0,156984284813656 
990	 0,15548488833219 
991	 0,154955170083059 
992	 0,157006882531703 
993	 0,15637123748899 
994	 0,154152155980273 
995	 0,152367932232737 
996	 0,156346597651252 
997	 0,162028026765291 
998	 0,159807104225338 
999	 0,157372796173294 
1000	 0,15690060539778 
1001	 0,157533183503333 
1002	 0,159513739155075 
1003	 0,162112330113963 
1004	 0,161114039503747 
1005	 0,159458551223017 
1006	 0,160235351863914 
1007	 0,161138023608114 
1008	 0,162156206424765 
1009	 0,163897946295378 
1010	 0,165901152711182 
1011	 0,16746190540589 
1012	 0,166618964040475 
1013	 0,167194631321097 
1014	 0,169564288679109 
1015	 0,166302470762461 
1016	 0,162200090738783 
1017	 0,161909287381419 
1018	 0,165675844137246 
1019	 0,16953620448084 
1020	 0,167796947234316 
1021	 0,167254490473262 
1022	 0,169951786675841 
1023	 0,177888628294547 
1024	 0,178013210967577 
1025	 0,169142268855462 
1026	 0,168491279658083 
1027	 0,171741026334014 
1028	 0,174941335493049 
1029	 0,173732833637433 
1030	 0,172841634562906 
1031	 0,177901846016912 
1032	 0,180607863450213 
1033	 0,179896582232658 
1034	 0,177065520589245 
1035	 0,176561669157059 
1036	 0,179812551349276 
1037	 0,187182601243122 
1038	 0,187843207833018 
1039	 0,179097472391381 
1040	 0,17533618730403 
1041	 0,176280050699949 
1042	 0,180696853375004 
1043	 0,186799553037393 
1044	 0,190693339961758 
1045	 0,188284976011882 
1046	 0,190216356441761 
1047	 0,193206401674822 
1048	 0,183571489761421 
1049	 0,181347511305911 
1050	 0,18897542737462 
1051	 0,190478568723315 
1052	 0,191524763206688 
1053	 0,194579631893312 
1054	 0,198531513750606 
1055	 0,19839022267862 
1056	 0,190662279072851 
1057	 0,183738683353826 
1058	 0,178833010097345 
1059	 0,175877392276834 
1060	 0,186239938893398 
1061	 0,201298435279836 
1062	 0,196560656028202 
1063	 0,193971330350362 
1064	 0,197877362068166 
1065	 0,199269339467702 
1066	 0,199671264988403 
1067	 0,197723446670467 
1068	 0,183744329358749 
1069	 0,170205993767549 
1070	 0,168502581293607 
1071	 0,175418401375856 
1072	 0,18628588905652 
1073	 0,19532991586452 
1074	 0,202101550118057 
1075	 0,198964777346329 
