Wavelength	ABBE00263.asd
325	-6,93225211007623E-02 
326	 0,10499485210229 
327	 0,12946938567812 
328	-3,12978851616976E-02 
329	-2,94643527909248E-02 
330	 0,066036588440853 
331	 0,139231146230106 
332	 0,185449135465681 
333	 0,181170133601423 
334	 8,55051102577491E-02 
335	 5,05741011482023E-02 
336	 8,49961409349166E-02 
337	 7,12091613802815E-02 
338	 3,09759115797325E-02 
339	-0,01938446911895 
340	-6,71778856117833E-04 
341	 5,63177007115592E-02 
342	 6,58783853312716E-02 
343	 4,54817640890888E-02 
344	 4,40773945416023E-03 
345	-4,24959735890367E-02 
346	-2,31582558623033E-02 
347	 0,115440721558825 
348	 0,116433200734786 
349	 1,86364812201684E-02 
350	 2,68127239674783E-02 
351	 7,14890915631547E-02 
352	 0,114680385511094 
353	 9,34006092199215E-02 
354	 3,64924641578081E-02 
355	-4,49534953404541E-03 
356	-1,47974582718678E-02 
357	 3,48222606614373E-03 
358	 4,42709199949626E-02 
359	 6,89610962581969E-02 
360	 6,21463143489206E-02 
361	 5,02813250842035E-02 
362	 4,02926679659247E-02 
363	 3,61305321594389E-02 
364	 4,22939024159187E-02 
365	 5,34804636451972E-02 
366	 4,75542326549718E-02 
367	 4,25226922079234E-02 
368	 4,60239020044856E-02 
369	 2,24476927999873E-02 
370	-2,87948009303323E-03 
371	 2,76640911012566E-02 
372	 3,34057062022974E-02 
373	 5,50950566656002E-03 
374	 7,65611860840782E-03 
375	 2,66393768343732E-02 
376	 4,76023582017878E-02 
377	 4,92473019073917E-02 
378	 4,08923185356399E-02 
379	 5,20310697324998E-02 
380	 4,20473338278303E-02 
381	 9,71726007790735E-03 
382	 0,020197950898586 
383	 4,08835699565537E-02 
384	 0,039552496480757 
385	 2,49197779534365E-02 
386	 6,44155446310047E-03 
387	 1,33364965674078E-03 
388	 1,01260456242764E-02 
389	 2,87628566889545E-02 
390	 3,97394149166748E-02 
391	 3,70336910958076E-02 
392	 1,59202632888278E-02 
393	 6,32571307763016E-03 
394	 1,17418878028236E-02 
395	 0,021901275207632 
396	 2,59809236879188E-02 
397	 1,98788452667104E-02 
398	 2,08742330989334E-02 
399	 2,79406645655331E-02 
400	 3,73985444964887E-02 
401	 0,03501404253782 
402	 2,18476033438098E-02 
403	 1,62250477703651E-02 
404	 1,38386405736597E-02 
405	 1,13883156313816E-02 
406	 9,57521775652967E-03 
407	 1,02370153362865E-02 
408	 1,69820904870773E-02 
409	 2,41504319924914E-02 
410	 2,89582368289387E-02 
411	 2,79590246058218E-02 
412	 2,35534241756692E-02 
413	 1,83239344175015E-02 
414	 1,37240859712635E-02 
415	 0,011203116819376 
416	 0,013039902475748 
417	 1,74597461966832E-02 
418	 2,17596818754296E-02 
419	 1,51385804439057E-02 
420	 8,73235820588191E-03 
421	 1,75467967135572E-02 
422	 1,99420364489862E-02 
423	 1,45489311914612E-02 
424	 1,30800567348967E-02 
425	 1,49530393826874E-02 
426	 1,90456733299436E-02 
427	 1,95290729017343E-02 
428	 1,71191063060413E-02 
429	 1,42556797252881E-02 
430	 0,013602548110643 
431	 1,55462779801521E-02 
432	 1,73262494226429E-02 
433	 1,88653647511123E-02 
434	 2,01135843671836E-02 
435	 1,90561463962219E-02 
436	 1,72837143948853E-02 
437	 1,96762571928947E-02 
438	 2,18607904123976E-02 
439	 2,17922824753117E-02 
440	 1,85202753536295E-02 
441	 1,60200333939293E-02 
442	 0,01924850651881 
443	 1,93281885481956E-02 
444	 0,016508636699058 
445	 1,97150876988296E-02 
446	 2,11205592095713E-02 
447	 1,66920490175165E-02 
448	 0,015613747776874 
449	 1,71280566911279E-02 
450	 1,74018994301461E-02 
451	 1,77213669673329E-02 
452	 1,82851935630809E-02 
453	 1,89303801841849E-02 
454	 1,88597746790187E-02 
455	 0,017490735519821 
456	 1,73689477903165E-02 
457	 1,80391267441686E-02 
458	 1,67643220868043E-02 
459	 1,61133279188295E-02 
460	 1,69101647208238E-02 
461	 1,66405060377083E-02 
462	 1,72009538600086E-02 
463	 2,14207384757824E-02 
464	 2,04603880346132E-02 
465	 1,53147893270627E-02 
466	 1,75341387738929E-02 
467	 2,01545459050521E-02 
468	 1,88645858260662E-02 
469	 1,90715312766477E-02 
470	 2,01114576176228E-02 
471	 1,92465294789877E-02 
472	 1,78424163957857E-02 
473	 1,64115780263651E-02 
474	 1,46319262853027E-02 
475	 0,015115411458105 
476	 2,00836348193109E-02 
477	 2,22070696306151E-02 
478	 2,07343721473683E-02 
479	 1,78090654553939E-02 
480	 1,67157595971912E-02 
481	 1,86482014741236E-02 
482	 1,89222183148943E-02 
483	 1,83705910265673E-02 
484	 1,90350472080146E-02 
485	 1,90815627705177E-02 
486	 1,81651825048693E-02 
487	 1,66463517227516E-02 
488	 1,57438236742382E-02 
489	 1,64200479118009E-02 
490	 1,89263053924322E-02 
491	 2,10835180559392E-02 
492	 1,76936267822357E-02 
493	 1,65385821966703E-02 
494	 1,91614877857927E-02 
495	 1,76633282821055E-02 
496	 1,52649674086764E-02 
497	 1,61700822997294E-02 
498	 1,72327331621031E-02 
499	 1,75597912488044E-02 
500	 1,66412064059377E-02 
501	 0,015840061996377 
502	 1,59887949392611E-02 
503	 1,69422703664432E-02 
504	 1,77997780200405E-02 
505	 1,70779286828314E-02 
506	 1,63198466539708E-02 
507	 0,016032104116156 
508	 1,62007237592715E-02 
509	 1,61133399613598E-02 
510	 1,52402909268571E-02 
511	 1,55499777909825E-02 
512	 1,71426559950341E-02 
513	 1,97490283901054E-02 
514	 2,01846743886007E-02 
515	 1,77216635993293E-02 
516	 1,76779462882887E-02 
517	 1,89072465109549E-02 
518	 1,90453394488352E-02 
519	 1,90898451417538E-02 
520	 1,90380302786364E-02 
521	 1,81325123473225E-02 
522	 1,72474615806869E-02 
523	 1,70129893919875E-02 
524	 1,68401707580855E-02 
525	 1,69172665979441E-02 
526	 1,79797226382135E-02 
527	 1,86990288005099E-02 
528	 1,85868772974767E-02 
529	 0,018055781992549 
530	 1,71371904134216E-02 
531	 1,58508176841272E-02 
532	 1,58961268215015E-02 
533	 1,70665601995645E-02 
534	 1,75320791425798E-02 
535	 1,75344912853581E-02 
536	 1,72226292172765E-02 
537	 1,66935786246492E-02 
538	 1,64638812390303E-02 
539	 1,74796243971016E-02 
540	 1,79725376242346E-02 
541	 1,75173269839512E-02 
542	 1,71218595094767E-02 
543	 1,66077780636394E-02 
544	 1,58240816429063E-02 
545	 1,65534077772863E-02 
546	 1,80003364647775E-02 
547	 1,68935378929041E-02 
548	 1,61300679657328E-02 
549	 1,69791359609898E-02 
550	 1,76031905296086E-02 
551	 1,81209781661043E-02 
552	 1,91254050258645E-02 
553	 1,86083938428791E-02 
554	 1,67967989341787E-02 
555	 1,69958807815247E-02 
556	 1,74090635257124E-02 
557	 1,65888001195665E-02 
558	 1,67313451266597E-02 
559	 1,74730165193017E-02 
560	 1,68583075561181E-02 
561	 1,67081834430379E-02 
562	 1,74996567947656E-02 
563	 1,75198226058123E-02 
564	 0,017025045684672 
565	 1,65512740401784E-02 
566	 1,67236108072945E-02 
567	 1,74359457111149E-02 
568	 1,77036664403172E-02 
569	 1,76442598481791E-02 
570	 0,017375046790549 
571	 1,72174059822859E-02 
572	 1,72242575920051E-02 
573	 1,73123476971485E-02 
574	 0,017780175421627 
575	 1,85861272807586E-02 
576	 1,89695174171927E-02 
577	 1,92391183193919E-02 
578	 1,97980941561113E-02 
579	 2,03140447261971E-02 
580	 2,05028600877767E-02 
581	 1,95775937937261E-02 
582	 1,93894477870209E-02 
583	 2,07265192292998E-02 
584	 2,06079297829437E-02 
585	 1,98917545370504E-02 
586	 2,08237604008058E-02 
587	 2,12723318044928E-02 
588	 2,09441648511062E-02 
589	 2,15737752193227E-02 
590	 2,21265050562832E-02 
591	 2,16429779388065E-02 
592	 2,16950116278612E-02 
593	 2,21671035246398E-02 
594	 2,18753408948947E-02 
595	 0,021493013348944 
596	 2,13917634259929E-02 
597	 0,021879958607499 
598	 2,23970415876885E-02 
599	 2,20826989083993E-02 
600	 2,15634085072435E-02 
601	 2,11200356686542E-02 
602	 2,10466699211983E-02 
603	 2,11018653049269E-02 
604	 2,10717563277517E-02 
605	 2,08621237126539E-02 
606	 2,06218615508763E-02 
607	 2,07827506415343E-02 
608	 2,08255224910894E-02 
609	 2,06395497344519E-02 
610	 2,08923895615568E-02 
611	 2,10038569826819E-02 
612	 2,02132111355492E-02 
613	 1,92111679645742E-02 
614	 1,84670879216943E-02 
615	 1,87904297142181E-02 
616	 1,94715108061302E-02 
617	 1,99281783154731E-02 
618	 1,94429408160133E-02 
619	 1,87171117401623E-02 
620	 1,93767496745382E-02 
621	 1,97975760924566E-02 
622	 1,94732357409713E-02 
623	 1,86034714221052E-02 
624	 1,83486334351336E-02 
625	 1,97763251264016E-02 
626	 1,97759331524748E-02 
627	 1,86241075357234E-02 
628	 1,91370664205538E-02 
629	 1,99599412077135E-02 
630	 0,020368430776742 
631	 2,03828619241373E-02 
632	 2,01354146381859E-02 
633	 1,98248776796183E-02 
634	 1,98674625330881E-02 
635	 2,03632707199463E-02 
636	 2,11787459059384E-02 
637	 0,021526011499898 
638	 2,08902406644443E-02 
639	 2,16754943382318E-02 
640	 2,31536625502161E-02 
641	 2,22864760390667E-02 
642	 2,17050230928636E-02 
643	 2,22847444148801E-02 
644	 2,24126757286716E-02 
645	 0,022471065753661 
646	 2,31397159264528E-02 
647	 2,29337166364369E-02 
648	 2,20542832950649E-02 
649	 2,24891048595793E-02 
650	 0,023215079245561 
651	 2,34624888835294E-02 
652	 2,29946960699102E-02 
653	 2,20219670751111E-02 
654	 2,09635343579516E-02 
655	 2,05037153734566E-02 
656	 2,07120215454473E-02 
657	 2,04778731572609E-02 
658	 2,01455914226987E-02 
659	 2,01271710313886E-02 
660	 1,99358362565974E-02 
661	 1,95554288002596E-02 
662	 1,92602214112821E-02 
663	 1,88651528499648E-02 
664	 1,83164108760728E-02 
665	 0,01792752670219 
666	 1,75068598284439E-02 
667	 1,66532855842118E-02 
668	 1,66023014510718E-02 
669	 1,73754319170526E-02 
670	 1,76564007493998E-02 
671	 1,75129838416401E-02 
672	 0,017080793290026 
673	 1,69793691775916E-02 
674	 1,72140512443329E-02 
675	 1,75952899903328E-02 
676	 1,74675288638744E-02 
677	 1,67492507244643E-02 
678	 1,65577740166734E-02 
679	 0,016754288709064 
680	 1,70500435623111E-02 
681	 1,72412305301059E-02 
682	 1,73379036568313E-02 
683	 1,75988729580123E-02 
684	 1,78878653173496E-02 
685	 0,018124390997301 
686	 1,82681314825263E-02 
687	 1,86093202720243E-02 
688	 1,97055167571771E-02 
689	 2,03450923422327E-02 
690	 2,04674547678971E-02 
691	 2,15173366603932E-02 
692	 2,29593005461755E-02 
693	 2,42797369386574E-02 
694	 2,58954268526414E-02 
695	 2,79439949837629E-02 
696	 3,05308665979702E-02 
697	 0,033638726384771 
698	 3,71710664902378E-02 
699	 4,06148289568776E-02 
700	 4,42829085615596E-02 
701	 4,86354016924896E-02 
702	 5,33873214539702E-02 
703	 0,05842203255297 
704	 0,063804448032618 
705	 6,88092093812069E-02 
706	 7,30804192806609E-02 
707	 7,79032849206101E-02 
708	 8,30638501263317E-02 
709	 8,78482975328133E-02 
710	 9,23966517266989E-02 
711	 9,67722186516476E-02 
712	 0,101293081668572 
713	 0,105399657281229 
714	 0,108629776521129 
715	 0,112320842384131 
716	 0,116260316823974 
717	 0,119176928861951 
718	 0,122082146222276 
719	 0,125228144697671 
720	 0,127492107403528 
721	 0,129536873285526 
722	 0,132310317229758 
723	 0,134337412252001 
724	 0,13566024019772 
725	 0,137595206551764 
726	 0,139604070285082 
727	 0,141296012846285 
728	 0,14233010079994 
729	 0,142998244841964 
730	 0,143878549695972 
731	 0,144912546194964 
732	 0,146046264393464 
733	 0,147066424573187 
734	 0,147895846174104 
735	 0,148478787395722 
736	 0,148864018935835 
737	 0,149259783893424 
738	 0,150138384768441 
739	 0,150961351645091 
740	 0,151508552160802 
741	 0,151853677431081 
742	 0,152122898748893 
743	 0,15245726640032 
744	 0,152819322798498 
745	 0,153142921160068 
746	 0,153188998499949 
747	 0,153502375043069 
748	 0,154252879449059 
749	 0,154420105244611 
750	 0,154232798464444 
751	 0,154224431084372 
752	 0,154415675306199 
753	 0,154688084650881 
754	 0,154454544989635 
755	 0,154420591179262 
756	 0,15503607034001 
757	 0,155384668818951 
758	 0,155432454534201 
759	 0,15540273717481 
760	 0,155479207192562 
761	 0,155702213348957 
762	 0,155842880934773 
763	 0,156023048289286 
764	 0,156340539857304 
765	 0,15627947804143 
766	 0,156075336141281 
767	 0,156672409244781 
768	 0,156845069578296 
769	 0,156305199057119 
770	 0,156419847108307 
771	 0,156844805450369 
772	 0,157036808314731 
773	 0,156983181514717 
774	 0,156900259202551 
775	 0,157536615619484 
776	 0,157941111161558 
777	 0,157709798743678 
778	 0,157845946456224 
779	 0,158011966870019 
780	 0,157543796258561 
781	 0,157605188073467 
782	 0,158152565242513 
783	 0,157858075723559 
784	 0,157532697023966 
785	 0,157691265349379 
786	 0,157872776571709 
787	 0,157930079883648 
788	 0,157708310889077 
789	 0,157610915486469 
790	 0,157728779436652 
791	 0,157890160642954 
792	 0,157852228789726 
793	 0,157487131690379 
794	 0,157562819276374 
795	 0,157918428926109 
796	 0,157943762783764 
797	 0,157807352082376 
798	 0,15764861680723 
799	 0,157925402577804 
800	 0,158145689814742 
801	 0,157876752622864 
802	 0,158029148925106 
803	 0,158493504336764 
804	 0,158565996905383 
805	 0,158548320772168 
806	 0,158561522083191 
807	 0,158727222112393 
808	 0,15883979433419 
809	 0,158680159075113 
810	 0,158467472663941 
811	 0,158400701103951 
812	 0,158896618308646 
813	 0,159342286797119 
814	 0,159437355095445 
815	 0,159188662019806 
816	 0,158978853830645 
817	 0,159246325659998 
818	 0,159606732499055 
819	 0,159907026540212 
820	 0,160009379367706 
821	 0,159969238626545 
822	 0,159893078671289 
823	 0,160252790782337 
824	 0,160643016045658 
825	 0,160498857753001 
826	 0,16077334639037 
827	 0,161410344365898 
828	 0,161554424490145 
829	 0,161328371860646 
830	 0,160947152362284 
831	 0,161432958689945 
832	 0,162166176691456 
833	 0,162162477287261 
834	 0,161753752226045 
835	 0,161278875921789 
836	 0,161515133561923 
837	 0,16201388133609 
838	 0,162425120134451 
839	 0,162177269561794 
840	 0,161890223315046 
841	 0,16251238357901 
842	 0,162815684096316 
843	 0,162754391989414 
844	 0,16337548236045 
845	 0,16344132483007 
846	 0,162478502675337 
847	 0,162292589075976 
848	 0,162401011129235 
849	 0,161829922153077 
850	 0,16194993547108 
851	 0,162644967620884 
852	 0,162440245779407 
853	 0,16203502968093 
854	 0,161883836026237 
855	 0,162375902290958 
856	 0,1628568913976 
857	 0,16239559334861 
858	 0,162010249116594 
859	 0,161981686779641 
860	 0,162357622029646 
861	 0,162583835911301 
862	 0,162447633157364 
863	 0,162685326532702 
864	 0,163102337757348 
865	 0,1633496281441 
866	 0,16396282643907 
867	 0,164552140700202 
868	 0,163475146511368 
869	 0,16304384686817 
870	 0,164091430811507 
871	 0,164241482863602 
872	 0,163949873992272 
873	 0,164033177055561 
874	 0,164467671295406 
875	 0,165028627621984 
876	 0,165051724024506 
877	 0,16513693036714 
878	 0,165343199232699 
879	 0,164301266717196 
880	 0,163981838268977 
881	 0,166358355620899 
882	 0,16643574575197 
883	 0,164674264600202 
884	 0,164994569310407 
885	 0,165691958219547 
886	 0,166210060786555 
887	 0,166643923271108 
888	 0,166840072194426 
889	 0,166684760902004 
890	 0,166457753580226 
891	 0,166310193575841 
892	 0,16637923045219 
893	 0,166885719042615 
894	 0,167572426188328 
895	 0,167073296288707 
896	 0,166359762103925 
897	 0,166219598497227 
898	 0,166062336065782 
899	 0,166083847261153 
900	 0,166761281977168 
901	 0,167438215980712 
902	 0,167833949857816 
903	 0,167784487448011 
904	 0,167594485397502 
905	 0,16751184840324 
906	 0,167815513768547 
907	 0,167951432451565 
908	 0,167111605741987 
909	 0,166999721308124 
910	 0,167633538808539 
911	 0,167662353170254 
912	 0,16764307357777 
913	 0,167728490834139 
914	 0,167278574613445 
915	 0,166908548250962 
916	 0,167312260152257 
917	 0,167692452319579 
918	 0,167873224486869 
919	 0,167885546640631 
920	 0,16772311795045 
921	 0,167430227827349 
922	 0,167070167810089 
923	 0,167190527955176 
924	 0,168083930107317 
925	 0,168140920464968 
926	 0,167442815103556 
927	 0,166645342375848 
928	 0,165714470023232 
929	 0,16492296912563 
930	 0,165002966000426 
931	 0,165476505501461 
932	 0,165790522757442 
933	 0,1643555543364 
934	 0,162860656065177 
935	 0,16361457603606 
936	 0,164370158409908 
937	 0,16451908751174 
938	 0,163909021618232 
939	 0,163012844537204 
940	 0,16216656038258 
941	 0,161823137407403 
942	 0,161651038831618 
943	 0,161283291961809 
944	 0,160345839264761 
945	 0,159349250584176 
946	 0,159376623963687 
947	 0,158732276193547 
948	 0,157386760104268 
949	 0,157062428450976 
950	 0,157076874909384 
951	 0,156881405755302 
952	 0,155690688900997 
953	 0,154320241003225 
954	 0,153807717482169 
955	 0,152654419373978 
956	 0,151084526960463 
957	 0,150403880790519 
958	 0,150061964032987 
959	 0,149846155273156 
960	 0,149647343393243 
961	 0,14935467656126 
962	 0,14889075356398 
963	 0,148304071605612 
964	 0,147794355038 
965	 0,147625052493738 
966	 0,148141405142337 
967	 0,148956755296346 
968	 0,148653946027715 
969	 0,148420948044507 
970	 0,14864670093955 
971	 0,148493766666237 
972	 0,14836066473565 
973	 0,148567999103267 
974	 0,147866108517155 
975	 0,147464497348651 
976	 0,149906781802138 
977	 0,149723031699014 
978	 0,146711665802326 
979	 0,145601784435691 
980	 0,145534871220457 
981	 0,146091953139897 
982	 0,146934942898031 
983	 0,147983090073328 
984	 0,149027332468416 
985	 0,14772317287116 
986	 0,146086106983343 
987	 0,148755969747052 
988	 0,151136265137819 
989	 0,151760580294574 
990	 0,150486272082008 
991	 0,150306497476195 
992	 0,152155933058003 
993	 0,150853066588047 
994	 0,14971696085872 
995	 0,152206441112066 
996	 0,152197957267592 
997	 0,150996697168693 
998	 0,153323361449324 
999	 0,154394764668797 
1000	 0,153496574150154 
1001	 0,15319805413089 
1002	 0,152867547398294 
1003	 0,152563529746968 
1004	 0,154185135276558 
1005	 0,155697860325884 
1006	 0,155112847058486 
1007	 0,153898942779788 
1008	 0,154471010311622 
1009	 0,160528195082176 
1010	 0,161119711932504 
1011	 0,156286604966312 
1012	 0,156612380016692 
1013	 0,157039123644595 
1014	 0,156000937258692 
1015	 0,156902346317553 
1016	 0,15679163394312 
1017	 0,153909198367911 
1018	 0,156808201801047 
1019	 0,161601689497096 
1020	 0,160853269069428 
1021	 0,161256423212824 
1022	 0,163988430192177 
1023	 0,168196529662154 
1024	 0,170216842832774 
1025	 0,169313075930153 
1026	 0,169416163805406 
1027	 0,167642957757132 
1028	 0,163083042429047 
1029	 0,162393519968042 
1030	 0,164622996893777 
1031	 0,167424628411162 
1032	 0,165682217999884 
1033	 0,162767326079241 
1034	 0,167613822864025 
1035	 0,169434170809869 
1036	 0,168039606241816 
1037	 0,175040019283423 
1038	 0,176743954176711 
1039	 0,168817681323113 
1040	 0,163074594349867 
1041	 0,162892266253097 
1042	 0,169109438565754 
1043	 0,16931700840832 
1044	 0,16893666973268 
1045	 0,177299105833028 
1046	 0,182284189926046 
1047	 0,181371148652718 
1048	 0,1758004577089 
1049	 0,170313360137692 
1050	 0,167090737138376 
1051	 0,165506973912413 
1052	 0,174093243741076 
1053	 0,191161629129557 
1054	 0,186624722057474 
1055	 0,175606444442945 
1056	 0,172898285010318 
1057	 0,172392179805753 
1058	 0,171945887847911 
1059	 0,169718629852944 
1060	 0,176033226715043 
1061	 0,184071165590779 
1062	 0,173471626572254 
1063	 0,170261944622885 
1064	 0,176800963809912 
1065	 0,170420173168714 
1066	 0,170731337654524 
1067	 0,18171581322503 
1068	 0,179492210842025 
1069	 0,16733241527052 
1070	 0,154211460372623 
1071	 0,170849100014074 
1072	 0,196290489640975 
1073	 0,2006368176817 
1074	 0,190735373907662 
1075	 0,170445280136114 
