Wavelength	ABBE00008.asd
325	 0,128978849920388 
326	 0,135339622116482 
327	 0,123785413512791 
328	 4,62911417831215E-02 
329	 0,112544512057697 
330	 0,17031987445899 
331	 7,31394145751471E-02 
332	 8,58212067161148E-03 
333	 2,08755303892725E-02 
334	 0,127006263618358 
335	 0,211754423508847 
336	 0,241008378355759 
337	 0,193209037130097 
338	 0,154876167550982 
339	 0,194549412824454 
340	 0,181005095514089 
341	 0,13954921682036 
342	 0,180337877979208 
343	 0,176705787232967 
344	 0,115001050899788 
345	 9,16542960801958E-02 
346	 0,121040455022652 
347	 0,203270520415405 
348	 0,207416532280679 
349	 0,158087902256531 
350	 0,177853333486966 
351	 0,190234674228157 
352	 0,171880242147314 
353	 0,158620904421966 
354	 0,149239913058604 
355	 0,140712536736108 
356	 0,147492383030857 
357	 0,169344305704097 
358	 0,204415412050966 
359	 0,214480900074034 
360	 0,191436604270345 
361	 0,213261879147256 
362	 0,23917374707476 
363	 0,202760287476945 
364	 0,181378356479805 
365	 0,183202235602062 
366	 0,16418352851996 
367	 0,168938578680732 
368	 0,213183206806368 
369	 0,206974923697153 
370	 0,178073773276552 
371	 0,199016647727216 
372	 0,199714123060165 
373	 0,174965341399335 
374	 0,187283528803786 
375	 0,201158571192147 
376	 0,190514846427222 
377	 0,192724540835492 
378	 0,211276547227894 
379	 0,246689366397467 
380	 0,248877206651289 
381	 0,214736699206974 
382	 0,224646699344967 
383	 0,239743905290016 
384	 0,221946416443117 
385	 0,197782893278367 
386	 0,180868988052691 
387	 0,19117754688369 
388	 0,202465879628875 
389	 0,204960775707611 
390	 0,208671055914054 
391	 0,217530124041719 
392	 0,234624385968433 
393	 0,230394168760865 
394	 0,211081068249983 
395	 0,211236271130051 
396	 0,218995736816904 
397	 0,22713578718204 
398	 0,231797370457811 
399	 0,233067088212283 
400	 0,23206242937582 
401	 0,229965864876503 
402	 0,228591557109494 
403	 0,232909501111897 
404	 0,234254316742578 
405	 0,227781666893189 
406	 0,226064293576932 
407	 0,227104636182341 
408	 0,222078631921769 
409	 0,224178595761579 
410	 0,234332639287879 
411	 0,239096536600708 
412	 0,237493209369921 
413	 0,230292293942739 
414	 0,228930771582587 
415	 0,233176022722605 
416	 0,236694622321769 
417	 0,239171530687842 
418	 0,239854146784169 
419	 0,236541899412595 
420	 0,232484945951388 
421	 0,231873570955263 
422	 0,233055049406656 
423	 0,23470258638862 
424	 0,233890070972188 
425	 0,233655729191582 
426	 0,235489339870344 
427	 0,235088951220547 
428	 0,234395623757125 
429	 0,238267773062933 
430	 0,238196776135814 
431	 0,233658021837248 
432	 0,233485091321445 
433	 0,235620966907809 
434	 0,237675634974653 
435	 0,235360655755931 
436	 0,23131605669484 
437	 0,234406376210729 
438	 0,236480938936077 
439	 0,23508157335791 
440	 0,236259991519753 
441	 0,238703953433594 
442	 0,240145328495266 
443	 0,240118103984359 
444	 0,239431975666385 
445	 0,241694381423281 
446	 0,242091913513987 
447	 0,238442547339562 
448	 0,239097566115599 
449	 0,242007520625517 
450	 0,241108700918696 
451	 0,241845745160779 
452	 0,244866379562703 
453	 0,245762854001196 
454	 0,24462140581977 
455	 0,242048105945248 
456	 0,243614189782704 
457	 0,247933942380286 
458	 0,248672773613531 
459	 0,247954847746507 
460	 0,246533516325434 
461	 0,243427849825123 
462	 0,242042838698413 
463	 0,246851926042374 
464	 0,249807637232956 
465	 0,249159376788143 
466	 0,246486451806923 
467	 0,245249502140325 
468	 0,247493000976436 
469	 0,249161276617564 
470	 0,250041795005267 
471	 0,251119411522023 
472	 0,251414226900562 
473	 0,250791848982764 
474	 0,250003215351699 
475	 0,249363133941418 
476	 0,24919970932187 
477	 0,251390570702942 
478	 0,254319498970067 
479	 0,25282997195548 
480	 0,250901189914674 
481	 0,250376309618301 
482	 0,249756592521472 
483	 0,249576247248157 
484	 0,250821075546587 
485	 0,251823487861352 
486	 0,251851973306662 
487	 0,250036517412833 
488	 0,248675240308239 
489	 0,249440876120562 
490	 0,250477193868009 
491	 0,250943873317072 
492	 0,249502409627087 
493	 0,249353976592163 
494	 0,251008826986364 
495	 0,250552904672645 
496	 0,249244487041457 
497	 0,248824179741344 
498	 0,249032701754022 
499	 0,249591276440414 
500	 0,249617329598527 
501	 0,25010667434366 
502	 0,251553122445887 
503	 0,253315615779586 
504	 0,254460970858774 
505	 0,253513330862247 
506	 0,253174366751211 
507	 0,254022025986127 
508	 0,254435541935705 
509	 0,255098591006433 
510	 0,256654287835974 
511	 0,258704025401479 
512	 0,260682502208207 
513	 0,261505522284463 
514	 0,261833500363935 
515	 0,262053684551603 
516	 0,2625385521589 
517	 0,263168773223082 
518	 0,263709101886816 
519	 0,264459450676745 
520	 0,265096349960055 
521	 0,264195915212559 
522	 0,263433467582301 
523	 0,263979121825925 
524	 0,264611182577372 
525	 0,264842311685155 
526	 0,263928360868436 
527	 0,263698693325729 
528	 0,264459948949906 
529	 0,264103751935834 
530	 0,263109336444329 
531	 0,262220948446599 
532	 0,262694783842719 
533	 0,264086549491313 
534	 0,264114301335008 
535	 0,263755362706999 
536	 0,26365305416347 
537	 0,264190253493757 
538	 0,264787417619409 
539	 0,264177852931697 
540	 0,264480363953772 
541	 0,265820746264119 
542	 0,265509521572559 
543	 0,264983962499367 
544	 0,265701069747646 
545	 0,265833104856253 
546	 0,265396919403922 
547	 0,265411095116637 
548	 0,265716069908873 
549	 0,266201574545473 
550	 0,26646648492837 
551	 0,26680995773916 
552	 0,267801005886531 
553	 0,268360832702066 
554	 0,268188047054432 
555	 0,267504367353679 
556	 0,266725426731274 
557	 0,26619678434496 
558	 0,265794701117266 
559	 0,265423572472964 
560	 0,26490299417897 
561	 0,264300837920173 
562	 0,263656310788046 
563	 0,262958447730174 
564	 0,262489270192995 
565	 0,262606612815241 
566	 0,262553556028682 
567	 0,262407247856587 
568	 0,263149009302861 
569	 0,264133453112004 
570	 0,264909792821563 
571	 0,265793247671253 
572	 0,266823482010987 
573	 0,267938384454525 
574	 0,26953829092483 
575	 0,271638272982427 
576	 0,273569364569053 
577	 0,275305004899404 
578	 0,276887357143599 
579	 0,278468986377705 
580	 0,280058976266711 
581	 0,281511111338814 
582	 0,283102763044015 
583	 0,284894050476475 
584	 0,286055501780334 
585	 0,287049008799347 
586	 0,288923290343797 
587	 0,290089075922758 
588	 0,290382102454423 
589	 0,291407365984618 
590	 0,292333089173452 
591	 0,292386423515776 
592	 0,292945104817722 
593	 0,293955580326496 
594	 0,2945321066098 
595	 0,294917404165511 
596	 0,295245250173252 
597	 0,295754165675076 
598	 0,296322487951742 
599	 0,296766061530379 
600	 0,296278976431378 
601	 0,295182886074917 
602	 0,295708292167589 
603	 0,295941619091753 
604	 0,294471624624281 
605	 0,293665619868342 
606	 0,293421434519902 
607	 0,292452616322835 
608	 0,291508956165766 
609	 0,290864021538563 
610	 0,290440990022768 
611	 0,29002826008169 
612	 0,289379549493845 
613	 0,288388256903669 
614	 0,287260210319664 
615	 0,286701558747213 
616	 0,286381780488578 
617	 0,286067365879118 
618	 0,285645318267367 
619	 0,285341240390394 
620	 0,285724444418662 
621	 0,285539591618189 
622	 0,284622917555507 
623	 0,284334403585134 
624	 0,284460668444412 
625	 0,284677530607096 
626	 0,28444548949101 
627	 0,284116634017421 
628	 0,285161837755463 
629	 0,285913490604222 
630	 0,285706801438828 
631	 0,286486545575752 
632	 0,287794877373398 
633	 0,288545092620587 
634	 0,289044501161771 
635	 0,289479791119807 
636	 0,29030961283839 
637	 0,291202678614708 
638	 0,291925857720712 
639	 0,293458945639289 
640	 0,295338714267808 
641	 0,295977578642527 
642	 0,296736930974234 
643	 0,297941049196066 
644	 0,298060708187333 
645	 0,29804876080166 
646	 0,299300092599862 
647	 0,299629264308618 
648	 0,298753052079053 
649	 0,297694985245832 
650	 0,296794877612899 
651	 0,296249849374182 
652	 0,295561064732543 
653	 0,294358658250306 
654	 0,291976118113382 
655	 0,2902198522227 
656	 0,289365656327619 
657	 0,287469674356664 
658	 0,284883305151614 
659	 0,282121599000731 
660	 0,279727544170478 
661	 0,277703281079976 
662	 0,275602172456663 
663	 0,273448458524209 
664	 0,271293747411733 
665	 0,269490474747159 
666	 0,267906291188119 
667	 0,266245854272136 
668	 0,265022036205408 
669	 0,264296530029498 
670	 0,263759684021245 
671	 0,263151217073871 
672	 0,262300204417502 
673	 0,261675863579446 
674	 0,261390501046298 
675	 0,261649342554746 
676	 0,261205056640946 
677	 0,259917246960512 
678	 0,259809284043563 
679	 0,26053581665686 
680	 0,261466003849175 
681	 0,262153893142044 
682	 0,262755275956496 
683	 0,264215271522386 
684	 0,265835506116135 
685	 0,267291444236789 
686	 0,269338629936124 
687	 0,272181635642413 
688	 0,275982541411056 
689	 0,28011783275743 
690	 0,284522711811719 
691	 0,28975069959892 
692	 0,29594385488951 
693	 0,303158700418888 
694	 0,310598921337692 
695	 0,318366113760542 
696	 0,327168683437186 
697	 0,336452576019492 
698	 0,346018539100287 
699	 0,35617813476974 
700	 0,3665516957898 
701	 0,376646650001914 
702	 0,386926647637957 
703	 0,397164480242162 
704	 0,406448951583977 
705	 0,415351936632003 
706	 0,424196001039609 
707	 0,43254181806333 
708	 0,440238595390327 
709	 0,447106625496555 
710	 0,453984920371003 
711	 0,460874565943091 
712	 0,466525187789769 
713	 0,471560093894296 
714	 0,476574659459534 
715	 0,480875689264829 
716	 0,484671240667111 
717	 0,488831937645625 
718	 0,492596263617351 
719	 0,495653588563427 
720	 0,498229490953313 
721	 0,500646607455901 
722	 0,503263007959505 
723	 0,505576336303937 
724	 0,507550902760109 
725	 0,509467174574914 
726	 0,511185342998571 
727	 0,512627755810509 
728	 0,513845767199546 
729	 0,514914482664444 
730	 0,515928807572929 
731	 0,516989400439989 
732	 0,518096059913784 
733	 0,519079497462582 
734	 0,51995198784722 
735	 0,520737465448159 
736	 0,52158185130795 
737	 0,522402717891165 
738	 0,522928697459904 
739	 0,523329255977626 
740	 0,523719681803374 
741	 0,52439918579763 
742	 0,524840474727348 
743	 0,524441690394331 
744	 0,524583930772451 
745	 0,525359620269537 
746	 0,526057583475987 
747	 0,526409738948427 
748	 0,526299092606528 
749	 0,526176316539558 
750	 0,526234419440847 
751	 0,526668608937604 
752	 0,526979223557068 
753	 0,527033847992324 
754	 0,52694004022446 
755	 0,526884242947132 
756	 0,527021057273711 
757	 0,527450397536032 
758	 0,52790690924623 
759	 0,527809454788705 
760	 0,527899379457129 
761	 0,528325754815223 
762	 0,528558082863404 
763	 0,528695489881494 
764	 0,528854531127719 
765	 0,529000720940222 
766	 0,529053200983212 
767	 0,528728393634879 
768	 0,528818840983707 
769	 0,529489270682013 
770	 0,529630129734755 
771	 0,529607878582442 
772	 0,529955780115366 
773	 0,530092660780269 
774	 0,530052270900559 
775	 0,530361825352749 
776	 0,530530299999234 
777	 0,530365299789064 
778	 0,530426531900742 
779	 0,530596058323118 
780	 0,530611005541567 
781	 0,530517915719176 
782	 0,530444812897775 
783	 0,530836387232685 
784	 0,531104620918647 
785	 0,530890305322294 
786	 0,530700719809348 
787	 0,530598172203249 
788	 0,530548876689106 
789	 0,530577756690748 
790	 0,530664953263489 
791	 0,53074737925181 
792	 0,530684236402139 
793	 0,530392102062569 
794	 0,530175713513287 
795	 0,53015004815295 
796	 0,530462947597913 
797	 0,530567171689387 
798	 0,530328268716425 
799	 0,530109280369271 
800	 0,530085772113583 
801	 0,53037015469957 
802	 0,530418735606446 
803	 0,530284685933693 
804	 0,530394023065736 
805	 0,530434404703888 
806	 0,530423167780739 
807	 0,531067855633555 
808	 0,531694535538452 
809	 0,531556265977679 
810	 0,531241263344307 
811	 0,531052045691293 
812	 0,531432900866525 
813	 0,531940503939333 
814	 0,532271923928 
815	 0,531923056820504 
816	 0,531565503960808 
817	 0,532019156500796 
818	 0,532362895067037 
819	 0,532425815544858 
820	 0,532328437403785 
821	 0,532407592236947 
822	 0,53279715849162 
823	 0,533152894439152 
824	 0,533365363361118 
825	 0,533353285226144 
826	 0,533510071805457 
827	 0,533892036618608 
828	 0,534375410110192 
829	 0,534655674212575 
830	 0,534616057110033 
831	 0,534709024558317 
832	 0,534915997576833 
833	 0,535138789411899 
834	 0,535034190215719 
835	 0,534761021810708 
836	 0,535167183831861 
837	 0,53542005423693 
838	 0,53511628203867 
839	 0,53485018208963 
840	 0,534773518213065 
841	 0,534992176570844 
842	 0,535175695390509 
843	 0,53529175376296 
844	 0,535648689537633 
845	 0,535590611985383 
846	 0,534916220566191 
847	 0,534924747170676 
848	 0,535244165868477 
849	 0,535139523058538 
850	 0,535010498472828 
851	 0,534960336368018 
852	 0,535025500490791 
853	 0,535078365899909 
854	 0,535048019561037 
855	 0,534964491217842 
856	 0,534975662980063 
857	 0,535269734016707 
858	 0,535163064529937 
859	 0,534767436283978 
860	 0,535018523952991 
861	 0,535215400179398 
862	 0,535093184358669 
863	 0,535475555454408 
864	 0,535883043822208 
865	 0,535612713608702 
866	 0,536031195992142 
867	 0,536967612512358 
868	 0,536913034442827 
869	 0,53675365016295 
870	 0,536935607067512 
871	 0,537428201568318 
872	 0,537995146821885 
873	 0,538349926700736 
874	 0,538450281724539 
875	 0,538444843442367 
876	 0,538751615705386 
877	 0,539298401761816 
878	 0,539877931107091 
879	 0,539520907292612 
880	 0,53907966518136 
881	 0,539486353139669 
882	 0,539163411345664 
883	 0,538359137415281 
884	 0,538509109296201 
885	 0,538891150764044 
886	 0,539255304454225 
887	 0,53969186860392 
888	 0,539943495851277 
889	 0,539791323418672 
890	 0,539468367414543 
891	 0,539333011122664 
892	 0,540072310484054 
893	 0,540553516148542 
894	 0,540345744239488 
895	 0,539413786765373 
896	 0,538699243506445 
897	 0,538919899192919 
898	 0,539438417177907 
899	 0,53996138657885 
900	 0,540167185124772 
901	 0,540469148273688 
902	 0,540814393158338 
903	 0,540551534502819 
904	 0,540348028976207 
905	 0,540578000828312 
906	 0,540636863160211 
907	 0,540554003243943 
908	 0,540474315026197 
909	 0,540865104391896 
910	 0,541510010552324 
911	 0,541355097620026 
912	 0,54127931544809 
913	 0,541490901048746 
914	 0,540512523911615 
915	 0,539736611724498 
916	 0,540731691323369 
917	 0,541533142101682 
918	 0,541690943115199 
919	 0,541119669014084 
920	 0,5408217974692 
921	 0,541089834047478 
922	 0,541254508294391 
923	 0,541457049457367 
924	 0,541740845575522 
925	 0,541112696541615 
926	 0,540283787641709 
927	 0,540836857312961 
928	 0,540470212290329 
929	 0,539143874151649 
930	 0,539188453067657 
931	 0,539478419577418 
932	 0,539221551730575 
933	 0,537804566828443 
934	 0,536586632803041 
935	 0,537307314659544 
936	 0,537494468794797 
937	 0,536767150217338 
938	 0,53567524501641 
939	 0,534852732925021 
940	 0,53452995073441 
941	 0,53418753426917 
942	 0,533928473578578 
943	 0,533762926575057 
944	 0,532513742423142 
945	 0,531012783377194 
946	 0,531173878426558 
947	 0,530491957586999 
948	 0,528673113080849 
949	 0,527421127555486 
950	 0,526240991987289 
951	 0,525002222480018 
952	 0,524662852472415 
953	 0,52441674649094 
954	 0,523207743880705 
955	 0,521506893256385 
956	 0,519892474131398 
957	 0,519481480030911 
958	 0,519516534050818 
959	 0,519495535642971 
960	 0,518462475605571 
961	 0,517701600979796 
962	 0,51802735837477 
963	 0,517415487926971 
964	 0,51633494106058 
965	 0,515911360606374 
966	 0,51662042540149 
967	 0,517856888500473 
968	 0,517490452549724 
969	 0,516456828423936 
970	 0,515336444821911 
971	 0,514660415198754 
972	 0,515527541211441 
973	 0,518378657765766 
974	 0,517519588941599 
975	 0,515423434435513 
976	 0,518326203802644 
977	 0,517643269720589 
978	 0,513296770701304 
979	 0,513180863150917 
980	 0,514341879705364 
981	 0,515512997720972 
982	 0,518170736569081 
983	 0,520419669211687 
984	 0,520250419932606 
985	 0,517535115709125 
986	 0,515022431157737 
987	 0,517942939878959 
988	 0,519130264184353 
989	 0,518050926321289 
990	 0,521078788954957 
991	 0,522792686526991 
992	 0,520835027350413 
993	 0,519559766812171 
994	 0,51944712499694 
995	 0,520587587151346 
996	 0,522953511016707 
997	 0,525033267052572 
998	 0,5240715932593 
999	 0,524422267447614 
1000	 0,526454791581018 
1001	 0,526659367256382 
1002	 0,52688525661674 
1003	 0,527854998326501 
1004	 0,528242525159717 
1005	 0,527969355768111 
1006	 0,527248071111366 
1007	 0,528123177308428 
1008	 0,529955774551844 
1009	 0,530971389451553 
1010	 0,531539736831835 
1011	 0,531634608604992 
1012	 0,530883647221331 
1013	 0,530744686536027 
1014	 0,531853253818306 
1015	 0,53378837051317 
1016	 0,534888088513806 
1017	 0,533950406385934 
1018	 0,533190005487674 
1019	 0,532907921047978 
1020	 0,533008469163338 
1021	 0,534444250607711 
1022	 0,536938524138588 
1023	 0,539455509092376 
1024	 0,539327144306882 
1025	 0,536539897627607 
1026	 0,535720861405448 
1027	 0,536194253304159 
1028	 0,537062679019079 
1029	 0,53556993133455 
1030	 0,535653682376562 
1031	 0,54162580345518 
1032	 0,543709685011701 
1033	 0,542621229860055 
1034	 0,543993815426466 
1035	 0,543797306274053 
1036	 0,542165271201725 
1037	 0,543348455162951 
1038	 0,543506543709648 
1039	 0,54172123423039 
1040	 0,542243350831258 
1041	 0,546064831056361 
1042	 0,552407784980898 
1043	 0,550059035614272 
1044	 0,545225119658263 
1045	 0,548111808305494 
1046	 0,55055588854253 
1047	 0,549897695360822 
1048	 0,543896895619318 
1049	 0,54491202642343 
1050	 0,552606637942088 
1051	 0,54930031969587 
1052	 0,547551689597535 
1053	 0,552180821049845 
1054	 0,553155581844413 
1055	 0,550707211913682 
1056	 0,546031982484167 
1057	 0,542606428603873 
1058	 0,54293549390315 
1059	 0,54893718830156 
1060	 0,552086504033991 
1061	 0,548559601652711 
1062	 0,534207736263895 
1063	 0,53575712425012 
1064	 0,551578208820211 
1065	 0,542914598358941 
1066	 0,534881692956755 
1067	 0,536642717413112 
1068	 0,53451194889506 
1069	 0,533769501785776 
1070	 0,538543470585063 
1071	 0,545155507466694 
1072	 0,5501342908032 
1073	 0,54979787307741 
1074	 0,546844690274843 
1075	 0,541174530998052 
