Wavelength	ABBE00074.asd
325	 0,272735278783694 
326	 0,209277346467429 
327	 0,228646303764296 
328	 0,277413986054119 
329	 9,45293366388701E-02 
330	-4,11123075873403E-02 
331	 0,111398674152859 
332	 8,82882301192081E-02 
333	-1,95400089691844E-02 
334	 0,106102566475211 
335	 0,187842375684751 
336	 0,173204139893434 
337	 0,117670101954179 
338	 7,40468885084165E-02 
339	 7,71956888052841E-02 
340	 4,97509415623861E-02 
341	 1,91307983554389E-02 
342	 5,49199210255158E-02 
343	 8,79846381242341E-02 
344	 9,84983004413779E-02 
345	 7,31964258080047E-02 
346	 0,068697433603627 
347	 0,131601925977732 
348	 9,10374467088634E-02 
349	 2,14885464459849E-03 
350	 7,95731023644939E-02 
351	 0,116340013119749 
352	 5,65084046197178E-02 
353	 6,20881475829933E-02 
354	 8,32348441866476E-02 
355	 4,37201306307261E-02 
356	 2,24733629320599E-02 
357	 0,03208283612629 
358	 7,89623246621134E-02 
359	 7,55003588581398E-02 
360	-6,6317028897847E-04 
361	 5,24869282987928E-03 
362	 4,88684762664094E-02 
363	 4,48183280180991E-02 
364	 4,88098727566349E-02 
365	 6,25724134536523E-02 
366	 4,67778414272209E-02 
367	 3,70102019874759E-02 
368	 5,18919958278899E-02 
369	 5,99499260236874E-02 
370	 5,98454714248972E-02 
371	 5,68733215598911E-02 
372	 3,66972341406071E-02 
373	 7,14791224345364E-03 
374	 9,99908690686593E-03 
375	 2,62546201193634E-02 
376	 3,91183637283446E-02 
377	 5,16153408504291E-02 
378	 6,21469438945263E-02 
379	 6,92256546644845E-02 
380	 0,057105265562327 
381	 0,030755681215881 
382	 4,67314769701136E-02 
383	 6,25743104415381E-02 
384	 0,039875773569442 
385	 2,39983160647867E-02 
386	 2,23031027993756E-02 
387	 2,97631569736053E-02 
388	 0,036592093748811 
389	 0,038939373314486 
390	 4,37596771648788E-02 
391	 4,67675612327011E-02 
392	 4,23932276275938E-02 
393	 3,78971705326526E-02 
394	 3,52975700819375E-02 
395	 3,54190982257452E-02 
396	 3,24887034320437E-02 
397	 2,55731480807051E-02 
398	 3,12016879134247E-02 
399	 3,79944521406456E-02 
400	 2,63780882157402E-02 
401	 2,43493372981461E-02 
402	 3,31114451179559E-02 
403	 0,028081058142482 
404	 2,73263805939462E-02 
405	 0,040364279002549 
406	 3,20530863656476E-02 
407	 1,53099906464536E-02 
408	 2,61196279227534E-02 
409	 3,07109429969512E-02 
410	 2,39291589345223E-02 
411	 0,030517077287651 
412	 3,58644986943347E-02 
413	 2,66713474071665E-02 
414	 2,30157335545464E-02 
415	 2,54056549672424E-02 
416	 2,52840653264815E-02 
417	 2,65750000478585E-02 
418	 2,90728665352447E-02 
419	 2,24403652525513E-02 
420	 0,016061995985587 
421	 2,26527784689283E-02 
422	 2,64542704083834E-02 
423	 2,50146263055952E-02 
424	 0,022661818615918 
425	 2,21223444397788E-02 
426	 2,45521486787962E-02 
427	 2,40928189089169E-02 
428	 2,22063623688058E-02 
429	 2,29973661641176E-02 
430	 2,24516743497299E-02 
431	 2,10909290818429E-02 
432	 2,65648989948606E-02 
433	 3,07852972959099E-02 
434	 2,68037192685893E-02 
435	 2,15852746948936E-02 
436	 1,87630383186261E-02 
437	 2,40616891239858E-02 
438	 2,71075263736134E-02 
439	 2,47491463414128E-02 
440	 2,64755707985693E-02 
441	 2,88632720729609E-02 
442	 2,66611175812701E-02 
443	 2,57066775505937E-02 
444	 2,64604832362792E-02 
445	 2,53027801399511E-02 
446	 0,025066602724138 
447	 0,027052648695492 
448	 2,66196304714028E-02 
449	 2,50568713891287E-02 
450	 2,61089289098703E-02 
451	 2,50618057424967E-02 
452	 2,18281795251611E-02 
453	 2,25232777496446E-02 
454	 2,49756575308784E-02 
455	 2,68564088492747E-02 
456	 2,75594840951746E-02 
457	 2,68691719593176E-02 
458	 2,44928449593974E-02 
459	 2,35853431736055E-02 
460	 2,48317852251259E-02 
461	 2,24145470817358E-02 
462	 1,99652985177493E-02 
463	 2,29444694805877E-02 
464	 2,59722702322971E-02 
465	 2,72309871401439E-02 
466	 2,55639267703812E-02 
467	 2,40756979135283E-02 
468	 2,48252022854407E-02 
469	 2,63078634033512E-02 
470	 2,75600962000387E-02 
471	 2,71609842871724E-02 
472	 2,67437070036175E-02 
473	 2,68003637703749E-02 
474	 2,68165901615504E-02 
475	 2,69678850983149E-02 
476	 2,74296046704161E-02 
477	 2,78924143875321E-02 
478	 2,80763955332039E-02 
479	 2,72180321262019E-02 
480	 2,75431250361046E-02 
481	 2,95303973011144E-02 
482	 0,028709633938499 
483	 2,67935286714243E-02 
484	 2,69669384508788E-02 
485	 2,81287292157356E-02 
486	 2,92426762030427E-02 
487	 2,75737609078707E-02 
488	 2,55494462604489E-02 
489	 2,51481922175426E-02 
490	 2,62787684622308E-02 
491	 2,80137030880138E-02 
492	 2,84737336370616E-02 
493	 0,028616078120533 
494	 2,85162888631249E-02 
495	 2,70291949082293E-02 
496	 2,53336412133824E-02 
497	 2,48101186664972E-02 
498	 2,55678438352123E-02 
499	 2,65309967378724E-02 
500	 2,39756846903201E-02 
501	 2,32805033523191E-02 
502	 0,026923928789896 
503	 2,86603224759523E-02 
504	 2,85759957056892E-02 
505	 2,82904169116084E-02 
506	 2,83933197059942E-02 
507	 2,87750229118072E-02 
508	 2,75875730417491E-02 
509	 2,67730414069576E-02 
510	 2,80012232815652E-02 
511	 2,80037071101135E-02 
512	 2,74810090893493E-02 
513	 3,01971047027924E-02 
514	 0,031508537360982 
515	 2,99556993881195E-02 
516	 3,01597040068671E-02 
517	 3,10791677461834E-02 
518	 3,06063197222159E-02 
519	 3,05365038575918E-02 
520	 3,11624182315817E-02 
521	 3,20751803112931E-02 
522	 0,031988753326903 
523	 3,02771559380361E-02 
524	 0,030736707954827 
525	 3,24039172540798E-02 
526	 3,17190306287005E-02 
527	 3,11140278779543E-02 
528	 3,12397498459695E-02 
529	 3,10606302471709E-02 
530	 3,06965579512424E-02 
531	 3,03680055944914E-02 
532	 3,02463281529427E-02 
533	 3,05068085777395E-02 
534	 3,16713331977693E-02 
535	 3,22521080758483E-02 
536	 3,15262572269122E-02 
537	 3,14336027688119E-02 
538	 0,031863234803998 
539	 0,032126390555889 
540	 3,21433190161123E-02 
541	 3,20223482399411E-02 
542	 3,25168387454322E-02 
543	 3,30284105639896E-02 
544	 3,29753701392182E-02 
545	 0,033375943822276 
546	 3,38054743576127E-02 
547	 3,24142025842319E-02 
548	 3,14287476842773E-02 
549	 3,18701661978586E-02 
550	 3,23538718004918E-02 
551	 3,28467594435454E-02 
552	 0,033613343332403 
553	 3,33379248298615E-02 
554	 3,22189850740784E-02 
555	 3,26430910508825E-02 
556	 0,033228631611499 
557	 3,28381116378712E-02 
558	 3,27657590982953E-02 
559	 3,29712978045146E-02 
560	 3,27719477621418E-02 
561	 3,26246707636226E-02 
562	 0,032659526446581 
563	 3,25178886647881E-02 
564	 3,23379986776675E-02 
565	 3,23322479548661E-02 
566	 0,032815873199481 
567	 3,35148803246537E-02 
568	 3,31132827307419E-02 
569	 3,30824117571033E-02 
570	 0,03429598093332 
571	 3,46290612097041E-02 
572	 0,034206416046253 
573	 0,033899256794512 
574	 3,44801578878951E-02 
575	 3,60024000991792E-02 
576	 3,68690807424463E-02 
577	 3,74593955222101E-02 
578	 3,83285522884131E-02 
579	 0,038991314551365 
580	 3,92856218293157E-02 
581	 3,88733196939216E-02 
582	 3,92381194120347E-02 
583	 4,09486873064555E-02 
584	 4,12197111017566E-02 
585	 4,06222642326183E-02 
586	 4,07820051896947E-02 
587	 4,12753210104306E-02 
588	 4,19711926473646E-02 
589	 4,27024565704083E-02 
590	 4,32816702214581E-02 
591	 4,35427837657514E-02 
592	 4,34453655366295E-02 
593	 4,32283341610717E-02 
594	 4,35071910936526E-02 
595	 4,38541923854637E-02 
596	 4,40528599101585E-02 
597	 4,40863703218112E-02 
598	 4,40678252820867E-02 
599	 4,41779784319187E-02 
600	 0,044113157205166 
601	 0,043839618741349 
602	 4,35307522117468E-02 
603	 4,33458466761915E-02 
604	 4,34300547238542E-02 
605	 0,044093467855139 
606	 0,044652845687764 
607	 4,33056755200258E-02 
608	 4,21120229760552E-02 
609	 4,18855991796849E-02 
610	 4,22524364941423E-02 
611	 4,24176882925724E-02 
612	 4,14641525489037E-02 
613	 4,06304489507216E-02 
614	 4,03249119562298E-02 
615	 4,07190172957426E-02 
616	 4,13567623253758E-02 
617	 4,17928853598163E-02 
618	 0,041016835561242 
619	 3,99003299523426E-02 
620	 4,04455261749619E-02 
621	 4,09152798818809E-02 
622	 4,07517004321785E-02 
623	 4,00891144647446E-02 
624	 3,99323636912609E-02 
625	 4,12116743973778E-02 
626	 4,12495195221242E-02 
627	 0,04030200458683 
628	 4,09013768696811E-02 
629	 4,14165768637571E-02 
630	 4,11986987419358E-02 
631	 4,19362180425753E-02 
632	 4,28752715256797E-02 
633	 4,24913767357142E-02 
634	 4,23148884147076E-02 
635	 4,26921801904604E-02 
636	 4,30438889826188E-02 
637	 4,34252506628401E-02 
638	 4,38999281036046E-02 
639	 4,45531560063432E-02 
640	 0,045262155488896 
641	 4,57059606462943E-02 
642	 4,61466069517872E-02 
643	 4,66033694664951E-02 
644	 4,65596882402027E-02 
645	 4,64126837781622E-02 
646	 0,04672600712734 
647	 4,70156529285617E-02 
648	 4,70738871616086E-02 
649	 4,65938843926362E-02 
650	 4,63143388014179E-02 
651	 4,66250096870064E-02 
652	 4,62144673901321E-02 
653	 4,53521308589542E-02 
654	 4,50145740574652E-02 
655	 4,44135358801444E-02 
656	 4,34761099056913E-02 
657	 4,31687177813481E-02 
658	 4,26562839488452E-02 
659	 0,041081203371684 
660	 4,01485999637871E-02 
661	 3,98207920840452E-02 
662	 3,88024705203055E-02 
663	 3,80727849906382E-02 
664	 3,79821126397042E-02 
665	 3,73539618517614E-02 
666	 3,65180559355395E-02 
667	 3,62176707497944E-02 
668	 3,55373865133393E-02 
669	 3,46393847880537E-02 
670	 3,51699551738396E-02 
671	 3,57922090737795E-02 
672	 3,54430360203306E-02 
673	 3,52024405548006E-02 
674	 3,51113769419035E-02 
675	 3,47830656951532E-02 
676	 3,46416497672623E-02 
677	 3,47748811627329E-02 
678	 3,46749562296427E-02 
679	 3,47063792832695E-02 
680	 0,035333560369893 
681	 3,57579376247646E-02 
682	 3,59035975777895E-02 
683	 3,61481610934051E-02 
684	 3,65882067583182E-02 
685	 3,72709834244726E-02 
686	 0,037892122460684 
687	 3,87920515247875E-02 
688	 4,06734152678774E-02 
689	 4,22807889381412E-02 
690	 4,35132751884254E-02 
691	 4,56949554864768E-02 
692	 4,84035169397638E-02 
693	 5,11972202745813E-02 
694	 5,39686623607632E-02 
695	 5,69084697023047E-02 
696	 6,05302497112361E-02 
697	 6,46839968655597E-02 
698	 0,069161920693691 
699	 0,073168419716443 
700	 7,70128480873908E-02 
701	 8,11931557201002E-02 
702	 8,59867094414246E-02 
703	 9,10988985258278E-02 
704	 9,54516400843122E-02 
705	 9,93501996981118E-02 
706	 0,103040239249453 
707	 0,106954109941559 
708	 0,110778132560931 
709	 0,113817479207055 
710	 0,116589398133629 
711	 0,119389047219445 
712	 0,12285699706296 
713	 0,125743504094364 
714	 0,126979656439283 
715	 0,128732897782313 
716	 0,131043129602374 
717	 0,132825176936635 
718	 0,134639525564413 
719	 0,136527175870072 
720	 0,137420297496223 
721	 0,138178412724178 
722	 0,139994569437247 
723	 0,14120718496973 
724	 0,14169121482565 
725	 0,142356204834553 
726	 0,143378951579657 
727	 0,144749455006437 
728	 0,14533673003501 
729	 0,145430521503985 
730	 0,145782210377832 
731	 0,146756385140174 
732	 0,148116298939367 
733	 0,148237834593134 
734	 0,148240994220609 
735	 0,149084292476573 
736	 0,149367848778424 
737	 0,149320106645804 
738	 0,150195072100581 
739	 0,150722186889603 
740	 0,150548393563674 
741	 0,150583930346192 
742	 0,150753322408645 
743	 0,150886814777189 
744	 0,151284689946378 
745	 0,151876776479562 
746	 0,152296292141437 
747	 0,152541156236397 
748	 0,152620909608771 
749	 0,152696350076349 
750	 0,152750647064766 
751	 0,152717279344474 
752	 0,152729207640042 
753	 0,1528025285093 
754	 0,152775243438064 
755	 0,153017725079417 
756	 0,15371310345815 
757	 0,1538993068383 
758	 0,153777375675772 
759	 0,154081347284743 
760	 0,154311424372201 
761	 0,15439317041822 
762	 0,15472280077491 
763	 0,155058707013111 
764	 0,155158011935273 
765	 0,155054551681092 
766	 0,15497308118546 
767	 0,155487848104638 
768	 0,155913567002283 
769	 0,155985809807626 
770	 0,155984015047494 
771	 0,155877033318294 
772	 0,155617807605889 
773	 0,155893081564923 
774	 0,156540237726076 
775	 0,156570804987398 
776	 0,156538465727784 
777	 0,156709071777311 
778	 0,156830833789462 
779	 0,156972628515223 
780	 0,157272176381988 
781	 0,157411438927762 
782	 0,157385215116404 
783	 0,157505146609076 
784	 0,157640595802305 
785	 0,15770112924525 
786	 0,15768414717183 
787	 0,157659554700026 
788	 0,157741170392636 
789	 0,157962291521261 
790	 0,158238951619554 
791	 0,158241916091298 
792	 0,158004694976164 
793	 0,157633887506728 
794	 0,157823226935183 
795	 0,158394321742073 
796	 0,158722535249038 
797	 0,158971091498663 
798	 0,159117408899393 
799	 0,158919164075276 
800	 0,158730360424477 
801	 0,158883861182838 
802	 0,159126334058619 
803	 0,159343260460461 
804	 0,159402537853269 
805	 0,15927652965376 
806	 0,159095370244311 
807	 0,159577599210055 
808	 0,160195040434357 
809	 0,160321469347896 
810	 0,159912416086484 
811	 0,159365460706302 
812	 0,159829562705815 
813	 0,160106887090529 
814	 0,159844971244717 
815	 0,16021512702268 
816	 0,160757520781053 
817	 0,160827159850792 
818	 0,160953366041789 
819	 0,161210388371869 
820	 0,161475600163138 
821	 0,16168249259948 
822	 0,16183508259114 
823	 0,162276082383303 
824	 0,162537846243699 
825	 0,162006478617237 
826	 0,161800571355247 
827	 0,162062182163772 
828	 0,16232086421697 
829	 0,162429281934124 
830	 0,162343249072551 
831	 0,162453691675344 
832	 0,162669745689572 
833	 0,162807739965658 
834	 0,162892842346162 
835	 0,162882997843727 
836	 0,162577334093653 
837	 0,162606692145522 
838	 0,163191228363971 
839	 0,163235664119938 
840	 0,163067328641222 
841	 0,163319282623393 
842	 0,163444744395488 
843	 0,16346524701425 
844	 0,163942660737199 
845	 0,164231002018066 
846	 0,163958312992502 
847	 0,163203824404675 
848	 0,162593778930199 
849	 0,162952734482883 
850	 0,163447984758049 
851	 0,163757970421097 
852	 0,16363129218994 
853	 0,163470514881689 
854	 0,163522545521781 
855	 0,163766585447591 
856	 0,164086737564963 
857	 0,164327744644445 
858	 0,164070349522677 
859	 0,16350528534118 
860	 0,163512885311998 
861	 0,163885800964964 
862	 0,164417890381539 
863	 0,164529401029198 
864	 0,164324564631532 
865	 0,164046367084601 
866	 0,164569798457533 
867	 0,165454028268174 
868	 0,164659109372365 
869	 0,164004562010448 
870	 0,164306892024693 
871	 0,16470562528004 
872	 0,165127479300715 
873	 0,165562723227562 
874	 0,165639383276705 
875	 0,16538977673979 
876	 0,165080708279858 
877	 0,165166555267446 
878	 0,165742062576003 
879	 0,166047861607372 
880	 0,166157547014975 
881	 0,166211027690544 
882	 0,165901770663879 
883	 0,165546288688333 
884	 0,166147599708936 
885	 0,166422668297931 
886	 0,16615401906321 
887	 0,1669455562099 
888	 0,167335571074688 
889	 0,166055338751384 
890	 0,165714847620404 
891	 0,166462469030573 
892	 0,167642645037095 
893	 0,16785186789319 
894	 0,166885279765081 
895	 0,166358538925072 
896	 0,166062087128412 
897	 0,165848554716914 
898	 0,166280830357329 
899	 0,166922094595486 
900	 0,166850928086407 
901	 0,167278553269559 
902	 0,168148330295726 
903	 0,167924432184479 
904	 0,167732933648491 
905	 0,16822377549848 
906	 0,168672909309215 
907	 0,168604716502999 
908	 0,167506761530892 
909	 0,166979071766482 
910	 0,167316522049242 
911	 0,168068106097076 
912	 0,168510159341159 
913	 0,168350597692484 
914	 0,168396821243931 
915	 0,16840287017813 
916	 0,168077467025715 
917	 0,168681235165696 
918	 0,169642489390009 
919	 0,168851254134734 
920	 0,168243830112304 
921	 0,168488053124619 
922	 0,169254760635194 
923	 0,169957339034954 
924	 0,170065384875764 
925	 0,169427840369639 
926	 0,168586771521201 
927	 0,168555713461314 
928	 0,168048002250536 
929	 0,167254384255075 
930	 0,168107330066445 
931	 0,169520250985433 
932	 0,170473948989231 
933	 0,168940844760473 
934	 0,167057369859468 
935	 0,167774581669287 
936	 0,168751198295532 
937	 0,16911816423175 
938	 0,167868796027941 
939	 0,167257572028973 
940	 0,167822166695185 
941	 0,167248131938541 
942	 0,16667867703721 
943	 0,167108836032763 
944	 0,166849993866569 
945	 0,1661042550232 
946	 0,165726846195641 
947	 0,16593575268073 
948	 0,166582446743656 
949	 0,167003224133243 
950	 0,166358493755234 
951	 0,164583572680331 
952	 0,164514276740983 
953	 0,165262630958257 
954	 0,165355284174814 
955	 0,164520959169852 
956	 0,163384578444265 
957	 0,16380482969823 
958	 0,163819179775656 
959	 0,163032614257601 
960	 0,162821012951603 
961	 0,163321268998053 
962	 0,16438442584772 
963	 0,164292937599508 
964	 0,163339999143612 
965	 0,162380963881178 
966	 0,163057233335137 
967	 0,164705593148924 
968	 0,163955630352469 
969	 0,162742821610869 
970	 0,161937790274798 
971	 0,161329444451407 
972	 0,161689334372045 
973	 0,163403878368196 
974	 0,162926883104288 
975	 0,16199672072697 
976	 0,164840198393629 
977	 0,165379675831258 
978	 0,162854421588906 
979	 0,160362221873131 
980	 0,16031795180564 
981	 0,163385043907774 
982	 0,165176119676568 
983	 0,166237270701331 
984	 0,167352593074724 
985	 0,166226530783671 
986	 0,164022207627315 
987	 0,163573109829615 
988	 0,165046071287055 
989	 0,167401474754731 
990	 0,166532370947333 
991	 0,166511963301719 
992	 0,168817301320793 
993	 0,168671885450606 
994	 0,166940814080959 
995	 0,16519585589472 
996	 0,16655744445899 
997	 0,168918612006111 
998	 0,167040377116757 
999	 0,16587658644575 
1000	 0,166508140175118 
1001	 0,167332305653201 
1002	 0,168688113919508 
1003	 0,170236665219155 
1004	 0,169544470307414 
1005	 0,168469932512182 
1006	 0,168993395112706 
1007	 0,170237404972894 
1008	 0,171774066643062 
1009	 0,173138684461917 
1010	 0,173089038581519 
1011	 0,172247786219484 
1012	 0,173946712451753 
1013	 0,174995712585175 
1014	 0,173863080573733 
1015	 0,170310796647803 
1016	 0,168164407452879 
1017	 0,170266281290539 
1018	 0,171413321741714 
1019	 0,172045012446778 
1020	 0,173939766398862 
1021	 0,174637248035075 
1022	 0,174638392829349 
1023	 0,176896121287336 
1024	 0,179425518296942 
1025	 0,180686931837336 
1026	 0,177185222401331 
1027	 0,173706254877377 
1028	 0,173705720498414 
1029	 0,176703967292141 
1030	 0,180479949736556 
1031	 0,182294949191305 
1032	 0,180256826339898 
1033	 0,176510683708425 
1034	 0,175901924182457 
1035	 0,178006300402828 
1036	 0,181906906922028 
1037	 0,185494889686871 
1038	 0,183944400647907 
1039	 0,177839832028125 
1040	 0,183198634559255 
1041	 0,187430918585759 
1042	 0,181284839337219 
1043	 0,183621603511201 
1044	 0,187605033771586 
1045	 0,181345772890897 
1046	 0,184803472997709 
1047	 0,192659035879375 
1048	 0,181838484447822 
1049	 0,181607982774599 
1050	 0,193601716263032 
1051	 0,18717458890512 
1052	 0,185810516637185 
1053	 0,197722717454155 
1054	 0,200618333482589 
1055	 0,195402550509669 
1056	 0,185232384587472 
1057	 0,179589516791068 
1058	 0,179269630647091 
1059	 0,18258902821491 
1060	 0,188212536401394 
1061	 0,192263174535285 
1062	 0,187266083149147 
1063	 0,189806117878583 
1064	 0,200273427009538 
1065	 0,200077835943945 
1066	 0,199373852716786 
1067	 0,200060930963107 
1068	 0,187660600441887 
1069	 0,176041364062819 
1070	 0,177088673663826 
1071	 0,183145613760157 
1072	 0,193152325608292 
1073	 0,205543601175542 
1074	 0,209155522792445 
1075	 0,201559363293995 
