Wavelength	ABBE00385.asd
325	 0,202123462356804 
326	 0,217608592815204 
327	 0,284119734883662 
328	 0,342179115613074 
329	 6,72135827511081E-02 
330	-0,158750641499135 
331	 5,6490374280973E-03 
332	 0,104150356601911 
333	 0,101011743717875 
334	 0,094546928667896 
335	 7,29021458042916E-02 
336	 4,28551502245697E-02 
337	 2,78544754226232E-02 
338	 1,47395365394721E-02 
339	-8,86913448715317E-03 
340	 4,63509544262365E-02 
341	 0,113494847196736 
342	 5,44973334449257E-02 
343	 1,21707492704372E-02 
344	 1,38815406432473E-02 
345	-6,83200265943728E-03 
346	 1,33134729567027E-02 
347	 0,128310920839998 
348	 0,151170215801431 
349	 9,05591411305347E-02 
350	 4,56005098237687E-02 
351	 4,24064159807013E-02 
352	 7,76431060188239E-02 
353	 5,65892698949149E-02 
354	 1,46238093922068E-02 
355	 1,01378039146845E-02 
356	 1,22385852618344E-02 
357	 1,63320047731876E-02 
358	 3,20454721929136E-02 
359	 0,026733360231982 
360	-6,12424424022025E-03 
361	 5,2408091780262E-03 
362	 2,71028679839036E-02 
363	 2,26806043921098E-03 
364	 6,84530742028204E-03 
365	 0,040059329949845 
366	 3,38464462284286E-02 
367	 2,07951570510183E-02 
368	 2,04068858843777E-02 
369	 1,54949644849004E-02 
370	 1,07689837564305E-02 
371	 1,96365624347239E-02 
372	 1,38729178424177E-02 
373	-2,86381835984837E-03 
374	 1,74185661951887E-02 
375	 4,41039656589438E-02 
376	 5,13012951009245E-02 
377	 0,046207952481059 
378	 3,32831497009712E-02 
379	 1,62823475356175E-02 
380	 1,89547950564698E-02 
381	 4,33246001455578E-02 
382	 5,55597043694276E-02 
383	 4,76022754715554E-02 
384	 0,017544991292008 
385	 5,05255206502259E-03 
386	 7,44445741127044E-03 
387	-9,99671537505007E-03 
388	-1,41862474929476E-03 
389	 3,74696197321241E-02 
390	 3,58421477148374E-02 
391	 1,89751993908829E-02 
392	 2,26594460138983E-02 
393	 2,59330585422652E-02 
394	 2,41628633403954E-02 
395	 0,015288967269806 
396	 9,43329781994766E-03 
397	 1,23456228097863E-02 
398	 2,29565875997434E-02 
399	 3,03372945871866E-02 
400	 1,88625103437436E-02 
401	 1,36662381400779E-02 
402	 1,78061062420224E-02 
403	 1,59495026174744E-02 
404	 1,41059281045496E-02 
405	 0,015858112938016 
406	 1,29932356618825E-02 
407	 9,49914406226285E-03 
408	 1,58142065399822E-02 
409	 0,019215797290626 
410	 1,75487836593963E-02 
411	 1,89577019754515E-02 
412	 2,23950969591418E-02 
413	 2,61005355399365E-02 
414	 2,13382722939829E-02 
415	 1,25088971394494E-02 
416	 1,43759468116659E-02 
417	 1,88378323535098E-02 
418	 2,14910267457135E-02 
419	 1,71520019114081E-02 
420	 1,15030459971967E-02 
421	 1,22196584173845E-02 
422	 1,34942760513359E-02 
423	 1,33212116694687E-02 
424	 9,06407699233115E-03 
425	 8,31246614414535E-03 
426	 1,44361746869788E-02 
427	 1,41353715481662E-02 
428	 1,06054942880904E-02 
429	 1,26786345076226E-02 
430	 1,46310610244716E-02 
431	 1,52097155008277E-02 
432	 1,63845452608999E-02 
433	 1,73817994704968E-02 
434	 1,74457895533248E-02 
435	 0,01580923841159 
436	 1,42916256409749E-02 
437	 1,80090067550663E-02 
438	 1,99809690323459E-02 
439	 1,80204667750779E-02 
440	 1,78983405683239E-02 
441	 1,75309709531819E-02 
442	 1,37035503024391E-02 
443	 1,25742885440112E-02 
444	 1,47268767660769E-02 
445	 0,017169554684337 
446	 1,73709118197352E-02 
447	 1,44448420133729E-02 
448	 1,55130387069233E-02 
449	 1,86986285877857E-02 
450	 1,89283546264683E-02 
451	 1,67724121997303E-02 
452	 1,38425169520027E-02 
453	 1,70374458480931E-02 
454	 2,00306683061475E-02 
455	 1,71007378415947E-02 
456	 1,63499061598499E-02 
457	 1,66239943089758E-02 
458	 9,36715374814803E-03 
459	 8,35881681321139E-03 
460	 0,01706967371478 
461	 1,73207363221245E-02 
462	 1,39797810165317E-02 
463	 1,57978379686073E-02 
464	 1,71354171891108E-02 
465	 1,69969312215744E-02 
466	 1,65851885085713E-02 
467	 0,016049533364821 
468	 1,55900649657552E-02 
469	 1,56769960560827E-02 
470	 1,64583713207051E-02 
471	 1,81765925249279E-02 
472	 1,94239146499543E-02 
473	 1,94423651312307E-02 
474	 1,73647726878001E-02 
475	 0,015167949905741 
476	 1,48719549767738E-02 
477	 1,73505143813644E-02 
478	 2,06891377733502E-02 
479	 1,95109500137874E-02 
480	 1,80329120800951E-02 
481	 1,78791768708662E-02 
482	 1,54412816165248E-02 
483	 1,29639192423187E-02 
484	 1,41865125260694E-02 
485	 1,65068875273124E-02 
486	 0,018260238472684 
487	 1,64279724747441E-02 
488	 1,36913986928987E-02 
489	 1,23924882034075E-02 
490	 0,014123946346346 
491	 1,69706527784337E-02 
492	 1,59503750071385E-02 
493	 1,59845463948127E-02 
494	 1,80018785531237E-02 
495	 1,75202471016143E-02 
496	 1,61201002800806E-02 
497	 1,59201632872559E-02 
498	 0,015149640472644 
499	 1,38795058544933E-02 
500	 1,33652955242597E-02 
501	 1,31188908660889E-02 
502	 1,30122656608055E-02 
503	 1,43662368079701E-02 
504	 1,59588309678129E-02 
505	 1,54768639065624E-02 
506	 1,48611505567881E-02 
507	 1,45779783050473E-02 
508	 1,38282966854349E-02 
509	 1,34368870834236E-02 
510	 1,41155984855227E-02 
511	 1,46300198176269E-02 
512	 1,52417811963033E-02 
513	 1,76730215519948E-02 
514	 1,83490824924655E-02 
515	 1,62771195553186E-02 
516	 1,59395414288502E-02 
517	 1,66062592028377E-02 
518	 1,66119917153515E-02 
519	 0,016219588226469 
520	 1,57202955451902E-02 
521	 1,62062346873757E-02 
522	 1,60409732608242E-02 
523	 1,42789374156501E-02 
524	 1,41977751680481E-02 
525	 1,53131563899005E-02 
526	 1,54208712328365E-02 
527	 1,51888513343509E-02 
528	 1,48576961329373E-02 
529	 1,48337613937873E-02 
530	 1,47036446862314E-02 
531	 0,013975448503101 
532	 1,39559224518208E-02 
533	 1,46957364329354E-02 
534	 1,54168705713577E-02 
535	 1,59933296529327E-02 
536	 1,62460277635984E-02 
537	 1,55036320989389E-02 
538	 0,014653760470777 
539	 1,55384722777889E-02 
540	 1,55919438242878E-02 
541	 1,44646793904029E-02 
542	 0,014471704675445 
543	 1,48813337531857E-02 
544	 1,49004594040085E-02 
545	 1,55978588853753E-02 
546	 1,63360993226578E-02 
547	 1,46358350897557E-02 
548	 1,37971636715443E-02 
549	 1,51531734473128E-02 
550	 1,56399827803408E-02 
551	 1,54468655800683E-02 
552	 1,54474689579966E-02 
553	 1,48838143824503E-02 
554	 1,40857091882722E-02 
555	 1,51953622758972E-02 
556	 1,59443917146221E-02 
557	 1,45882083460852E-02 
558	 1,43522397723501E-02 
559	 1,50021506011911E-02 
560	 1,42788156479766E-02 
561	 1,44386214294384E-02 
562	 1,59051194586897E-02 
563	 1,56098096116753E-02 
564	 1,45574498750296E-02 
565	 1,44201966194664E-02 
566	 0,014761765147151 
567	 1,53011877361901E-02 
568	 1,53577231997507E-02 
569	 1,53651468620561E-02 
570	 0,015594349633528 
571	 1,56242667360866E-02 
572	 1,53445476620335E-02 
573	 1,45000108660763E-02 
574	 1,46267098094451E-02 
575	 0,015887626681247 
576	 1,58444614453173E-02 
577	 1,55780555735874E-02 
578	 1,64652727107338E-02 
579	 1,71202885387322E-02 
580	 1,71819525142634E-02 
581	 1,64490821859947E-02 
582	 1,62384367516985E-02 
583	 1,71889893728161E-02 
584	 1,77587876362281E-02 
585	 1,78542744612623E-02 
586	 1,76883060538148E-02 
587	 1,75439448388353E-02 
588	 1,75900898371181E-02 
589	 1,79965443306939E-02 
590	 1,84237542707803E-02 
591	 1,85400496492046E-02 
592	 1,83047086696189E-02 
593	 1,79109032207214E-02 
594	 1,78413497732366E-02 
595	 1,79967265948637E-02 
596	 1,83173450473928E-02 
597	 1,87158032031048E-02 
598	 0,018906056688005 
599	 1,85013997369868E-02 
600	 1,80058373863208E-02 
601	 1,76879518889081E-02 
602	 1,78928871817236E-02 
603	 1,81056648832735E-02 
604	 0,017951905344239 
605	 1,82293454290606E-02 
606	 0,018574599650775 
607	 1,77269360068458E-02 
608	 0,017083071581818 
609	 1,71918587634947E-02 
610	 1,78853397338215E-02 
611	 1,82253877448552E-02 
612	 1,71099550676962E-02 
613	 1,63261693763123E-02 
614	 1,63484123696822E-02 
615	 1,71668629271743E-02 
616	 1,76689172874876E-02 
617	 1,72164441054831E-02 
618	 1,71493704483508E-02 
619	 0,017358949429099 
620	 1,72350827782475E-02 
621	 1,70851742966675E-02 
622	 1,69869233704018E-02 
623	 1,68206272841437E-02 
624	 0,016774393245769 
625	 1,70224778023552E-02 
626	 1,68545194835543E-02 
627	 0,01651313178353 
628	 1,71795819197549E-02 
629	 1,78001047345945E-02 
630	 1,78431131581578E-02 
631	 1,78204756338865E-02 
632	 1,76632867151287E-02 
633	 1,71388184238277E-02 
634	 1,69489234907722E-02 
635	 1,72798257132109E-02 
636	 1,80073610586427E-02 
637	 1,82595863731604E-02 
638	 0,017454499767845 
639	 1,80632589124218E-02 
640	 1,94842715866961E-02 
641	 1,90400799207561E-02 
642	 0,018484618301828 
643	 1,85149094884785E-02 
644	 1,88329577209234E-02 
645	 1,93554446871414E-02 
646	 2,00006368641062E-02 
647	 2,02316488103448E-02 
648	 1,99835070130142E-02 
649	 1,95547891651464E-02 
650	 1,92623729794503E-02 
651	 1,93238552942485E-02 
652	 1,96605406896605E-02 
653	 1,97488664308042E-02 
654	 1,85001272069405E-02 
655	 1,77113443151567E-02 
656	 1,79264315792257E-02 
657	 1,85355703004115E-02 
658	 1,86470099243915E-02 
659	 1,74521926992166E-02 
660	 1,67684097950923E-02 
661	 1,68435915272167E-02 
662	 1,72505003558375E-02 
663	 1,71206704629948E-02 
664	 1,61201706782898E-02 
665	 1,55076968475055E-02 
666	 1,52955207032242E-02 
667	 1,52317955249808E-02 
668	 1,54277368212703E-02 
669	 1,58181519856191E-02 
670	 0,016147233983903 
671	 1,63913932151104E-02 
672	 0,016504082649342 
673	 1,60673346702219E-02 
674	 1,54551551681252E-02 
675	 1,57264067316283E-02 
676	 1,59252221587611E-02 
677	 1,57269657407746E-02 
678	 1,53646382715047E-02 
679	 0,015272070745962 
680	 1,59192102314202E-02 
681	 0,016278106805956 
682	 0,016281238455517 
683	 1,66315358939818E-02 
684	 1,67666895674339E-02 
685	 1,64475789376592E-02 
686	 1,64775004672875E-02 
687	 1,69354711265217E-02 
688	 0,017786720160303 
689	 1,83304392567273E-02 
690	 1,85172566317089E-02 
691	 0,019219215885301 
692	 0,020121470764334 
693	 2,09421710391544E-02 
694	 2,22239110628065E-02 
695	 2,39736930312198E-02 
696	 2,59211514115661E-02 
697	 2,81935408064057E-02 
698	 3,07608246019986E-02 
699	 3,31359806252943E-02 
700	 3,57940008394734E-02 
701	 3,93882880315744E-02 
702	 0,043099468414635 
703	 4,67327987549796E-02 
704	 5,05159060855121E-02 
705	 5,41654053403454E-02 
706	 5,75412258654202E-02 
707	 6,11636320626191E-02 
708	 6,47835844024657E-02 
709	 6,77659086681323E-02 
710	 0,071139489092225 
711	 7,50227668564752E-02 
712	 7,85400837133087E-02 
713	 8,14061943405425E-02 
714	 8,34628079527286E-02 
715	 8,58616118717824E-02 
716	 8,85511398999773E-02 
717	 9,07129248033876E-02 
718	 9,29804163304591E-02 
719	 9,54148044724621E-02 
720	 9,67986426306578E-02 
721	 9,79826287690158E-02 
722	 0,100167678822827 
723	 0,10174247202539 
724	 0,102605278846421 
725	 0,103723811418418 
726	 0,104988808910241 
727	 0,106274019433614 
728	 0,107054721654134 
729	 0,10747663470967 
730	 0,107891681501376 
731	 0,108716599273551 
732	 0,109884286496846 
733	 0,110430893971073 
734	 0,110893042303228 
735	 0,111711324988317 
736	 0,111867819290877 
737	 0,111738793594298 
738	 0,112773588390345 
739	 0,113406249591976 
740	 0,113228632127613 
741	 0,113531226162906 
742	 0,114038616100525 
743	 0,114313707700119 
744	 0,114430698352644 
745	 0,114501159734017 
746	 0,11484414150008 
747	 0,115130883113877 
748	 0,115214362037864 
749	 0,115426015873584 
750	 0,115638529822394 
751	 0,115595703540604 
752	 0,115638617862606 
753	 0,115782387063366 
754	 0,115677896067517 
755	 0,115649695793558 
756	 0,115911034086913 
757	 0,116061318308743 
758	 0,116186535861739 
759	 0,116614373924313 
760	 0,116869910688989 
761	 0,116869413793133 
762	 0,117020351796682 
763	 0,117200091423794 
764	 0,117283824450905 
765	 0,117449522088135 
766	 0,117664991118769 
767	 0,117770237727481 
768	 0,117832336626114 
769	 0,117878928576458 
770	 0,117942549615406 
771	 0,117919335860967 
772	 0,117696486610449 
773	 0,117817754768767 
774	 0,118232516201504 
775	 0,118416936947182 
776	 0,11842363521049 
777	 0,118309007823291 
778	 0,118341833067162 
779	 0,118437990392709 
780	 0,118416371306329 
781	 0,118705714286337 
782	 0,119189417603759 
783	 0,119085520902342 
784	 0,1187937122574 
785	 0,118628667192594 
786	 0,118858629090379 
787	 0,119129672809769 
788	 0,118706723393874 
789	 0,118793720264691 
790	 0,119428806596535 
791	 0,11915786804765 
792	 0,11883340473452 
793	 0,119130986177544 
794	 0,119337210807972 
795	 0,119403304128002 
796	 0,119486593493035 
797	 0,119501788035476 
798	 0,119457529184767 
799	 0,11952825702347 
800	 0,119518696621471 
801	 0,119269091571128 
802	 0,119284990507374 
803	 0,119499833101081 
804	 0,119476275534199 
805	 0,119542382167522 
806	 0,11977988345862 
807	 0,119989301213695 
808	 0,12014495024824 
809	 0,120222571780527 
810	 0,119856803631119 
811	 0,11944108055558 
812	 0,120332805036698 
813	 0,120805080665048 
814	 0,120294133335828 
815	 0,120209935961224 
816	 0,120574126953283 
817	 0,121244388685667 
818	 0,121765817093362 
819	 0,121939183134025 
820	 0,121542578830945 
821	 0,121328201185288 
822	 0,12167118265503 
823	 0,122339443206961 
824	 0,122760556896618 
825	 0,122266673609616 
826	 0,121941689080971 
827	 0,122050711603723 
828	 0,122518593637754 
829	 0,122827077182949 
830	 0,122757547112065 
831	 0,122983874852121 
832	 0,123233619006487 
833	 0,123047817875152 
834	 0,123028217927765 
835	 0,123185463629491 
836	 0,122995136302034 
837	 0,123008103090449 
838	 0,123433821480843 
839	 0,12345198094243 
840	 0,123475658320038 
841	 0,124204055291193 
842	 0,124219449187911 
843	 0,123675110760363 
844	 0,124347144187038 
845	 0,124909120631072 
846	 0,124655475108282 
847	 0,124109015230252 
848	 0,123728844635565 
849	 0,124051635856561 
850	 0,124347308366467 
851	 0,124389351966734 
852	 0,124098377846729 
853	 0,123957570698326 
854	 0,124199839810426 
855	 0,124377432059107 
856	 0,124535496014758 
857	 0,124805723225678 
858	 0,124377759450894 
859	 0,123561138248319 
860	 0,123969676731421 
861	 0,124409180900091 
862	 0,12437490769275 
863	 0,124984430295428 
864	 0,125498092818376 
865	 0,124861124780344 
866	 0,125032609991728 
867	 0,125850161795257 
868	 0,125291943471074 
869	 0,124953837123735 
870	 0,125468848172016 
871	 0,125703677533382 
872	 0,125821025763309 
873	 0,126130160651483 
874	 0,1262777961438 
875	 0,126370680385139 
876	 0,126964910840521 
877	 0,127345200660604 
878	 0,127324215675006 
879	 0,127825294695787 
880	 0,12801916118965 
881	 0,127039270272175 
882	 0,126841200806659 
883	 0,127315566980531 
884	 0,127028049185998 
885	 0,12695763174207 
886	 0,127392373998158 
887	 0,128054194882248 
888	 0,128410912923123 
889	 0,128037521634336 
890	 0,127740732434685 
891	 0,127809873887995 
892	 0,128535802366521 
893	 0,12904223688844 
894	 0,12903427964018 
895	 0,12878878875906 
896	 0,128360775418366 
897	 0,127842095203629 
898	 0,127523154694071 
899	 0,127685861648856 
900	 0,128734977689289 
901	 0,129354060092696 
902	 0,12934739500158 
903	 0,129685411258935 
904	 0,129835181946561 
905	 0,129560383383237 
906	 0,129715720418401 
907	 0,129935883662751 
908	 0,129567384003418 
909	 0,12945614646686 
910	 0,129678666945148 
911	 0,129804850164932 
912	 0,129861571095404 
913	 0,12977850403731 
914	 0,129078381299054 
915	 0,128696861450142 
916	 0,129618533793929 
917	 0,130176232269465 
918	 0,130204873897763 
919	 0,130280577922853 
920	 0,129909811771291 
921	 0,129270321858697 
922	 0,129928876791148 
923	 0,130482983591953 
924	 0,129790195843579 
925	 0,129243370245215 
926	 0,128889645686569 
927	 0,128390652930317 
928	 0,12813643330661 
929	 0,128293691929663 
930	 0,129077225255335 
931	 0,129669243815638 
932	 0,129538866867931 
933	 0,128776133990218 
934	 0,127995331654326 
935	 0,127948465095137 
936	 0,128377209466503 
937	 0,128787160632128 
938	 0,127972889815262 
939	 0,127319925725046 
940	 0,127151467104958 
941	 0,126040170110448 
942	 0,125329356444241 
943	 0,126070378346815 
944	 0,12573387670992 
945	 0,124676235714536 
946	 0,124327106259382 
947	 0,124543112709879 
948	 0,124961367214941 
949	 0,124380548262601 
950	 0,123508088348429 
951	 0,122866898265755 
952	 0,122811331713814 
953	 0,123298167556465 
954	 0,124090345597928 
955	 0,12228167629439 
956	 0,119211382412971 
957	 0,119992438062156 
958	 0,11994615711092 
959	 0,118199230853662 
960	 0,118378144677868 
961	 0,119300055854643 
962	 0,119775808404545 
963	 0,118554699721204 
964	 0,116969752441119 
965	 0,117280681275914 
966	 0,118588824122003 
967	 0,119776999107225 
968	 0,118175446525565 
969	 0,116801531427353 
970	 0,116755995477974 
971	 0,116182345621626 
972	 0,115865813578497 
973	 0,116476370475081 
974	 0,116018672947385 
975	 0,116252639583314 
976	 0,120972422269232 
977	 0,121287661110029 
978	 0,116958974163875 
979	 0,116114175511698 
980	 0,116443196795104 
981	 0,116949280985311 
982	 0,118282873410077 
983	 0,119398647965889 
984	 0,119265785598683 
985	 0,118492367775141 
986	 0,118285073996381 
987	 0,120680756178767 
988	 0,122850251677852 
989	 0,123596735018863 
990	 0,122068849951929 
991	 0,120825064892369 
992	 0,121128529482006 
993	 0,121302029000648 
994	 0,120782975216054 
995	 0,119319053417179 
996	 0,119195167372586 
997	 0,120452616111 
998	 0,122255167455908 
999	 0,124458830335967 
1000	 0,125967204808499 
1001	 0,123415883900959 
1002	 0,121824409187173 
1003	 0,123393376209155 
1004	 0,124607627437204 
1005	 0,12431813800831 
1006	 0,12214410201447 
1007	 0,123669824673457 
1008	 0,127011072207579 
1009	 0,127100924773292 
1010	 0,127686166617362 
1011	 0,128855723118214 
1012	 0,12753282371126 
1013	 0,127523435914104 
1014	 0,129664249867677 
1015	 0,129156930839893 
1016	 0,127315429109701 
1017	 0,125731121609469 
1018	 0,125733448679565 
1019	 0,126848448573722 
1020	 0,12799346773052 
1021	 0,132839762148455 
1022	 0,138743001799584 
1023	 0,135934373295027 
1024	 0,134135763985137 
1025	 0,135051926438154 
1026	 0,129597078734882 
1027	 0,127194794401291 
1028	 0,132710392554257 
1029	 0,134113557107846 
1030	 0,133585701172361 
1031	 0,134934880350558 
1032	 0,133447742725559 
1033	 0,131410985836766 
1034	 0,134969013214307 
1035	 0,137059796234906 
1036	 0,137427632643023 
1037	 0,143816943453834 
1038	 0,143826948474148 
1039	 0,134481896446572 
1040	 0,131515399289239 
1041	 0,133203432178795 
1042	 0,137087465892723 
1043	 0,142085972815548 
1044	 0,144582100539717 
1045	 0,140775020588705 
1046	 0,14282874996516 
1047	 0,148246324201509 
1048	 0,144671120664551 
1049	 0,141490080761485 
1050	 0,140927216468348 
1051	 0,139231802396203 
1052	 0,144093639538318 
1053	 0,154617034285681 
1054	 0,145625789369521 
1055	 0,134250173961241 
1056	 0,136149772231794 
1057	 0,13983510311711 
1058	 0,141095208476414 
1059	 0,136766552357919 
1060	 0,136037427793956 
1061	 0,139825927895503 
1062	 0,145188100498669 
1063	 0,148495170974174 
1064	 0,148208207040521 
1065	 0,143050973870755 
1066	 0,144619682410261 
1067	 0,153556361927225 
1068	 0,145405801226498 
1069	 0,134347165984564 
1070	 0,133463994266666 
1071	 0,14021524201751 
1072	 0,148838673695195 
1073	 0,152215388513838 
1074	 0,148748002159582 
1075	 0,141666786824172 
