Wavelength	ABBE00517.asd
325	 0,158114810691992 
326	 0,160133010546234 
327	 0,209609831185518 
328	 0,253737553444862 
329	 9,12057696641875E-02 
330	-1,31058644145227E-02 
331	 0,169422399536842 
332	 0,268811389738582 
333	 0,25192320012616 
334	 0,173499805019267 
335	 0,198084396168792 
336	 0,30446070727829 
337	 0,2327085159696 
338	 0,11402417317896 
339	 5,01073729420186E-02 
340	 0,072062575485789 
341	 0,126124828691552 
342	 8,06867871407148E-02 
343	 0,107711257374585 
344	 0,210706615353767 
345	 0,164583631851347 
346	 0,10505082526596 
347	 0,166015224907767 
348	 0,180125763638743 
349	 0,153433451344458 
350	 0,174331011413423 
351	 0,20214994603974 
352	 0,218458741180918 
353	 0,212815581082222 
354	 0,18411726358947 
355	 0,138758826502662 
356	 0,149625491575793 
357	 0,199075624761427 
358	 0,209847566884018 
359	 0,182082483323466 
360	 0,12855577764626 
361	 0,151369147752977 
362	 0,190372250949914 
363	 0,147965105714104 
364	 0,135819503219256 
365	 0,166000532022854 
366	 0,187998438578977 
367	 0,185328118961029 
368	 0,154973959363488 
369	 0,143990301712876 
370	 0,153875772152141 
371	 0,17745765608556 
372	 0,191253151423593 
373	 0,190482699783808 
374	 0,19359008619886 
375	 0,189369494542813 
376	 0,171472821981172 
377	 0,162005496134912 
378	 0,166737061951305 
379	 0,191612195138311 
380	 0,213336135298364 
381	 0,223675891331938 
382	 0,225640530888502 
383	 0,214637488494178 
384	 0,187973105774594 
385	 0,170953386493735 
386	 0,171360738720077 
387	 0,195302597399383 
388	 0,20948494681516 
389	 0,202686296302192 
390	 0,195720847407413 
391	 0,19205350875049 
392	 0,193697135772455 
393	 0,198366713112529 
394	 0,202749888877814 
395	 0,198061965705043 
396	 0,20177323397995 
397	 0,219134172594913 
398	 0,21998436467352 
399	 0,2114416002781 
400	 0,208536724116424 
401	 0,209293981576385 
402	 0,211184931050577 
403	 0,205685558181451 
404	 0,20019072384988 
405	 0,199212496779869 
406	 0,194793647254318 
407	 0,191928771861709 
408	 0,203195182709608 
409	 0,210616061455153 
410	 0,209038346089996 
411	 0,200926763216215 
412	 0,195538062863567 
413	 0,200206473896692 
414	 0,201255274486411 
415	 0,199391329077957 
416	 0,202877060223521 
417	 0,208524727541431 
418	 0,213189952205907 
419	 0,2064093693002 
420	 0,197873938049628 
421	 0,200746337847783 
422	 0,2024760879383 
423	 0,201385226810202 
424	 0,201520512833267 
425	 0,203312584106359 
426	 0,206290235982668 
427	 0,204497402191538 
428	 0,201167560487191 
429	 0,203398045256187 
430	 0,206023250764259 
431	 0,207186168272929 
432	 0,20603867988639 
433	 0,204526902253666 
434	 0,204356308028795 
435	 0,204203354604586 
436	 0,204724356785974 
437	 0,208926337610351 
438	 0,209250566344271 
439	 0,204071756716538 
440	 0,203507851321371 
441	 0,205385665262803 
442	 0,205816389875064 
443	 0,206654846412152 
444	 0,207744673749245 
445	 0,207394054860441 
446	 0,20727326695893 
447	 0,20831580333949 
448	 0,208791819929412 
449	 0,20948429524683 
450	 0,212535233942209 
451	 0,213426946221506 
452	 0,211459623411682 
453	 0,210235433898644 
454	 0,211185780297228 
455	 0,21504979752324 
456	 0,214512343219749 
457	 0,210826918582476 
458	 0,210861183852855 
459	 0,213240698235578 
460	 0,216392543196036 
461	 0,213718509012878 
462	 0,210304249639316 
463	 0,213672890889355 
464	 0,215293581028878 
465	 0,213892826472982 
466	 0,2125281269457 
467	 0,212833147170434 
468	 0,215637925436515 
469	 0,218002315160922 
470	 0,219167082659525 
471	 0,218752553462318 
472	 0,217352807709345 
473	 0,215676711801443 
474	 0,21537468771846 
475	 0,215838600687983 
476	 0,21642989905183 
477	 0,219423351828734 
478	 0,222724080200017 
479	 0,219653378978276 
480	 0,21674846640677 
481	 0,216794938815356 
482	 0,215244895829989 
483	 0,214461037579212 
484	 0,218686646741409 
485	 0,21958671426307 
486	 0,216530936122217 
487	 0,216079290906925 
488	 0,21674687138314 
489	 0,217219356167456 
490	 0,216702306052333 
491	 0,215684697035752 
492	 0,215467616769355 
493	 0,216100730570725 
494	 0,217252240253757 
495	 0,217153480201297 
496	 0,215945564705884 
497	 0,213996614340621 
498	 0,213726441956121 
499	 0,21499802660718 
500	 0,215448087233313 
501	 0,215826050935647 
502	 0,21667913362888 
503	 0,219286904911669 
504	 0,221589075296246 
505	 0,219668611074713 
506	 0,219168103545595 
507	 0,220910955062207 
508	 0,220354790378066 
509	 0,219823562787663 
510	 0,221469356310075 
511	 0,222836007432406 
512	 0,223858435538485 
513	 0,225854011743901 
514	 0,226754136437546 
515	 0,226060317609459 
516	 0,226699739266341 
517	 0,22793117580891 
518	 0,228328120716897 
519	 0,228387576431378 
520	 0,228384638334271 
521	 0,228962202310617 
522	 0,229233423011044 
523	 0,228674155454 
524	 0,2289590250781 
525	 0,229770259948874 
526	 0,229837034626428 
527	 0,229797457101162 
528	 0,229609425246358 
529	 0,227901271021906 
530	 0,2263995377482 
531	 0,227113261060718 
532	 0,227689188097793 
533	 0,227816243007705 
534	 0,228434220532886 
535	 0,2287823268005 
536	 0,228504362306114 
537	 0,228685387252161 
538	 0,228888288996504 
539	 0,227941404253073 
540	 0,227797644756275 
541	 0,228656014649831 
542	 0,228318293334263 
543	 0,227995198186556 
544	 0,228885160672687 
545	 0,228928455251428 
546	 0,228255306343291 
547	 0,228393029421348 
548	 0,228627003212587 
549	 0,228709037586247 
550	 0,229315785474161 
551	 0,230096049431791 
552	 0,230435674389755 
553	 0,230365429463375 
554	 0,229929078815727 
555	 0,229327684162875 
556	 0,228693143433594 
557	 0,228136221241781 
558	 0,227661994022984 
559	 0,227323388132355 
560	 0,227226029889441 
561	 0,227307609964307 
562	 0,227343161024916 
563	 0,226308034742804 
564	 0,224930875448331 
565	 0,224262142189985 
566	 0,224603719746069 
567	 0,225551684826879 
568	 0,22523238659169 
569	 0,225517832839642 
570	 0,227516132654019 
571	 0,228427098695775 
572	 0,228717779547006 
573	 0,230440422554971 
574	 0,231844299093339 
575	 0,232628364076478 
576	 0,234378256707527 
577	 0,236894349695751 
578	 0,239796823281554 
579	 0,241993817157605 
580	 0,243317072302891 
581	 0,244116495149356 
582	 0,245462315007592 
583	 0,247754804817428 
584	 0,248706584227179 
585	 0,249082196863746 
586	 0,250750516067881 
587	 0,252316908941588 
588	 0,253482642755175 
589	 0,254813307842189 
590	 0,256196834831382 
591	 0,257507194494949 
592	 0,258879039507928 
593	 0,259913314185175 
594	 0,259346605402299 
595	 0,259300092495542 
596	 0,26052630971228 
597	 0,260645680944945 
598	 0,260255951868785 
599	 0,26064792464744 
600	 0,26041706311962 
601	 0,25949247447961 
602	 0,259096211866274 
603	 0,258819270992893 
604	 0,258321449880561 
605	 0,257733222624819 
606	 0,257112323453109 
607	 0,256642705954947 
608	 0,255648802812996 
609	 0,254134394983019 
610	 0,253726805533242 
611	 0,253407339940221 
612	 0,251772915505096 
613	 0,25091983321159 
614	 0,250924071866416 
615	 0,250285630018069 
616	 0,249424638535733 
617	 0,24864992552058 
618	 0,248122661320779 
619	 0,24804444443581 
620	 0,248812940545751 
621	 0,249246513653148 
622	 0,248899287362833 
623	 0,247801392660869 
624	 0,247159958659579 
625	 0,248133361616807 
626	 0,248399465401924 
627	 0,248082969954632 
628	 0,249156806824359 
629	 0,250019944121046 
630	 0,249978890760312 
631	 0,25035969776772 
632	 0,251158515728318 
633	 0,252107514730066 
634	 0,253072208104231 
635	 0,254060474306448 
636	 0,255401387671419 
637	 0,256611298142219 
638	 0,257350464031585 
639	 0,258863232520414 
640	 0,260745392506078 
641	 0,261395173552271 
642	 0,262150232283056 
643	 0,263411627604337 
644	 0,264238075690766 
645	 0,26470382065439 
646	 0,265021306364595 
647	 0,265013508780819 
648	 0,264733032393087 
649	 0,264559491553038 
650	 0,263877985548522 
651	 0,262379555295539 
652	 0,26128472594262 
653	 0,260256665929251 
654	 0,258196462778154 
655	 0,256155988573513 
656	 0,2544585244714 
657	 0,252860227149881 
658	 0,250874722798212 
659	 0,248071924443009 
660	 0,24604506903303 
661	 0,244572345339492 
662	 0,241944625136064 
663	 0,239275667662616 
664	 0,237147466673085 
665	 0,2354023569214 
666	 0,233827078952113 
667	 0,232074164904559 
668	 0,231087293874478 
669	 0,230838161975496 
670	 0,230084932512348 
671	 0,229547502525963 
672	 0,22972368878817 
673	 0,229147541135844 
674	 0,228123918210687 
675	 0,22804884069774 
676	 0,227711439104721 
677	 0,226942116521707 
678	 0,227325348527917 
679	 0,227967283398198 
680	 0,227681483263437 
681	 0,227922651701722 
682	 0,228900802033264 
683	 0,230081055098106 
684	 0,231556567134602 
685	 0,233404751704222 
686	 0,235763402735693 
687	 0,238679252294825 
688	 0,242146295886282 
689	 0,246397710655039 
690	 0,251547356201117 
691	 0,257595723459296 
692	 0,264487536007677 
693	 0,272205363033966 
694	 0,281253762268628 
695	 0,291434729681701 
696	 0,301901837180338 
697	 0,313716086459308 
698	 0,327009208958219 
699	 0,339909340243561 
700	 0,352731028969854 
701	 0,366134246067019 
702	 0,379787777894728 
703	 0,393271627132976 
704	 0,405781896005315 
705	 0,417673004037022 
706	 0,429227229633068 
707	 0,441019347044 
708	 0,452175029048004 
709	 0,460932477903887 
710	 0,469484921317502 
711	 0,478331560452073 
712	 0,486362963779004 
713	 0,493648558820845 
714	 0,500294557844792 
715	 0,506362517739031 
716	 0,512048976463668 
717	 0,517830058240428 
718	 0,523025538886239 
719	 0,527387156047519 
720	 0,531412088514271 
721	 0,535131128564746 
722	 0,53849971038181 
723	 0,541422078388781 
724	 0,543967241099056 
725	 0,546234592396167 
726	 0,548828305266505 
727	 0,551945858846725 
728	 0,553872037196325 
729	 0,555018495429647 
730	 0,556533393647939 
731	 0,558076810489922 
732	 0,559577091462499 
733	 0,560997286384908 
734	 0,562391011080648 
735	 0,563768122794652 
736	 0,564570819146079 
737	 0,565180086757099 
738	 0,566841104429196 
739	 0,568182809866851 
740	 0,568721282810199 
741	 0,568962456347497 
742	 0,569187381010019 
743	 0,569668383236529 
744	 0,570194474381682 
745	 0,570755317716532 
746	 0,571518541719545 
747	 0,572051121705032 
748	 0,572177098204553 
749	 0,572522980842295 
750	 0,572844832214589 
751	 0,572637523339799 
752	 0,572754571681278 
753	 0,573230429873612 
754	 0,573227220756204 
755	 0,573188465466817 
756	 0,573426810827273 
757	 0,573605150656441 
758	 0,573744660725891 
759	 0,573975240438693 
760	 0,57433163585259 
761	 0,574771899701062 
762	 0,575082665397354 
763	 0,575202689801242 
764	 0,575105892604057 
765	 0,575027297345101 
766	 0,575104223356521 
767	 0,575518142450882 
768	 0,576096504161012 
769	 0,576643045909168 
770	 0,576574747026043 
771	 0,576348540047533 
772	 0,576555702138434 
773	 0,576915973153208 
774	 0,577301054779 
775	 0,577543450305377 
776	 0,577607313631896 
777	 0,577542034531065 
778	 0,577870430193202 
779	 0,578206279651321 
780	 0,577905267076931 
781	 0,577715807118066 
782	 0,577707419141737 
783	 0,577297062473054 
784	 0,577160604028814 
785	 0,57765073741163 
786	 0,577727748031357 
787	 0,577541165562188 
788	 0,577640190161091 
789	 0,577612164178163 
790	 0,577442529508361 
791	 0,577540497564562 
792	 0,577747310260475 
793	 0,577893820614987 
794	 0,577700559268436 
795	 0,577328066114525 
796	 0,577181846436224 
797	 0,577347568407564 
798	 0,577700434286766 
799	 0,577504336471886 
800	 0,577036702556381 
801	 0,576630694132734 
802	 0,576628624233607 
803	 0,576985919326184 
804	 0,577432552470383 
805	 0,577721151131404 
806	 0,577778296076963 
807	 0,577926575456604 
808	 0,578126665455242 
809	 0,57829863231959 
810	 0,578131460963065 
811	 0,577899101208617 
812	 0,578596403526263 
813	 0,578978018385062 
814	 0,578649724025633 
815	 0,578687182847064 
816	 0,579049386915991 
817	 0,579562600150817 
818	 0,579941480013461 
819	 0,58007577541478 
820	 0,579861538095305 
821	 0,579823817613432 
822	 0,58021546976026 
823	 0,580823482601787 
824	 0,581218393865917 
825	 0,580909241970295 
826	 0,581030629356295 
827	 0,581625238760979 
828	 0,581854751713624 
829	 0,58220790431327 
830	 0,582856632359121 
831	 0,583252300975264 
832	 0,583477152016396 
833	 0,583729893477343 
834	 0,583689558941328 
835	 0,583447671103521 
836	 0,583504676703868 
837	 0,583687251904536 
838	 0,583905400361811 
839	 0,584210912911215 
840	 0,584494624009946 
841	 0,58460982997183 
842	 0,584398485712884 
843	 0,583959686780647 
844	 0,583635320575821 
845	 0,583856013293276 
846	 0,584654676376252 
847	 0,584460521525368 
848	 0,583876676699142 
849	 0,584006228915383 
850	 0,583809556413057 
851	 0,583312545864604 
852	 0,583422196692397 
853	 0,583544315277434 
854	 0,58340412794935 
855	 0,583455081342624 
856	 0,583672171923926 
857	 0,583953854853111 
858	 0,58376279550334 
859	 0,583326577713212 
860	 0,583824545896427 
861	 0,584312728586483 
862	 0,584352288015831 
863	 0,584533626622948 
864	 0,584802571995831 
865	 0,585017903022566 
866	 0,585715391148539 
867	 0,586549585740811 
868	 0,586046194895049 
869	 0,585899407387769 
870	 0,586799069811079 
871	 0,587531017198502 
872	 0,588000492098995 
873	 0,58824403234934 
874	 0,588494676905813 
875	 0,58884031463385 
876	 0,589399504388302 
877	 0,589624942525295 
878	 0,589378132494685 
879	 0,589368228883767 
880	 0,589389374872924 
881	 0,589191095134654 
882	 0,589506706975756 
883	 0,590034319692921 
884	 0,589530117322693 
885	 0,589423788435055 
886	 0,590052588978926 
887	 0,590322875829684 
888	 0,590254480981315 
889	 0,589973427722944 
890	 0,590050055531414 
891	 0,590395336288376 
892	 0,590593268991006 
893	 0,590522301692401 
894	 0,590151754684005 
895	 0,589568238373891 
896	 0,58930033076845 
897	 0,589687237761318 
898	 0,58982926288233 
899	 0,589853458323492 
900	 0,590233821111275 
901	 0,590950881556163 
902	 0,591729619231707 
903	 0,59167281974591 
904	 0,591249055269982 
905	 0,590864876939081 
906	 0,591026312200204 
907	 0,591489978264952 
908	 0,591808278388748 
909	 0,591482885746055 
910	 0,590847590809221 
911	 0,59131198186858 
912	 0,59213647883118 
913	 0,592772898308002 
914	 0,592233522858004 
915	 0,591653994927496 
916	 0,592340541886478 
917	 0,59326296687062 
918	 0,593753878066847 
919	 0,592572556226526 
920	 0,592282546936373 
921	 0,593381875513819 
922	 0,593483181298921 
923	 0,593111912612679 
924	 0,592853743845713 
925	 0,593136005614617 
926	 0,593613252259766 
927	 0,593574156221936 
928	 0,592501548451428 
929	 0,590907691421686 
930	 0,591081641258986 
931	 0,591775065776577 
932	 0,592098620230493 
933	 0,591635959624664 
934	 0,590538874467964 
935	 0,589163096520398 
936	 0,589732297603917 
937	 0,591362670061378 
938	 0,590137174831503 
939	 0,588718529459391 
940	 0,588039488225374 
941	 0,587267752996928 
942	 0,587008063454608 
943	 0,587642234345583 
944	 0,587228177277043 
945	 0,58602352272646 
946	 0,585088192650586 
947	 0,585253239336245 
948	 0,585986283487241 
949	 0,584374173116076 
950	 0,582486239248083 
951	 0,581608671701047 
952	 0,581530341385521 
953	 0,58175355972206 
954	 0,581631222141743 
955	 0,579914971995227 
956	 0,577465765156307 
957	 0,577097069472919 
958	 0,577030672552385 
959	 0,576778747527173 
960	 0,576913352449039 
961	 0,577317796016139 
962	 0,577730705302782 
963	 0,576862087890123 
964	 0,575709819633455 
965	 0,576026473391321 
966	 0,576331663928943 
967	 0,576259764588471 
968	 0,575888316616339 
969	 0,575518634928547 
970	 0,575255386226328 
971	 0,574760194797697 
972	 0,574542666295681 
973	 0,574963601377481 
974	 0,574389993817607 
975	 0,574226387239149 
976	 0,577537097692697 
977	 0,576883468943391 
978	 0,572296030504902 
979	 0,570956408609296 
980	 0,57245872552716 
981	 0,57592308299418 
982	 0,577165866192544 
983	 0,576711792527654 
984	 0,575743547047775 
985	 0,576828868019551 
986	 0,578845098825083 
987	 0,578598125458423 
988	 0,578814753646698 
989	 0,579903531223156 
990	 0,580624663060919 
991	 0,580480093621521 
992	 0,579511183649668 
993	 0,579702099718418 
994	 0,580086492871657 
995	 0,579771898226245 
996	 0,583049126855766 
997	 0,58722758884373 
998	 0,585739735466172 
999	 0,585455327488954 
1000	 0,586995417811554 
1001	 0,584851130448145 
1002	 0,584854502764583 
1003	 0,588624716296615 
1004	 0,586995224223448 
1005	 0,585968986734371 
1006	 0,591320293566002 
1007	 0,593319820611689 
1008	 0,592020787162709 
1009	 0,590593019811368 
1010	 0,59204635506491 
1011	 0,595493204060803 
1012	 0,594779103820373 
1013	 0,59384653633687 
1014	 0,594227280576012 
1015	 0,594306845872677 
1016	 0,594607223603972 
1017	 0,595569483551482 
1018	 0,597035373853774 
1019	 0,596814849074313 
1020	 0,592098577884884 
1021	 0,596262852862706 
1022	 0,605358326249526 
1023	 0,598280097011697 
1024	 0,597696174612323 
1025	 0,606885381539818 
1026	 0,603526008664804 
1027	 0,598371321091601 
1028	 0,59843963623389 
1029	 0,597303551763601 
1030	 0,597636662181045 
1031	 0,60258964870668 
1032	 0,602309984743387 
1033	 0,600191586296072 
1034	 0,607236712283632 
1035	 0,606729541836221 
1036	 0,600071443346957 
1037	 0,610335791145695 
1038	 0,614278016194298 
1039	 0,604354090060463 
1040	 0,600189637135523 
1041	 0,601192255227407 
1042	 0,604913996240163 
1043	 0,602047762409871 
1044	 0,600092775119249 
1045	 0,610266681910065 
1046	 0,614889102313135 
1047	 0,611406127832032 
1048	 0,603510920784483 
1049	 0,604866036276471 
1050	 0,613121237038639 
1051	 0,59921645675663 
1052	 0,594819014099516 
1053	 0,611285847644051 
1054	 0,61804617837592 
1055	 0,615097646292473 
1056	 0,605930751034276 
1057	 0,607803358371438 
1058	 0,612774264656124 
1059	 0,606625950743996 
1060	 0,604909151668497 
1061	 0,606795527511629 
1062	 0,602085798795858 
1063	 0,609204713692891 
1064	 0,623636416854196 
1065	 0,607804842089516 
1066	 0,594672102970542 
1067	 0,597840141147744 
1068	 0,6076548891645 
1069	 0,607648987432142 
1070	 0,589284306852452 
1071	 0,583992697502318 
1072	 0,592834910982546 
1073	 0,61057634686966 
1074	 0,612793031093637 
1075	 0,598918963330015 
