Wavelength	ABBE00313.asd
325	-0,141952824472657 
326	 1,66986671118903E-02 
327	 6,63197934026232E-02 
328	-3,42592326896037E-02 
329	-0,180449252497934 
330	-0,190779617977995 
331	 3,22376321619677E-02 
332	-8,39917891434828E-03 
333	-0,181537278788864 
334	-9,25993245074258E-02 
335	 1,98000396000792E-04 
336	 3,05210202810143E-02 
337	-1,96746715998592E-02 
338	-7,21737214151311E-02 
339	-6,44903530821861E-02 
340	 1,39519177857025E-02 
341	 7,57163983802157E-02 
342	-1,29067576967879E-02 
343	-4,51242467501295E-02 
344	 8,77561719223735E-03 
345	 9,61180239922509E-03 
346	-1,4884425853086E-03 
347	 2,10413274100069E-02 
348	 2,70270802114624E-02 
349	 1,23029165962367E-02 
350	-2,03300204833576E-02 
351	-8,86725776075502E-03 
352	 5,18237149221073E-02 
353	 4,89809866674752E-02 
354	 8,36087507132673E-03 
355	-2,04451008937732E-02 
356	-1,87029185582587E-02 
357	-8,43905072715455E-04 
358	-0,018627886627503 
359	-2,05611259221272E-02 
360	 8,93635922613176E-03 
361	 3,75989549916251E-05 
362	-1,78707718051207E-02 
363	 5,33283815338767E-03 
364	 2,34642917246675E-02 
365	 2,71962119087951E-02 
366	 2,35152597590164E-02 
367	 1,83438881312955E-02 
368	 1,61947171632856E-02 
369	 2,02286522476308E-02 
370	 0,024548813504213 
371	 1,78520564045826E-02 
372	 5,05952894380793E-03 
373	-5,56815868307012E-03 
374	 9,74141298055112E-03 
375	 3,00255164295325E-02 
376	 3,74966157272616E-02 
377	 3,52561018740019E-02 
378	 3,02056233308112E-02 
379	 3,74046678382657E-02 
380	 3,12500778708167E-02 
381	 1,12352677211575E-02 
382	 2,24007692304587E-02 
383	 3,18903187527342E-02 
384	 0,010531547973637 
385	 9,12728714006445E-03 
386	 2,49281556797129E-02 
387	 2,58332747003619E-02 
388	 2,39977225909197E-02 
389	 2,30001491195611E-02 
390	 1,59495170152106E-02 
391	 1,50286846281146E-02 
392	 3,43875650126843E-02 
393	 0,035293279521124 
394	 1,93834294263763E-02 
395	 1,47864037359567E-02 
396	 1,97848277775997E-02 
397	 3,02411359571386E-02 
398	 2,17300820172301E-02 
399	 9,05636932219365E-03 
400	 1,79280893352177E-02 
401	 0,021687316240877 
402	 1,77546986045183E-02 
403	 2,46550520395762E-02 
404	 2,52260684647709E-02 
405	 1,03457420441683E-02 
406	 1,03187833469913E-02 
407	 1,87702733706299E-02 
408	 1,40715322620594E-02 
409	 9,12351088511911E-03 
410	 9,67198097302846E-03 
411	 2,63528546885516E-02 
412	 3,75838522682619E-02 
413	 2,52592223482066E-02 
414	 0,018398995587399 
415	 0,01908667126623 
416	 1,77534748752073E-02 
417	 1,84038752002879E-02 
418	 2,11837452346864E-02 
419	 1,84250435626106E-02 
420	 1,48294569551844E-02 
421	 1,70760926217422E-02 
422	 1,94603037391937E-02 
423	 2,00394814878071E-02 
424	 1,64454867864089E-02 
425	 1,63338034104228E-02 
426	 2,26214247775364E-02 
427	 1,77425425026578E-02 
428	 8,82959350143843E-03 
429	 0,012531093371299 
430	 1,72498087254295E-02 
431	 2,00133218652785E-02 
432	 0,023958176421624 
433	 2,65371870636713E-02 
434	 2,54074261183156E-02 
435	 1,85668050613696E-02 
436	 0,012253911277495 
437	 2,33183459022839E-02 
438	 2,96521377632791E-02 
439	 2,40971848741065E-02 
440	 2,25921442523139E-02 
441	 2,33242229384597E-02 
442	 2,22112599147777E-02 
443	 2,44987358918922E-02 
444	 2,90988283148251E-02 
445	 0,028914420866879 
446	 2,62296021281224E-02 
447	 2,31296155830414E-02 
448	 2,48181410856602E-02 
449	 2,83464985923362E-02 
450	 2,71241875681841E-02 
451	 2,39784079859878E-02 
452	 2,11053611380059E-02 
453	 2,43302777338483E-02 
454	 2,76127230778218E-02 
455	 2,54723301863751E-02 
456	 2,45815593304949E-02 
457	 2,48842938644003E-02 
458	 0,02225494200851 
459	 2,20208458396601E-02 
460	 0,025301117598806 
461	 2,38997049792949E-02 
462	 2,12712849541908E-02 
463	 0,022981189999468 
464	 2,45548663018189E-02 
465	 2,49594575596093E-02 
466	 0,02451890692542 
467	 2,46675161308289E-02 
468	 2,60787425318493E-02 
469	 2,51891167184953E-02 
470	 2,41850027350908E-02 
471	 2,87432742790973E-02 
472	 3,07398620246652E-02 
473	 2,82781809183068E-02 
474	 2,57336495821613E-02 
475	 2,44886207726814E-02 
476	 2,55602381310969E-02 
477	 2,67912490758155E-02 
478	 2,76412725144143E-02 
479	 2,82460755096042E-02 
480	 2,85753665284549E-02 
481	 2,84323897974103E-02 
482	 2,65263536702455E-02 
483	 2,46101934940528E-02 
484	 2,53735808270702E-02 
485	 2,71145267971951E-02 
486	 2,82582450157103E-02 
487	 2,46986545551718E-02 
488	 2,19897070731066E-02 
489	 0,024184536311992 
490	 2,64699001957809E-02 
491	 2,80162373000778E-02 
492	 0,029283314403193 
493	 2,87853603249093E-02 
494	 2,67122046470135E-02 
495	 2,68915921463205E-02 
496	 2,77491267273833E-02 
497	 2,71964681237197E-02 
498	 2,63796879409551E-02 
499	 2,57167416631601E-02 
500	 2,56740186813255E-02 
501	 2,57038624394468E-02 
502	 2,56364609597717E-02 
503	 2,68269104723283E-02 
504	 2,83462583819747E-02 
505	 2,83839111408412E-02 
506	 2,79766878811268E-02 
507	 2,75711032303349E-02 
508	 2,75214423557141E-02 
509	 0,028069532324516 
510	 2,92972516260977E-02 
511	 2,91293599120186E-02 
512	 0,02840576351103 
513	 3,05518120731631E-02 
514	 3,16946442034542E-02 
515	 3,06975199707991E-02 
516	 3,18801398581784E-02 
517	 3,35825265419641E-02 
518	 3,29488731188068E-02 
519	 3,24585621920781E-02 
520	 0,032600900492232 
521	 0,032850370232707 
522	 3,23690494551031E-02 
523	 3,07915799329568E-02 
524	 0,030974982161005 
525	 3,23174417830351E-02 
526	 3,25891049880763E-02 
527	 3,20188872301525E-02 
528	 3,09932310661215E-02 
529	 0,031596590404488 
530	 3,21122160378686E-02 
531	 0,030463010526296 
532	 3,04093162422746E-02 
533	 3,20911410553409E-02 
534	 3,34303882419803E-02 
535	 3,34230534893851E-02 
536	 3,17963721926976E-02 
537	 3,17802422311361E-02 
538	 3,29753565192795E-02 
539	 3,38647590629237E-02 
540	 3,41420657215635E-02 
541	 3,38250426558397E-02 
542	 3,38489106666944E-02 
543	 3,39624993667447E-02 
544	 3,38805127185642E-02 
545	 3,38852000959669E-02 
546	 3,38766347980775E-02 
547	 3,33278126940974E-02 
548	 3,31794987657367E-02 
549	 3,38553662698036E-02 
550	 3,47188344388973E-02 
551	 3,55651929782084E-02 
552	 3,62829305762817E-02 
553	 3,57320890630856E-02 
554	 3,42926139636171E-02 
555	 3,48136962948765E-02 
556	 3,55260276504172E-02 
557	 3,49909386542018E-02 
558	 3,51459733444865E-02 
559	 3,56235342295879E-02 
560	 3,44802629123367E-02 
561	 3,42145378249715E-02 
562	 3,54397796971417E-02 
563	 3,52648612765216E-02 
564	 3,45179507910324E-02 
565	 3,46180179726345E-02 
566	 0,035352161310014 
567	 3,62468828812016E-02 
568	 3,57540976480026E-02 
569	 3,54058563403903E-02 
570	 3,61911118070823E-02 
571	 3,65394391872598E-02 
572	 3,66149906263124E-02 
573	 3,73614817049978E-02 
574	 0,037778071715584 
575	 0,037749055625298 
576	 3,85931143270546E-02 
577	 0,039615455787224 
578	 3,99592036141915E-02 
579	 4,08609789508068E-02 
580	 4,18822129431659E-02 
581	 4,06632363204556E-02 
582	 4,00199000777017E-02 
583	 4,13848139842732E-02 
584	 4,22105362111038E-02 
585	 4,25387425598545E-02 
586	 4,30649596126797E-02 
587	 4,34346354814794E-02 
588	 4,36669864321231E-02 
589	 4,42692969431643E-02 
590	 0,044758103089704 
591	 4,46968722668857E-02 
592	 4,48286566823857E-02 
593	 4,51131118201034E-02 
594	 4,50171475742117E-02 
595	 0,044833779140439 
596	 4,47872935849443E-02 
597	 4,54293477771729E-02 
598	 4,60770822247154E-02 
599	 4,56509152841214E-02 
600	 4,51197784083024E-02 
601	 4,48282686977614E-02 
602	 4,48864727945085E-02 
603	 4,51418494419667E-02 
604	 4,54131204041298E-02 
605	 4,51620987415813E-02 
606	 0,044602718125737 
607	 4,45176131905161E-02 
608	 4,42317506639237E-02 
609	 0,043635388625903 
610	 4,35367890127117E-02 
611	 0,043635104353702 
612	 4,34790739128449E-02 
613	 0,043219954093224 
614	 0,043030903360848 
615	 4,34045698420366E-02 
616	 4,36982032724279E-02 
617	 4,35037225964629E-02 
618	 4,31379890551472E-02 
619	 4,28858512740326E-02 
620	 4,32116495270471E-02 
621	 4,35665098950918E-02 
622	 4,35848698029763E-02 
623	 4,24358029898469E-02 
624	 4,16862101591663E-02 
625	 4,28953363449878E-02 
626	 4,31528751250465E-02 
627	 4,24966891433712E-02 
628	 4,29288587421027E-02 
629	 4,35627134032602E-02 
630	 4,39724040697685E-02 
631	 4,45063513486848E-02 
632	 4,48502127426748E-02 
633	 4,44380406247465E-02 
634	 4,42246011643195E-02 
635	 4,45197302339457E-02 
636	 4,52863734224338E-02 
637	 4,58417474467281E-02 
638	 4,57190383425841E-02 
639	 4,68611484618692E-02 
640	 4,84595530209847E-02 
641	 0,047526577207834 
642	 4,68600251922148E-02 
643	 4,74334542975468E-02 
644	 4,77010207555423E-02 
645	 4,77864877156939E-02 
646	 4,80240643523936E-02 
647	 4,84478303538267E-02 
648	 4,88199182384522E-02 
649	 4,82531422812644E-02 
650	 4,78647585544434E-02 
651	 4,82866878196657E-02 
652	 4,79931588319721E-02 
653	 4,70753308712318E-02 
654	 4,61254516758732E-02 
655	 4,55454393392769E-02 
656	 4,54314502858425E-02 
657	 4,53247221751426E-02 
658	 4,50405009456393E-02 
659	 4,44303485546284E-02 
660	 4,37769799085877E-02 
661	 4,30394411228623E-02 
662	 4,17858937999292E-02 
663	 4,09853496336825E-02 
664	 4,10158308553749E-02 
665	 4,07341586160825E-02 
666	 4,00878024375977E-02 
667	 3,91826476538584E-02 
668	 3,89924225954456E-02 
669	 3,95491291915255E-02 
670	 0,039781995333079 
671	 3,97256014564331E-02 
672	 3,94552579985137E-02 
673	 3,92900345874855E-02 
674	 3,92744599625646E-02 
675	 3,94062898407414E-02 
676	 3,92178138606718E-02 
677	 3,86901033294958E-02 
678	 0,038743408751757 
679	 3,92310217410636E-02 
680	 3,98726945662358E-02 
681	 3,99176862572147E-02 
682	 3,96131287400965E-02 
683	 4,03894121454809E-02 
684	 4,12380023364803E-02 
685	 4,15583204664239E-02 
686	 4,15586245608658E-02 
687	 4,18342049219265E-02 
688	 0,043384299104191 
689	 4,48902530214181E-02 
690	 4,60354468285517E-02 
691	 4,73526172400911E-02 
692	 4,90388373277882E-02 
693	 5,12389496368014E-02 
694	 5,36151820875744E-02 
695	 0,056246886007332 
696	 5,94733353444844E-02 
697	 6,31711582129393E-02 
698	 6,72220323464852E-02 
699	 7,12747218812521E-02 
700	 7,53921831388821E-02 
701	 7,97067582093932E-02 
702	 0,084443818312754 
703	 8,94785434289928E-02 
704	 9,43540025910224E-02 
705	 0,098875175775064 
706	 0,102985568810279 
707	 0,107474863364565 
708	 0,1119829869893 
709	 0,11563299966577 
710	 0,119202541098583 
711	 0,122930941559904 
712	 0,126811056050538 
713	 0,130280553604302 
714	 0,132862651743884 
715	 0,135472870435701 
716	 0,138126423273217 
717	 0,140321102705838 
718	 0,142594254679541 
719	 0,145011836700512 
720	 0,146544773403362 
721	 0,147895628024409 
722	 0,150056880208501 
723	 0,151703449551951 
724	 0,152759347451806 
725	 0,154047869162537 
726	 0,155401768771502 
727	 0,156676630754634 
728	 0,157522337790141 
729	 0,158088099867861 
730	 0,158707560990782 
731	 0,159448071522275 
732	 0,160319245845055 
733	 0,161211754718366 
734	 0,161963265214859 
735	 0,162436011616781 
736	 0,162664218956887 
737	 0,162869791229164 
738	 0,163584496901186 
739	 0,164158698600014 
740	 0,164389487371537 
741	 0,1646687575726 
742	 0,16496874559399 
743	 0,165224840611872 
744	 0,165626463645196 
745	 0,166084222348609 
746	 0,166195177510462 
747	 0,166309766026021 
748	 0,166588089120069 
749	 0,166728580854407 
750	 0,16678927076661 
751	 0,16691075425499 
752	 0,167010124976234 
753	 0,167105095221014 
754	 0,167342206478305 
755	 0,167536377563181 
756	 0,167575615228882 
757	 0,167764301831103 
758	 0,168057107991066 
759	 0,168271113726229 
760	 0,168413248167049 
761	 0,168531384541723 
762	 0,168868211895474 
763	 0,169196082510889 
764	 0,169289531221846 
765	 0,16915847567109 
766	 0,169032379955069 
767	 0,16950711966546 
768	 0,169887206709354 
769	 0,169917620471615 
770	 0,169920159092678 
771	 0,169923767961242 
772	 0,169935188122574 
773	 0,17011902163805 
774	 0,170462395186515 
775	 0,170830087759456 
776	 0,171112147251861 
777	 0,171217708109657 
778	 0,17100906751345 
779	 0,170810860700787 
780	 0,171102798445873 
781	 0,171366282460203 
782	 0,171475113723277 
783	 0,171544293261091 
784	 0,171504826647299 
785	 0,171375602386468 
786	 0,171705037339005 
787	 0,172157958324265 
788	 0,172007676158101 
789	 0,17182544987804 
790	 0,171804943412429 
791	 0,171988662964917 
792	 0,172133632872037 
793	 0,172064469837208 
794	 0,17209117434083 
795	 0,172275725182509 
796	 0,172694871321187 
797	 0,172638332635483 
798	 0,172106553869354 
799	 0,172387781702243 
800	 0,172760091691617 
801	 0,172525077856551 
802	 0,172497341934887 
803	 0,172695203576378 
804	 0,172744006905963 
805	 0,17301753288052 
806	 0,173490828786313 
807	 0,173307758820694 
808	 0,173058056321504 
809	 0,17339592794337 
810	 0,173219695404804 
811	 0,172834825484921 
812	 0,173817144458393 
813	 0,174310817584287 
814	 0,173705010540696 
815	 0,173460504377367 
816	 0,173652756198774 
817	 0,174200408254986 
818	 0,174832841771679 
819	 0,17529804195011 
820	 0,175165856918314 
821	 0,174840358588287 
822	 0,174639548374934 
823	 0,175155513752402 
824	 0,17570551684838 
825	 0,175360132573989 
826	 0,175253653263696 
827	 0,175531363185505 
828	 0,175771031566334 
829	 0,175822232271905 
830	 0,175678856099028 
831	 0,175969421609855 
832	 0,176371062262902 
833	 0,176358835572441 
834	 0,17635684962303 
835	 0,17642665828598 
836	 0,176392902370567 
837	 0,176486387133283 
838	 0,176779882294897 
839	 0,176858231826553 
840	 0,176814622430767 
841	 0,176849325895896 
842	 0,176767450474924 
843	 0,176622478878622 
844	 0,176730027859036 
845	 0,176846596489552 
846	 0,176848409917981 
847	 0,17687973175118 
848	 0,176951824080345 
849	 0,177058456335 
850	 0,177104933053223 
851	 0,177059449659818 
852	 0,176930603278218 
853	 0,176672355511584 
854	 0,176378131967355 
855	 0,176805292767655 
856	 0,17740595940074 
857	 0,177335199244176 
858	 0,17680707216168 
859	 0,176331839928838 
860	 0,177453787537473 
861	 0,177975613584923 
862	 0,177063690198485 
863	 0,177478121446759 
864	 0,178213540438641 
865	 0,177628450093533 
866	 0,177759675494994 
867	 0,178501055506273 
868	 0,178004132185501 
869	 0,177699662281398 
870	 0,178222325887451 
871	 0,179057675198294 
872	 0,179474383709003 
873	 0,178714621468893 
874	 0,178148918033268 
875	 0,178179627978278 
876	 0,17903889162682 
877	 0,179436354008107 
878	 0,178952919733763 
879	 0,178837742421719 
880	 0,178902898185052 
881	 0,178840239467854 
882	 0,178714537091961 
883	 0,178580620809388 
884	 0,178506572482863 
885	 0,178746899393263 
886	 0,179292624242655 
887	 0,179628573196157 
888	 0,179681309191093 
889	 0,179453061313629 
890	 0,179450299861166 
891	 0,179563834488893 
892	 0,17929916143206 
893	 0,179292856441539 
894	 0,179578041054863 
895	 0,179364637021946 
896	 0,178985310820901 
897	 0,178759440312784 
898	 0,178831890909768 
899	 0,179273770043412 
900	 0,18019539586748 
901	 0,180242404155371 
902	 0,179517430529329 
903	 0,180023855014911 
904	 0,180599884967831 
905	 0,180494571370052 
906	 0,179935248434066 
907	 0,179494324791175 
908	 0,179918489588813 
909	 0,180185022970538 
910	 0,180191028363625 
911	 0,180558266909682 
912	 0,180514184197575 
913	 0,179847092850726 
914	 0,179515038260516 
915	 0,179742627176707 
916	 0,180620937765904 
917	 0,181369965175837 
918	 0,181582869764801 
919	 0,180732773114445 
920	 0,179838116713907 
921	 0,179498808702292 
922	 0,180391025981636 
923	 0,181377666327762 
924	 0,181441833906708 
925	 0,180763080340449 
926	 0,179884095071021 
927	 0,179707743187968 
928	 0,179704204224104 
929	 0,179768449606908 
930	 0,179984269571595 
931	 0,180634342529304 
932	 0,181578485391218 
933	 0,180783635595625 
934	 0,179508186699249 
935	 0,179636224663252 
936	 0,180689158012486 
937	 0,181679470217159 
938	 0,180121075130695 
939	 0,178697910808165 
940	 0,178417853510232 
941	 0,178464396911902 
942	 0,178738651044151 
943	 0,179006583439002 
944	 0,177421191445356 
945	 0,175436240796682 
946	 0,176255163354745 
947	 0,177005177936881 
948	 0,177010995644769 
949	 0,177111510224227 
950	 0,176917064515938 
951	 0,176296299446909 
952	 0,175756216985273 
953	 0,175689299601616 
954	 0,176389368328773 
955	 0,175527778115455 
956	 0,173736531868235 
957	 0,173902025203447 
958	 0,174270358506336 
959	 0,174336220938651 
960	 0,17468340699034 
961	 0,174532025881818 
962	 0,173523689205175 
963	 0,174071557813575 
964	 0,174636037842664 
965	 0,172422138202427 
966	 0,172172201722854 
967	 0,173763812633853 
968	 0,172978479169886 
969	 0,172023674213105 
970	 0,17177617464094 
971	 0,171675052272669 
972	 0,172066346250613 
973	 0,173139124315774 
974	 0,173258746014781 
975	 0,173195383133472 
976	 0,174908470255798 
977	 0,174187649845996 
978	 0,171070568282618 
979	 0,169402506296673 
980	 0,170403225451863 
981	 0,173974280444016 
982	 0,175469505631741 
983	 0,175722762762694 
984	 0,175953732255932 
985	 0,174810272115061 
986	 0,17351012015962 
987	 0,174675380402714 
988	 0,176294802062954 
989	 0,177311965004245 
990	 0,176372551842627 
991	 0,175086011597175 
992	 0,174703689067702 
993	 0,176890817220514 
994	 0,178321799590335 
995	 0,175870535774155 
996	 0,176051066902583 
997	 0,177956198544708 
998	 0,177498291080441 
999	 0,176619042871423 
1000	 0,176391918202592 
1001	 0,178621083770338 
1002	 0,181090134352408 
1003	 0,182375904719865 
1004	 0,182023673827801 
1005	 0,180757982931674 
1006	 0,179539148965451 
1007	 0,180274968806051 
1008	 0,181589668270891 
1009	 0,180398852060699 
1010	 0,182079552287181 
1011	 0,185433838564224 
1012	 0,181337081615832 
1013	 0,180131593729921 
1014	 0,184499520647571 
1015	 0,183456166736137 
1016	 0,179061900875662 
1017	 0,174591290551871 
1018	 0,177731560321395 
1019	 0,183225687973556 
1020	 0,181711095536167 
1021	 0,181699105083314 
1022	 0,184755241980964 
1023	 0,19030396319892 
1024	 0,191400773561643 
1025	 0,186469283388589 
1026	 0,180905719537874 
1027	 0,17834897990369 
1028	 0,180334166749657 
1029	 0,179561569480583 
1030	 0,181294150337123 
1031	 0,191345701611621 
1032	 0,190908084107324 
1033	 0,183346237061811 
1034	 0,182992019089671 
1035	 0,183684236685606 
1036	 0,184869076592223 
1037	 0,190798346075638 
1038	 0,190442694272849 
1039	 0,18160982307304 
1040	 0,181285474269067 
1041	 0,18420567649897 
1042	 0,185539496408142 
1043	 0,189549173352094 
1044	 0,193387584199717 
1045	 0,193041245196812 
1046	 0,197391813313349 
1047	 0,201910690368441 
1048	 0,191321750187386 
1049	 0,190170511953954 
1050	 0,199150234026034 
1051	 0,189349347260348 
1052	 0,184601964981078 
1053	 0,193235609472977 
1054	 0,189975648458198 
1055	 0,187284030020599 
1056	 0,195382629621303 
1057	 0,194633248855818 
1058	 0,188723023473124 
1059	 0,186752364225133 
1060	 0,189713849238554 
1061	 0,191819987106206 
1062	 0,178541120864848 
1063	 0,181266989357148 
1064	 0,199159892415295 
1065	 0,190888207854492 
1066	 0,189372321724517 
1067	 0,203451451480238 
1068	 0,201777652627573 
1069	 0,189679382110536 
1070	 0,175813704708405 
1071	 0,174341891841984 
1072	 0,181657546886124 
1073	 0,190944155440832 
1074	 0,204558783417904 
1075	 0,207296725467669 
