Wavelength	ABBE00392.asd
325	 0,230812044695571 
326	 0,198630937473913 
327	 0,163758952765021 
328	 9,03383167379265E-02 
329	-4,42881827060326E-02 
330	-6,40431206077704E-02 
331	 0,144948969502076 
332	 0,231294877899829 
333	 0,191598042549417 
334	 0,144957710111018 
335	 9,60241920483841E-02 
336	 7,17544332753699E-02 
337	 0,180716716481787 
338	 0,231918428234815 
339	 6,12497433592471E-02 
340	 2,85702544898411E-02 
341	 0,119229131340348 
342	 9,45484830066283E-02 
343	 0,110984499159897 
344	 0,177681787544301 
345	 0,133957689728497 
346	 8,75293264444461E-02 
347	 0,141522532159979 
348	 0,123885350631819 
349	 5,57002548554683E-02 
350	 5,63890614793221E-02 
351	 8,94182872378695E-02 
352	 0,131976505360594 
353	 0,141395731526926 
354	 0,117668383927222 
355	 7,14541899593519E-02 
356	 6,13858061843003E-02 
357	 8,49847484963427E-02 
358	 0,112327826792236 
359	 0,106585895303923 
360	 6,21649253018386E-02 
361	 7,36775780451212E-02 
362	 0,110389148747031 
363	 0,116204309428408 
364	 9,95790503724128E-02 
365	 0,074306227266669 
366	 8,62177599223393E-02 
367	 9,20288443407774E-02 
368	 7,12909055311504E-02 
369	 8,44180953077668E-02 
370	 0,105628248600651 
371	 7,15201632690591E-02 
372	 7,11572347813658E-02 
373	 0,11014745659192 
374	 0,101837611883788 
375	 8,46231020460829E-02 
376	 8,96011265742781E-02 
377	 9,81659780022802E-02 
378	 0,104433348189762 
379	 0,101913183171903 
380	 0,093779305384009 
381	 8,47813344137738E-02 
382	 9,37128246654296E-02 
383	 0,106478906057714 
384	 0,109510113792017 
385	 8,93832960493954E-02 
386	 6,31806975828215E-02 
387	 7,89469683335991E-02 
388	 0,101739445921046 
389	 0,113112547582622 
390	 9,65520599456988E-02 
391	 7,66247584090063E-02 
392	 0,083424719782338 
393	 7,50553990214931E-02 
394	 5,74623163221763E-02 
395	 7,27951647870123E-02 
396	 9,43999928517704E-02 
397	 0,105437294130025 
398	 9,87720809995691E-02 
399	 8,69449608828341E-02 
400	 8,90441535630684E-02 
401	 9,15999406962342E-02 
402	 9,10204351785034E-02 
403	 0,08750205329211 
404	 8,31348421534955E-02 
405	 7,94041104316691E-02 
406	 7,74626644806511E-02 
407	 7,58447311296613E-02 
408	 7,00083876064928E-02 
409	 7,34216863928784E-02 
410	 8,53135013067992E-02 
411	 8,28414592250937E-02 
412	 7,70901086081705E-02 
413	 0,078876161970259 
414	 7,59723076143606E-02 
415	 7,13185339697853E-02 
416	 7,76908783543606E-02 
417	 8,49909930260561E-02 
418	 8,78059512069245E-02 
419	 0,080962361770227 
420	 7,18750862038819E-02 
421	 0,07026596928847 
422	 7,20724480722557E-02 
423	 7,54868987331433E-02 
424	 0,07855322952342 
425	 7,96546140989743E-02 
426	 7,78688690647212E-02 
427	 7,43143683202405E-02 
428	 7,19781445569324E-02 
429	 7,59741176926748E-02 
430	 7,84936286995483E-02 
431	 7,77485696094629E-02 
432	 7,71614207866029E-02 
433	 7,76324556202305E-02 
434	 7,95376927561255E-02 
435	 0,077358920602849 
436	 7,35692671672528E-02 
437	 7,73973337145716E-02 
438	 0,07832413287587 
439	 7,40256448323683E-02 
440	 7,75729798082962E-02 
441	 8,28529534848523E-02 
442	 8,09100207011788E-02 
443	 8,07098013555716E-02 
444	 8,28562219084348E-02 
445	 8,19569739293074E-02 
446	 8,09903035315507E-02 
447	 8,15328512561198E-02 
448	 8,02998951088899E-02 
449	 7,89924886585904E-02 
450	 8,17338123939725E-02 
451	 8,17552515478414E-02 
452	 7,86792216216829E-02 
453	 8,12404699932064E-02 
454	 0,084182855572693 
455	 8,26194431964492E-02 
456	 8,25613920982274E-02 
457	 8,36443329068083E-02 
458	 8,15404873265339E-02 
459	 8,08599055993032E-02 
460	 8,28227028144347E-02 
461	 8,16570460578078E-02 
462	 8,03295090102094E-02 
463	 8,34369769031347E-02 
464	 8,55360330655451E-02 
465	 8,51418112329648E-02 
466	 8,18366553425712E-02 
467	 8,05490577613703E-02 
468	 8,39194140905093E-02 
469	 8,41066335629822E-02 
470	 8,22466454037024E-02 
471	 8,29809489438274E-02 
472	 8,35754039916515E-02 
473	 8,32941410151919E-02 
474	 8,26470456285243E-02 
475	 8,19792424095953E-02 
476	 8,17055962075198E-02 
477	 8,44588963344131E-02 
478	 8,82136969684527E-02 
479	 8,59329310235113E-02 
480	 8,52256825945745E-02 
481	 8,84526218540866E-02 
482	 8,54474247142219E-02 
483	 8,06962685030279E-02 
484	 0,082315204391359 
485	 8,41209212560128E-02 
486	 8,43840261099715E-02 
487	 0,083386189728778 
488	 8,11788890778265E-02 
489	 7,82450739481042E-02 
490	 0,079034160759089 
491	 8,18921376593647E-02 
492	 8,14188245969149E-02 
493	 0,081549904409481 
494	 8,29182466653069E-02 
495	 8,17599567046247E-02 
496	 8,00999856814961E-02 
497	 8,04638901076885E-02 
498	 8,05926609783141E-02 
499	 8,00012172329543E-02 
500	 7,87044330955842E-02 
501	 7,77834953674519E-02 
502	 7,79587135655889E-02 
503	 7,93939713890337E-02 
504	 8,13274666212813E-02 
505	 8,26144835880982E-02 
506	 8,26444247044066E-02 
507	 8,16999794636645E-02 
508	 8,17705481315809E-02 
509	 8,26433966897465E-02 
510	 0,083970179093242 
511	 8,47299876747909E-02 
512	 0,085178689421757 
513	 8,67016318337507E-02 
514	 8,75319578215506E-02 
515	 8,72754162030452E-02 
516	 8,84912550483374E-02 
517	 9,05136603154034E-02 
518	 9,21840456250717E-02 
519	 9,12999478312004E-02 
520	 8,85532989307632E-02 
521	 8,85586183712603E-02 
522	 8,90455585586768E-02 
523	 0,088388320429908 
524	 8,80257806709305E-02 
525	 8,82251051919012E-02 
526	 8,92461908128753E-02 
527	 8,97258542026603E-02 
528	 8,91997660451275E-02 
529	 8,82243453819062E-02 
530	 8,73949588869629E-02 
531	 8,73096301506525E-02 
532	 8,67173937289198E-02 
533	 8,60365136861629E-02 
534	 8,75786476221547E-02 
535	 0,088857174001036 
536	 8,83971278208876E-02 
537	 8,70933831284718E-02 
538	 0,086056760368732 
539	 8,70554319197173E-02 
540	 8,80975526915012E-02 
541	 8,84552404117327E-02 
542	 8,80601215753734E-02 
543	 8,76374660649665E-02 
544	 8,78966395747534E-02 
545	 8,88223032643655E-02 
546	 8,97071794374483E-02 
547	 0,088475975832646 
548	 8,80995595906342E-02 
549	 8,96858746808691E-02 
550	 8,98218832983488E-02 
551	 8,93872181336839E-02 
552	 9,04195650038101E-02 
553	 8,99734624662624E-02 
554	 8,80961384648988E-02 
555	 8,83784540003195E-02 
556	 8,90842079587307E-02 
557	 0,088718024510186 
558	 8,81859279905129E-02 
559	 8,77154898861106E-02 
560	 8,74061509439543E-02 
561	 8,76022787144517E-02 
562	 0,088171577022235 
563	 8,75016627953084E-02 
564	 8,63003977620573E-02 
565	 8,56726131881132E-02 
566	 8,61123963667224E-02 
567	 8,71849045041761E-02 
568	 8,67630996198262E-02 
569	 8,66429096668685E-02 
570	 8,79166148665648E-02 
571	 8,81667297119759E-02 
572	 8,78814897656607E-02 
573	 8,89124804111951E-02 
574	 9,01458831560763E-02 
575	 9,13288547601264E-02 
576	 9,31873543091299E-02 
577	 9,50668005194544E-02 
578	 9,62142775537531E-02 
579	 9,75708843500768E-02 
580	 9,90859927432072E-02 
581	 9,99518408082547E-02 
582	 0,100583999117165 
583	 0,101263827747163 
584	 0,102153641603355 
585	 0,103234403194869 
586	 0,104457513865438 
587	 0,105208471874908 
588	 0,105502154082168 
589	 0,106264945696625 
590	 0,107414032101913 
591	 0,108778123047966 
592	 0,109503656179878 
593	 0,10965539459388 
594	 0,109951242723924 
595	 0,11004529491443 
596	 0,1098900568285 
597	 0,110109918481304 
598	 0,110500164569725 
599	 0,11069409185081 
600	 0,110006401292312 
601	 0,108708812187234 
602	 0,108540025655889 
603	 0,108847653503783 
604	 0,10902895651445 
605	 0,108752026972869 
606	 0,108041972590408 
607	 0,107084285626121 
608	 0,106345704413797 
609	 0,106001311966823 
610	 0,10579323595471 
611	 0,105173461133342 
612	 0,103526834229357 
613	 0,102203272848447 
614	 0,101560075966332 
615	 0,101440375422427 
616	 0,101613093325926 
617	 0,101809788044885 
618	 0,101281140242447 
619	 0,10041658583885 
620	 0,100163045133445 
621	 0,100225884830783 
622	 0,100408200752472 
623	 0,100166617230863 
624	 9,98729356493717E-02 
625	 9,99418661234224E-02 
626	 0,100121452953808 
627	 0,100408288990164 
628	 0,100964215838759 
629	 0,101481466086746 
630	 0,101816411758083 
631	 0,102249504121505 
632	 0,102744332907974 
633	 0,103191460433458 
634	 0,103530933429196 
635	 0,103919690457046 
636	 0,105051994124357 
637	 0,106221036472438 
638	 0,106860798191464 
639	 0,108025627549616 
640	 0,109335051236903 
641	 0,109279412794742 
642	 0,109649058452259 
643	 0,110965580810594 
644	 0,111626049925761 
645	 0,111933611293684 
646	 0,112477436208413 
647	 0,112555034001024 
648	 0,112232790534406 
649	 0,112415031525856 
650	 0,112203438810503 
651	 0,111031292957979 
652	 0,109580945876717 
653	 0,108103030516008 
654	 0,106857740064434 
655	 0,105528859216975 
656	 0,104082843908771 
657	 0,102968863229559 
658	 0,101536862354815 
659	 9,91558469146712E-02 
660	 9,76073865934285E-02 
661	 9,66912992929801E-02 
662	 9,46665428716046E-02 
663	 9,25257829968487E-02 
664	 9,07911132928395E-02 
665	 8,94095988761892E-02 
666	 8,81408616854298E-02 
667	 8,65541790601852E-02 
668	 8,61094842075889E-02 
669	 8,66462797383281E-02 
670	 8,59062132391829E-02 
671	 0,084827655869418 
672	 8,42544841922041E-02 
673	 8,44023791852105E-02 
674	 8,48734311880147E-02 
675	 8,46440241032337E-02 
676	 8,42754799469393E-02 
677	 8,39673433183644E-02 
678	 8,36051795385942E-02 
679	 8,35872660295645E-02 
680	 8,43642134618626E-02 
681	 8,49609345085954E-02 
682	 8,53662682261109E-02 
683	 8,63635641483599E-02 
684	 8,74342796071347E-02 
685	 8,83486641656007E-02 
686	 8,97046249277301E-02 
687	 9,17406797171517E-02 
688	 9,47327193729316E-02 
689	 0,097760426430001 
690	 0,100823811314049 
691	 0,105140060761135 
692	 0,110433777923922 
693	 0,116424842286329 
694	 0,123340640610388 
695	 0,131236318555826 
696	 0,140165727783751 
697	 0,149852573326767 
698	 0,16014482957811 
699	 0,170996260239664 
700	 0,182352376993081 
701	 0,194164134568765 
702	 0,206643691214037 
703	 0,219401523927408 
704	 0,231329306374999 
705	 0,242822112911598 
706	 0,254131940186476 
707	 0,265350159251929 
708	 0,276057621545647 
709	 0,285449931593222 
710	 0,294847982725754 
711	 0,304441955148258 
712	 0,313209642713176 
713	 0,321046155346773 
714	 0,327935512999671 
715	 0,334635289941953 
716	 0,341102849109241 
717	 0,34676440853027 
718	 0,352104989204603 
719	 0,357278486449883 
720	 0,361968306922435 
721	 0,366273581060489 
722	 0,370331687611518 
723	 0,373975334750154 
724	 0,377216585664383 
725	 0,380119120020734 
726	 0,382856677311524 
727	 0,385515190329767 
728	 0,387742468799196 
729	 0,389643190543376 
730	 0,391457608559429 
731	 0,393403906669907 
732	 0,395374923321539 
733	 0,396547274698835 
734	 0,397599708557334 
735	 0,399115040561579 
736	 0,40040173833863 
737	 0,401473529372512 
738	 0,402670004106546 
739	 0,403782114756006 
740	 0,404762758632211 
741	 0,405825716387656 
742	 0,4066763576718 
743	 0,406977904098976 
744	 0,407414124981406 
745	 0,408136352334694 
746	 0,409089445029618 
747	 0,40987207901416 
748	 0,41025756476233 
749	 0,410416597639479 
750	 0,410571606199813 
751	 0,411017178157482 
752	 0,411442086977186 
753	 0,411779428092976 
754	 0,412120142826863 
755	 0,412492903515402 
756	 0,412908781459933 
757	 0,413261129486307 
758	 0,413576563411911 
759	 0,413941233580459 
760	 0,414284924539776 
761	 0,414651329162126 
762	 0,41536577194989 
763	 0,415971103881497 
764	 0,416044094352663 
765	 0,415960197218278 
766	 0,415976232604006 
767	 0,416524247936732 
768	 0,417148987668373 
769	 0,417624986710032 
770	 0,417879816782824 
771	 0,418016542968234 
772	 0,418171505406157 
773	 0,418402125639804 
774	 0,418715387206003 
775	 0,41910678360748 
776	 0,419298859000177 
777	 0,419216767494931 
778	 0,419430740124229 
779	 0,419856416648112 
780	 0,42027608670785 
781	 0,420494125177099 
782	 0,420466956149065 
783	 0,420236377067626 
784	 0,420266249745531 
785	 0,420795919410979 
786	 0,421052240340274 
787	 0,421075386388126 
788	 0,421140530275038 
789	 0,42131698217353 
790	 0,421568218813642 
791	 0,421614682060422 
792	 0,421573889162023 
793	 0,421562523845163 
794	 0,421713797290679 
795	 0,421901920501284 
796	 0,421774165267768 
797	 0,421921702794908 
798	 0,422376718418238 
799	 0,42228509795089 
800	 0,422104374200394 
801	 0,422287678136304 
802	 0,42240430818203 
803	 0,422528260206793 
804	 0,423066844712273 
805	 0,423508140629899 
806	 0,423711060739662 
807	 0,424074657740988 
808	 0,424480134053521 
809	 0,424757166253426 
810	 0,424567028763213 
811	 0,424204012039495 
812	 0,424646894704833 
813	 0,425199157690351 
814	 0,425561435233557 
815	 0,425828099564101 
816	 0,42613643089075 
817	 0,42664035257471 
818	 0,427190838100936 
819	 0,427668604479463 
820	 0,427879284387716 
821	 0,427891684637064 
822	 0,427839356136735 
823	 0,428281010730806 
824	 0,428864338918478 
825	 0,429069726072008 
826	 0,429146859235971 
827	 0,429243994778655 
828	 0,429675088827863 
829	 0,429889718159571 
830	 0,42977309779875 
831	 0,430626370910869 
832	 0,431734296659809 
833	 0,431956941932877 
834	 0,431961966896557 
835	 0,431963489918995 
836	 0,432106405195844 
837	 0,432272316115637 
838	 0,432380543287828 
839	 0,432324211377383 
840	 0,432334563903607 
841	 0,432741684105355 
842	 0,433094303809936 
843	 0,433336010328797 
844	 0,4337542688304 
845	 0,433935167622689 
846	 0,433697922790345 
847	 0,433476734636596 
848	 0,433396079720106 
849	 0,433542964222937 
850	 0,433718184046102 
851	 0,433763214652992 
852	 0,433317962964846 
853	 0,433147497732707 
854	 0,433610915111963 
855	 0,434037149534795 
856	 0,434261875992873 
857	 0,434183165903813 
858	 0,434002707217863 
859	 0,433983966396095 
860	 0,434760519874056 
861	 0,435409391072723 
862	 0,435530965208501 
863	 0,436090290719099 
864	 0,436468309494481 
865	 0,435781586940746 
866	 0,436175987479191 
867	 0,437444579529233 
868	 0,437291129461327 
869	 0,437326406219855 
870	 0,438166723863903 
871	 0,438635491679524 
872	 0,438948458929744 
873	 0,439479531807194 
874	 0,439777358024794 
875	 0,439865557510125 
876	 0,440029335117391 
877	 0,440539346857064 
878	 0,441316524310912 
879	 0,441182627344843 
880	 0,440867961226884 
881	 0,441229432576718 
882	 0,441467378958353 
883	 0,441525124577017 
884	 0,44157738578633 
885	 0,442201789573004 
886	 0,443283673769284 
887	 0,443170980690741 
888	 0,442432105413354 
889	 0,441807049234099 
890	 0,442510223092982 
891	 0,443770516146102 
892	 0,443370515200386 
893	 0,443245872595873 
894	 0,443729245039117 
895	 0,443394720189212 
896	 0,443044272639235 
897	 0,443315040480504 
898	 0,44366075868488 
899	 0,444020551651509 
900	 0,444428863778813 
901	 0,445023027532576 
902	 0,44561639534207 
903	 0,445412066983758 
904	 0,445143178689205 
905	 0,445324790049601 
906	 0,446048711452707 
907	 0,446676897744249 
908	 0,446317759779557 
909	 0,446558124551388 
910	 0,447250422875274 
911	 0,44660174953971 
912	 0,446177189554396 
913	 0,446578935809094 
914	 0,446590493706209 
915	 0,446512679830737 
916	 0,446783599221049 
917	 0,447303564330197 
918	 0,447725391745568 
919	 0,447261095039907 
920	 0,44662233753034 
921	 0,446242874772709 
922	 0,44673878187245 
923	 0,447416527577075 
924	 0,447611733528201 
925	 0,447075321227301 
926	 0,446380345834999 
927	 0,446656527743295 
928	 0,446298152189839 
929	 0,445169234608592 
930	 0,444311785368203 
931	 0,444572404580909 
932	 0,44604006014462 
933	 0,4457153409048 
934	 0,444567522678009 
935	 0,444296248293253 
936	 0,444717548252425 
937	 0,445254305403877 
938	 0,444256366099482 
939	 0,44379100746499 
940	 0,44420895900836 
941	 0,442957508986231 
942	 0,441546391987593 
943	 0,441295777647296 
944	 0,440149786848163 
945	 0,438546261926332 
946	 0,437863827460916 
947	 0,437703918103221 
948	 0,437709590197144 
949	 0,437063868000192 
950	 0,436036267283697 
951	 0,434889561672722 
952	 0,434182209129849 
953	 0,433611631301688 
954	 0,432739262899377 
955	 0,431764957544819 
956	 0,430730979730497 
957	 0,429524095015297 
958	 0,429178090999132 
959	 0,429572841909664 
960	 0,428198082240647 
961	 0,427651862140134 
962	 0,429476823744252 
963	 0,428836741220721 
964	 0,426663987793939 
965	 0,425423058156576 
966	 0,425849610224645 
967	 0,427351312444316 
968	 0,427378148741549 
969	 0,427085237738651 
970	 0,426842306974713 
971	 0,426031410768391 
972	 0,425374665209461 
973	 0,425499772703213 
974	 0,425407619950541 
975	 0,425855492277173 
976	 0,428551608801426 
977	 0,428276681209522 
978	 0,425252043883168 
979	 0,425444371174373 
980	 0,426385097330755 
981	 0,427074854496347 
982	 0,429136085235349 
983	 0,430715484970697 
984	 0,430007085222604 
985	 0,429539121003633 
986	 0,429410579718941 
987	 0,428750217887901 
988	 0,430182033049357 
989	 0,433334081615737 
990	 0,434772953050089 
991	 0,43234157363161 
992	 0,427020505937446 
993	 0,431571391045664 
994	 0,437458856636119 
995	 0,435327197103352 
996	 0,435101202315247 
997	 0,437003665500748 
998	 0,438061316798543 
999	 0,438350856216488 
1000	 0,438252046565696 
1001	 0,439520928177645 
1002	 0,439725467388024 
1003	 0,438358041586003 
1004	 0,439897541344484 
1005	 0,442396616434784 
1006	 0,443626946051815 
1007	 0,444249600162986 
1008	 0,444800422693436 
1009	 0,446089254412358 
1010	 0,447440295624404 
1011	 0,448009244650343 
1012	 0,445102650273002 
1013	 0,446061796840676 
1014	 0,451837489048669 
1015	 0,449124251527005 
1016	 0,445719907452334 
1017	 0,448407901781448 
1018	 0,450415369333256 
1019	 0,451282358222355 
1020	 0,451796753890187 
1021	 0,453243088029381 
1022	 0,455395327105375 
1023	 0,456605879730098 
1024	 0,457769980763973 
1025	 0,458409215224216 
1026	 0,454921365792435 
1027	 0,452890533760894 
1028	 0,455577794280491 
1029	 0,458097104660829 
1030	 0,459893281966162 
1031	 0,460921532126899 
1032	 0,460990544986938 
1033	 0,461520222883827 
1034	 0,465386178769969 
1035	 0,467202955651034 
1036	 0,465825728588195 
1037	 0,463366749692516 
1038	 0,461363004572021 
1039	 0,460725461742513 
1040	 0,460565627001677 
1041	 0,463818424201116 
1042	 0,471185180976936 
1043	 0,468389937249651 
1044	 0,462259000794359 
1045	 0,464554292466861 
1046	 0,472225109267049 
1047	 0,47842195560421 
1048	 0,468798641074032 
1049	 0,467724114863876 
1050	 0,476258808518949 
1051	 0,467039427175398 
1052	 0,461639635744753 
1053	 0,468273670456501 
1054	 0,467797229195462 
1055	 0,46597858074954 
1056	 0,468144067928052 
1057	 0,467715015619659 
1058	 0,463975205136069 
1059	 0,45788943642511 
1060	 0,466070749988065 
1061	 0,480256597876895 
1062	 0,473402405284738 
1063	 0,469445631378799 
1064	 0,473075301815519 
1065	 0,474389047463665 
1066	 0,474041773464543 
1067	 0,473164201980751 
1068	 0,478062684192789 
1069	 0,475990272852199 
1070	 0,460316011731178 
1071	 0,456832566584385 
1072	 0,461386446523989 
1073	 0,465530688864673 
1074	 0,472711995929237 
1075	 0,47903478246912 
