Wavelength	ABBE00265.asd
325	 0,154387831306627 
326	-3,3391768928959E-03 
327	-7,13524240843691E-02 
328	-0,104198111853999 
329	-0,140250920291488 
330	-7,93115416447889E-02 
331	 0,129563869089075 
332	 0,114220224211265 
333	-2,00180369313562E-02 
334	 3,77579639164469E-02 
335	 7,99561599123198E-02 
336	 6,09118552339151E-02 
337	-1,03731647212309E-02 
338	-0,063640216304182 
339	-4,43234764787594E-02 
340	 0,018997405790162 
341	 6,92233242743103E-02 
342	 4,99750975175724E-02 
343	 4,17916292936822E-02 
344	 5,99483971966342E-02 
345	 0,060440297352599 
346	 7,12563389089314E-02 
347	 0,116911897071512 
348	 8,08952812561802E-02 
349	 5,87969962728905E-03 
350	 4,37586916886849E-02 
351	 8,04536894005121E-02 
352	 7,60989995630351E-02 
353	 7,03045034251206E-02 
354	 5,68476103308748E-02 
355	 0,028101798745146 
356	-3,4368336268203E-03 
357	-1,74977905093349E-02 
358	 4,82166545625859E-02 
359	 6,64258357749513E-02 
360	-3,45915578236104E-03 
361	 8,21719096994388E-04 
362	 3,53273243137326E-02 
363	 1,47690825996493E-02 
364	-5,23261451289876E-04 
365	-3,24633487686326E-04 
366	 6,31155316579192E-04 
367	 9,70610817044497E-03 
368	 2,62098843756682E-02 
369	 1,21895445816146E-02 
370	-1,22421944245494E-02 
371	-1,06490684688628E-03 
372	 1,35071925159389E-02 
373	 1,68406867735024E-02 
374	-1,39889692612694E-02 
375	-2,09316068057526E-02 
376	 3,23493677660466E-02 
377	 0,043125108461895 
378	 2,50395595587295E-02 
379	 0,042996314158461 
380	 3,54820971877629E-02 
381	-1,67219666138877E-03 
382	 1,35406520293822E-02 
383	 3,90453389173379E-02 
384	 3,39524418423759E-02 
385	 1,46545656215968E-02 
386	-5,52982451021867E-03 
387	-2,87696374785253E-03 
388	 9,36577690087563E-03 
389	 2,26132179708889E-02 
390	 2,44956175505394E-02 
391	 2,18688770779455E-02 
392	 2,38324675958779E-02 
393	 2,19086798001453E-02 
394	 0,016353076758847 
395	 1,05248921774011E-02 
396	 1,35769057521698E-02 
397	 2,68819651831889E-02 
398	 2,39713241873822E-02 
399	 1,58750831966937E-02 
400	 2,33765177487445E-02 
401	 2,39251691077022E-02 
402	 1,58545438032698E-02 
403	 1,52190113472644E-02 
404	 1,36761140896755E-02 
405	 6,44936021050129E-03 
406	 6,64148017778827E-03 
407	 1,16066921977304E-02 
408	 1,23480008698259E-02 
409	 1,34370569636453E-02 
410	 1,64226500963707E-02 
411	 2,31267610700202E-02 
412	 2,72756794206948E-02 
413	 2,36511883340862E-02 
414	 1,70648006702875E-02 
415	 0,012293780035157 
416	 1,87868138710139E-02 
417	 2,50779854624952E-02 
418	 2,58349380576972E-02 
419	 2,05624023071125E-02 
420	 1,37622121713474E-02 
421	 0,011012045226565 
422	 1,32394134765307E-02 
423	 1,73450719400991E-02 
424	 1,25944162729826E-02 
425	 9,57937099190742E-03 
426	 0,014094113403535 
427	 1,66656611916212E-02 
428	 1,64529180121079E-02 
429	 1,39283700371983E-02 
430	 1,36917454159834E-02 
431	 1,59894345590536E-02 
432	 1,47723895271394E-02 
433	 0,013937462158429 
434	 1,67934978209718E-02 
435	 0,017182981565203 
436	 1,57969753136321E-02 
437	 1,75352943278888E-02 
438	 1,81297672348955E-02 
439	 1,64591906296866E-02 
440	 1,66732947723309E-02 
441	 1,67870874651119E-02 
442	 1,38808386524833E-02 
443	 1,46766693546482E-02 
444	 1,86708466206675E-02 
445	 1,87853328461714E-02 
446	 1,75105840474919E-02 
447	 1,64471533355154E-02 
448	 1,53757367854144E-02 
449	 1,51658076167191E-02 
450	 1,75603455415628E-02 
451	 1,73801885083649E-02 
452	 1,46266526982932E-02 
453	 1,78324453348656E-02 
454	 2,02591265059767E-02 
455	 1,58697153264203E-02 
456	 1,41215025944042E-02 
457	 1,53266704578239E-02 
458	 1,48755004556199E-02 
459	 1,62558706169003E-02 
460	 1,96833283829873E-02 
461	 1,77709872884999E-02 
462	 0,0143129543011 
463	 0,015185241943882 
464	 1,75045327960062E-02 
465	 1,97538619416852E-02 
466	 1,91887073588744E-02 
467	 1,88580934375495E-02 
468	 2,03871918602005E-02 
469	 1,86304097442723E-02 
470	 1,60360442687572E-02 
471	 1,90984484332667E-02 
472	 2,02480244402871E-02 
473	 1,78873432204677E-02 
474	 1,67377537887223E-02 
475	 1,62496915242575E-02 
476	 1,57244035459246E-02 
477	 1,76674891615705E-02 
478	 0,020869931363673 
479	 2,11361325834593E-02 
480	 2,03926350135043E-02 
481	 1,94159818501346E-02 
482	 1,69134910304937E-02 
483	 1,51159388612002E-02 
484	 1,74245963306068E-02 
485	 1,89794867943413E-02 
486	 1,86388658524272E-02 
487	 1,77246819145636E-02 
488	 1,64384717657598E-02 
489	 1,50888402859366E-02 
490	 1,51045726729834E-02 
491	 1,59836375178913E-02 
492	 1,60892973851025E-02 
493	 1,61189717833294E-02 
494	 1,64457550493992E-02 
495	 0,018363810216699 
496	 1,89231369923975E-02 
497	 1,48662270591481E-02 
498	 1,32130971987827E-02 
499	 1,41524965901872E-02 
500	 0,012653365175673 
501	 1,18887991323136E-02 
502	 1,35773493933104E-02 
503	 1,67036826681862E-02 
504	 1,91122708529105E-02 
505	 1,74206771251041E-02 
506	 1,58193130662783E-02 
507	 1,55199830805116E-02 
508	 1,54210318337531E-02 
509	 1,56866149453602E-02 
510	 1,64356152471223E-02 
511	 1,65548108096312E-02 
512	 1,66276028994145E-02 
513	 1,91662967994643E-02 
514	 1,96605629105754E-02 
515	 1,69220381329359E-02 
516	 0,016961867135143 
517	 1,82369020100635E-02 
518	 0,017754582163569 
519	 1,73038275086606E-02 
520	 0,017239396907126 
521	 1,73350966845457E-02 
522	 1,70310964795221E-02 
523	 1,60851627874575E-02 
524	 0,016453193951083 
525	 1,76278911147116E-02 
526	 1,78061644982855E-02 
527	 1,79912189476156E-02 
528	 1,82624367436726E-02 
529	 1,73409456138497E-02 
530	 0,016349954662295 
531	 1,66356061580726E-02 
532	 0,016775331802676 
533	 1,67654662811131E-02 
534	 1,77777330863386E-02 
535	 1,82876322549212E-02 
536	 1,75459108727561E-02 
537	 1,73906518966678E-02 
538	 1,76571431464897E-02 
539	 1,76049098708631E-02 
540	 1,70900728747741E-02 
541	 1,64120311182697E-02 
542	 1,73493693721465E-02 
543	 0,017883443941924 
544	 1,61466476257852E-02 
545	 1,64900224177862E-02 
546	 1,81307438244667E-02 
547	 1,61395967610553E-02 
548	 1,51260753457531E-02 
549	 1,69347324296913E-02 
550	 1,75101372351844E-02 
551	 1,74893200662065E-02 
552	 1,86538575276767E-02 
553	 1,83946842315961E-02 
554	 1,67721405763311E-02 
555	 1,70518290118828E-02 
556	 1,76245446025398E-02 
557	 1,71289820260537E-02 
558	 1,67031349171897E-02 
559	 1,64605031170471E-02 
560	 1,60868397349327E-02 
561	 1,62508830889604E-02 
562	 1,69932545628845E-02 
563	 1,68903647790522E-02 
564	 1,63121788996281E-02 
565	 1,59081927614676E-02 
566	 1,65055500136861E-02 
567	 1,77508373059333E-02 
568	 1,76141906891277E-02 
569	 1,72606920707937E-02 
570	 0,017462590856621 
571	 1,72821320578978E-02 
572	 1,69350058787996E-02 
573	 1,71640911790102E-02 
574	 1,74342715759749E-02 
575	 1,76309889711086E-02 
576	 1,81431158500601E-02 
577	 1,87860702897123E-02 
578	 1,93235420637793E-02 
579	 1,96936861094682E-02 
580	 0,019798415644346 
581	 1,93396583543674E-02 
582	 1,91831571576483E-02 
583	 1,97693480270322E-02 
584	 2,01676642191253E-02 
585	 2,05402069455728E-02 
586	 2,14903791682671E-02 
587	 2,14041383383439E-02 
588	 2,03663733526508E-02 
589	 2,11052140209674E-02 
590	 0,021963857343052 
591	 2,13610405443559E-02 
592	 2,10829097825371E-02 
593	 2,13014080591768E-02 
594	 2,15323867706222E-02 
595	 2,16313486713439E-02 
596	 2,15232117413236E-02 
597	 2,13699696526157E-02 
598	 2,12957636452946E-02 
599	 2,14662487675173E-02 
600	 2,12335813734177E-02 
601	 0,020658164861052 
602	 2,06661806999498E-02 
603	 2,09670658375963E-02 
604	 2,12759900159407E-02 
605	 2,12816736989866E-02 
606	 2,10421234470832E-02 
607	 2,08213737026669E-02 
608	 2,07365159117516E-02 
609	 0,020837649906355 
610	 2,11137172936516E-02 
611	 2,09946726077318E-02 
612	 1,98104255580723E-02 
613	 1,91393165585403E-02 
614	 1,92197647904109E-02 
615	 1,93783550172902E-02 
616	 1,95270595422211E-02 
617	 1,95763990368925E-02 
618	 1,94415006524185E-02 
619	 1,92496767939671E-02 
620	 1,92690439277985E-02 
621	 1,92977440894763E-02 
622	 1,92719590223353E-02 
623	 1,91362636477108E-02 
624	 1,93147663824711E-02 
625	 2,01792110800665E-02 
626	 1,99757912527533E-02 
627	 1,90016876744832E-02 
628	 1,92372779806285E-02 
629	 1,95936543771428E-02 
630	 1,95957141694692E-02 
631	 1,99526535741095E-02 
632	 2,05453891859604E-02 
633	 2,10997819065387E-02 
634	 2,10686138054601E-02 
635	 2,06023296139297E-02 
636	 2,10561189029198E-02 
637	 2,16228995583505E-02 
638	 2,16181608633701E-02 
639	 0,021857041774453 
640	 2,22372019297937E-02 
641	 2,21015853115793E-02 
642	 2,21598373792873E-02 
643	 0,022585169898508 
644	 2,25008151492913E-02 
645	 2,24890157048524E-02 
646	 2,33992514479726E-02 
647	 2,35104366362446E-02 
648	 2,28238487748637E-02 
649	 2,29080985441481E-02 
650	 2,32588517084126E-02 
651	 2,34729328586678E-02 
652	 2,32206350598884E-02 
653	 2,24641329628991E-02 
654	 2,11522811315092E-02 
655	 0,020415538422825 
656	 2,05281078147466E-02 
657	 2,05686818436551E-02 
658	 2,04840451414994E-02 
659	 2,02786971262512E-02 
660	 0,019927925252433 
661	 1,94739206898393E-02 
662	 1,89996713605698E-02 
663	 1,87043374844762E-02 
664	 1,85876134999008E-02 
665	 1,78590698688626E-02 
666	 1,68882477332063E-02 
667	 1,63555473176949E-02 
668	 1,63257334856223E-02 
669	 1,67463982219793E-02 
670	 1,73201644801159E-02 
671	 1,77025107350454E-02 
672	 1,76454592283758E-02 
673	 1,76079195417758E-02 
674	 1,75758434252115E-02 
675	 1,72883928023173E-02 
676	 1,70341371823124E-02 
677	 1,68814623052646E-02 
678	 1,64206502443732E-02 
679	 1,63395605622291E-02 
680	 1,74511245749828E-02 
681	 1,78092016685017E-02 
682	 1,73497896650499E-02 
683	 1,74665460212506E-02 
684	 1,76984695840879E-02 
685	 1,77939615391604E-02 
686	 1,78386477859277E-02 
687	 1,81275057224949E-02 
688	 0,019207241436367 
689	 1,97603440035429E-02 
690	 1,98029118212774E-02 
691	 2,12442551826711E-02 
692	 2,31796933411446E-02 
693	 2,47292846779875E-02 
694	 2,61537779473422E-02 
695	 2,78443489383495E-02 
696	 3,06863193193127E-02 
697	 3,37523257048989E-02 
698	 3,67109550132683E-02 
699	 4,00417930302883E-02 
700	 4,38369717199046E-02 
701	 4,81529330425685E-02 
702	 5,28578094990443E-02 
703	 0,057882619259906 
704	 6,33679978806535E-02 
705	 0,068425299261829 
706	 7,26246387638636E-02 
707	 7,76317875778877E-02 
708	 8,29480726282991E-02 
709	 8,72173176498116E-02 
710	 9,13487191023147E-02 
711	 9,57093680768715E-02 
712	 0,100732818953158 
713	 0,105342200355774 
714	 0,108602406648059 
715	 0,112218838737343 
716	 0,116075031974069 
717	 0,118963349048079 
718	 0,121786077124482 
719	 0,124757181830776 
720	 0,126779634688524 
721	 0,12869127650558 
722	 0,131649261789896 
723	 0,134094769779905 
724	 0,135746978132958 
725	 0,13693678861177 
726	 0,138357923081415 
727	 0,140336796425277 
728	 0,141617373949396 
729	 0,14237919159452 
730	 0,14321816308179 
731	 0,144448901615851 
732	 0,145953148750876 
733	 0,14667785128882 
734	 0,147253558281419 
735	 0,1482182941227 
736	 0,148722689336168 
737	 0,148945483147816 
738	 0,14968358568658 
739	 0,15044166176666 
740	 0,151032607636385 
741	 0,151510459380869 
742	 0,15185704176831 
743	 0,152056734047403 
744	 0,15224857374947 
745	 0,152466957328261 
746	 0,152636917031476 
747	 0,153029866068867 
748	 0,153714933224561 
749	 0,154131699596018 
750	 0,154227046047169 
751	 0,15402790196557 
752	 0,153979472332276 
753	 0,1541759488722 
754	 0,15440936211023 
755	 0,154490524006813 
756	 0,154343207769454 
757	 0,154646241318411 
758	 0,155160299247355 
759	 0,15517539779257 
760	 0,155221880355465 
761	 0,155465645502367 
762	 0,155856004137339 
763	 0,15618915350436 
764	 0,15627473180597 
765	 0,156097146291728 
766	 0,155936674370039 
767	 0,156566501482064 
768	 0,15686778915332 
769	 0,156540951539158 
770	 0,15671358222132 
771	 0,157028800107645 
772	 0,156964672129351 
773	 0,156836299288192 
774	 0,15686469820495 
775	 0,157547627147611 
776	 0,15799621942233 
777	 0,15778906585092 
778	 0,157582905423663 
779	 0,157503848306707 
780	 0,1576150720108 
781	 0,157682796732675 
782	 0,157665733807509 
783	 0,157688457246285 
784	 0,157687905372291 
785	 0,157624091667444 
786	 0,157503310548214 
787	 0,157439032326983 
788	 0,15763032173711 
789	 0,157742178895524 
790	 0,157743513449072 
791	 0,158017580968419 
792	 0,158138176991082 
793	 0,157804594779342 
794	 0,157663432296114 
795	 0,157742464599933 
796	 0,157857009674175 
797	 0,157970094328352 
798	 0,15800677417516 
799	 0,157753386966621 
800	 0,15751871202712 
801	 0,157601198852458 
802	 0,157895611884408 
803	 0,158220456283626 
804	 0,158174997165632 
805	 0,158157354140928 
806	 0,158293935061813 
807	 0,158410435463276 
808	 0,158485132401024 
809	 0,15851173586877 
810	 0,158587481247214 
811	 0,158747423707994 
812	 0,159074079794947 
813	 0,159112699534372 
814	 0,1588120108069 
815	 0,159128351855792 
816	 0,159662715338876 
817	 0,159846763206822 
818	 0,159899903713121 
819	 0,159856047227784 
820	 0,159634875412826 
821	 0,159692308802558 
822	 0,160184673504811 
823	 0,16055894122764 
824	 0,160711593878626 
825	 0,160601144714291 
826	 0,160765961965886 
827	 0,161142772924427 
828	 0,16106459340987 
829	 0,160982921809817 
830	 0,161175241947116 
831	 0,161849722016257 
832	 0,162407343663654 
833	 0,162032048770561 
834	 0,16201307746382 
835	 0,162370609308354 
836	 0,162032866526946 
837	 0,161686966352784 
838	 0,16172954560303 
839	 0,162096138271623 
840	 0,162543825633085 
841	 0,16274931185286 
842	 0,162474038612699 
843	 0,16198388764891 
844	 0,162347900086279 
845	 0,162769133755888 
846	 0,162773448026875 
847	 0,162392587411329 
848	 0,161941754868289 
849	 0,161849663775369 
850	 0,162088614444143 
851	 0,162456555277637 
852	 0,162375453281022 
853	 0,162017880699151 
854	 0,161610116651507 
855	 0,161966151899323 
856	 0,162571815084928 
857	 0,16260773271695 
858	 0,162261052424587 
859	 0,161907723406082 
860	 0,162604068754967 
861	 0,163300011674338 
862	 0,16345115802297 
863	 0,163505892635344 
864	 0,163355901465588 
865	 0,162828493862689 
866	 0,162982005353617 
867	 0,163577233788652 
868	 0,162999569919626 
869	 0,16277959792703 
870	 0,163493785984309 
871	 0,163843630077183 
872	 0,16401534668893 
873	 0,16436720433777 
874	 0,164455558814819 
875	 0,16436345389763 
876	 0,164514538035304 
877	 0,165163700722397 
878	 0,166071478590615 
879	 0,165200329130138 
880	 0,164259212534387 
881	 0,165159471502879 
882	 0,165605977059784 
883	 0,165443681405967 
884	 0,165491982700175 
885	 0,165677581175589 
886	 0,16597776707419 
887	 0,166292069816484 
888	 0,166349568892037 
889	 0,165979033226056 
890	 0,16618991267164 
891	 0,16675396166688 
892	 0,166765073937406 
893	 0,166686914295939 
894	 0,166673308399722 
895	 0,166839003708753 
896	 0,166638811606109 
897	 0,165788098891742 
898	 0,165759204163753 
899	 0,166380803561473 
900	 0,166925881398828 
901	 0,167246718768365 
902	 0,16736648865425 
903	 0,167747276201139 
904	 0,167852994932871 
905	 0,167473816711869 
906	 0,167777041083794 
907	 0,167984664622143 
908	 0,166827940118559 
909	 0,166470280601113 
910	 0,167058891606097 
911	 0,167333691106778 
912	 0,16713949222456 
913	 0,166560252811356 
914	 0,16675279912518 
915	 0,167275914020313 
916	 0,167507410505483 
917	 0,167327028262126 
918	 0,166914263114981 
919	 0,166764898059799 
920	 0,166924489033588 
921	 0,16727212698583 
922	 0,167076386504576 
923	 0,166951615105992 
924	 0,167299061070594 
925	 0,166489871784752 
926	 0,165290393465863 
927	 0,165540191505796 
928	 0,165294947504952 
929	 0,164474280710459 
930	 0,164741115328014 
931	 0,165724470137634 
932	 0,166808514788448 
933	 0,165662956959081 
934	 0,163576670514122 
935	 0,162565772711576 
936	 0,162627114555148 
937	 0,163278712229646 
938	 0,163164406404161 
939	 0,162548257680583 
940	 0,161669901777294 
941	 0,161354377772137 
942	 0,161245641333101 
943	 0,160897902858739 
944	 0,159577823237441 
945	 0,157833812955039 
946	 0,156850899672572 
947	 0,156737636313788 
948	 0,157089438939066 
949	 0,156327709951398 
950	 0,155240042918899 
951	 0,154345862200256 
952	 0,153722765215154 
953	 0,15348191853308 
954	 0,153671121532697 
955	 0,153113861960762 
956	 0,151895042271563 
957	 0,150874593847113 
958	 0,150153928383373 
959	 0,149836750931288 
960	 0,150004276521999 
961	 0,149986593617907 
962	 0,149308134670396 
963	 0,148637737645394 
964	 0,147736427763395 
965	 0,14609398514567 
966	 0,146925508855262 
967	 0,149386371917501 
968	 0,148319654560643 
969	 0,147166821726708 
970	 0,147270795931994 
971	 0,147617181873286 
972	 0,14745318175889 
973	 0,146313682021135 
974	 0,146073707102074 
975	 0,147120226114073 
976	 0,14963218932874 
977	 0,148533765500457 
978	 0,144300721307711 
979	 0,143542747288351 
980	 0,144591015990406 
981	 0,146430384892345 
982	 0,148144272898849 
983	 0,148690897088624 
984	 0,147359021582566 
985	 0,146654687293588 
986	 0,147144947160893 
987	 0,148880199224872 
988	 0,150821087384532 
989	 0,152042873756072 
990	 0,150853485689787 
991	 0,14952433701989 
992	 0,149341064847923 
993	 0,149664182671501 
994	 0,150039477227658 
995	 0,150139501852887 
996	 0,151444090898214 
997	 0,153368891510155 
998	 0,154404159748744 
999	 0,153698161033116 
1000	 0,151797833672346 
1001	 0,151351831575712 
1002	 0,15233310450071 
1003	 0,154314182969096 
1004	 0,155021751412258 
1005	 0,154566174037549 
1006	 0,153551537647141 
1007	 0,155196774397365 
1008	 0,157795732413636 
1009	 0,157356017954538 
1010	 0,157569549283649 
1011	 0,158260773577731 
1012	 0,155232482787843 
1013	 0,154631859690901 
1014	 0,157921655810618 
1015	 0,157885719095179 
1016	 0,155114638261571 
1017	 0,15135189264971 
1018	 0,153650986098072 
1019	 0,158824221566254 
1020	 0,16052347922759 
1021	 0,161904432031839 
1022	 0,163368443243467 
1023	 0,164354455241385 
1024	 0,164458939658615 
1025	 0,163572668817432 
1026	 0,161407646836375 
1027	 0,161932680203991 
1028	 0,166638279728461 
1029	 0,167607785728167 
1030	 0,165532272710703 
1031	 0,162637689062289 
1032	 0,164323956166339 
1033	 0,167222519585694 
1034	 0,162173966409492 
1035	 0,161932423327742 
1036	 0,167403424084042 
1037	 0,16838311793997 
1038	 0,168534321417014 
1039	 0,169146823028329 
1040	 0,168972291475035 
1041	 0,16709729123403 
1042	 0,163820954884527 
1043	 0,167481857821219 
1044	 0,172008714601212 
1045	 0,168308620141925 
1046	 0,173304742472562 
1047	 0,181165286882035 
1048	 0,169280474928986 
1049	 0,169438153704646 
1050	 0,182902332442884 
1051	 0,174078027909919 
1052	 0,171073006323622 
1053	 0,183665480995728 
1054	 0,183749927098349 
1055	 0,177251483176997 
1056	 0,171917058864535 
1057	 0,176969959711398 
1058	 0,179870748798844 
1059	 0,162826350237303 
1060	 0,158912111519549 
1061	 0,166868201625386 
1062	 0,166354294189872 
1063	 0,166803810807837 
1064	 0,169077793808517 
1065	 0,166052037339572 
1066	 0,173140508847356 
1067	 0,189154692976021 
1068	 0,172944355272325 
1069	 0,151662107771036 
1070	 0,149932200933155 
1071	 0,160972611641076 
1072	 0,173997445262041 
1073	 0,176913409811512 
1074	 0,180328535839604 
1075	 0,17804866569398 
