Wavelength	ABBE00553.asd
325	-1,50206428158774E-02 
326	 3,22119264268025E-02 
327	 6,90116656277431E-02 
328	 4,32264914344744E-02 
329	 2,51521298174442E-03 
330	 2,53336537120922E-03 
331	 7,04710970482275E-02 
332	 3,02391963476216E-03 
333	-0,110983801258643 
334	-5,60817464986087E-02 
335	 1,69140338280677E-02 
336	 6,26730767442509E-02 
337	 5,48426509467174E-02 
338	 3,02147785255378E-02 
339	 1,88739621078021E-02 
340	 7,07404575242805E-02 
341	 0,113939281317507 
342	 2,30502316685486E-03 
343	-2,36681531639653E-02 
344	 0,062212059497839 
345	 5,69853215110648E-02 
346	 3,82381008731979E-02 
347	 8,74232081558163E-02 
348	 9,04411960041364E-02 
349	 5,48196073414064E-02 
350	 4,05705204510061E-02 
351	 6,59804896629071E-02 
352	 0,119249696824885 
353	 0,091479689801016 
354	 2,25896440897571E-02 
355	-1,67525734192502E-02 
356	-1,54289612704354E-02 
357	 1,43945307798384E-02 
358	 4,47798786459873E-02 
359	 3,86177865428826E-02 
360	-9,66466785032327E-03 
361	-4,17590974310211E-03 
362	 2,41663175669522E-02 
363	 1,75981955461063E-02 
364	 1,67220762836066E-02 
365	 2,97092179872392E-02 
366	 5,51972049915801E-02 
367	 6,23807832184442E-02 
368	 3,81804152180869E-02 
369	 2,88181655765549E-02 
370	 2,79331211681801E-02 
371	 1,27503980282982E-02 
372	 1,59898858710251E-02 
373	 3,69906639909258E-02 
374	 0,034302662168448 
375	 3,19661301889562E-02 
376	 4,68324783868292E-02 
377	 4,68814596609618E-02 
378	 3,71358879479818E-02 
379	 3,76310502803788E-02 
380	 3,97170236818651E-02 
381	 3,98947324757686E-02 
382	 3,28004776204234E-02 
383	 2,76571793627414E-02 
384	 3,12956505571977E-02 
385	 1,77305838015285E-02 
386	 2,1334480897434E-04 
387	 2,70435299429451E-02 
388	 4,11292470418141E-02 
389	 2,60955983089387E-02 
390	 2,27006487119194E-02 
391	 2,75559917196205E-02 
392	 3,28206406267458E-02 
393	 2,87575938408806E-02 
394	 2,16605666301396E-02 
395	 3,79751937019971E-02 
396	 4,65454866551489E-02 
397	 3,46109411545714E-02 
398	 3,82427023770765E-02 
399	 4,72281664320123E-02 
400	 4,10354755563232E-02 
401	 3,03568353684468E-02 
402	 0,022867402352799 
403	 3,64891742666602E-02 
404	 4,35087313926757E-02 
405	 0,02774686389126 
406	 2,16279483842622E-02 
407	 2,54105853908194E-02 
408	 0,029824280063776 
409	 3,23818748705056E-02 
410	 3,34091531607685E-02 
411	 4,14774828640698E-02 
412	 4,40736641192139E-02 
413	 3,10293164649207E-02 
414	 2,74911975170088E-02 
415	 3,32281187560798E-02 
416	 3,56815634612329E-02 
417	 3,65805420647698E-02 
418	 3,55679790296799E-02 
419	 2,74127332800448E-02 
420	 2,08407590850475E-02 
421	 0,027010746154511 
422	 3,44131172775099E-02 
423	 3,91962491706217E-02 
424	 3,95240742604242E-02 
425	 3,74062375247965E-02 
426	 0,034636968892232 
427	 3,40066859413895E-02 
428	 0,034446444775138 
429	 3,29899630903775E-02 
430	 3,46849742019933E-02 
431	 3,93693400850388E-02 
432	 4,05841902856799E-02 
433	 3,88467073192531E-02 
434	 0,035185019957595 
435	 3,45364395118298E-02 
436	 3,68308692716454E-02 
437	 3,95970549340577E-02 
438	 4,07028125666267E-02 
439	 3,95470943231341E-02 
440	 3,92547994998605E-02 
441	 3,94810570716384E-02 
442	 3,93981067175968E-02 
443	 4,06109827254179E-02 
444	 4,28913675550705E-02 
445	 4,46388804533239E-02 
446	 4,44505429191572E-02 
447	 0,041969871222616 
448	 4,18660641169742E-02 
449	 4,37721989084507E-02 
450	 0,045936406282134 
451	 4,62793706757084E-02 
452	 4,44629039519592E-02 
453	 4,27393797735419E-02 
454	 4,19412488717684E-02 
455	 4,26099751841589E-02 
456	 4,28747485995978E-02 
457	 4,26861953354471E-02 
458	 4,28987622672025E-02 
459	 4,38832585896395E-02 
460	 4,53925003654566E-02 
461	 4,49124183284502E-02 
462	 4,37784297148528E-02 
463	 4,40459781823275E-02 
464	 4,53269456985296E-02 
465	 0,046842637125682 
466	 4,61192709925605E-02 
467	 4,58807127780548E-02 
468	 4,75543636181343E-02 
469	 4,65181776542374E-02 
470	 4,44283574893874E-02 
471	 4,59611092466992E-02 
472	 4,67350389516296E-02 
473	 4,57105033771056E-02 
474	 4,46446773067971E-02 
475	 4,49496941862055E-02 
476	 4,77670233999063E-02 
477	 4,99358243178992E-02 
478	 0,050643935058597 
479	 4,98688869461927E-02 
480	 4,87524020669881E-02 
481	 4,79578636452282E-02 
482	 4,72739000790869E-02 
483	 4,70373225504329E-02 
484	 4,77112222226859E-02 
485	 4,93643792351148E-02 
486	 5,09266123054114E-02 
487	 4,86425163705514E-02 
488	 4,59577877759995E-02 
489	 4,56228992726512E-02 
490	 4,70272209798523E-02 
491	 0,048770307787698 
492	 4,76828556381149E-02 
493	 4,85801630955103E-02 
494	 5,19653489794378E-02 
495	 5,11300050643257E-02 
496	 4,88979881684255E-02 
497	 0,048972154057314 
498	 4,97028201371082E-02 
499	 0,050554855354988 
500	 5,10715781615139E-02 
501	 5,08561120873907E-02 
502	 5,00378651178299E-02 
503	 5,15815239166493E-02 
504	 0,053867954095084 
505	 5,35034269745701E-02 
506	 5,27374021174766E-02 
507	 5,22447440774128E-02 
508	 5,17938121664569E-02 
509	 5,17093356213385E-02 
510	 0,052262549413344 
511	 5,29829131502389E-02 
512	 5,40103962686967E-02 
513	 5,62873209813674E-02 
514	 5,72920127183958E-02 
515	 5,62388180393698E-02 
516	 5,58263310059386E-02 
517	 5,60062776337749E-02 
518	 5,62869598902256E-02 
519	 5,64299894125163E-02 
520	 5,64725239801886E-02 
521	 5,69845806173213E-02 
522	 5,71058216868982E-02 
523	 5,63624883728401E-02 
524	 5,66770702361908E-02 
525	 5,77790890966406E-02 
526	 5,85095607228965E-02 
527	 0,058525148028247 
528	 5,79243312408047E-02 
529	 5,81862267173252E-02 
530	 5,87664208769815E-02 
531	 5,89118225890112E-02 
532	 5,85720851168568E-02 
533	 5,83070633602846E-02 
534	 0,059957774038594 
535	 6,13816950489321E-02 
536	 6,13895514501806E-02 
537	 6,15769314795732E-02 
538	 6,19033558598902E-02 
539	 6,19210126747572E-02 
540	 6,15340818138161E-02 
541	 6,09884184577234E-02 
542	 0,061489566377594 
543	 0,062187507139643 
544	 6,22431991409434E-02 
545	 6,29306165818955E-02 
546	 6,39550690605821E-02 
547	 6,38153121849895E-02 
548	 6,37096466280458E-02 
549	 6,41488011671072E-02 
550	 6,42296571408788E-02 
551	 6,44623284547072E-02 
552	 6,58576088162565E-02 
553	 6,57414016507518E-02 
554	 6,42705592382598E-02 
555	 6,54785041436208E-02 
556	 6,63729289791432E-02 
557	 6,46611285967377E-02 
558	 6,49922271114662E-02 
559	 0,066767350871438 
560	 6,62760871795317E-02 
561	 6,62705793928838E-02 
562	 6,74613806855728E-02 
563	 6,74122855196832E-02 
564	 6,67155844254816E-02 
565	 6,64179422480204E-02 
566	 0,066924320650151 
567	 6,79662651347304E-02 
568	 6,81661977511401E-02 
569	 6,81525272932025E-02 
570	 6,83564750051535E-02 
571	 6,84268106455631E-02 
572	 6,84964963036586E-02 
573	 6,89251578795381E-02 
574	 6,94680705500864E-02 
575	 7,00926132169005E-02 
576	 7,11607457501589E-02 
577	 7,20648266110507E-02 
578	 7,21301061679588E-02 
579	 7,23534485336465E-02 
580	 7,27291417387381E-02 
581	 7,24310401360753E-02 
582	 7,22278202768703E-02 
583	 7,25115718175079E-02 
584	 0,07249845406353 
585	 7,26438522812882E-02 
586	 7,39826485128678E-02 
587	 7,46658980764175E-02 
588	 7,44276908961062E-02 
589	 0,074905496939741 
590	 7,54185017665274E-02 
591	 0,075313071044161 
592	 0,075582094976128 
593	 7,61738249435132E-02 
594	 7,64172304291614E-02 
595	 7,66201197019717E-02 
596	 7,68620733742449E-02 
597	 7,67369005899729E-02 
598	 0,076593919399262 
599	 7,70098994302495E-02 
600	 0,077258275096241 
601	 7,71814765475271E-02 
602	 7,70037931960234E-02 
603	 7,69569163158492E-02 
604	 7,72112243649153E-02 
605	 0,077590337736326 
606	 0,07781502706709 
607	 7,72260879114603E-02 
608	 0,077027202718791 
609	 7,75158861759892E-02 
610	 7,74965671824058E-02 
611	 7,70635888221786E-02 
612	 7,64681546245906E-02 
613	 7,63533679942813E-02 
614	 7,66818950731493E-02 
615	 7,67170362260961E-02 
616	 7,66868694539525E-02 
617	 7,66954671428532E-02 
618	 7,62780695207487E-02 
619	 0,07593236282965 
620	 7,68109358072783E-02 
621	 7,72834492451866E-02 
622	 7,68821739185714E-02 
623	 7,61647013315472E-02 
624	 7,59133892546239E-02 
625	 7,68366147516897E-02 
626	 7,72832553248614E-02 
627	 7,71240710713058E-02 
628	 7,70601893740274E-02 
629	 7,73172995026365E-02 
630	 7,79454611558407E-02 
631	 7,82283123622733E-02 
632	 7,82323905840352E-02 
633	 7,81948710243572E-02 
634	 7,84735027657901E-02 
635	 0,079046697602826 
636	 7,93425477992012E-02 
637	 7,93453522541135E-02 
638	 7,91413241076181E-02 
639	 7,99142942299335E-02 
640	 8,11054384780772E-02 
641	 8,07300221185643E-02 
642	 0,080469046984835 
643	 8,08687944300325E-02 
644	 8,08183470119726E-02 
645	 8,07812526454622E-02 
646	 0,081475664154135 
647	 8,15359730004257E-02 
648	 8,09953216986734E-02 
649	 8,12244636854303E-02 
650	 8,15457521589495E-02 
651	 8,15012384886989E-02 
652	 8,13883300942731E-02 
653	 8,10565303517681E-02 
654	 8,00409486440209E-02 
655	 7,95780321881348E-02 
656	 7,98428806975466E-02 
657	 7,94161505124079E-02 
658	 7,86791822289098E-02 
659	 7,81310648675289E-02 
660	 0,07809428140161 
661	 7,83350958150424E-02 
662	 7,80053996271397E-02 
663	 7,73971924161946E-02 
664	 7,67163164328686E-02 
665	 0,076345954435429 
666	 7,61369624750264E-02 
667	 7,57526175339763E-02 
668	 7,58051752837572E-02 
669	 7,61863785324879E-02 
670	 0,075747526708186 
671	 0,075487823925026 
672	 7,61387696976904E-02 
673	 7,61953966668868E-02 
674	 7,58674508553403E-02 
675	 7,63572857336154E-02 
676	 7,65691202983236E-02 
677	 7,62267247504214E-02 
678	 7,60481170543107E-02 
679	 7,63377158544592E-02 
680	 7,73577006464718E-02 
681	 7,80385171789019E-02 
682	 7,82494766624966E-02 
683	 7,85230592110854E-02 
684	 7,87670477269171E-02 
685	 7,89681709183839E-02 
686	 7,92606212138099E-02 
687	 7,99097584512199E-02 
688	 0,081398470858326 
689	 0,082348728732316 
690	 8,25714997015513E-02 
691	 8,32456808137199E-02 
692	 0,084422524467637 
693	 8,60606232619581E-02 
694	 8,74771392449696E-02 
695	 8,87892015643681E-02 
696	 9,07222902446612E-02 
697	 9,25722772168161E-02 
698	 9,40810598907222E-02 
699	 9,55619181017834E-02 
700	 0,097225944674958 
701	 9,92941115333416E-02 
702	 0,101572348078801 
703	 0,10389468629781 
704	 0,106009935708244 
705	 0,107887141579048 
706	 0,109549730715027 
707	 0,111425245112503 
708	 0,113300047701222 
709	 0,114627359120231 
710	 0,11620500893811 
711	 0,118160863287583 
712	 0,119950290154485 
713	 0,121281967627924 
714	 0,121967837714611 
715	 0,123003411699053 
716	 0,12432266381829 
717	 0,125183306985548 
718	 0,126087371575252 
719	 0,127125250350151 
720	 0,127583020022122 
721	 0,127905018023729 
722	 0,12872687591773 
723	 0,129450508758126 
724	 0,129963296713059 
725	 0,130307993442823 
726	 0,131010022697961 
727	 0,132239736812104 
728	 0,132569065857896 
729	 0,132270250157356 
730	 0,132141557662806 
731	 0,132470600045419 
732	 0,133272984176927 
733	 0,134036480367396 
734	 0,134687605939883 
735	 0,13514581262587 
736	 0,134999648396108 
737	 0,134566434317761 
738	 0,134738852898974 
739	 0,13515673919271 
740	 0,13563763229189 
741	 0,135895864241242 
742	 0,136033563487778 
743	 0,136205467589069 
744	 0,136429897374106 
745	 0,13671233879896 
746	 0,137039002322051 
747	 0,137367889364848 
748	 0,137633082764271 
749	 0,137595496143291 
750	 0,137426673115218 
751	 0,13741616571867 
752	 0,137669379823501 
753	 0,138070661494681 
754	 0,138040469932412 
755	 0,138040123138266 
756	 0,138375820046677 
757	 0,138513702793443 
758	 0,138557933283292 
759	 0,138896525123488 
760	 0,139147874312427 
761	 0,139251816340241 
762	 0,139535105563904 
763	 0,139866833828483 
764	 0,140099451644394 
765	 0,140084168830115 
766	 0,139980522333331 
767	 0,140271448255358 
768	 0,140571569722831 
769	 0,140731707762814 
770	 0,140826662364966 
771	 0,140972606290769 
772	 0,141292071650227 
773	 0,141426579850715 
774	 0,141445939213828 
775	 0,141868759169318 
776	 0,142066427130864 
777	 0,141838262573076 
778	 0,142256888270324 
779	 0,142813012694071 
780	 0,142599701239883 
781	 0,142340970919207 
782	 0,142295762127579 
783	 0,142680713508313 
784	 0,142891229681879 
785	 0,142607577632167 
786	 0,142769049745547 
787	 0,143197960240115 
788	 0,143332820639753 
789	 0,143570672990095 
790	 0,143931329193916 
791	 0,144087786868644 
792	 0,144016268178791 
793	 0,143739647727083 
794	 0,14355195136349 
795	 0,143643970469844 
796	 0,144349940155253 
797	 0,14462206508631 
798	 0,144237025366329 
799	 0,144083264093432 
800	 0,144037500615642 
801	 0,14397400034629 
802	 0,144382901457446 
803	 0,145050436544984 
804	 0,145265478660099 
805	 0,145272179552426 
806	 0,145183225692838 
807	 0,145137314326983 
808	 0,145319057015431 
809	 0,145862173885567 
810	 0,145727463205075 
811	 0,145221130385822 
812	 0,14587984793295 
813	 0,146253238831525 
814	 0,145887222891172 
815	 0,145982182654403 
816	 0,146349881801833 
817	 0,146640021881209 
818	 0,146740924156685 
819	 0,146702094212514 
820	 0,146785033151656 
821	 0,146875312623994 
822	 0,146947024932484 
823	 0,147189269717233 
824	 0,147348937804063 
825	 0,147095534215679 
826	 0,147224885194524 
827	 0,147701407708092 
828	 0,147795763625351 
829	 0,147746082070315 
830	 0,147689759624254 
831	 0,147725277150645 
832	 0,147804103216015 
833	 0,147839718850868 
834	 0,14786849649298 
835	 0,147922937543354 
836	 0,148094317230858 
837	 0,148192902368006 
838	 0,148170967526338 
839	 0,148499763300879 
840	 0,148855046046924 
841	 0,148719666466381 
842	 0,148578984611855 
843	 0,148677425596954 
844	 0,149467041808557 
845	 0,149791799520328 
846	 0,149106387387645 
847	 0,148486566412395 
848	 0,148209714134569 
849	 0,148458673343623 
850	 0,148375600337178 
851	 0,148000749735159 
852	 0,148249110327871 
853	 0,148613890263006 
854	 0,148789913694965 
855	 0,14873581706221 
856	 0,148588487637149 
857	 0,148545574091554 
858	 0,148607020288877 
859	 0,148737186864207 
860	 0,148838264942954 
861	 0,148743937892519 
862	 0,148490494493902 
863	 0,148948711226731 
864	 0,14946379660255 
865	 0,149098117544678 
866	 0,14957005014464 
867	 0,150521998602227 
868	 0,149593923114237 
869	 0,148745992625941 
870	 0,148899254954556 
871	 0,149417240088067 
872	 0,149845220877596 
873	 0,149727845961463 
874	 0,149719914762005 
875	 0,149945459354489 
876	 0,150284651130152 
877	 0,150823018110961 
878	 0,151365137440996 
879	 0,150696901647713 
880	 0,150001322812888 
881	 0,150576128709628 
882	 0,150682672541959 
883	 0,150305436447029 
884	 0,150330116534831 
885	 0,150400610604508 
886	 0,150519762629205 
887	 0,151359819228865 
888	 0,151738180098492 
889	 0,150672097597156 
890	 0,150417250256278 
891	 0,150999768042429 
892	 0,15155945254254 
893	 0,151826327139408 
894	 0,151708392035336 
895	 0,151556472706509 
896	 0,151098986075796 
897	 0,150251819074095 
898	 0,150280766011297 
899	 0,150878091815702 
900	 0,15114275303717 
901	 0,151129464457183 
902	 0,15105765130252 
903	 0,151900057207535 
904	 0,152160412500823 
905	 0,151156169364786 
906	 0,15128184753263 
907	 0,1519020765152 
908	 0,151704402855197 
909	 0,151794888318293 
910	 0,152191047734802 
911	 0,152118379238682 
912	 0,152106453670452 
913	 0,152339837491183 
914	 0,152313672879448 
915	 0,152335290973161 
916	 0,152770217894311 
917	 0,15328808956805 
918	 0,153607970113009 
919	 0,153223060535207 
920	 0,15280227977252 
921	 0,152649304216052 
922	 0,152840447439214 
923	 0,153173528191123 
924	 0,153442002238703 
925	 0,153515164205026 
926	 0,153373953407686 
927	 0,153042681858897 
928	 0,152542766291726 
929	 0,152231702490859 
930	 0,153291868982943 
931	 0,154289456581355 
932	 0,15427796664616 
933	 0,153204124634709 
934	 0,152164557471686 
935	 0,15251862116097 
936	 0,152907509360989 
937	 0,153018267906465 
938	 0,15289136623967 
939	 0,15278231449231 
940	 0,152678524392591 
941	 0,151850505951242 
942	 0,151328579168521 
943	 0,151994535784876 
944	 0,152945780984223 
945	 0,153526685542045 
946	 0,152837551805711 
947	 0,152692629879321 
948	 0,153417676086473 
949	 0,154203712208977 
950	 0,154181587555442 
951	 0,153024433071288 
952	 0,152147660022098 
953	 0,151776686255457 
954	 0,151966409897939 
955	 0,152705348729325 
956	 0,153320690329247 
957	 0,152143126494751 
958	 0,15136241014147 
959	 0,151725477727684 
960	 0,152769934590075 
961	 0,153430734379214 
962	 0,152992472989755 
963	 0,152694118352534 
964	 0,152348649653311 
965	 0,151403511478854 
966	 0,150980708436827 
967	 0,151310342181598 
968	 0,152174274225312 
969	 0,152851725439779 
970	 0,152908921795857 
971	 0,151952121486569 
972	 0,151880239108196 
973	 0,153999209131726 
974	 0,152826102274151 
975	 0,150691368767182 
976	 0,153354954182303 
977	 0,154887061466309 
978	 0,154249021025182 
979	 0,153787881813082 
980	 0,153528219268731 
981	 0,153638411986442 
982	 0,154516912814883 
983	 0,155463518772126 
984	 0,155689338892545 
985	 0,154769035047437 
986	 0,153444546728975 
987	 0,153164838442558 
988	 0,154653331558483 
989	 0,157226900993133 
990	 0,157968239342327 
991	 0,157218892411293 
992	 0,155490996937272 
993	 0,154678506200947 
994	 0,154144420347808 
995	 0,15316807682634 
996	 0,153472157706487 
997	 0,155077309572166 
998	 0,157489501570895 
999	 0,158276953964859 
1000	 0,157524108373309 
1001	 0,158517739487889 
1002	 0,159355519791217 
1003	 0,159090275566854 
1004	 0,158021464578223 
1005	 0,157554625755463 
1006	 0,158788375845158 
1007	 0,158497659432994 
1008	 0,157649243129592 
1009	 0,158985962524987 
1010	 0,157803440089733 
1011	 0,154562971233857 
1012	 0,154396360118623 
1013	 0,158108678106305 
1014	 0,163860344043058 
1015	 0,16059141891242 
1016	 0,155259784444467 
1017	 0,154639305485196 
1018	 0,158456507648812 
1019	 0,163187327411478 
1020	 0,163676645755578 
1021	 0,162037405755314 
1022	 0,16010800977674 
1023	 0,16205003657187 
1024	 0,161039712974232 
1025	 0,156504642550272 
1026	 0,157072862752639 
1027	 0,159276944093074 
1028	 0,160394747168836 
1029	 0,159448702671043 
1030	 0,159388145090322 
1031	 0,16326766666447 
1032	 0,16202150667901 
1033	 0,15851282957949 
1034	 0,162165027497727 
1035	 0,161105623657831 
1036	 0,156560632278656 
1037	 0,165626886365837 
1038	 0,168697185389475 
1039	 0,159862813129553 
1040	 0,158386590021658 
1041	 0,160881786380448 
1042	 0,163581902937662 
1043	 0,166760888741308 
1044	 0,168985453697598 
1045	 0,168709265220972 
1046	 0,169510514356775 
1047	 0,169912975767205 
1048	 0,164497434568358 
1049	 0,162113874391153 
1050	 0,163378023115723 
1051	 0,15830385793303 
1052	 0,159982158678159 
1053	 0,172076448702731 
1054	 0,177842901482541 
1055	 0,177921812179806 
1056	 0,17377042921528 
1057	 0,165566635081862 
1058	 0,157626317600596 
1059	 0,155370996489133 
1060	 0,162006779013701 
1061	 0,168548236766759 
1062	 0,153040046544866 
1063	 0,152562521452379 
1064	 0,168533418108952 
1065	 0,161707750964006 
1066	 0,159239011176683 
1067	 0,168867962468144 
1068	 0,167674637742001 
1069	 0,156661505987146 
1070	 0,142172337248688 
1071	 0,150285372346531 
1072	 0,167612913506442 
1073	 0,17381730002052 
1074	 0,170328024585181 
1075	 0,15602093842014 
