Wavelength	ABBE00550.asd
325	-0,123212247601065 
326	 0,248351281409133 
327	 0,351551388553182 
328	 0,130236161726305 
329	 5,87243633085418E-02 
330	 0,116706862335027 
331	 0,207091247287975 
332	 0,202430435051641 
333	 0,141309008116619 
334	 0,139577563776325 
335	 0,146408292816586 
336	 0,145071090488102 
337	 0,114506899336642 
338	 0,086601345968029 
339	 8,63145278087596E-02 
340	 0,120396706854288 
341	 0,145551400277191 
342	 8,98382779281683E-02 
343	 7,24079992925452E-02 
344	 0,109661996806231 
345	 0,118734703936999 
346	 0,11839578242031 
347	 0,131377421697666 
348	 0,140984758218371 
349	 0,144951032075928 
350	 0,149047226946916 
351	 0,132964851767992 
352	 9,55660332584329E-02 
353	 7,56796358775955E-02 
354	 5,88431332066386E-02 
355	 2,79292790188773E-02 
356	 3,33117831744456E-02 
357	 6,52007799416075E-02 
358	 7,81682186642967E-02 
359	 6,96486458290126E-02 
360	 4,74337357021354E-02 
361	 8,42592581362319E-02 
362	 0,118607142080744 
363	 5,71643225120615E-02 
364	 4,10941346793617E-02 
365	 0,077923650849218 
366	 6,91123170310972E-02 
367	 0,052191817783107 
368	 5,03397225236359E-02 
369	 5,33375932541963E-02 
370	 5,52738374998805E-02 
371	 4,69528472640739E-02 
372	 4,24251236540988E-02 
373	 4,49238480256716E-02 
374	 4,72996585222902E-02 
375	 5,66256228336981E-02 
376	 7,53707383503309E-02 
377	 7,57368269596181E-02 
378	 0,065565217992171 
379	 7,14743869228086E-02 
380	 6,48682591906253E-02 
381	 4,52071307392986E-02 
382	 5,98724973065228E-02 
383	 7,43787242020766E-02 
384	 5,79584217096501E-02 
385	 5,25195955271217E-02 
386	 5,80746451547023E-02 
387	 5,33420970474086E-02 
388	 4,76248226719063E-02 
389	 4,63921025760648E-02 
390	 5,98438879840796E-02 
391	 7,45651826191233E-02 
392	 7,38931705641078E-02 
393	 5,97043251183475E-02 
394	 4,28280589279354E-02 
395	 5,00680949244599E-02 
396	 6,27638209179273E-02 
397	 6,96073194616424E-02 
398	 6,91570765448658E-02 
399	 0,064486446181101 
400	 6,03951252923778E-02 
401	 0,054863518233581 
402	 5,00273424371975E-02 
403	 5,41676357796302E-02 
404	 5,84239630614507E-02 
405	 0,056726049762606 
406	 4,94910288949038E-02 
407	 4,51451564512998E-02 
408	 6,16323675971397E-02 
409	 6,48609664210035E-02 
410	 5,05819824290459E-02 
411	 4,94951832283638E-02 
412	 5,30791343429785E-02 
413	 5,20181949922177E-02 
414	 5,05994159512827E-02 
415	 5,09446695411338E-02 
416	 5,74723567787163E-02 
417	 6,12573534619898E-02 
418	 5,85384538309241E-02 
419	 4,92479535248634E-02 
420	 4,45285540923793E-02 
421	 5,80378249971845E-02 
422	 6,09057888668711E-02 
423	 5,23601687524987E-02 
424	 5,23858462732236E-02 
425	 5,46337562348625E-02 
426	 5,51032004924818E-02 
427	 5,43636973936333E-02 
428	 5,35712460246685E-02 
429	 5,47528681770302E-02 
430	 5,59861753186551E-02 
431	 5,68450991165315E-02 
432	 5,85737181736272E-02 
433	 5,88977173368517E-02 
434	 5,60589582503148E-02 
435	 5,45567410252524E-02 
436	 5,50307918050587E-02 
437	 5,67230422817113E-02 
438	 5,84161543269152E-02 
439	 5,95551995656542E-02 
440	 6,08845441737724E-02 
441	 6,19688489022701E-02 
442	 6,22103621510818E-02 
443	 6,17889020640609E-02 
444	 6,15435614582498E-02 
445	 6,44203054639617E-02 
446	 6,51894121943107E-02 
447	 6,12647152661957E-02 
448	 5,96383492580469E-02 
449	 6,09239331890703E-02 
450	 6,45453251107618E-02 
451	 6,60241231784722E-02 
452	 0,064356570047295 
453	 6,28699133831745E-02 
454	 6,23605017179113E-02 
455	 6,32326326803219E-02 
456	 6,22082795332473E-02 
457	 6,02795196268625E-02 
458	 6,15382699961404E-02 
459	 0,064434419765293 
460	 6,73851302468624E-02 
461	 6,54148433967968E-02 
462	 6,20940006983946E-02 
463	 6,27127914279075E-02 
464	 6,53644568607546E-02 
465	 6,82745553763619E-02 
466	 6,71049337989735E-02 
467	 6,53847848996233E-02 
468	 6,54777080026813E-02 
469	 6,57722438360402E-02 
470	 6,65772548912433E-02 
471	 6,91847403035909E-02 
472	 6,98067848152454E-02 
473	 0,067871245642676 
474	 6,69477744854602E-02 
475	 6,70031328926508E-02 
476	 6,77996142841031E-02 
477	 6,96174891225342E-02 
478	 7,17540930872571E-02 
479	 7,27698281269412E-02 
480	 7,20513535235021E-02 
481	 6,98570005017462E-02 
482	 6,99569417733562E-02 
483	 7,13408130890732E-02 
484	 7,19195759310296E-02 
485	 7,15344506638173E-02 
486	 7,03859022032446E-02 
487	 6,97389585165603E-02 
488	 6,84513394011841E-02 
489	 6,61948307619444E-02 
490	 6,95974516424825E-02 
491	 7,53000486970972E-02 
492	 7,34199413694423E-02 
493	 7,23291433773379E-02 
494	 7,40328917406527E-02 
495	 7,28912660103949E-02 
496	 0,071337150510671 
497	 7,24766966813567E-02 
498	 7,32244159329822E-02 
499	 7,31255179978816E-02 
500	 7,28655172142278E-02 
501	 7,33267528576198E-02 
502	 0,07491833567871 
503	 7,67486278068908E-02 
504	 7,75452975584799E-02 
505	 7,51478827604034E-02 
506	 7,50809763025522E-02 
507	 7,79572782918673E-02 
508	 7,86289341888603E-02 
509	 7,81977360430446E-02 
510	 7,79089904473715E-02 
511	 7,81016643351366E-02 
512	 7,89937601651916E-02 
513	 8,11360750884193E-02 
514	 8,19189231108753E-02 
515	 8,06408343998334E-02 
516	 8,08886630975456E-02 
517	 8,19820512582146E-02 
518	 8,25024982079152E-02 
519	 8,17346057772519E-02 
520	 8,04303939305381E-02 
521	 0,082135963390301 
522	 8,35456003499642E-02 
523	 8,24551977600775E-02 
524	 8,25310068849836E-02 
525	 8,36848495670185E-02 
526	 8,44735340483849E-02 
527	 8,50122028951474E-02 
528	 8,51301767501535E-02 
529	 8,40775975177248E-02 
530	 8,31016989012358E-02 
531	 8,36356430957396E-02 
532	 8,44221383821951E-02 
533	 8,53685910143905E-02 
534	 8,74096394965063E-02 
535	 8,84771467222551E-02 
536	 8,75444735836524E-02 
537	 8,70201326290075E-02 
538	 8,72167398528344E-02 
539	 8,80407505112134E-02 
540	 8,88634606360624E-02 
541	 8,94630575727619E-02 
542	 9,00955474409999E-02 
543	 9,05063029182059E-02 
544	 9,04771182461436E-02 
545	 9,07553458771035E-02 
546	 0,091336493767641 
547	 9,18193831393632E-02 
548	 9,19025040887041E-02 
549	 9,16209412299591E-02 
550	 9,23817778796495E-02 
551	 9,36014913737778E-02 
552	 9,41666194167041E-02 
553	 9,41454470679928E-02 
554	 9,38251875938967E-02 
555	 9,43600221799916E-02 
556	 0,094907535964864 
557	 9,48079985534162E-02 
558	 9,52467305136056E-02 
559	 9,59586270957618E-02 
560	 9,56199166928606E-02 
561	 9,59657684201074E-02 
562	 0,097410051143397 
563	 0,097950926333417 
564	 9,79665442481422E-02 
565	 9,81946051273063E-02 
566	 9,86550579453039E-02 
567	 9,93806799262968E-02 
568	 0,10051098477723 
569	 0,101002169747504 
570	 0,100265924866481 
571	 0,100140812237964 
572	 0,100686958612001 
573	 0,101486834809811 
574	 0,101325203788334 
575	 0,100278331212546 
576	 0,101345158890536 
577	 0,103033595003783 
578	 0,103453354794963 
579	 0,103941476426972 
580	 0,104434017037132 
581	 0,103855894719225 
582	 0,10318560593559 
583	 0,103037185113693 
584	 0,103252043610927 
585	 0,103771016012555 
586	 0,104525328086528 
587	 0,105342761183515 
588	 0,105999059132764 
589	 0,105956904827884 
590	 0,105696492695487 
591	 0,105677319511693 
592	 0,105416542989586 
593	 0,105158513655987 
594	 0,105849125424082 
595	 0,106218759064642 
596	 0,105874571907293 
597	 0,106581189979984 
598	 0,107525404929239 
599	 0,107235806038445 
600	 0,106964666513942 
601	 0,107042146906942 
602	 0,107285525086796 
603	 0,107592051365697 
604	 0,10783811958704 
605	 0,10754193187727 
606	 0,107147080954078 
607	 0,108009089813982 
608	 0,108420839447961 
609	 0,107951096976045 
610	 0,108241647841702 
611	 0,108639065636521 
612	 0,108182516885077 
613	 0,108082518216128 
614	 0,108428243043193 
615	 0,108458177650207 
616	 0,108588162954415 
617	 0,108991465597106 
618	 0,108720537181997 
619	 0,108254350349803 
620	 0,108809573532618 
621	 0,109263513855283 
622	 0,109287582225435 
623	 0,109175816100336 
624	 0,109267104789042 
625	 0,109856845624203 
626	 0,109929622103092 
627	 0,109652229756952 
628	 0,110179917196766 
629	 0,110737541984006 
630	 0,110902836375851 
631	 0,110649168431381 
632	 0,110533883974118 
633	 0,111499613773625 
634	 0,111571456332315 
635	 0,110733184862316 
636	 0,111569139669394 
637	 0,112246913529437 
638	 0,11129686603092 
639	 0,111398708156723 
640	 0,112310719671114 
641	 0,112150609124736 
642	 0,112101777902184 
643	 0,11246726919123 
644	 0,112149497032677 
645	 0,111895046333046 
646	 0,112778026241124 
647	 0,113226465954943 
648	 0,113044037806284 
649	 0,113067187672199 
650	 0,113056462115253 
651	 0,112877682445056 
652	 0,11282305284871 
653	 0,112726555790422 
654	 0,112119493542597 
655	 0,1117912831676 
656	 0,111944752151646 
657	 0,112124316298678 
658	 0,112182068131433 
659	 0,112009521098516 
660	 0,11201082919169 
661	 0,112141261125999 
662	 0,112077392197089 
663	 0,111625377900994 
664	 0,110811039315096 
665	 0,110607954475556 
666	 0,110608021216408 
667	 0,109945180410781 
668	 0,110105930347258 
669	 0,111130992767216 
670	 0,111529824942385 
671	 0,111549424615586 
672	 0,111437051555047 
673	 0,111363130900517 
674	 0,111338098165223 
675	 0,111218834511472 
676	 0,111341080467372 
677	 0,111777090202682 
678	 0,112116494053193 
679	 0,112547948211958 
680	 0,11332559748154 
681	 0,113781951306652 
682	 0,113903672518188 
683	 0,114160737232658 
684	 0,11456306158368 
685	 0,115095781762622 
686	 0,1154304189973 
687	 0,115899237907498 
688	 0,117224805314191 
689	 0,117971237087799 
690	 0,117944744232509 
691	 0,118446308866755 
692	 0,119010419275379 
693	 0,119187663658974 
694	 0,119238003431327 
695	 0,119455209691674 
696	 0,12052778489994 
697	 0,121260504175967 
698	 0,121296775055657 
699	 0,121844318785473 
700	 0,122585193854199 
701	 0,122968501464102 
702	 0,123601785351345 
703	 0,124426103740243 
704	 0,12484898254219 
705	 0,12482140397487 
706	 0,124470535342617 
707	 0,125179838326066 
708	 0,126261005398911 
709	 0,126008535239705 
710	 0,126255744462821 
711	 0,127310103591549 
712	 0,127906098690078 
713	 0,128098384870934 
714	 0,128034615391261 
715	 0,128454945898947 
716	 0,129092131694113 
717	 0,128754893449361 
718	 0,128823514662376 
719	 0,12967564088377 
720	 0,129764653807678 
721	 0,129787911921437 
722	 0,130805399277604 
723	 0,130937212209442 
724	 0,130267707166402 
725	 0,130599045724106 
726	 0,131342826864978 
727	 0,132020296977844 
728	 0,131839321329238 
729	 0,131310909119076 
730	 0,131510029552022 
731	 0,13219544994775 
732	 0,133051153191811 
733	 0,133054714266432 
734	 0,132819774985664 
735	 0,132906831360446 
736	 0,132864862335843 
737	 0,132868789728483 
738	 0,133553187148067 
739	 0,134125882600947 
740	 0,134327911256888 
741	 0,13466332052097 
742	 0,134882514159087 
743	 0,13467150977475 
744	 0,134712037571064 
745	 0,135090387346412 
746	 0,13556763075203 
747	 0,135899020724876 
748	 0,135972556336282 
749	 0,136169993283426 
750	 0,136285475705186 
751	 0,135917861960113 
752	 0,135895764389129 
753	 0,136321634021315 
754	 0,136616229951423 
755	 0,136889585543573 
756	 0,137203966484676 
757	 0,137354911296044 
758	 0,137416218570694 
759	 0,137591323570316 
760	 0,137787454025064 
761	 0,138010030778915 
762	 0,138390786552485 
763	 0,138816843289457 
764	 0,139160012801239 
765	 0,13916944568245 
766	 0,139018527748904 
767	 0,139277193482956 
768	 0,139518251553068 
769	 0,139624501552279 
770	 0,139934141948374 
771	 0,140268050230541 
772	 0,140391135024324 
773	 0,140494287584918 
774	 0,140617814499634 
775	 0,140731475621231 
776	 0,140892006465892 
777	 0,141128722001339 
778	 0,141436004842185 
779	 0,141680740701295 
780	 0,141675590180626 
781	 0,141801361835767 
782	 0,142059543048681 
783	 0,142035360934099 
784	 0,142099944508415 
785	 0,142459123244034 
786	 0,142663156417047 
787	 0,142697654956881 
788	 0,142632003386894 
789	 0,142888611451486 
790	 0,143444574566876 
791	 0,143658221236998 
792	 0,143562680568406 
793	 0,143275797305713 
794	 0,143589400342989 
795	 0,144249378509583 
796	 0,144445847035817 
797	 0,144380253587868 
798	 0,144226156345317 
799	 0,14454233538395 
800	 0,144943107641365 
801	 0,14504907355749 
802	 0,145184005788138 
803	 0,14532375130449 
804	 0,145219297236458 
805	 0,145337607905831 
806	 0,145743742155075 
807	 0,145739014965994 
808	 0,14573282164857 
809	 0,146172740087273 
810	 0,146034136391412 
811	 0,145540249861224 
812	 0,145894592183394 
813	 0,146337175985009 
814	 0,146514716020569 
815	 0,146312298936977 
816	 0,146240471638422 
817	 0,146889186219377 
818	 0,147393239845733 
819	 0,147537201013928 
820	 0,147306346602457 
821	 0,147208816839134 
822	 0,147475599959162 
823	 0,147752212617507 
824	 0,14793705440463 
825	 0,147953991553138 
826	 0,148097346360695 
827	 0,148289898814818 
828	 0,148021276290112 
829	 0,147859738458166 
830	 0,148096346400882 
831	 0,148516685054298 
832	 0,148814636664997 
833	 0,148623629722059 
834	 0,148799776180576 
835	 0,149261971987712 
836	 0,148976336915227 
837	 0,148809844836787 
838	 0,149147625509431 
839	 0,149069422210563 
840	 0,149071230401076 
841	 0,14997475323009 
842	 0,149924206461252 
843	 0,149032872545447 
844	 0,149285529100558 
845	 0,149717469566363 
846	 0,149829103389868 
847	 0,150071824770101 
848	 0,150158813015233 
849	 0,14964790947714 
850	 0,149258456882278 
851	 0,149189773919051 
852	 0,14937110076654 
853	 0,14974986602358 
854	 0,150141679055379 
855	 0,149580499900481 
856	 0,149009887480268 
857	 0,149826878182249 
858	 0,150029030122672 
859	 0,149594027053315 
860	 0,150179548831471 
861	 0,150399651807675 
862	 0,149783361024422 
863	 0,150212931848679 
864	 0,151018739078603 
865	 0,1510910917609 
866	 0,151419972692841 
867	 0,151788063418466 
868	 0,15076149378962 
869	 0,150269185709592 
870	 0,151049180662158 
871	 0,151381823668664 
872	 0,151336363280966 
873	 0,151209167090484 
874	 0,151378148633449 
875	 0,151786185417448 
876	 0,151985259408609 
877	 0,152161511886038 
878	 0,152300913633216 
879	 0,151989892059011 
880	 0,151460385428481 
881	 0,15101043762861 
882	 0,150754557151024 
883	 0,150715840519769 
884	 0,15085225160744 
885	 0,151026151970189 
886	 0,151246587376943 
887	 0,152008916168455 
888	 0,152347172263553 
889	 0,15148423827609 
890	 0,151559337860655 
891	 0,152417630011898 
892	 0,152858492948826 
893	 0,153117069528185 
894	 0,153114264957765 
895	 0,152330738185522 
896	 0,151855784512143 
897	 0,152420227685422 
898	 0,152288192898117 
899	 0,151865471514268 
900	 0,152375830973607 
901	 0,152419684494718 
902	 0,152034626631046 
903	 0,152959596959159 
904	 0,153557940017524 
905	 0,152999591315429 
906	 0,153402339666584 
907	 0,153937637596292 
908	 0,153102512706555 
909	 0,152898546309198 
910	 0,153451943711334 
911	 0,153537590394597 
912	 0,153602114953147 
913	 0,153716753291727 
914	 0,15305421352369 
915	 0,152647259801851 
916	 0,15363486694172 
917	 0,154700981083795 
918	 0,155240807040457 
919	 0,154339638800908 
920	 0,154510975777604 
921	 0,156085312336046 
922	 0,155994534734898 
923	 0,155433447645356 
924	 0,155461915801068 
925	 0,155063475283401 
926	 0,154683809354766 
927	 0,155392864175235 
928	 0,155331662955924 
929	 0,154490760429772 
930	 0,154778784092693 
931	 0,15581715238467 
932	 0,157035776051963 
933	 0,156291729201877 
934	 0,155009028837844 
935	 0,155299908790144 
936	 0,156052281237263 
937	 0,156709559302666 
938	 0,156307001878839 
939	 0,156515014055492 
940	 0,15752287892124 
941	 0,156704298901866 
942	 0,156006882343371 
943	 0,157075153520009 
944	 0,157036503664617 
945	 0,156322433014542 
946	 0,156583340205152 
947	 0,157276550768876 
948	 0,157985873090104 
949	 0,157679972214415 
950	 0,157679751555644 
951	 0,158565442665204 
952	 0,158779788932782 
953	 0,158669299191721 
954	 0,158825813659285 
955	 0,158506589542924 
956	 0,1581144065086 
957	 0,159196566699455 
958	 0,159020858409896 
959	 0,157393976995692 
960	 0,158115404553766 
961	 0,158984557939605 
962	 0,158391413108672 
963	 0,158447454035235 
964	 0,158863500445311 
965	 0,158773403038756 
966	 0,1590785731714 
967	 0,159669687997247 
968	 0,159521889715476 
969	 0,159447859506303 
970	 0,159852710731934 
971	 0,160912389293138 
972	 0,161789971612448 
973	 0,16170410317406 
974	 0,160592038603587 
975	 0,159844865652371 
976	 0,161908932652283 
977	 0,162271414271339 
978	 0,160707151204972 
979	 0,161153701079001 
980	 0,161186441516357 
981	 0,160143383870519 
982	 0,161339362769349 
983	 0,163238168334062 
984	 0,163959639770062 
985	 0,163409096207366 
986	 0,162388617854913 
987	 0,162444746107673 
988	 0,163667144431511 
989	 0,165209138129374 
990	 0,163834658693708 
991	 0,163312164170489 
992	 0,16502940345861 
993	 0,164439534046237 
994	 0,162688086377942 
995	 0,161556184331234 
996	 0,163422419593452 
997	 0,166243477806794 
998	 0,165257665373703 
999	 0,164160789980768 
1000	 0,163874969911069 
1001	 0,163686826485334 
1002	 0,163661297841054 
1003	 0,16381873168086 
1004	 0,164184044214141 
1005	 0,16452446704003 
1006	 0,164675386423157 
1007	 0,165184963033612 
1008	 0,166483787280731 
1009	 0,169124360979124 
1010	 0,171270629480197 
1011	 0,171565013656607 
1012	 0,167011552526488 
1013	 0,165767476708052 
1014	 0,170052587222473 
1015	 0,171172367218686 
1016	 0,168081521680298 
1017	 0,161824070037922 
1018	 0,165767951024517 
1019	 0,172400799858528 
1020	 0,167961980258183 
1021	 0,166237400210628 
1022	 0,168711450805657 
1023	 0,170525432826126 
1024	 0,171626357847766 
1025	 0,171757116223534 
1026	 0,171038621316829 
1027	 0,169933702051647 
1028	 0,168869526047503 
1029	 0,168263839030262 
1030	 0,167581238871632 
1031	 0,166411232638663 
1032	 0,168790465510969 
1033	 0,174064233870448 
1034	 0,179622145471466 
1035	 0,179761277373933 
1036	 0,175243460275022 
1037	 0,17562542362755 
1038	 0,174409781808749 
1039	 0,170167021238267 
1040	 0,170739243490591 
1041	 0,173295938627912 
1042	 0,175063059448771 
1043	 0,176213037046416 
1044	 0,177980165344629 
1045	 0,181937508473239 
1046	 0,183518889999424 
1047	 0,181202728407965 
1048	 0,173571920127801 
1049	 0,176508232933126 
1050	 0,188323347809086 
1051	 0,181764671257873 
1052	 0,175664254333219 
1053	 0,178960083790792 
1054	 0,183987036731915 
1055	 0,187277939113648 
1056	 0,186136912493615 
1057	 0,183583477622052 
1058	 0,176559199699369 
1059	 0,161393627024591 
1060	 0,164541748221702 
1061	 0,178761345039545 
1062	 0,173525027565513 
1063	 0,174301069641891 
1064	 0,183664626966979 
1065	 0,183778685743339 
1066	 0,178680416456256 
1067	 0,172472145765197 
1068	 0,176230327724884 
1069	 0,179110945264734 
1070	 0,174089263443724 
1071	 0,178326773795253 
1072	 0,188507277404962 
1073	 0,197339726797418 
1074	 0,196914325268629 
1075	 0,183865195793707 
