Wavelength	ABBE00288.asd
325	 6,02657498344348E-02 
326	 0,173793026685589 
327	 0,134018598852519 
328	-9,25048064506872E-02 
329	-0,110191570881226 
330	-3,93650567634033E-03 
331	 7,57418123350214E-02 
332	 6,29023709789805E-02 
333	 1,01272934253907E-02 
334	 3,33339942849715E-02 
335	 8,19421638843278E-02 
336	 0,134440528552432 
337	 0,169128661066205 
338	 0,130657218897798 
339	-3,74075862081722E-02 
340	-3,53327091983677E-02 
341	 9,33915588488072E-02 
342	 0,109749287569477 
343	 0,109479894387104 
344	 0,107172451447222 
345	 5,24310351744969E-02 
346	 1,96993367690916E-02 
347	 7,39653663351176E-02 
348	 9,20056161700043E-02 
349	 6,62577523596777E-02 
350	 2,92900491299226E-02 
351	 2,92748164293121E-02 
352	 7,51997027983759E-02 
353	 0,104915472170024 
354	 0,102740572272067 
355	 5,92378260093161E-02 
356	 2,38485250047327E-02 
357	 8,75267804024196E-03 
358	 2,47641009278055E-02 
359	 2,55650287400748E-02 
360	-2,48704367494358E-03 
361	 1,26199073125116E-02 
362	 4,09671697423673E-02 
363	 3,15484140612933E-02 
364	 2,51343817880496E-02 
365	 3,06250494277989E-02 
366	 4,65888727695624E-02 
367	 5,06708434427775E-02 
368	 3,26312885220405E-02 
369	 2,02575161974035E-02 
370	 1,38301615095905E-02 
371	 7,29643588521194E-03 
372	 1,78904746296538E-02 
373	 0,040847221010383 
374	 0,039203725419987 
375	 0,033404643447869 
376	 4,00004144467114E-02 
377	 5,18262237247627E-02 
378	 6,39089853750557E-02 
379	 7,00385353223686E-02 
380	 5,60005382430849E-02 
381	 2,86674256006563E-02 
382	 5,24558982206702E-02 
383	 7,60923490239437E-02 
384	 5,33581735603356E-02 
385	 2,29607850601507E-02 
386	 4,66039882715059E-03 
387	 0,027618781266253 
388	 4,80297557900001E-02 
389	 4,92770300321598E-02 
390	 0,048566285634969 
391	 4,63034837676531E-02 
392	 4,15152587162603E-02 
393	 4,67667824496361E-02 
394	 5,72543699962048E-02 
395	 5,15354830682342E-02 
396	 4,59523412817091E-02 
397	 4,78817142949636E-02 
398	 4,37920735523189E-02 
399	 3,75128180610189E-02 
400	 3,65381460813033E-02 
401	 3,76080282583774E-02 
402	 3,84796876643304E-02 
403	 3,38529824438666E-02 
404	 3,15446282059818E-02 
405	 0,035779040365985 
406	 3,38095881636827E-02 
407	 2,89797575137215E-02 
408	 3,19917920679606E-02 
409	 3,20764982228888E-02 
410	 2,76780107091182E-02 
411	 2,62936076190522E-02 
412	 2,82861627516941E-02 
413	 3,31129114954605E-02 
414	 3,39696963238869E-02 
415	 3,14774164734729E-02 
416	 0,030078583653313 
417	 0,031893637305144 
418	 3,63047628403604E-02 
419	 3,35297314118134E-02 
420	 2,98005326341017E-02 
421	 3,39936775001244E-02 
422	 3,46397853010183E-02 
423	 3,14401254658727E-02 
424	 3,18854481570915E-02 
425	 3,37077258162775E-02 
426	 3,50253106441386E-02 
427	 3,24453351862134E-02 
428	 2,92940732092399E-02 
429	 0,03220106281652 
430	 3,59130138704677E-02 
431	 3,88902259762949E-02 
432	 4,29998119398544E-02 
433	 4,28609121455267E-02 
434	 3,46197657657766E-02 
435	 3,33817214482636E-02 
436	 3,88288180355241E-02 
437	 4,33709567890203E-02 
438	 4,39657965751009E-02 
439	 4,02947330728347E-02 
440	 0,040832518261619 
441	 4,22906923430855E-02 
442	 3,95923779862215E-02 
443	 3,93654867664322E-02 
444	 4,20300046959034E-02 
445	 4,39462750373341E-02 
446	 4,35472994033399E-02 
447	 4,02888345678833E-02 
448	 0,038509535996344 
449	 3,86041288357461E-02 
450	 0,040035002073634 
451	 4,08736370099904E-02 
452	 4,07850936761179E-02 
453	 4,19878048847428E-02 
454	 4,27602031862965E-02 
455	 4,15562517526376E-02 
456	 4,05019248030797E-02 
457	 4,00096533949956E-02 
458	 3,99149114283224E-02 
459	 3,99018326918323E-02 
460	 3,97621413055319E-02 
461	 0,039128785182213 
462	 3,90209610277428E-02 
463	 4,08054208125989E-02 
464	 4,20103151751372E-02 
465	 0,042154679596071 
466	 4,18864475297763E-02 
467	 4,21953342183197E-02 
468	 4,35425460141059E-02 
469	 4,36150162724832E-02 
470	 0,043118140121198 
471	 4,42255192615537E-02 
472	 4,45237704216403E-02 
473	 4,37080529338425E-02 
474	 4,42420747656869E-02 
475	 4,45014161363286E-02 
476	 4,29340885657328E-02 
477	 4,37988783308701E-02 
478	 4,64085969678675E-02 
479	 4,67599943638242E-02 
480	 4,60108815807849E-02 
481	 4,48538392428905E-02 
482	 0,044350730386592 
483	 4,44600611113648E-02 
484	 4,49241783228597E-02 
485	 4,48865006947724E-02 
486	 4,42186727373616E-02 
487	 4,33206580369536E-02 
488	 4,31581403532608E-02 
489	 4,43481001628468E-02 
490	 4,52202020420675E-02 
491	 4,58107503528387E-02 
492	 4,71625015070084E-02 
493	 4,72873738140281E-02 
494	 4,60045317673293E-02 
495	 4,64743693886825E-02 
496	 4,69641723674286E-02 
497	 4,53175736195654E-02 
498	 4,49530328050056E-02 
499	 4,60260181415946E-02 
500	 4,65470890326841E-02 
501	 4,68251429203486E-02 
502	 4,70998535720639E-02 
503	 4,82185672105048E-02 
504	 4,91364808341216E-02 
505	 4,77093340253733E-02 
506	 4,79931842873607E-02 
507	 5,02244284308707E-02 
508	 4,99695744663431E-02 
509	 4,86248086580044E-02 
510	 4,77008830896968E-02 
511	 4,77433637773424E-02 
512	 4,89726028542637E-02 
513	 5,21341083250204E-02 
514	 5,26433206951236E-02 
515	 4,93878357714908E-02 
516	 4,93551420546769E-02 
517	 5,12476552089021E-02 
518	 5,22902735116175E-02 
519	 5,20165595562013E-02 
520	 5,10110031124076E-02 
521	 0,052318951120757 
522	 5,29080910042671E-02 
523	 0,050925539072491 
524	 5,15113164628844E-02 
525	 5,37725516466547E-02 
526	 0,054007058770901 
527	 5,35850093094252E-02 
528	 5,30458554187238E-02 
529	 5,30838787268648E-02 
530	 5,31751689269662E-02 
531	 5,26652091939731E-02 
532	 0,052739876701318 
533	 5,35848809047474E-02 
534	 5,50187555072888E-02 
535	 0,055983283127603 
536	 5,59021276214448E-02 
537	 5,57587896680313E-02 
538	 5,58713781497251E-02 
539	 5,65820803049499E-02 
540	 5,69418603948763E-02 
541	 5,67110101467426E-02 
542	 5,62722190688782E-02 
543	 5,62157524778079E-02 
544	 5,70579903194787E-02 
545	 5,82266703274902E-02 
546	 5,89980981979444E-02 
547	 5,76953097158159E-02 
548	 5,69205518164954E-02 
549	 5,78302442381578E-02 
550	 5,84802796070345E-02 
551	 5,90359649273355E-02 
552	 6,01895226548092E-02 
553	 5,98153185688624E-02 
554	 5,81377597180824E-02 
555	 5,85621142716192E-02 
556	 5,93615395164765E-02 
557	 5,91053813012411E-02 
558	 5,94070491931644E-02 
559	 6,01491892003908E-02 
560	 6,04161477772126E-02 
561	 6,03729716431687E-02 
562	 6,02013974851782E-02 
563	 6,07725323827938E-02 
564	 6,12694929157294E-02 
565	 6,05213508562667E-02 
566	 6,05988540355563E-02 
567	 6,15976097212699E-02 
568	 0,06187071803764 
569	 0,062061763690535 
570	 6,25710665199673E-02 
571	 6,27844637874296E-02 
572	 0,062662292089676 
573	 6,22354949543289E-02 
574	 6,21999740924585E-02 
575	 0,062861179627533 
576	 6,41854379461992E-02 
577	 6,54987318819292E-02 
578	 6,60647617586713E-02 
579	 6,60468996421457E-02 
580	 6,57568010763847E-02 
581	 6,59906732837168E-02 
582	 0,066276893487403 
583	 6,64124334152797E-02 
584	 6,69425785581665E-02 
585	 6,77947315755135E-02 
586	 6,88245949523449E-02 
587	 6,87952742892735E-02 
588	 6,77914853696126E-02 
589	 6,79228355186342E-02 
590	 6,87753810868741E-02 
591	 6,98240314038007E-02 
592	 7,05442856828363E-02 
593	 0,070724034088694 
594	 7,00748165622461E-02 
595	 6,99367245206894E-02 
596	 7,07250457090588E-02 
597	 7,03913743017789E-02 
598	 6,96755950615716E-02 
599	 6,99999519744153E-02 
600	 7,02193560940167E-02 
601	 7,01430806512524E-02 
602	 7,02918793073615E-02 
603	 0,070501906152153 
604	 7,06085233405584E-02 
605	 7,02614178431159E-02 
606	 6,98922332998483E-02 
607	 7,08596411092451E-02 
608	 7,09039534751427E-02 
609	 6,95896150071419E-02 
610	 6,98733691453953E-02 
611	 7,04843422451332E-02 
612	 6,95683341847888E-02 
613	 6,94052155882721E-02 
614	 7,00720297825363E-02 
615	 0,069880492043061 
616	 6,98276621447856E-02 
617	 7,04122969979276E-02 
618	 7,01164760378258E-02 
619	 6,93948050209641E-02 
620	 6,96088632934658E-02 
621	 6,93769152092981E-02 
622	 6,85988554519606E-02 
623	 6,89076873531214E-02 
624	 6,97891272983978E-02 
625	 7,05684080530419E-02 
626	 7,02400799545289E-02 
627	 6,93261694344941E-02 
628	 7,00069523011201E-02 
629	 7,08268627552766E-02 
630	 7,10515410998987E-02 
631	 7,11772193915056E-02 
632	 7,12257040952122E-02 
633	 7,11342334835222E-02 
634	 7,12320911883094E-02 
635	 7,16182144564953E-02 
636	 7,22923719333507E-02 
637	 7,26651406940363E-02 
638	 7,23070592183693E-02 
639	 0,072310461018322 
640	 7,27978416523654E-02 
641	 7,35958530542568E-02 
642	 7,41262522742972E-02 
643	 7,41342293000571E-02 
644	 7,38299800681402E-02 
645	 7,37793831630846E-02 
646	 7,46702397154709E-02 
647	 7,48553797770154E-02 
648	 7,42469985115706E-02 
649	 7,40583526844872E-02 
650	 7,42284811532561E-02 
651	 7,46168816414138E-02 
652	 7,43506448920885E-02 
653	 7,35044163397201E-02 
654	 7,24172212130433E-02 
655	 7,19988814766792E-02 
656	 7,23614828791196E-02 
657	 7,23113620462813E-02 
658	 7,16941366605456E-02 
659	 0,070480303519535 
660	 6,98209786292895E-02 
661	 6,96855911771351E-02 
662	 0,069148038946245 
663	 6,86856008838455E-02 
664	 6,84507310219369E-02 
665	 6,78208545873241E-02 
666	 6,70882826132724E-02 
667	 6,67880880534806E-02 
668	 6,68760910618912E-02 
669	 0,067248764468289 
670	 6,76352056842841E-02 
671	 6,76334240657122E-02 
672	 6,70009478992693E-02 
673	 6,67357992712302E-02 
674	 6,68582058501524E-02 
675	 6,69349879833939E-02 
676	 6,71734753731165E-02 
677	 6,74992862948549E-02 
678	 0,067116809621538 
679	 6,69023477926889E-02 
680	 6,79345937056387E-02 
681	 0,068346856482359 
682	 6,80834175111773E-02 
683	 0,068409941201986 
684	 6,90753571076926E-02 
685	 6,98746427713218E-02 
686	 7,02505336075528E-02 
687	 7,06560074307825E-02 
688	 7,20274915863929E-02 
689	 7,35222882640054E-02 
690	 7,48041222083985E-02 
691	 7,56225196839293E-02 
692	 7,66475072891005E-02 
693	 7,84433962953654E-02 
694	 7,99886678739138E-02 
695	 8,14910209685482E-02 
696	 8,39807167498905E-02 
697	 8,67073733872041E-02 
698	 0,089256698366297 
699	 9,12136894874095E-02 
700	 9,30965675161211E-02 
701	 9,56117930416328E-02 
702	 9,84701733357616E-02 
703	 0,101391104857209 
704	 0,103855118957973 
705	 0,105768907767928 
706	 0,107206497634915 
707	 0,1093657555243 
708	 0,111777291412377 
709	 0,113224931345785 
710	 0,114712679054031 
711	 0,116487268814005 
712	 0,118225913023147 
713	 0,119739937917978 
714	 0,120895907589928 
715	 0,122277634811419 
716	 0,123727985792286 
717	 0,124515148924097 
718	 0,125324103598355 
719	 0,12634916338083 
720	 0,126875749147182 
721	 0,127364681011947 
722	 0,128469713409825 
723	 0,129101557652334 
724	 0,129315318484822 
725	 0,130197532963763 
726	 0,13116810213769 
727	 0,131835847846261 
728	 0,132185549013908 
729	 0,132238406002078 
730	 0,131980084402332 
731	 0,13234924799903 
732	 0,133376064328828 
733	 0,133769495474138 
734	 0,134041393825002 
735	 0,134634423422605 
736	 0,134754915798731 
737	 0,134649845978616 
738	 0,135284597814145 
739	 0,135854815708246 
740	 0,136092346073635 
741	 0,136321043567292 
742	 0,136562672638002 
743	 0,136812355339483 
744	 0,136842164925822 
745	 0,136810644744514 
746	 0,137382936391721 
747	 0,13785354347044 
748	 0,137852772068597 
749	 0,137692509056184 
750	 0,137582864940474 
751	 0,137772628596041 
752	 0,13811902899913 
753	 0,138469307221847 
754	 0,138418186291215 
755	 0,138456189514215 
756	 0,138887918765297 
757	 0,138955984454226 
758	 0,138832389923042 
759	 0,139116432464583 
760	 0,139282948632456 
761	 0,139285047012429 
762	 0,139690549494091 
763	 0,140241761256676 
764	 0,140646166754967 
765	 0,14056307528046 
766	 0,140284901175882 
767	 0,140749778624849 
768	 0,14119063785932 
769	 0,141307261488203 
770	 0,141246959711228 
771	 0,141229454556866 
772	 0,141492629052039 
773	 0,141755351458394 
774	 0,142034874525091 
775	 0,142666637266694 
776	 0,142974850681957 
777	 0,142682305971466 
778	 0,142552433910365 
779	 0,142594649148199 
780	 0,142675951615562 
781	 0,142964769592753 
782	 0,143362257538827 
783	 0,143412846992194 
784	 0,143373663700341 
785	 0,143422533811121 
786	 0,143506544826702 
787	 0,143620544968548 
788	 0,143764334645413 
789	 0,143850372111242 
790	 0,143924382359163 
791	 0,144359595340937 
792	 0,144530054667639 
793	 0,14401396984985 
794	 0,143887100529048 
795	 0,144294871516788 
796	 0,145218961066763 
797	 0,145530354421306 
798	 0,145045408804115 
799	 0,145079421351506 
800	 0,145176176425483 
801	 0,144903041203324 
802	 0,145211597547541 
803	 0,14593041939043 
804	 0,146215781785486 
805	 0,146330362532422 
806	 0,146384836060461 
807	 0,146571947731385 
808	 0,146794170159676 
809	 0,146909490095257 
810	 0,146450505284694 
811	 0,145766412426181 
812	 0,146047230280852 
813	 0,146500812627161 
814	 0,146805899756321 
815	 0,147166226638793 
816	 0,147593046785769 
817	 0,148076927043857 
818	 0,148187742924421 
819	 0,147952304271455 
820	 0,14772121083869 
821	 0,147649924950379 
822	 0,147848033129414 
823	 0,148319032326949 
824	 0,148871744242876 
825	 0,149265541109101 
826	 0,14889939789807 
827	 0,148148813175005 
828	 0,148671351063529 
829	 0,149084936044208 
830	 0,148777568765521 
831	 0,148864053237242 
832	 0,14899982358018 
833	 0,148570618242756 
834	 0,148769257671656 
835	 0,149503521858113 
836	 0,149478110582014 
837	 0,149379680217843 
838	 0,149557723486877 
839	 0,149725072723138 
840	 0,149834315823201 
841	 0,149859109211081 
842	 0,150005610402091 
843	 0,150272369387435 
844	 0,150535939125498 
845	 0,150474931869447 
846	 0,149948636268906 
847	 0,149271021693068 
848	 0,148930449297259 
849	 0,149514678733026 
850	 0,150027072617892 
851	 0,150157237256113 
852	 0,14985170491385 
853	 0,149613374969082 
854	 0,149728249829405 
855	 0,149922167020897 
856	 0,150350590835906 
857	 0,151251988793413 
858	 0,151039553859989 
859	 0,149981038752114 
860	 0,150206285672547 
861	 0,150721106271365 
862	 0,151027417176437 
863	 0,151420213087217 
864	 0,151629147376331 
865	 0,151304923435481 
866	 0,151468815164202 
867	 0,151917372243733 
868	 0,151189158235529 
869	 0,150724609417972 
870	 0,151125397923141 
871	 0,15146515723201 
872	 0,151647978114194 
873	 0,151677528894644 
874	 0,152002729282907 
875	 0,152467156011209 
876	 0,152268165762863 
877	 0,152396304213328 
878	 0,153042932744271 
879	 0,152723786315595 
880	 0,152332682542054 
881	 0,152869212677566 
882	 0,152415785352905 
883	 0,151383151177636 
884	 0,151777584953702 
885	 0,15268559364214 
886	 0,153534991929069 
887	 0,153209560891433 
888	 0,152605199064412 
889	 0,152621497715507 
890	 0,152783288526492 
891	 0,152941559910398 
892	 0,152891541468886 
893	 0,153275929297173 
894	 0,1540482927871 
895	 0,154114771685181 
896	 0,153728947256096 
897	 0,153213539038685 
898	 0,153378096158937 
899	 0,153639614744142 
900	 0,1526686558365 
901	 0,152795643033279 
902	 0,154104164737789 
903	 0,154324321633992 
904	 0,154184690616119 
905	 0,154159632240978 
906	 0,154222071527553 
907	 0,154112227336083 
908	 0,153463727424842 
909	 0,153782352846319 
910	 0,154835616938455 
911	 0,154689003992311 
912	 0,154430877182687 
913	 0,154523212936758 
914	 0,154501110070619 
915	 0,154477857709761 
916	 0,154618610766626 
917	 0,155067132090273 
918	 0,155517828477177 
919	 0,155081041656211 
920	 0,155077294791562 
921	 0,155767708200713 
922	 0,156030534066319 
923	 0,155994179277662 
924	 0,155819023119893 
925	 0,155541034613122 
926	 0,155405854655785 
927	 0,155838951168474 
928	 0,155638534214168 
929	 0,154928521432495 
930	 0,155388277605709 
931	 0,156509079236459 
932	 0,15763115719266 
933	 0,156595242325834 
934	 0,155117007305699 
935	 0,155650177900872 
936	 0,15611088661807 
937	 0,156220298381393 
938	 0,156591145229382 
939	 0,156541456620195 
940	 0,155955743421972 
941	 0,15565309915294 
942	 0,155383736193667 
943	 0,154946768183463 
944	 0,154998970860249 
945	 0,155477212107864 
946	 0,156078239491371 
947	 0,156391577234582 
948	 0,156366050763886 
949	 0,1564510084842 
950	 0,156178200350334 
951	 0,155554554803366 
952	 0,156503570131226 
953	 0,157331440535561 
954	 0,155871484095851 
955	 0,154465818216612 
956	 0,153844553631671 
957	 0,154604220927086 
958	 0,154491385259824 
959	 0,153310998236106 
960	 0,154201526405437 
961	 0,155374976718428 
962	 0,155509650363594 
963	 0,156499312570829 
964	 0,156941030419717 
965	 0,154427016598084 
966	 0,154050253870388 
967	 0,155973491735509 
968	 0,156616670597571 
969	 0,156027552460345 
970	 0,154555601991619 
971	 0,154297451271059 
972	 0,155168948830225 
973	 0,156740875435133 
974	 0,157083316075837 
975	 0,156377535099808 
976	 0,155620398801736 
977	 0,155331441703501 
978	 0,155186013558476 
979	 0,153141683102799 
980	 0,152256520594504 
981	 0,153853218890715 
982	 0,155736776925575 
983	 0,157769064547509 
984	 0,159756519353384 
985	 0,158975149338205 
986	 0,156612279271219 
987	 0,155731281379195 
988	 0,15777825416677 
989	 0,161523742634389 
990	 0,161164381479828 
991	 0,159035032028115 
992	 0,156949509526849 
993	 0,157561125919318 
994	 0,158133031456652 
995	 0,156036501751917 
996	 0,158020077179588 
997	 0,162159288781622 
998	 0,162562270406612 
999	 0,160626531870126 
1000	 0,15799068708699 
1001	 0,159117443669682 
1002	 0,16008052064249 
1003	 0,159410291192816 
1004	 0,16132719140089 
1005	 0,162192390276889 
1006	 0,158944332915235 
1007	 0,161212059539933 
1008	 0,165827016973305 
1009	 0,164361598659139 
1010	 0,162836589232878 
1011	 0,162307648740275 
1012	 0,160732200522736 
1013	 0,160335428821731 
1014	 0,161852002587756 
1015	 0,163879389638809 
1016	 0,16459436221736 
1017	 0,162774354684794 
1018	 0,16093103698863 
1019	 0,160695455225606 
1020	 0,163636803054837 
1021	 0,165486327938033 
1022	 0,16604153970472 
1023	 0,167968573118887 
1024	 0,169163310166432 
1025	 0,1684494865457 
1026	 0,163832004072063 
1027	 0,160648656466903 
1028	 0,162028301420149 
1029	 0,163009086565972 
1030	 0,164902940586389 
1031	 0,16925962182823 
1032	 0,166892693939793 
1033	 0,162431275277321 
1034	 0,168681494174665 
1035	 0,172405284890867 
1036	 0,171399477881466 
1037	 0,172569330704525 
1038	 0,171928588267203 
1039	 0,168751158452919 
1040	 0,168774493360532 
1041	 0,168168081630198 
1042	 0,164080697391096 
1043	 0,161493012775223 
1044	 0,161805529998654 
1045	 0,165768166117972 
1046	 0,173141678707597 
1047	 0,17792466285305 
1048	 0,167030215385476 
1049	 0,164056749054066 
1050	 0,171834864780391 
1051	 0,170076775762808 
1052	 0,17217088698162 
1053	 0,181293311677139 
1054	 0,17799268848224 
1055	 0,169883625814844 
1056	 0,16570364925111 
1057	 0,172528445177039 
1058	 0,178380371728585 
1059	 0,166626729700306 
1060	 0,170150952403685 
1061	 0,181547486621561 
1062	 0,167319112135486 
1063	 0,160502528547889 
1064	 0,167021429558789 
1065	 0,17085640135595 
1066	 0,173772455010903 
1067	 0,17490915961778 
1068	 0,166809058806278 
1069	 0,1638935466049 
1070	 0,174927204762942 
1071	 0,174478888535099 
1072	 0,172204502404384 
1073	 0,181442991568013 
1074	 0,179329314498827 
1075	 0,165833952484553 
