Wavelength	ABBE00518.asd
325	 7,18623624399386E-04 
326	 0,138086095110889 
327	 0,231302555752032 
328	 0,195718671984849 
329	 3,98196979941402E-02 
330	 3,65647090931205E-02 
331	 0,367273415131166 
332	 0,349451040212212 
333	 0,131509434892099 
334	 0,206192676215215 
335	 0,238910477820956 
336	 0,183029412585202 
337	 0,17533081611663 
338	 0,168079876591344 
339	 0,116212481896423 
340	 0,180804991173969 
341	 0,27777597113501 
342	 0,20140825939194 
343	 0,171792766274619 
344	 0,221302584247133 
345	 0,206597009279373 
346	 0,199605470433624 
347	 0,269391686513397 
348	 0,238648852610958 
349	 0,151376116802064 
350	 0,189585839095293 
351	 0,227677592737584 
352	 0,2244584171395 
353	 0,238693905915924 
354	 0,237911033006192 
355	 0,181208515815822 
356	 0,171801676626174 
357	 0,20052546330526 
358	 0,189356761091547 
359	 0,179226073086394 
360	 0,188157354366192 
361	 0,20978397581053 
362	 0,219546802961462 
363	 0,1862489891969 
364	 0,177067997240478 
365	 0,196879426034721 
366	 0,201487021362637 
367	 0,200829556073428 
368	 0,202033878615232 
369	 0,210967106543308 
370	 0,220520561279675 
371	 0,215218123505208 
372	 0,211496196111581 
373	 0,212013688935424 
374	 0,204670065030397 
375	 0,203370337922052 
376	 0,216591202827968 
377	 0,216945317631346 
378	 0,208843375242281 
379	 0,210402776287194 
380	 0,211204343821044 
381	 0,209432680781386 
382	 0,212476905122996 
383	 0,213664942754438 
384	 0,206903028256391 
385	 0,193371147233114 
386	 0,179428819419119 
387	 0,177639164326357 
388	 0,186246473820666 
389	 0,199589872475161 
390	 0,193309006241129 
391	 0,185751955545091 
392	 0,200155943573948 
393	 0,210739521775861 
394	 0,213122218301442 
395	 0,212071532805254 
396	 0,211684832455485 
397	 0,213639669879655 
398	 0,212071661263186 
399	 0,208622215648656 
400	 0,206240424469311 
401	 0,209651222497491 
402	 0,215311250754246 
403	 0,205138354555629 
404	 0,198853502935267 
405	 0,208013144767788 
406	 0,20921991992963 
407	 0,204788309831813 
408	 0,206446618635935 
409	 0,207057478796832 
410	 0,205258990278647 
411	 0,20358502203855 
412	 0,204253192553582 
413	 0,208563176270642 
414	 0,206134186982177 
415	 0,200072164964534 
416	 0,202963369286296 
417	 0,207692946419512 
418	 0,210212838279182 
419	 0,204613061780943 
420	 0,19834875174607 
421	 0,201276652584656 
422	 0,205288267054748 
423	 0,207564908174386 
424	 0,20593413043287 
425	 0,203395950287273 
426	 0,202144802581838 
427	 0,202900889038697 
428	 0,204740838149919 
429	 0,206171533272163 
430	 0,204391079319339 
431	 0,200705262999766 
432	 0,204921624452934 
433	 0,20792639878412 
434	 0,202075773752432 
435	 0,200020160685108 
436	 0,202589227608114 
437	 0,206002501876407 
438	 0,208092914775805 
439	 0,207607872849804 
440	 0,204467659220659 
441	 0,201700262777314 
442	 0,202940682261781 
443	 0,205665630502381 
444	 0,208191095454464 
445	 0,207341010823178 
446	 0,206338949722273 
447	 0,207192104522545 
448	 0,208842835780982 
449	 0,210091438488956 
450	 0,209092350074089 
451	 0,207701616710954 
452	 0,207023103161963 
453	 0,208876036617426 
454	 0,210821807320846 
455	 0,210598203489897 
456	 0,209273254837208 
457	 0,208064789718229 
458	 0,209267848175712 
459	 0,211993067080994 
460	 0,214955740182253 
461	 0,213067575088825 
462	 0,210888867957471 
463	 0,215033084846454 
464	 0,217047640934256 
465	 0,215726135031624 
466	 0,214618222039071 
467	 0,214146593306643 
468	 0,21444603025855 
469	 0,213251183110571 
470	 0,212505503275917 
471	 0,21704601034659 
472	 0,219145026785778 
473	 0,216870692435924 
474	 0,213677336469491 
475	 0,212870878909186 
476	 0,217190062562734 
477	 0,220014166274352 
478	 0,219752666309716 
479	 0,21586108114578 
480	 0,214298820778835 
481	 0,217199911742814 
482	 0,217156679633807 
483	 0,215631264803821 
484	 0,216027868840668 
485	 0,215574363375962 
486	 0,214042394184974 
487	 0,213054190134224 
488	 0,212911433317707 
489	 0,213716274753249 
490	 0,214301475010571 
491	 0,214199286735958 
492	 0,212683498099583 
493	 0,212175196608854 
494	 0,213252283905294 
495	 0,213854905481789 
496	 0,213665235163212 
497	 0,212548687709169 
498	 0,211772197387534 
499	 0,211627014853931 
500	 0,211605600481579 
501	 0,212967507070213 
502	 0,216009025999907 
503	 0,217354945815287 
504	 0,217404249738351 
505	 0,217654119532914 
506	 0,21804326328886 
507	 0,218570425837775 
508	 0,218931159551161 
509	 0,21934791972072 
510	 0,22005416926249 
511	 0,221417085349459 
512	 0,223258989543865 
513	 0,225246837308425 
514	 0,225914105323067 
515	 0,225028868284426 
516	 0,225592105887317 
517	 0,22694455481001 
518	 0,227781966251284 
519	 0,227329119939009 
520	 0,226156632541332 
521	 0,227350917860017 
522	 0,227724624500007 
523	 0,225338238908944 
524	 0,225710032764199 
525	 0,227811424272524 
526	 0,227409611040244 
527	 0,226858991562809 
528	 0,226693395497135 
529	 0,225604565164263 
530	 0,224419369070587 
531	 0,224154608709589 
532	 0,224122294909218 
533	 0,224438739900859 
534	 0,226250969245586 
535	 0,226875093434299 
536	 0,225097394582901 
537	 0,225070817129273 
538	 0,226205089211312 
539	 0,226390607982708 
540	 0,226193753104406 
541	 0,225809724690009 
542	 0,225536876366651 
543	 0,225401450742341 
544	 0,225418855339389 
545	 0,225934226887408 
546	 0,226622207906756 
547	 0,22642437265174 
548	 0,226304859081309 
549	 0,226654234510599 
550	 0,226597019036939 
551	 0,226586082508567 
552	 0,227494364219982 
553	 0,227856406944894 
554	 0,227444326202515 
555	 0,227284403164149 
556	 0,226812377946501 
557	 0,225644945178086 
558	 0,225308038336551 
559	 0,22556826089424 
560	 0,225143145999471 
561	 0,224599236632296 
562	 0,224119416807051 
563	 0,223506861956472 
564	 0,222919866556649 
565	 0,222568143239134 
566	 0,222846692611015 
567	 0,223576582765158 
568	 0,223771869210748 
569	 0,224019424855499 
570	 0,224713131604229 
571	 0,22537135183271 
572	 0,226216490984609 
573	 0,227913604680309 
574	 0,229570268623837 
575	 0,230955400057778 
576	 0,232697075475928 
577	 0,23475236473702 
578	 0,23701222698881 
579	 0,23876406610341 
580	 0,240132132656799 
581	 0,242142793711298 
582	 0,243946020046839 
583	 0,245081611291065 
584	 0,246018576335648 
585	 0,247092198486757 
586	 0,24874919515518 
587	 0,250467145729715 
588	 0,251959185903392 
589	 0,252810690117711 
590	 0,253546263562899 
591	 0,254650109519675 
592	 0,255486769060477 
593	 0,256113539708557 
594	 0,257089240990158 
595	 0,257657757017316 
596	 0,257601013923392 
597	 0,258006610744092 
598	 0,258615554052801 
599	 0,258897626993218 
600	 0,258430957646468 
601	 0,257341609090516 
602	 0,256571961594591 
603	 0,256110348760611 
604	 0,255860386897247 
605	 0,254911902466895 
606	 0,253598961671541 
607	 0,253065409631658 
608	 0,252857580996243 
609	 0,252734069861114 
610	 0,252364759462385 
611	 0,251481223650824 
612	 0,249822582692964 
613	 0,248565175372518 
614	 0,247910671540262 
615	 0,247340531140298 
616	 0,246955312054036 
617	 0,246779447450283 
618	 0,246562353908829 
619	 0,246270757530441 
620	 0,24594322050818 
621	 0,24546249377584 
622	 0,244959645714737 
623	 0,245156434312677 
624	 0,245589658818095 
625	 0,245737423854307 
626	 0,24568856360116 
627	 0,245713579592825 
628	 0,246643163938214 
629	 0,24714757130466 
630	 0,246792208354373 
631	 0,247850868948839 
632	 0,249491306695759 
633	 0,24995047729837 
634	 0,250308212223726 
635	 0,251048624043684 
636	 0,252886680224903 
637	 0,254529994027809 
638	 0,254975336442181 
639	 0,256313673562716 
640	 0,258146838128099 
641	 0,258453007236088 
642	 0,25895321381328 
643	 0,26023376157877 
644	 0,261434321423022 
645	 0,262275303115664 
646	 0,262512570920356 
647	 0,262584323581004 
648	 0,262501764015156 
649	 0,261884751385066 
650	 0,261007992362664 
651	 0,26004418591364 
652	 0,258725694912455 
653	 0,257188689098805 
654	 0,2557806170336 
655	 0,254219167574973 
656	 0,252404573515234 
657	 0,250335501339819 
658	 0,248106715840027 
659	 0,245816388525398 
660	 0,243431899368643 
661	 0,240995064826587 
662	 0,238520480539408 
663	 0,236470827527704 
664	 0,23496560458174 
665	 0,232996986289313 
666	 0,230879475248783 
667	 0,229248875238199 
668	 0,228388801730124 
669	 0,228151356716419 
670	 0,227597296968104 
671	 0,227034999346109 
672	 0,226705664450309 
673	 0,226224694389593 
674	 0,225680340157763 
675	 0,225459403558071 
676	 0,225145889841319 
677	 0,22468299468841 
678	 0,224608529663919 
679	 0,224776979560638 
680	 0,224964559826012 
681	 0,22577254796016 
682	 0,227064985295549 
683	 0,227970142106901 
684	 0,228893903219551 
685	 0,230182569641303 
686	 0,232329129486831 
687	 0,235471003849104 
688	 0,239735051435554 
689	 0,243974258701999 
690	 0,248258074246437 
691	 0,254434628912996 
692	 0,261906009500051 
693	 0,270058684917421 
694	 0,278932018729213 
695	 0,288726338643615 
696	 0,299992429117355 
697	 0,312057102897576 
698	 0,324582285964266 
699	 0,33751308458926 
700	 0,350830517265348 
701	 0,364547935796399 
702	 0,378079855870266 
703	 0,391210782061223 
704	 0,404145766233028 
705	 0,416341380660113 
706	 0,42752602748333 
707	 0,4386953515986 
708	 0,449486159630736 
709	 0,458966687129907 
710	 0,468164428405836 
711	 0,47717750445144 
712	 0,485024571399413 
713	 0,492136126252845 
714	 0,498932790946996 
715	 0,50510196191872 
716	 0,510740358353653 
717	 0,51617376712768 
718	 0,521462192545663 
719	 0,526487884007904 
720	 0,530462603224387 
721	 0,533794477245213 
722	 0,537076153326554 
723	 0,540192956492802 
724	 0,543096082252115 
725	 0,545526688861408 
726	 0,547948818773771 
727	 0,550589300666942 
728	 0,552764995482685 
729	 0,554419022034434 
730	 0,55557538853065 
731	 0,55712006639837 
732	 0,559088177561083 
733	 0,560252978590025 
734	 0,561211429412898 
735	 0,562497558447255 
736	 0,563557402368417 
737	 0,56451800845141 
738	 0,566010454631844 
739	 0,567021650680687 
740	 0,56727608875425 
741	 0,567590195176155 
742	 0,56809790497827 
743	 0,568861727518651 
744	 0,569527701913224 
745	 0,57003083603463 
746	 0,570477584113555 
747	 0,5709035448524 
748	 0,571304384709515 
749	 0,571481922849144 
750	 0,571549606983895 
751	 0,571709893864703 
752	 0,571909686081289 
753	 0,572093294980508 
754	 0,572086359851794 
755	 0,572092950749256 
756	 0,572247405666568 
757	 0,572260072561827 
758	 0,57231116153992 
759	 0,5728541643267 
760	 0,573407170362513 
761	 0,573793031764151 
762	 0,574035503894869 
763	 0,574252287047894 
764	 0,5745395184475 
765	 0,574548874747254 
766	 0,574447050923932 
767	 0,574852889176656 
768	 0,575129284049795 
769	 0,575084155465915 
770	 0,575186298317263 
771	 0,57536945632803 
772	 0,575510815538129 
773	 0,575649963931208 
774	 0,575870545057021 
775	 0,576468359006617 
776	 0,576765214112848 
777	 0,576492002019123 
778	 0,576488294227485 
779	 0,576677043420223 
780	 0,576791766938403 
781	 0,577144642266591 
782	 0,577564087227521 
783	 0,577185827365742 
784	 0,576800639312278 
785	 0,576915188349714 
786	 0,577050660783213 
787	 0,577070074781365 
788	 0,576834756707234 
789	 0,576852506167789 
790	 0,577115692137797 
791	 0,576899009888964 
792	 0,576578675713878 
793	 0,576488592927625 
794	 0,576671729271841 
795	 0,576925535767207 
796	 0,576802516459025 
797	 0,576685435351621 
798	 0,576655562921052 
799	 0,576439863737268 
800	 0,576294663833584 
801	 0,576432152303695 
802	 0,576137219715185 
803	 0,575742000824063 
804	 0,576448481321127 
805	 0,577128669367722 
806	 0,577344310910083 
807	 0,577208372139774 
808	 0,577216023493514 
809	 0,577837694275119 
810	 0,577820933936547 
811	 0,577366340654943 
812	 0,577773845977659 
813	 0,578247884432163 
814	 0,578434144727212 
815	 0,578297471729253 
816	 0,578239687724199 
817	 0,578725230057603 
818	 0,579259253200214 
819	 0,579569151142342 
820	 0,57919565099309 
821	 0,578971792054916 
822	 0,579318495978155 
823	 0,580037984002842 
824	 0,580612718771399 
825	 0,5804363671161 
826	 0,580895168099726 
827	 0,581829705688713 
828	 0,58160134632595 
829	 0,581503614266105 
830	 0,582118626704455 
831	 0,582521315012635 
832	 0,582723109990392 
833	 0,582878016385761 
834	 0,583239570550401 
835	 0,583579305309482 
836	 0,582820981848613 
837	 0,582593606594724 
838	 0,583574828800428 
839	 0,583691521360337 
840	 0,583522575621843 
841	 0,584203886467808 
842	 0,584296436264867 
843	 0,583732440186061 
844	 0,583468106974823 
845	 0,583482792065647 
846	 0,583689551730539 
847	 0,583459582393252 
848	 0,583021765528629 
849	 0,582803663657928 
850	 0,582609105144621 
851	 0,582526848860845 
852	 0,583000932716813 
853	 0,583299777393025 
854	 0,583091584160468 
855	 0,583120918808135 
856	 0,583309983946353 
857	 0,583437777549534 
858	 0,583268732481275 
859	 0,583010073354941 
860	 0,583543272611664 
861	 0,583961332725899 
862	 0,583879744440507 
863	 0,584132337455786 
864	 0,584554318868428 
865	 0,584821243553434 
866	 0,584985677040103 
867	 0,585140868576753 
868	 0,585524489880151 
869	 0,586055420180818 
870	 0,58661014976166 
871	 0,586679050544808 
872	 0,586837454291859 
873	 0,587796748577034 
874	 0,588676575789038 
875	 0,589091359335059 
876	 0,588502136587731 
877	 0,588267954176828 
878	 0,588846797647484 
879	 0,589042172546835 
880	 0,589155481957077 
881	 0,589571679949049 
882	 0,58948651662551 
883	 0,58905951292536 
884	 0,589037653319887 
885	 0,589535700363065 
886	 0,590368022356802 
887	 0,590292098012269 
888	 0,590046956350514 
889	 0,590317813169216 
890	 0,589707468938075 
891	 0,588872048750318 
892	 0,589732665125011 
893	 0,59081912859977 
894	 0,591364626122471 
895	 0,590375172818277 
896	 0,589340242497011 
897	 0,589451960810973 
898	 0,589971501480805 
899	 0,590562398824372 
900	 0,590841237943458 
901	 0,590981735646994 
902	 0,591158071239275 
903	 0,591969982732342 
904	 0,592110261828043 
905	 0,590985365143488 
906	 0,590640866237067 
907	 0,590885877825973 
908	 0,591061818796156 
909	 0,591950285505302 
910	 0,59308136068113 
911	 0,592425335572362 
912	 0,592323922650208 
913	 0,593416776352584 
914	 0,592323458985971 
915	 0,590932633945064 
916	 0,591580772233334 
917	 0,592795076043824 
918	 0,593689496325509 
919	 0,592779839547505 
920	 0,59222716718739 
921	 0,592628929662776 
922	 0,592735763318146 
923	 0,592890132260785 
924	 0,593300611807983 
925	 0,592742178140891 
926	 0,591833844279471 
927	 0,592057017876709 
928	 0,591499146274055 
929	 0,590271834151413 
930	 0,590698055936792 
931	 0,591654475072055 
932	 0,5922798099352 
933	 0,591695136593234 
934	 0,590885044168372 
935	 0,591193509969978 
936	 0,590297083650234 
937	 0,588759935092427 
938	 0,589749430376249 
939	 0,589928829386842 
940	 0,588389477271677 
941	 0,587469043899131 
942	 0,587148641781179 
943	 0,587200022319635 
944	 0,586615265463709 
945	 0,585600912273121 
946	 0,584880360614187 
947	 0,584292311415663 
948	 0,583893655480635 
949	 0,584092204269749 
950	 0,583635033642736 
951	 0,582001379947425 
952	 0,580801463242973 
953	 0,580242405297382 
954	 0,580285710852299 
955	 0,57949165542855 
956	 0,578074327296343 
957	 0,577344514557232 
958	 0,577366281393008 
959	 0,577723716410396 
960	 0,576230360594249 
961	 0,575014042894718 
962	 0,575557343404365 
963	 0,575571094168237 
964	 0,574906157815141 
965	 0,573847787615369 
966	 0,574379015483592 
967	 0,575977642015862 
968	 0,575447571223921 
969	 0,57450681077146 
970	 0,573928082659992 
971	 0,573584956612156 
972	 0,574058062106976 
973	 0,57559442780369 
974	 0,575139937246694 
975	 0,574090187809422 
976	 0,575915793283493 
977	 0,57557538133486 
978	 0,573115719595715 
979	 0,573678801981771 
980	 0,573961913825265 
981	 0,573013778233785 
982	 0,575299661730934 
983	 0,578019232889632 
984	 0,578076854598974 
985	 0,577395914703213 
986	 0,577056479888571 
987	 0,578482020290942 
988	 0,579153574568464 
989	 0,57886328786288 
990	 0,57958301139154 
991	 0,581242062988708 
992	 0,583192631886298 
993	 0,582123145353647 
994	 0,580164274231061 
995	 0,579922444462498 
996	 0,582059044918436 
997	 0,585167812407623 
998	 0,586318692284133 
999	 0,587091762286743 
1000	 0,587792197216757 
1001	 0,58808957144778 
1002	 0,58797114047492 
1003	 0,587606579788074 
1004	 0,587527395484216 
1005	 0,589000835995427 
1006	 0,59279219110305 
1007	 0,594294644956337 
1008	 0,593639545659196 
1009	 0,592635044302339 
1010	 0,593804919795534 
1011	 0,596028371991414 
1012	 0,592539380021527 
1013	 0,591956286822852 
1014	 0,596432559102261 
1015	 0,596160368605415 
1016	 0,593946955795813 
1017	 0,593042285343271 
1018	 0,595968964454089 
1019	 0,599830506168977 
1020	 0,599823642534327 
1021	 0,599122246447503 
1022	 0,598573074409872 
1023	 0,598368152693567 
1024	 0,598762234959368 
1025	 0,599891379439178 
1026	 0,601864567711341 
1027	 0,603297416315797 
1028	 0,603379128362162 
1029	 0,603089270483573 
1030	 0,603499980214311 
1031	 0,605549608487842 
1032	 0,60667568951242 
1033	 0,606610716697412 
1034	 0,605992185084301 
1035	 0,604869538428039 
1036	 0,604426023103171 
1037	 0,608352544649571 
1038	 0,61159392920846 
1039	 0,611143003986163 
1040	 0,604723983794119 
1041	 0,600790068131474 
1042	 0,605460834874605 
1043	 0,60889135476134 
1044	 0,609679007624115 
1045	 0,608164559907568 
1046	 0,610371897392777 
1047	 0,613787861910323 
1048	 0,608943040534404 
1049	 0,610082155126159 
1050	 0,617718823464422 
1051	 0,616085660894066 
1052	 0,614124481277268 
1053	 0,615769697577114 
1054	 0,616121096734038 
1055	 0,616018525575801 
1056	 0,616121220033785 
1057	 0,614125755926448 
1058	 0,610103968243684 
1059	 0,605116630160817 
1060	 0,613713658280422 
1061	 0,625760460428812 
1062	 0,610807761024355 
1063	 0,609510455163343 
1064	 0,624335473874987 
1065	 0,616157571171648 
1066	 0,613782049521999 
1067	 0,62452192672153 
1068	 0,619789365657635 
1069	 0,603401698238972 
1070	 0,585348617994656 
1071	 0,5961292570038 
1072	 0,61863365211871 
1073	 0,627104736963689 
1074	 0,618982421681042 
1075	 0,603572187409797 
