Wavelength	ABBE00003.asd
325	-1,07969676901182E-02 
326	 0,194757492278153 
327	 0,284152810818375 
328	 0,205828000803466 
329	 0,022462624896702 
330	-4,53306279127027E-02 
331	 0,15369910205813 
332	 0,246035140959314 
333	 0,243084610949304 
334	 0,320323601922047 
335	 0,267304534609069 
336	 0,11121546601698 
337	 0,158265398394412 
338	 0,211055923784984 
339	 9,61454870995248E-02 
340	 0,101870975580124 
341	 0,20136737048307 
342	 0,206656303209333 
343	 0,226477759389568 
344	 0,26399689803373 
345	 0,18406286359494 
346	 0,118560803042459 
347	 0,189723704548229 
348	 0,242977081736526 
349	 0,245121651695036 
350	 0,182291246577613 
351	 0,164641852000762 
352	 0,218065145417678 
353	 0,223972320403459 
354	 0,203619740313789 
355	 0,197650856393975 
356	 0,183589494476135 
357	 0,171365000980085 
358	 0,203524081900582 
359	 0,217057011308745 
360	 0,190940312192532 
361	 0,197531567961324 
362	 0,213566181373998 
363	 0,195906133871217 
364	 0,204058034654508 
365	 0,234964409219591 
366	 0,227583053074817 
367	 0,209857997251829 
368	 0,20241744034138 
369	 0,22198716350482 
370	 0,24443720785558 
371	 0,219462759243102 
372	 0,207553558798232 
373	 0,218367119409786 
374	 0,212185634224452 
375	 0,209202464312997 
376	 0,223312897806901 
377	 0,224936021211302 
378	 0,219642357404202 
379	 0,230459422204931 
380	 0,226144327225216 
381	 0,205241923826435 
382	 0,215166951185594 
383	 0,23035523187944 
384	 0,226622171799766 
385	 0,222888157889826 
386	 0,223773905559365 
387	 0,233524459141776 
388	 0,234213723156195 
389	 0,223249851286538 
390	 0,226547389928129 
391	 0,236508726667345 
392	 0,24167479684051 
393	 0,234080803110594 
394	 0,21976567308672 
395	 0,218792576233181 
396	 0,226664578262339 
397	 0,238704212898892 
398	 0,242146270233809 
399	 0,238353522711696 
400	 0,231362184781412 
401	 0,228420332504425 
402	 0,230115793561493 
403	 0,229885050417399 
404	 0,228587821087713 
405	 0,226959550229963 
406	 0,226010566149557 
407	 0,224942378624499 
408	 0,220841229074013 
409	 0,22353699797153 
410	 0,232796116364409 
411	 0,233920126184167 
412	 0,230017627095521 
413	 0,225120602551059 
414	 0,222607620566439 
415	 0,223689943333865 
416	 0,229892420492765 
417	 0,233775242977719 
418	 0,232410324243681 
419	 0,228753537749304 
420	 0,22543007456052 
421	 0,225285704183483 
422	 0,225024351906806 
423	 0,224450037704126 
424	 0,225475778430868 
425	 0,22728716842477 
426	 0,228900855981575 
427	 0,226837625484163 
428	 0,224533631684895 
429	 0,229196678796988 
430	 0,231080649516922 
431	 0,22855061429844 
432	 0,227900437902571 
433	 0,228342780962636 
434	 0,228818679778414 
435	 0,226680072533994 
436	 0,224132150320073 
437	 0,228267915222131 
438	 0,230542129431957 
439	 0,228472922775635 
440	 0,229686947669702 
441	 0,231846471177445 
442	 0,231233958218158 
443	 0,230379066111013 
444	 0,230264328641248 
445	 0,232222987840267 
446	 0,233273421242825 
447	 0,231921612031228 
448	 0,231848465537659 
449	 0,233840372296448 
450	 0,238837722706277 
451	 0,239451497341783 
452	 0,234998224813202 
453	 0,234280036327848 
454	 0,235431496343157 
455	 0,23631350578785 
456	 0,236812398899838 
457	 0,236834384478141 
458	 0,236247304668903 
459	 0,236803088621303 
460	 0,238623127209616 
461	 0,237434461672733 
462	 0,235160837522169 
463	 0,234853922820063 
464	 0,235760731486824 
465	 0,237340841258996 
466	 0,238300315278864 
467	 0,239113088370147 
468	 0,240080656733428 
469	 0,241066615706986 
470	 0,24167371968501 
471	 0,241042889099685 
472	 0,241506967984268 
473	 0,242699250872696 
474	 0,238648821110288 
475	 0,235822124630805 
476	 0,240494960810041 
477	 0,243434728178511 
478	 0,243451305028479 
479	 0,243026889633982 
480	 0,242330818676028 
481	 0,241534922970352 
482	 0,240028318804883 
483	 0,2392965767492 
484	 0,241644129470785 
485	 0,242077396059771 
486	 0,240191889650506 
487	 0,239812196406345 
488	 0,240361151184168 
489	 0,241258639508308 
490	 0,241726951878507 
491	 0,241552807468508 
492	 0,240532338813556 
493	 0,240023174311746 
494	 0,240293258404343 
495	 0,239671178515894 
496	 0,238966908792617 
497	 0,239208631776518 
498	 0,239607032699158 
499	 0,240020817804628 
500	 0,240652874343004 
501	 0,241000032443785 
502	 0,241041582735013 
503	 0,243265860564883 
504	 0,245503679948277 
505	 0,243309968486008 
506	 0,243070443019445 
507	 0,245729147190353 
508	 0,246379939423449 
509	 0,246775369374143 
510	 0,248581510231251 
511	 0,249894410556307 
512	 0,250470404012331 
513	 0,25067731477283 
514	 0,250380972910706 
515	 0,249945243010155 
516	 0,251762200260445 
517	 0,254064506663228 
518	 0,254161068261077 
519	 0,253814563754223 
520	 0,253630029430145 
521	 0,254143102550833 
522	 0,254231631628197 
523	 0,253238369320829 
524	 0,253305486895561 
525	 0,254163297332531 
526	 0,254481266050713 
527	 0,254572647063757 
528	 0,254519462889456 
529	 0,254546292112689 
530	 0,254184715577003 
531	 0,252912930249476 
532	 0,252637134209423 
533	 0,253432360954651 
534	 0,25419134937607 
535	 0,254288698524578 
536	 0,2535429284798 
537	 0,254025820373529 
538	 0,254913034240915 
539	 0,254091738486586 
540	 0,253867654072583 
541	 0,25468869855038 
542	 0,25519002267057 
543	 0,255139483376262 
544	 0,2544435956518 
545	 0,254450210183776 
546	 0,254982994610919 
547	 0,254610592881653 
548	 0,254625607862429 
549	 0,255564524388843 
550	 0,256549403619733 
551	 0,257233910834371 
552	 0,25725359225987 
553	 0,257377811013395 
554	 0,257653065849782 
555	 0,257228892554605 
556	 0,256908711961528 
557	 0,257262709645349 
558	 0,256594151248831 
559	 0,255074665246826 
560	 0,253657950575824 
561	 0,25341829383822 
562	 0,254371503960239 
563	 0,253414842748231 
564	 0,251738592457162 
565	 0,251267587944467 
566	 0,251527169985489 
567	 0,252278187360556 
568	 0,253042545392514 
569	 0,253691372741547 
570	 0,254171120339042 
571	 0,254874383404944 
572	 0,256015725291567 
573	 0,257959856048951 
574	 0,259709916424823 
575	 0,261004199261152 
576	 0,262606805746533 
577	 0,264626938499097 
578	 0,267099397455945 
579	 0,268932386831454 
580	 0,269962452438311 
581	 0,270466176422034 
582	 0,27153738818115 
583	 0,273676724125301 
584	 0,275321621452343 
585	 0,276450202475331 
586	 0,27740802661722 
587	 0,278330023698565 
588	 0,279249651836594 
589	 0,27995211310511 
590	 0,280635474246405 
591	 0,281495659569937 
592	 0,282581169299043 
593	 0,283653945981175 
594	 0,284063986704347 
595	 0,284361304329286 
596	 0,284830706956279 
597	 0,285585520955058 
598	 0,286078518555028 
599	 0,285492681944928 
600	 0,284747291807065 
601	 0,284334770865497 
602	 0,285019064528939 
603	 0,285446737565781 
604	 0,284532208839598 
605	 0,282787044021021 
606	 0,281042168540111 
607	 0,281027073038754 
608	 0,281009447974352 
609	 0,280355769743513 
610	 0,279582732881859 
611	 0,278847780620428 
612	 0,278299695307028 
613	 0,27713784662826 
614	 0,27564499523116 
615	 0,275340711020946 
616	 0,275448209172938 
617	 0,275377983545802 
618	 0,274663777942591 
619	 0,273722531129921 
620	 0,273472722359433 
621	 0,27366829906816 
622	 0,274048696251684 
623	 0,273722232128433 
624	 0,273353539880356 
625	 0,273658928711474 
626	 0,273784807247234 
627	 0,273748693983296 
628	 0,274158218221871 
629	 0,274479498049344 
630	 0,274552112558832 
631	 0,275289015801504 
632	 0,276391653732911 
633	 0,277236909783418 
634	 0,277660914199918 
635	 0,277907589842443 
636	 0,279253399950853 
637	 0,280617769692912 
638	 0,281135146147199 
639	 0,28238508669547 
640	 0,284057988496479 
641	 0,284644461409069 
642	 0,285383007444796 
643	 0,28655881053708 
644	 0,286801363163157 
645	 0,286730415158744 
646	 0,2872989110517 
647	 0,287594913421542 
648	 0,287405619641943 
649	 0,286873699690022 
650	 0,286060380532723 
651	 0,285016520350086 
652	 0,283718865902383 
653	 0,28228595774618 
654	 0,280969720056103 
655	 0,279353146350893 
656	 0,277419080327127 
657	 0,275823915763145 
658	 0,274088671119418 
659	 0,271703834780688 
660	 0,269442858013128 
661	 0,267248510257913 
662	 0,26429244165351 
663	 0,261950602923669 
664	 0,260765446401822 
665	 0,25913246976237 
666	 0,257271155400548 
667	 0,255801835758823 
668	 0,254900226648842 
669	 0,25442586225177 
670	 0,253562253392012 
671	 0,252790028613513 
672	 0,252466778790936 
673	 0,251887697270218 
674	 0,251183258071228 
675	 0,250927862557879 
676	 0,250932993572445 
677	 0,251031617903707 
678	 0,250633706155699 
679	 0,250319049303836 
680	 0,250818470179413 
681	 0,251649289491145 
682	 0,252715009617723 
683	 0,2540858597316 
684	 0,255563458363887 
685	 0,257092197417102 
686	 0,259051120387204 
687	 0,261856502104304 
688	 0,266150726052177 
689	 0,270522387660617 
690	 0,274713009910142 
691	 0,279688916379426 
692	 0,285388888511386 
693	 0,291739472628566 
694	 0,298934677745 
695	 0,306915495750385 
696	 0,315435422525352 
697	 0,324654974257961 
698	 0,334487172195826 
699	 0,344136413074793 
700	 0,353886909026746 
701	 0,364214206577722 
702	 0,374433361458635 
703	 0,384275622893883 
704	 0,393704998362436 
705	 0,40267726077017 
706	 0,41117775994923 
707	 0,419423706600835 
708	 0,427253053707239 
709	 0,434341103527841 
710	 0,440930926364237 
711	 0,447108066636917 
712	 0,452953184151189 
713	 0,458277119963545 
714	 0,462919407048208 
715	 0,467290626047421 
716	 0,471480899764954 
717	 0,47548298673121 
718	 0,479230150863677 
719	 0,482632316865763 
720	 0,485467164998959 
721	 0,487887132934091 
722	 0,490095725935471 
723	 0,492451351816469 
724	 0,494837210430655 
725	 0,496443044267474 
726	 0,49799856017537 
727	 0,499890099420423 
728	 0,501325305673204 
729	 0,50229048410575 
730	 0,502925414647667 
731	 0,503720437245666 
732	 0,504807662826895 
733	 0,50594925345011 
734	 0,506864057489912 
735	 0,507335916116184 
736	 0,507722872776793 
737	 0,508249202977048 
738	 0,509307125868921 
739	 0,510178863153177 
740	 0,510626397400522 
741	 0,511113182439412 
742	 0,511510160757847 
743	 0,511637829961049 
744	 0,511885614624535 
745	 0,512297024455758 
746	 0,512732620161 
747	 0,512981058127193 
748	 0,512972685012624 
749	 0,513150310167041 
750	 0,51338132785075 
751	 0,513362667240523 
752	 0,51369950903481 
753	 0,514243941538645 
754	 0,513753984036434 
755	 0,513413795283611 
756	 0,514036266329078 
757	 0,5145715348661 
758	 0,514851902796485 
759	 0,514892513226601 
760	 0,514872643595555 
761	 0,514884804653838 
762	 0,514962337217047 
763	 0,515127979318892 
764	 0,515378806418907 
765	 0,515377154958063 
766	 0,515216094201235 
767	 0,515291373093069 
768	 0,515454198679515 
769	 0,515682807666933 
770	 0,516180722161039 
771	 0,51658079891082 
772	 0,516455540037544 
773	 0,516386251071044 
774	 0,516466786243435 
775	 0,516529838333536 
776	 0,516572380494609 
777	 0,516617995113861 
778	 0,516915711682562 
779	 0,517129181091829 
780	 0,516738928282349 
781	 0,516405783850728 
782	 0,516343934978875 
783	 0,516563953559699 
784	 0,51695366249405 
785	 0,517350427519983 
786	 0,517133219997259 
787	 0,516705595314504 
788	 0,516947379386424 
789	 0,517068766613156 
790	 0,516923553893096 
791	 0,51690512336548 
792	 0,517021504591996 
793	 0,517230649292517 
794	 0,517091242041985 
795	 0,516752500231746 
796	 0,516653617409848 
797	 0,516890435336659 
798	 0,517335336933292 
799	 0,517224444261947 
800	 0,516814623134662 
801	 0,516421374151109 
802	 0,51640483384042 
803	 0,516689773316182 
804	 0,516892535901698 
805	 0,517054231503078 
806	 0,517161096969378 
807	 0,517132395479957 
808	 0,517333417889169 
809	 0,518092707022324 
810	 0,517969439355663 
811	 0,517241078619172 
812	 0,517545283571722 
813	 0,51788953745041 
814	 0,517870582141211 
815	 0,517583290021501 
816	 0,517618779288413 
817	 0,518617109398438 
818	 0,518931161113812 
819	 0,518585381413462 
820	 0,518881213658485 
821	 0,519096554973789 
822	 0,519029067725422 
823	 0,519613801333233 
824	 0,520216332813057 
825	 0,519935989456895 
826	 0,519821821736833 
827	 0,520012710854357 
828	 0,520095381955277 
829	 0,52015756135143 
830	 0,520248432384456 
831	 0,520445807245338 
832	 0,520619165300701 
833	 0,520585255421908 
834	 0,520771156203835 
835	 0,521169404182866 
836	 0,52142219194111 
837	 0,521508581546285 
838	 0,521439390582841 
839	 0,521425960530176 
840	 0,521476332214647 
841	 0,521561470513077 
842	 0,521421577394 
843	 0,521107927827477 
844	 0,520961475080251 
845	 0,521133043074601 
846	 0,521598679366414 
847	 0,521537674123943 
848	 0,521333303943925 
849	 0,521656741140912 
850	 0,521562856457488 
851	 0,521081102767945 
852	 0,521107391321601 
853	 0,521083024156979 
854	 0,520795956456958 
855	 0,520944507172591 
856	 0,521279298240672 
857	 0,521362272196106 
858	 0,521195125651694 
859	 0,520984435221909 
860	 0,521435007030974 
861	 0,521701101359853 
862	 0,521450270656374 
863	 0,521585890937228 
864	 0,522057023738957 
865	 0,522662297087319 
866	 0,523278558364812 
867	 0,523715767809611 
868	 0,523582574935093 
869	 0,523357006183598 
870	 0,523364956867066 
871	 0,523968232500412 
872	 0,524581512048273 
873	 0,52448595045304 
874	 0,524323695530528 
875	 0,524371561694141 
876	 0,525039774693179 
877	 0,52537800893036 
878	 0,525067201639691 
879	 0,524843800338352 
880	 0,524941147074746 
881	 0,525489903619401 
882	 0,52541099795232 
883	 0,524965416710349 
884	 0,525494645773385 
885	 0,525778777752784 
886	 0,525502060520344 
887	 0,525442720312884 
888	 0,52548374366108 
889	 0,525456174222077 
890	 0,525088303096741 
891	 0,524688131127661 
892	 0,524928034229998 
893	 0,526157681771028 
894	 0,527766665764119 
895	 0,526722938684532 
896	 0,525201762102816 
897	 0,525002414316387 
898	 0,525285337966248 
899	 0,525678869408859 
900	 0,525699276885269 
901	 0,526208156806603 
902	 0,52702893438478 
903	 0,526586513660421 
904	 0,526180561310706 
905	 0,526613976964749 
906	 0,527320400278921 
907	 0,527743182752528 
908	 0,527224001612582 
909	 0,527004184194158 
910	 0,527269774184231 
911	 0,527621020438696 
912	 0,52742586388265 
913	 0,526608475669646 
914	 0,526764463783037 
915	 0,527118636037102 
916	 0,526713358195624 
917	 0,526903292979952 
918	 0,527501567222202 
919	 0,527370682724385 
920	 0,527172250293662 
921	 0,527165945612353 
922	 0,527488115211127 
923	 0,527784758330249 
924	 0,527677242260282 
925	 0,526457454732044 
926	 0,525245126337823 
927	 0,52626620579596 
928	 0,525998131534057 
929	 0,5243323572496 
930	 0,524720411116368 
931	 0,52551755834574 
932	 0,525688174194472 
933	 0,525356444918956 
934	 0,524743189977542 
935	 0,524157959187715 
936	 0,52414791664815 
937	 0,524353853580379 
938	 0,523341486906392 
939	 0,522674253636098 
940	 0,522653810137724 
941	 0,521537458072751 
942	 0,520345736563308 
943	 0,520001882152671 
944	 0,519551239858919 
945	 0,518676799078791 
946	 0,517053395528733 
947	 0,516290675337642 
948	 0,516542599204747 
949	 0,516636024833366 
950	 0,515728330468128 
951	 0,513634809748699 
952	 0,512561536045649 
953	 0,512156082839495 
954	 0,511669819825146 
955	 0,510894960630971 
956	 0,509730002123422 
957	 0,508143343410896 
958	 0,50619853963867 
959	 0,504476724382702 
960	 0,505164421840302 
961	 0,506177447464995 
962	 0,505893880036298 
963	 0,505523169665515 
964	 0,504907664749847 
965	 0,503593277402625 
966	 0,503462167975182 
967	 0,504439065429922 
968	 0,50485511228638 
969	 0,504422654548635 
970	 0,503221056033397 
971	 0,502649916888681 
972	 0,50242200905171 
973	 0,502224394861224 
974	 0,502711647193477 
975	 0,503301557303001 
976	 0,502780504005686 
977	 0,503594659993555 
978	 0,505095074189839 
979	 0,502478499468049 
980	 0,501129074409744 
981	 0,503192419631626 
982	 0,504059498355047 
983	 0,504310141321017 
984	 0,504869138638324 
985	 0,504983638756775 
986	 0,50513248684205 
987	 0,506392306545105 
988	 0,508361284640531 
989	 0,510213348395264 
990	 0,509619580779795 
991	 0,509186090684369 
992	 0,509929616118463 
993	 0,508780496829168 
994	 0,507540796535525 
995	 0,508260013422841 
996	 0,509954792651118 
997	 0,511269622017254 
998	 0,509918607357113 
999	 0,51080754874465 
1000	 0,514020169621461 
1001	 0,514599396838203 
1002	 0,514414596181522 
1003	 0,514608969676118 
1004	 0,516250959740202 
1005	 0,517215527043061 
1006	 0,515674791994892 
1007	 0,515804952176442 
1008	 0,517137169921013 
1009	 0,517489275818531 
1010	 0,518892777327468 
1011	 0,520693025132087 
1012	 0,518964005095985 
1013	 0,518309049604112 
1014	 0,520032740328484 
1015	 0,519538326426407 
1016	 0,518171680775503 
1017	 0,517673762875869 
1018	 0,521293589467514 
1019	 0,52447567096976 
1020	 0,520178152804008 
1021	 0,52201427608717 
1022	 0,528299971751646 
1023	 0,524770859793672 
1024	 0,523138663992284 
1025	 0,52600827051118 
1026	 0,526217952692839 
1027	 0,525592664764643 
1028	 0,525546595578958 
1029	 0,526194054122626 
1030	 0,527942978422515 
1031	 0,53086569696715 
1032	 0,529703048877721 
1033	 0,526983665877383 
1034	 0,529746247363141 
1035	 0,533776206314919 
1036	 0,536677910550996 
1037	 0,534642072061493 
1038	 0,535020718156185 
1039	 0,538685490721742 
1040	 0,530534458510706 
1041	 0,524925007084689 
1042	 0,532497037275504 
1043	 0,534686484158926 
1044	 0,533141857289908 
1045	 0,533587665392561 
1046	 0,533728150823042 
1047	 0,53451455795815 
1048	 0,538832555845468 
1049	 0,543877387480925 
1050	 0,546507580983854 
1051	 0,537669502131801 
1052	 0,535226563475222 
1053	 0,545435575434131 
1054	 0,550188205771644 
1055	 0,544443784138916 
1056	 0,527929152642962 
1057	 0,529510046195188 
1058	 0,536714280983501 
1059	 0,527181309499743 
1060	 0,529996658232682 
1061	 0,541308263416808 
1062	 0,538174610047747 
1063	 0,538021959819308 
1064	 0,542378515875452 
1065	 0,537244499177736 
1066	 0,536848479869648 
1067	 0,543727963919523 
1068	 0,538589829014833 
1069	 0,52452426445816 
1070	 0,510212318323024 
1071	 0,526336304173583 
1072	 0,54651525003791 
1073	 0,536210971671149 
1074	 0,522261650377458 
1075	 0,51279949484878 
