Wavelength	ABBE00054.asd
325	-7,38878947145937E-02 
326	-3,89487158082199E-02 
327	 3,57728955436539E-02 
328	 8,20798301242503E-02 
329	-9,81744421906694E-03 
330	-9,24025737093631E-02 
331	-2,86177771281337E-02 
332	 1,34515997987641E-04 
333	 1,07802697654706E-02 
334	 0,105067075575413 
335	 0,139368278736557 
336	 9,50408688940756E-02 
337	 0,028465372163817 
338	-3,09250563645302E-02 
339	-6,86243500746339E-02 
340	-2,88257448526732E-02 
341	 4,96264120848916E-02 
342	 9,86440152405937E-02 
343	 8,63979180615738E-02 
344	 2,26378309428383E-02 
345	-5,44955379915517E-03 
346	 0,016831017797257 
347	 8,95761731641861E-02 
348	 6,75878707257631E-02 
349	-5,65930427912511E-03 
350	 4,50997267408417E-02 
351	 0,075015341642508 
352	 3,98693687574975E-02 
353	 1,83405190252153E-02 
354	 8,50556064032306E-03 
355	 2,16708989488403E-03 
356	 9,44825640164734E-03 
357	 2,91329511573604E-02 
358	 6,08179487530839E-02 
359	 6,46334304952745E-02 
360	 2,96950161108816E-02 
361	 1,93058505186836E-02 
362	 0,023450100088308 
363	 1,69082372502521E-02 
364	 2,50162439524016E-02 
365	 4,19324707041781E-02 
366	 2,67563421930839E-02 
367	 1,37346066458245E-02 
368	 2,16251700615551E-02 
369	 2,40391912719397E-02 
370	 2,03571843808463E-02 
371	 1,53904275318648E-02 
372	 8,59257360715087E-03 
373	 2,47796876363319E-03 
374	 2,51220126676135E-03 
375	 1,59035892238199E-02 
376	 0,044132718450582 
377	 0,056125158985917 
378	 5,30149911725177E-02 
379	 4,68469118081082E-02 
380	 0,038684145169476 
381	 3,15840281964787E-02 
382	 0,037347398216028 
383	 3,86688198209528E-02 
384	 2,09120815326066E-02 
385	 1,18577104601786E-02 
386	 1,47357441904567E-02 
387	 2,28343308009782E-02 
388	 3,09508862328175E-02 
389	 3,45632502476392E-02 
390	 2,45484200511647E-02 
391	 1,63776031265208E-02 
392	 2,85209593734938E-02 
393	 3,24168279196647E-02 
394	 2,56173770944207E-02 
395	 1,87571425286952E-02 
396	 1,74829401719465E-02 
397	 2,41849167617614E-02 
398	 3,24747388101166E-02 
399	 3,49736997175198E-02 
400	 2,19424442351707E-02 
401	 1,62021611302819E-02 
402	 2,03672775821789E-02 
403	 0,020263921934192 
404	 1,58757044446098E-02 
405	 8,5055048833199E-03 
406	 1,03803956869162E-02 
407	 1,66097806328645E-02 
408	 1,35523234677505E-02 
409	 1,38698488280626E-02 
410	 1,90398650023413E-02 
411	 1,78994163105671E-02 
412	 0,016918514317806 
413	 2,19668981803067E-02 
414	 2,19626122501719E-02 
415	 1,67480688853061E-02 
416	 9,72797927784259E-03 
417	 1,00098492839408E-02 
418	 1,82352263603952E-02 
419	 0,013937798252037 
420	 6,99709442689053E-03 
421	 1,20806367548342E-02 
422	 0,014448040119937 
423	 1,22643810013461E-02 
424	 1,01913712298058E-02 
425	 1,13087063666864E-02 
426	 1,65212268429959E-02 
427	 0,016606121869889 
428	 1,45790003533246E-02 
429	 1,83354690989861E-02 
430	 0,018963723890028 
431	 1,53060816808052E-02 
432	 1,36104242081748E-02 
433	 1,44403358643294E-02 
434	 1,76492539337954E-02 
435	 1,60173678372588E-02 
436	 1,22534023941363E-02 
437	 1,71071160513242E-02 
438	 1,98468718725898E-02 
439	 1,71010516752795E-02 
440	 0,016202973215201 
441	 1,70757094088261E-02 
442	 1,87836407474695E-02 
443	 1,83171264637432E-02 
444	 1,64405051941273E-02 
445	 1,87024757368701E-02 
446	 2,00332342058243E-02 
447	 1,76960323531724E-02 
448	 1,66285223453839E-02 
449	 1,68684132295167E-02 
450	 1,72157221473108E-02 
451	 1,68152063801918E-02 
452	 1,57546212264814E-02 
453	 1,62163428108535E-02 
454	 1,62352870319071E-02 
455	 1,41571509122762E-02 
456	 1,45671233073973E-02 
457	 1,67723568887765E-02 
458	 0,016806652939771 
459	 1,56474451781489E-02 
460	 1,39361745215778E-02 
461	 1,29623971102579E-02 
462	 0,013479130866285 
463	 1,62633813890861E-02 
464	 1,70054096005448E-02 
465	 1,55125204727011E-02 
466	 1,52881383765393E-02 
467	 1,57019854306152E-02 
468	 1,61784902270027E-02 
469	 1,51157645093974E-02 
470	 1,40606297669259E-02 
471	 1,66402187276712E-02 
472	 1,85688623894223E-02 
473	 1,84162343199948E-02 
474	 1,65697959684655E-02 
475	 1,53106543368437E-02 
476	 1,67488469071089E-02 
477	 1,82362480960043E-02 
478	 0,019020022950089 
479	 1,87827072430919E-02 
480	 1,85712330756983E-02 
481	 1,86073723874454E-02 
482	 1,64007758396783E-02 
483	 1,43635532383446E-02 
484	 1,64238196309225E-02 
485	 1,72975282575592E-02 
486	 1,58211877724283E-02 
487	 1,31268580793411E-02 
488	 1,18152201477061E-02 
489	 1,36315577505635E-02 
490	 1,51611906318064E-02 
491	 1,54832311992237E-02 
492	 1,35352751004143E-02 
493	 1,40531583635803E-02 
494	 0,017661158324279 
495	 1,79459013343614E-02 
496	 1,62416142708053E-02 
497	 1,46352368672795E-02 
498	 1,36252020867772E-02 
499	 1,33479949846597E-02 
500	 1,33708003199471E-02 
501	 1,39730385302117E-02 
502	 1,51422458186226E-02 
503	 1,58623158031611E-02 
504	 1,57529300264996E-02 
505	 1,42931135222609E-02 
506	 1,40840507408341E-02 
507	 1,54108033385338E-02 
508	 1,58057456699902E-02 
509	 1,53510164254696E-02 
510	 1,43414292879287E-02 
511	 1,46727272809934E-02 
512	 1,61335644160296E-02 
513	 1,73693798351599E-02 
514	 1,76866393393066E-02 
515	 1,69320488877973E-02 
516	 1,64301185531736E-02 
517	 1,67640943114287E-02 
518	 0,018576838686976 
519	 1,80825650548434E-02 
520	 1,56402010284145E-02 
521	 1,64363447288675E-02 
522	 1,71595668422512E-02 
523	 1,56414402265622E-02 
524	 1,62156508512559E-02 
525	 1,78920987803286E-02 
526	 1,68732361396367E-02 
527	 1,63601824982807E-02 
528	 1,70418339793987E-02 
529	 1,65256914062272E-02 
530	 1,55084666232117E-02 
531	 1,49821564460455E-02 
532	 1,52936131590384E-02 
533	 1,61684615650028E-02 
534	 1,65365959573614E-02 
535	 1,65438676511127E-02 
536	 0,016358015636318 
537	 1,67455059607238E-02 
538	 1,72934100379789E-02 
539	 1,70652533284435E-02 
540	 1,66202761888314E-02 
541	 1,62133923864958E-02 
542	 1,61163094750654E-02 
543	 1,61576287478366E-02 
544	 1,61694725468998E-02 
545	 1,67501489263999E-02 
546	 1,73246169329908E-02 
547	 1,57871986080989E-02 
548	 1,53231661889806E-02 
549	 1,70837434362713E-02 
550	 0,017193291541824 
551	 1,64728447916057E-02 
552	 1,69105172062368E-02 
553	 0,016729687107989 
554	 1,59143409745636E-02 
555	 1,64677042742227E-02 
556	 1,66940940617179E-02 
557	 1,53219403374475E-02 
558	 1,53036690068327E-02 
559	 1,61464788423937E-02 
560	 1,51206783306365E-02 
561	 1,47591613829436E-02 
562	 1,57333423303519E-02 
563	 1,56973960509596E-02 
564	 1,49703901204256E-02 
565	 0,014239051013248 
566	 0,014902920571585 
567	 1,65452547872819E-02 
568	 1,63822703386491E-02 
569	 0,015797720946691 
570	 1,57403179643662E-02 
571	 1,53621666102876E-02 
572	 1,50223076149349E-02 
573	 1,57354865914325E-02 
574	 1,64514455189125E-02 
575	 1,68474981269897E-02 
576	 1,74059270351488E-02 
577	 1,80352874631033E-02 
578	 1,85944583934388E-02 
579	 1,87797189484283E-02 
580	 1,85407194433965E-02 
581	 1,78520175058093E-02 
582	 1,76182206499656E-02 
583	 1,82911182130806E-02 
584	 1,88574977666694E-02 
585	 1,91822860569337E-02 
586	 1,92947901323952E-02 
587	 1,93730639843701E-02 
588	 1,94940156023878E-02 
589	 1,96476937613355E-02 
590	 1,98519389296844E-02 
591	 0,020122910699317 
592	 2,05284899350165E-02 
593	 2,08723013046625E-02 
594	 2,05484710431666E-02 
595	 2,04588873897042E-02 
596	 2,09297261403332E-02 
597	 2,11403732399658E-02 
598	 2,07995744368917E-02 
599	 1,95792609029562E-02 
600	 1,92294758500064E-02 
601	 1,99486961559705E-02 
602	 2,03691338035737E-02 
603	 2,04016142103651E-02 
604	 2,00455745148938E-02 
605	 2,00948284189303E-02 
606	 2,02022017490766E-02 
607	 1,89996547848024E-02 
608	 1,85566334617146E-02 
609	 1,93852714932771E-02 
610	 1,94747611582547E-02 
611	 1,90464986585507E-02 
612	 1,85977553767957E-02 
613	 1,82177305682699E-02 
614	 1,80643321175276E-02 
615	 1,85330921820813E-02 
616	 1,87128632010905E-02 
617	 1,81448841690881E-02 
618	 0,018452633068187 
619	 1,90320852352762E-02 
620	 1,81911646481508E-02 
621	 1,76591721276116E-02 
622	 1,78500209784735E-02 
623	 1,77171751029484E-02 
624	 1,77968067040984E-02 
625	 1,86319664982572E-02 
626	 1,84416016418374E-02 
627	 0,017553234768794 
628	 1,80409550169854E-02 
629	 1,86953301586145E-02 
630	 1,88923050713822E-02 
631	 1,88433133271184E-02 
632	 1,88141891420412E-02 
633	 1,92061319659015E-02 
634	 1,94677573531814E-02 
635	 1,95142204715566E-02 
636	 1,97716242559169E-02 
637	 1,97866450643451E-02 
638	 1,92953674059147E-02 
639	 2,02655695782057E-02 
640	 2,19421110877518E-02 
641	 2,15765499419661E-02 
642	 2,09080709896748E-02 
643	 2,06632663399627E-02 
644	 0,020759606860009 
645	 2,10514519282167E-02 
646	 2,13422607746822E-02 
647	 2,15231329579079E-02 
648	 2,15751590276305E-02 
649	 2,16225927073141E-02 
650	 2,15277466306218E-02 
651	 2,12164198772894E-02 
652	 2,09015705892226E-02 
653	 2,05714719966836E-02 
654	 2,01346147463082E-02 
655	 1,95539202485777E-02 
656	 1,89742510441158E-02 
657	 1,91228905358617E-02 
658	 1,93125352982651E-02 
659	 1,88169153510188E-02 
660	 1,85233835745555E-02 
661	 1,84218016600741E-02 
662	 1,79316246429786E-02 
663	 1,73526940842462E-02 
664	 0,016891318528379 
665	 0,016933720905175 
666	 1,68503029343595E-02 
667	 1,55397869082003E-02 
668	 1,54372684028476E-02 
669	 1,66020831997923E-02 
670	 1,63421965299391E-02 
671	 1,58853045404579E-02 
672	 1,62021931215704E-02 
673	 1,60830449862391E-02 
674	 1,56153391595943E-02 
675	 0,01538669181541 
676	 1,57144228034435E-02 
677	 1,64790555107916E-02 
678	 1,61925293514724E-02 
679	 1,56461112614206E-02 
680	 1,59121458697496E-02 
681	 1,58429645394448E-02 
682	 1,55003212103112E-02 
683	 1,58785488854093E-02 
684	 1,65631322904416E-02 
685	 1,72079817235522E-02 
686	 1,71090824010802E-02 
687	 1,68906415190789E-02 
688	 1,78252441995546E-02 
689	 1,87526431191769E-02 
690	 1,93963029374188E-02 
691	 2,01024727385509E-02 
692	 2,12363768723974E-02 
693	 2,30674885251215E-02 
694	 0,024707241877582 
695	 2,64009217487096E-02 
696	 2,92289415078531E-02 
697	 3,22979484158279E-02 
698	 3,52883465565967E-02 
699	 3,85803682046616E-02 
700	 4,23842432307429E-02 
701	 4,69146394820671E-02 
702	 5,18825473942584E-02 
703	 5,70196268585548E-02 
704	 0,061960745665182 
705	 6,65021332951498E-02 
706	 7,06540355266898E-02 
707	 7,58047007413284E-02 
708	 8,11586231437656E-02 
709	 8,48270457509506E-02 
710	 8,90259621640006E-02 
711	 0,094078757453409 
712	 9,82212200723799E-02 
713	 0,101830037202429 
714	 0,105340655252658 
715	 0,108986616397437 
716	 0,112523255948763 
717	 0,115142717711736 
718	 0,117755422848178 
719	 0,120600684465633 
720	 0,122611503384993 
721	 0,124452269873614 
722	 0,127066226853749 
723	 0,128965517890376 
724	 0,130157398662375 
725	 0,131878118583932 
726	 0,133636001838499 
727	 0,135089029297494 
728	 0,136033271950674 
729	 0,136672159544382 
730	 0,137386615669112 
731	 0,138352214686241 
732	 0,139492881990458 
733	 0,140166913259436 
734	 0,140736667412739 
735	 0,141511834227265 
736	 0,142002154444425 
737	 0,142313120589766 
738	 0,142957816906238 
739	 0,143278492508487 
740	 0,143259803034395 
741	 0,144332487483338 
742	 0,145323095207059 
743	 0,144792265670721 
744	 0,144619315388686 
745	 0,145041075316824 
746	 0,145355591206451 
747	 0,14565897108005 
748	 0,145957719547552 
749	 0,146075019918229 
750	 0,146112316440365 
751	 0,146248297276419 
752	 0,146510701101611 
753	 0,146813618980572 
754	 0,146818148730396 
755	 0,146707258305087 
756	 0,146653131454109 
757	 0,146916756333121 
758	 0,147283093156924 
759	 0,147227789196396 
760	 0,147161717108809 
761	 0,147271916970757 
762	 0,147782957535472 
763	 0,14818941010234 
764	 0,148028824302991 
765	 0,147762787011894 
766	 0,147628426968852 
767	 0,147995384097165 
768	 0,148279870359849 
769	 0,148263693182496 
770	 0,148222651269417 
771	 0,148231112228358 
772	 0,148346318921356 
773	 0,148453557264448 
774	 0,148551602181648 
775	 0,148753993092406 
776	 0,148834228420182 
777	 0,148710712665868 
778	 0,148707036541133 
779	 0,14878825924003 
780	 0,148846006970345 
781	 0,148876135053891 
782	 0,148901948625778 
783	 0,149066928592209 
784	 0,149058172890949 
785	 0,148707295116964 
786	 0,148419531018566 
787	 0,148331840825199 
788	 0,148572840254177 
789	 0,148759807898053 
790	 0,148773693188337 
791	 0,14875985609713 
792	 0,148550944539458 
793	 0,148075966762975 
794	 0,148023811804897 
795	 0,148308430716148 
796	 0,148517054721615 
797	 0,148511219201836 
798	 0,148269489975814 
799	 0,148015186392498 
800	 0,147971032362832 
801	 0,14828841400212 
802	 0,148230831715855 
803	 0,147963892462096 
804	 0,148274617902739 
805	 0,148667785212773 
806	 0,148929022120708 
807	 0,148956486408971 
808	 0,148916684248589 
809	 0,148989381078506 
810	 0,148887704646621 
811	 0,148712204660488 
812	 0,148932001389236 
813	 0,148917913858507 
814	 0,148570240298552 
815	 0,14895596334312 
816	 0,149662306490371 
817	 0,150081603294919 
818	 0,149898146373714 
819	 0,149364566800312 
820	 0,14944272890872 
821	 0,1497218420251 
822	 0,149991691105996 
823	 0,150160969815869 
824	 0,150312504013611 
825	 0,150571092828919 
826	 0,150858090732664 
827	 0,151085871612068 
828	 0,151066011057512 
829	 0,150937053690448 
830	 0,150855525456909 
831	 0,151338926665139 
832	 0,151768114650606 
833	 0,151250793904839 
834	 0,150939136425068 
835	 0,151041183573051 
836	 0,151173276877162 
837	 0,151491741228645 
838	 0,151960130906939 
839	 0,151756021530315 
840	 0,151613349576312 
841	 0,152669366306075 
842	 0,152796674393121 
843	 0,152082373353172 
844	 0,152796370089644 
845	 0,153030966911699 
846	 0,151983563368685 
847	 0,151852519938139 
848	 0,152149992185089 
849	 0,151841286390726 
850	 0,151558706634225 
851	 0,151487764369509 
852	 0,151734151439234 
853	 0,152014417923984 
854	 0,152106924053393 
855	 0,151721328958771 
856	 0,151316781761957 
857	 0,151546510950908 
858	 0,15128539873827 
859	 0,150806134637831 
860	 0,151947227398164 
861	 0,152769058961972 
862	 0,152390174257832 
863	 0,152252114547509 
864	 0,15234689110665 
865	 0,152465200991568 
866	 0,152858047668467 
867	 0,15325230757721 
868	 0,152665674194338 
869	 0,152158022412383 
870	 0,152281687383405 
871	 0,15294816344143 
872	 0,153549859207068 
873	 0,1533947465795 
874	 0,153082198256706 
875	 0,153004770607194 
876	 0,153871476565705 
877	 0,154678285096799 
878	 0,1548953846986 
879	 0,154267228264338 
880	 0,153877311554281 
881	 0,154816433840826 
882	 0,155135813424454 
883	 0,154667386028491 
884	 0,153906275883274 
885	 0,154015432039077 
886	 0,155159817356281 
887	 0,155635663661664 
888	 0,155437613662406 
889	 0,15475823616694 
890	 0,154777767982198 
891	 0,15529458078466 
892	 0,155329883293353 
893	 0,155442457202853 
894	 0,155683633037443 
895	 0,155610091828392 
896	 0,155253159539929 
897	 0,154747315352915 
898	 0,154980989698426 
899	 0,155502275982311 
900	 0,155253872053178 
901	 0,155068493774798 
902	 0,155208112008537 
903	 0,155795966429658 
904	 0,156010489838235 
905	 0,155489908845262 
906	 0,155705846721468 
907	 0,156162289727972 
908	 0,155911021943375 
909	 0,155654536922796 
910	 0,155635360940903 
911	 0,156130925784522 
912	 0,156201253698126 
913	 0,155543106821059 
914	 0,15527120023722 
915	 0,155383453274579 
916	 0,155735828523959 
917	 0,155976214888775 
918	 0,155924646436937 
919	 0,15530228514892 
920	 0,155112891211098 
921	 0,155533122399948 
922	 0,155478659478869 
923	 0,155332222849755 
924	 0,155373034818966 
925	 0,154613731839655 
926	 0,153793961759746 
927	 0,154521875421256 
928	 0,154492581308619 
929	 0,153589322736697 
930	 0,153857888498518 
931	 0,154712089316108 
932	 0,155464652540168 
933	 0,154039729629061 
934	 0,15221031105976 
935	 0,152480387837575 
936	 0,152521356641954 
937	 0,151959024628419 
938	 0,151201740401319 
939	 0,15057202717215 
940	 0,150270654336445 
941	 0,150541697297588 
942	 0,150286695354777 
943	 0,148671717251866 
944	 0,147561085439648 
945	 0,146989312833483 
946	 0,146378248655758 
947	 0,146075623062627 
948	 0,146001987680499 
949	 0,145688618649703 
950	 0,144912590283552 
951	 0,143688568058227 
952	 0,142978245281448 
953	 0,14248728605706 
954	 0,141715995942921 
955	 0,140341377655238 
956	 0,138691817526967 
957	 0,1376646014442 
958	 0,137328334908121 
959	 0,137679487661761 
960	 0,138505021784186 
961	 0,139018371814439 
962	 0,138612656718914 
963	 0,137485535525575 
964	 0,136264873550126 
965	 0,13580331183494 
966	 0,136262651974275 
967	 0,137184111169159 
968	 0,13710269303742 
969	 0,136804777034335 
970	 0,136500465479855 
971	 0,135414382868866 
972	 0,134733487014147 
973	 0,135452258333697 
974	 0,135813789008676 
975	 0,13637757602358 
976	 0,138788427876584 
977	 0,137772734425206 
978	 0,13387166102342 
979	 0,134092239205943 
980	 0,135019663736503 
981	 0,135320317569186 
982	 0,137772821031787 
983	 0,139367485600595 
984	 0,137211173199033 
985	 0,135829809026936 
986	 0,136310444098466 
987	 0,13910364064459 
988	 0,139875151687758 
989	 0,138337846051832 
990	 0,138635254745942 
991	 0,139225090424327 
992	 0,139352177049626 
993	 0,139570786328367 
994	 0,139473028314795 
995	 0,13878351373358 
996	 0,140004835161123 
997	 0,141656930804352 
998	 0,13997034473742 
999	 0,140058934261298 
1000	 0,142118811175722 
1001	 0,141172515799381 
1002	 0,141374138599771 
1003	 0,143883137003324 
1004	 0,142496395344342 
1005	 0,141056395158855 
1006	 0,14343845928746 
1007	 0,145075450028862 
1008	 0,145465607528926 
1009	 0,14518852975569 
1010	 0,14542091577725 
1011	 0,146151992315774 
1012	 0,145761359268939 
1013	 0,147274096819174 
1014	 0,150543010774431 
1015	 0,147890673846129 
1016	 0,143879324464299 
1017	 0,143012897795476 
1018	 0,145568155890539 
1019	 0,148860813733625 
1020	 0,148894106111401 
1021	 0,148929159430415 
1022	 0,150044008648543 
1023	 0,153348011246938 
1024	 0,15475564721055 
1025	 0,15291070324201 
1026	 0,148432512317696 
1027	 0,148070109815457 
1028	 0,154827884470163 
1029	 0,157933319073016 
1030	 0,157219165951366 
1031	 0,154234989926591 
1032	 0,153072067334902 
1033	 0,153812692377416 
1034	 0,154575795291616 
1035	 0,154661438158067 
1036	 0,154784921687255 
1037	 0,158992029106432 
1038	 0,159877710491651 
1039	 0,155251139570408 
1040	 0,15258862584124 
1041	 0,153088970027437 
1042	 0,156933804002653 
1043	 0,160495767770556 
1044	 0,162581916407759 
1045	 0,162569834663084 
1046	 0,161134611221861 
1047	 0,159823617101903 
1048	 0,161688377541826 
1049	 0,161385000243887 
1050	 0,158795869672358 
1051	 0,159657229187513 
1052	 0,163460455288612 
1053	 0,168838414311085 
1054	 0,172030369154841 
1055	 0,168133395471559 
1056	 0,154996404556966 
1057	 0,148638337148588 
1058	 0,150647767799936 
1059	 0,158793025744506 
1060	 0,165911108989354 
1061	 0,16707989663795 
1062	 0,155857698953201 
1063	 0,156212464774833 
1064	 0,168654129361014 
1065	 0,165924117543116 
1066	 0,160272485872368 
1067	 0,156745801279236 
1068	 0,151994117524617 
1069	 0,147306545813638 
1070	 0,145560704505142 
1071	 0,157050114338588 
1072	 0,16868235663011 
1073	 0,164280839337084 
1074	 0,162285537468927 
1075	 0,159812021064654 
