Wavelength	ABBE00393.asd
325	 0,271766545956685 
326	 0,191952583688121 
327	 0,232745175366062 
328	 0,345189245028552 
329	 0,280195327173015 
330	 0,179379473807553 
331	 0,20065690480899 
332	 0,246745385428689 
333	 0,272411872834706 
334	 0,222797984538138 
335	 0,223274446548893 
336	 0,272689907847386 
337	 0,245309555529478 
338	 0,173350172060145 
339	 0,075188804359286 
340	 8,00328028186126E-02 
341	 0,151099858307589 
342	 0,151715801619828 
343	 0,120978561592784 
344	 7,65900596959397E-02 
345	 0,056844325483026 
346	 8,71938568902081E-02 
347	 0,180573861908142 
348	 0,176450852117034 
349	 0,108993904574418 
350	 0,136532081582439 
351	 0,151470469983283 
352	 0,125079169210174 
353	 0,136836825926512 
354	 0,15130534019804 
355	 0,118322048929016 
356	 8,61930156054106E-02 
357	 7,52856862832756E-02 
358	 0,123246294878897 
359	 0,148679138086852 
360	 0,121748511433949 
361	 0,117305100965323 
362	 0,125464380959543 
363	 0,120795513397116 
364	 0,113333192162335 
365	 0,105049073854395 
366	 9,51559774295835E-02 
367	 9,14194128413988E-02 
368	 9,72293924452361E-02 
369	 0,104245638184418 
370	 0,106701321762397 
371	 9,54728216383474E-02 
372	 8,88875197464567E-02 
373	 9,06911361234719E-02 
374	 8,81201802665754E-02 
375	 9,73934719454852E-02 
376	 0,125968375013008 
377	 0,121992228087402 
378	 0,101035372118976 
379	 0,114371344342787 
380	 0,110886797013415 
381	 8,56230891350792E-02 
382	 0,101894778993582 
383	 0,11816102826748 
384	 9,69307648235066E-02 
385	 8,82143942125177E-02 
386	 9,66459278493385E-02 
387	 0,110343245075096 
388	 0,114225110201597 
389	 0,103543555094805 
390	 8,89105579390457E-02 
391	 8,10740237589099E-02 
392	 9,12946881233362E-02 
393	 9,12945301271748E-02 
394	 8,12392712605684E-02 
395	 7,84099192733656E-02 
396	 8,71999911698341E-02 
397	 0,105647969424009 
398	 0,104681386358275 
399	 9,33597615805323E-02 
400	 8,95017685459724E-02 
401	 8,71568121433547E-02 
402	 8,62568749682718E-02 
403	 9,10865950249269E-02 
404	 9,25527623627826E-02 
405	 8,57332903413898E-02 
406	 8,52806469589084E-02 
407	 8,82200024707481E-02 
408	 8,41240828416774E-02 
409	 8,13792430760972E-02 
410	 0,081777391602962 
411	 8,21382025557554E-02 
412	 0,082370144148511 
413	 8,25657113020195E-02 
414	 8,29193964785243E-02 
415	 0,083441260162496 
416	 8,45191475159079E-02 
417	 8,35036697915091E-02 
418	 7,97334987234269E-02 
419	 7,56793675529972E-02 
420	 7,32581494299086E-02 
421	 7,44738103407183E-02 
422	 7,59415691672471E-02 
423	 7,69545669434831E-02 
424	 7,82209240350036E-02 
425	 8,05128941091909E-02 
426	 8,32203858800632E-02 
427	 7,74725829753667E-02 
428	 6,97878411487543E-02 
429	 7,36789214491158E-02 
430	 0,077985392446438 
431	 8,00541664229545E-02 
432	 8,42770646774082E-02 
433	 8,68386423953014E-02 
434	 0,084462887192716 
435	 7,97089745808597E-02 
436	 7,62188047231355E-02 
437	 8,22275277886987E-02 
438	 8,35465386759554E-02 
439	 0,076700319519231 
440	 0,078301991862264 
441	 8,29622054784823E-02 
442	 8,21676224719844E-02 
443	 8,14226730556938E-02 
444	 8,16534815951673E-02 
445	 8,17989388353207E-02 
446	 8,13158438266694E-02 
447	 8,01803331991935E-02 
448	 0,081317440908843 
449	 8,35501753979751E-02 
450	 8,42356975863024E-02 
451	 8,26116298874804E-02 
452	 8,00133666917826E-02 
453	 8,39557881482196E-02 
454	 8,74604869509732E-02 
455	 8,42167632062187E-02 
456	 0,08201473122357 
457	 8,21682115989877E-02 
458	 8,39843529989986E-02 
459	 8,54387513683393E-02 
460	 8,53461572124369E-02 
461	 8,32619318817439E-02 
462	 8,12258778177006E-02 
463	 8,19206923193407E-02 
464	 0,083782029513695 
465	 8,55490825453937E-02 
466	 8,42115241610561E-02 
467	 8,40760662924113E-02 
468	 8,73149439486105E-02 
469	 8,59108691052913E-02 
470	 8,24976823255061E-02 
471	 8,47448477654101E-02 
472	 8,56846403762105E-02 
473	 8,37984086687662E-02 
474	 8,24910884122472E-02 
475	 8,30597831493087E-02 
476	 8,63627735541521E-02 
477	 8,72012454142103E-02 
478	 8,58508604940246E-02 
479	 8,63284670814003E-02 
480	 8,67534336541573E-02 
481	 8,61370688660426E-02 
482	 8,35271138968251E-02 
483	 8,13663041341772E-02 
484	 8,34177858455962E-02 
485	 0,083559044373017 
486	 8,12643522429843E-02 
487	 8,11253523333091E-02 
488	 8,15693570021988E-02 
489	 0,081447726857708 
490	 8,24899471349796E-02 
491	 8,38688230692784E-02 
492	 8,33149187484533E-02 
493	 8,21736147659099E-02 
494	 8,10893779056515E-02 
495	 8,07556303407969E-02 
496	 0,080644178041303 
497	 8,01013501045369E-02 
498	 8,02863672919874E-02 
499	 0,080908360801467 
500	 8,01804848303509E-02 
501	 8,00014798198973E-02 
502	 8,12555960042209E-02 
503	 8,19221684774048E-02 
504	 8,18745034897761E-02 
505	 8,12951123995654E-02 
506	 8,14713323343509E-02 
507	 8,25915629377381E-02 
508	 8,35910533760423E-02 
509	 0,084085429893014 
510	 8,38398954346891E-02 
511	 8,38006812280837E-02 
512	 8,47871877532414E-02 
513	 8,88250256363751E-02 
514	 9,07147613677125E-02 
515	 8,87498611369043E-02 
516	 8,80726055175219E-02 
517	 0,088487090866541 
518	 8,89615656811489E-02 
519	 8,84037865091601E-02 
520	 0,087255405318791 
521	 8,83565300583637E-02 
522	 8,93561260843601E-02 
523	 8,86644034387156E-02 
524	 8,87824314346309E-02 
525	 8,93779738303796E-02 
526	 8,87081435050071E-02 
527	 8,87327440159686E-02 
528	 8,95557914956728E-02 
529	 8,79462060252156E-02 
530	 8,59895577490511E-02 
531	 8,62817926100249E-02 
532	 8,67741203527435E-02 
533	 8,70152533569976E-02 
534	 8,71605592090807E-02 
535	 8,72222479775279E-02 
536	 8,72082570488589E-02 
537	 0,087124005114994 
538	 8,69545067073665E-02 
539	 8,65986565368629E-02 
540	 8,67571494351594E-02 
541	 8,74880874440643E-02 
542	 8,79825370264763E-02 
543	 8,81893170080947E-02 
544	 8,81222488345353E-02 
545	 8,81171005914626E-02 
546	 8,82124574320105E-02 
547	 8,82587617476657E-02 
548	 8,83702518414552E-02 
549	 8,85755678156211E-02 
550	 8,86927798880524E-02 
551	 8,87485012845078E-02 
552	 8,88148279669596E-02 
553	 8,89200860913193E-02 
554	 8,90325516915936E-02 
555	 8,90987124283171E-02 
556	 8,86869049365314E-02 
557	 8,75437147264512E-02 
558	 8,71780487666402E-02 
559	 8,72880188965608E-02 
560	 8,62165247345066E-02 
561	 8,59707857451377E-02 
562	 0,087000912693242 
563	 8,69035634340767E-02 
564	 8,60706176604598E-02 
565	 8,53069865962603E-02 
566	 8,53255479292814E-02 
567	 8,59839988757212E-02 
568	 8,59549870682646E-02 
569	 8,59336751564706E-02 
570	 8,64065471995331E-02 
571	 8,71010575590227E-02 
572	 8,78796428735822E-02 
573	 8,84953880617207E-02 
574	 0,089427415989328 
575	 9,08607590057038E-02 
576	 9,28366352509246E-02 
577	 9,46014740311027E-02 
578	 9,53579066944102E-02 
579	 9,66827256368823E-02 
580	 9,84328962212035E-02 
581	 9,88962095414402E-02 
582	 9,96182850705979E-02 
583	 0,101332573449148 
584	 0,102427198689167 
585	 0,103026458417784 
586	 0,103687902595124 
587	 0,104640506286331 
588	 0,105823137242629 
589	 0,106531793479262 
590	 0,107022289462139 
591	 0,107575004861543 
592	 0,108370010168197 
593	 0,109097545219091 
594	 0,108705488036879 
595	 0,108715428014304 
596	 0,109674160384055 
597	 0,110043646734595 
598	 0,109912031425299 
599	 0,109667727684077 
600	 0,109354697807179 
601	 0,109068498497724 
602	 0,109023926305398 
603	 0,108805078444159 
604	 0,108138251733853 
605	 0,107926568604682 
606	 0,107882199793679 
607	 0,106887268355025 
608	 0,106010691411074 
609	 0,105605060740034 
610	 0,105225469528711 
611	 0,104525451052613 
612	 0,103143327127333 
613	 0,101987956507451 
614	 0,101273736112742 
615	 0,100763961646905 
616	 0,100605933019778 
617	 0,10080007940806 
618	 0,100606631079492 
619	 0,100117373160878 
620	 9,97095014548494E-02 
621	 9,96284472324919E-02 
622	 9,97897683553995E-02 
623	 9,91688760374851E-02 
624	 9,88614768328908E-02 
625	 0,099973307078207 
626	 0,100245041364841 
627	 9,96939988567608E-02 
628	 9,97962843979072E-02 
629	 0,100226267917207 
630	 0,100843645045975 
631	 0,101713628327963 
632	 0,102499459559575 
633	 0,102682775409824 
634	 0,102704264954216 
635	 0,102937698235415 
636	 0,104265182412681 
637	 0,105568050971236 
638	 0,105972681012661 
639	 0,107359843650106 
640	 0,109188327748575 
641	 0,109237287798158 
642	 0,109329957064881 
643	 0,11010790416104 
644	 0,110652631427665 
645	 0,111215232523421 
646	 0,112225504201204 
647	 0,112118818055364 
648	 0,111110721573173 
649	 0,111459230168731 
650	 0,111506604112506 
651	 0,110227896752793 
652	 0,109099022876462 
653	 0,108054155304234 
654	 0,106489283075933 
655	 0,104858922070959 
656	 0,103318377772799 
657	 0,101806396309254 
658	 0,10021812173035 
659	 9,84655778937172E-02 
660	 9,71456927755187E-02 
661	 9,59765844603866E-02 
662	 0,093729949830731 
663	 9,16366336214215E-02 
664	 9,02957636662553E-02 
665	 8,91612841754718E-02 
666	 8,78679095673525E-02 
667	 8,59066513814631E-02 
668	 8,48221325757822E-02 
669	 8,48741650409936E-02 
670	 0,085229473641192 
671	 8,52903973730937E-02 
672	 8,46153106159492E-02 
673	 0,083779377110465 
674	 8,30354205629328E-02 
675	 8,26010186343369E-02 
676	 8,27348593283556E-02 
677	 0,083279157726846 
678	 8,27133849170208E-02 
679	 8,22012566716931E-02 
680	 8,32376356573505E-02 
681	 8,41154170548274E-02 
682	 8,45764945572677E-02 
683	 8,51000016995781E-02 
684	 8,60140135220991E-02 
685	 8,74523771108901E-02 
686	 8,84868655918473E-02 
687	 8,99501292716302E-02 
688	 9,35510883807625E-02 
689	 9,69605118797133E-02 
690	 9,99001909249187E-02 
691	 0,104402257043569 
692	 0,109836163101281 
693	 0,115592969712697 
694	 0,122223168987753 
695	 0,129868328935044 
696	 0,138553786333825 
697	 0,148379530560181 
698	 0,159206500052849 
699	 0,170052999940229 
700	 0,181198468629359 
701	 0,193139189804871 
702	 0,205529035202673 
703	 0,218012760566939 
704	 0,230044749221855 
705	 0,241634099156202 
706	 0,252815334093795 
707	 0,264038678437335 
708	 0,274897200040304 
709	 0,284566455072189 
710	 0,293755280678097 
711	 0,302703281149695 
712	 0,311514023395261 
713	 0,319715711075058 
714	 0,326877869516738 
715	 0,333441130840441 
716	 0,339607664745782 
717	 0,345700851501484 
718	 0,351121364917662 
719	 0,355704264756646 
720	 0,360186826178601 
721	 0,364434108695029 
722	 0,368158250594991 
723	 0,371742824034891 
724	 0,375188725691551 
725	 0,378059067079021 
726	 0,380841770331834 
727	 0,383764816922169 
728	 0,385998027216306 
729	 0,387727090425352 
730	 0,389452521458491 
731	 0,391295827916645 
732	 0,393213079023158 
733	 0,394761354968574 
734	 0,396044220281329 
735	 0,397183666797371 
736	 0,39837417461548 
737	 0,399634603654143 
738	 0,400883304414497 
739	 0,402143658324362 
740	 0,403330094194888 
741	 0,40399984913126 
742	 0,404463210537003 
743	 0,405117813141513 
744	 0,405650589771252 
745	 0,406095565087428 
746	 0,406727352608863 
747	 0,407445281291497 
748	 0,408165942372339 
749	 0,408740800367228 
750	 0,409168345094196 
751	 0,409481431164127 
752	 0,4097155673762 
753	 0,409944949286705 
754	 0,410365110308247 
755	 0,410754169734658 
756	 0,410969281452232 
757	 0,411295692098056 
758	 0,411720481683451 
759	 0,412120032166955 
760	 0,412548555492979 
761	 0,413017561985255 
762	 0,413545446324161 
763	 0,413959920342687 
764	 0,414105728554563 
765	 0,414024733464475 
766	 0,41402207153647 
767	 0,414867962235827 
768	 0,415558348863747 
769	 0,415750792103614 
770	 0,416103376483646 
771	 0,416393800368806 
772	 0,416318263667779 
773	 0,416669748550529 
774	 0,417301555107711 
775	 0,41715567005391 
776	 0,41712871510291 
777	 0,41763780130011 
778	 0,418145712011668 
779	 0,418400768132105 
780	 0,418129495917873 
781	 0,418258298185985 
782	 0,418852669540515 
783	 0,419191446190031 
784	 0,419315718774228 
785	 0,419279248986113 
786	 0,41934971216469 
787	 0,41944674717304 
788	 0,419322768135775 
789	 0,419549770695306 
790	 0,420056385889051 
791	 0,419774341190245 
792	 0,419541778275717 
793	 0,420001682554371 
794	 0,420290935190765 
795	 0,42039505739311 
796	 0,420666888458192 
797	 0,420376111832236 
798	 0,419583033134442 
799	 0,41973327895586 
800	 0,420170381800981 
801	 0,420231230553458 
802	 0,420481315839215 
803	 0,420950188259135 
804	 0,421550234242195 
805	 0,421751225994868 
806	 0,421522693097032 
807	 0,421948783197959 
808	 0,422515095046044 
809	 0,422605590822969 
810	 0,422735005632773 
811	 0,42298398168257 
812	 0,423263150701218 
813	 0,423644813625618 
814	 0,424092133700372 
815	 0,424188883930689 
816	 0,424375375137698 
817	 0,425186268110304 
818	 0,425648053800164 
819	 0,425710776735897 
820	 0,425933968146581 
821	 0,4261529407395 
822	 0,426352390864244 
823	 0,426822726305127 
824	 0,427411124277634 
825	 0,427886516578087 
826	 0,428008009249833 
827	 0,427910116200181 
828	 0,428210930070294 
829	 0,428518390932006 
830	 0,428707746926901 
831	 0,429405872677287 
832	 0,430054320057892 
833	 0,429833984268916 
834	 0,429692323812434 
835	 0,429840879160681 
836	 0,430119935422236 
837	 0,430366735578033 
838	 0,43052357518926 
839	 0,430909084994879 
840	 0,43143286212537 
841	 0,431921279190139 
842	 0,431925679264224 
843	 0,431550301457418 
844	 0,431482820521516 
845	 0,431736816019064 
846	 0,432260640305371 
847	 0,432578979768477 
848	 0,432698388525306 
849	 0,432724342263188 
850	 0,432784788161886 
851	 0,432732389969597 
852	 0,431830133705808 
853	 0,431481614312804 
854	 0,432336197454379 
855	 0,433110583325627 
856	 0,433561310543661 
857	 0,43358721247227 
858	 0,433067894888071 
859	 0,432405967314632 
860	 0,432854092981206 
861	 0,433463005990179 
862	 0,433757535944302 
863	 0,434173302300421 
864	 0,434514500529956 
865	 0,434498951874251 
866	 0,435148086624633 
867	 0,436255413769851 
868	 0,436486828585335 
869	 0,436411876682979 
870	 0,436455607491805 
871	 0,437499689482996 
872	 0,438562987559678 
873	 0,438413632309304 
874	 0,438439152354026 
875	 0,438699431189547 
876	 0,438352443396562 
877	 0,438500673960485 
878	 0,439355096072024 
879	 0,439206056710457 
880	 0,439095489942948 
881	 0,440182293759159 
882	 0,440187728484148 
883	 0,439472578022126 
884	 0,440242212897173 
885	 0,440816809487119 
886	 0,440756104881803 
887	 0,441042611991492 
888	 0,44135956525151 
889	 0,441381502217716 
890	 0,441455157986713 
891	 0,441525292649226 
892	 0,441270283092925 
893	 0,4415820939114 
894	 0,442484766229921 
895	 0,442811353664429 
896	 0,442500198172819 
897	 0,441666031614732 
898	 0,441375176316596 
899	 0,441870519771373 
900	 0,443243472989942 
901	 0,444156517785394 
902	 0,444242821467575 
903	 0,443903942869757 
904	 0,443624114208621 
905	 0,443757670269577 
906	 0,444326549436441 
907	 0,444950637538045 
908	 0,445105700666593 
909	 0,444750689559284 
910	 0,444233672519328 
911	 0,444643685465769 
912	 0,44509135609532 
913	 0,445165404831697 
914	 0,445137288110933 
915	 0,445187047591651 
916	 0,445504149221433 
917	 0,446427722928005 
918	 0,44738462172128 
919	 0,446808247252335 
920	 0,446199456138289 
921	 0,446038321974724 
922	 0,445802937448709 
923	 0,445675014461433 
924	 0,44579048268355 
925	 0,445905206728872 
926	 0,445720481443953 
927	 0,444773871585278 
928	 0,444231329234346 
929	 0,444420559188182 
930	 0,44508969401539 
931	 0,445906363880491 
932	 0,446420116598394 
933	 0,4453781554693 
934	 0,443649841988523 
935	 0,442546356627552 
936	 0,442201365707734 
937	 0,442219371909438 
938	 0,441221181916409 
939	 0,440910036828025 
940	 0,441523917806495 
941	 0,440800337306399 
942	 0,439847631668911 
943	 0,439702944092899 
944	 0,439377155650961 
945	 0,438848101603825 
946	 0,438346944242214 
947	 0,438241001794149 
948	 0,438198607648235 
949	 0,436633374234811 
950	 0,435021779381175 
951	 0,434161074321134 
952	 0,433008530854107 
953	 0,432216933165774 
954	 0,432567585194879 
955	 0,431361248044685 
956	 0,429110593771581 
957	 0,428604159668359 
958	 0,428282913674773 
959	 0,427745256218074 
960	 0,427587947717954 
961	 0,427235038810367 
962	 0,426449510929253 
963	 0,42732983955351 
964	 0,428316772645602 
965	 0,426675025413901 
966	 0,426059576082223 
967	 0,426672139109402 
968	 0,426005314272901 
969	 0,426177244751611 
970	 0,427395813425225 
971	 0,425650745004738 
972	 0,424602131804612 
973	 0,427325370680583 
974	 0,427482497110843 
975	 0,426244012340564 
976	 0,427648464336812 
977	 0,427674486150007 
978	 0,426014065733979 
979	 0,4253405462127 
980	 0,425162348458284 
981	 0,425508450840963 
982	 0,427766721888575 
983	 0,429776900265173 
984	 0,429375179684456 
985	 0,428501829654351 
986	 0,428140001550292 
987	 0,429394212515939 
988	 0,43116599129498 
989	 0,432658979137677 
990	 0,432483766934938 
991	 0,432376093880748 
992	 0,433078434841313 
993	 0,432984323390488 
994	 0,432458067771621 
995	 0,432184674202804 
996	 0,434384461819119 
997	 0,437544808363715 
998	 0,438025718101291 
999	 0,438292574268251 
1000	 0,438984736782877 
1001	 0,439689967152654 
1002	 0,441260694239563 
1003	 0,443464354072178 
1004	 0,44256234490568 
1005	 0,44123993274927 
1006	 0,442297412029411 
1007	 0,443787869540307 
1008	 0,444954288349485 
1009	 0,445080455232011 
1010	 0,445414637209058 
1011	 0,446299943709118 
1012	 0,447411245106943 
1013	 0,44992440745162 
1014	 0,453036636055023 
1015	 0,45018421253026 
1016	 0,447015077716301 
1017	 0,448442590869047 
1018	 0,450668780160163 
1019	 0,451981282222192 
1020	 0,450787773745939 
1021	 0,449603770048434 
1022	 0,449774903617512 
1023	 0,453316476398054 
1024	 0,455803587701349 
1025	 0,455609268602397 
1026	 0,453007842499907 
1027	 0,453152628948203 
1028	 0,458308876048723 
1029	 0,459452144040897 
1030	 0,459351838133838 
1031	 0,462102239265404 
1032	 0,462789245273862 
1033	 0,462076386961005 
1034	 0,463112138840331 
1035	 0,464810127980384 
1036	 0,466496252698764 
1037	 0,467524119730279 
1038	 0,464572650005957 
1039	 0,458919143350383 
1040	 0,465714159598729 
1041	 0,470826571365828 
1042	 0,464012102925365 
1043	 0,46648598643226 
1044	 0,471264716343252 
1045	 0,465762171617736 
1046	 0,468390896665763 
1047	 0,475197853814425 
1048	 0,46714030500622 
1049	 0,468176072580814 
1050	 0,479057226508441 
1051	 0,47261597076183 
1052	 0,46995259566876 
1053	 0,479651550202565 
1054	 0,487521468142058 
1055	 0,487746659096383 
1056	 0,477719587486188 
1057	 0,474832557567735 
1058	 0,475607741249951 
1059	 0,471624105359405 
1060	 0,471690838783597 
1061	 0,474651972419276 
1062	 0,473221601921796 
1063	 0,481519947158644 
1064	 0,494059404036798 
1065	 0,474097216877174 
1066	 0,462454775872177 
1067	 0,472513103414808 
1068	 0,474039063546965 
1069	 0,467816887554384 
1070	 0,458838267808876 
1071	 0,467491358478174 
1072	 0,482274642041117 
1073	 0,486191703300278 
1074	 0,482016023409564 
1075	 0,473694620199356 
