Wavelength	ABBE00167.asd
325	 0,129767926841297 
326	 0,151593065642652 
327	 0,115831923365604 
328	-3,31688140262274E-02 
329	-0,085898880625047 
330	 1,41055648010537E-02 
331	 0,235422416733303 
332	 0,10568114865901 
333	-0,150842462681786 
334	 1,68652826339363E-02 
335	 0,14248428496857 
336	 0,139525195510466 
337	 0,126362437788623 
338	 0,114451356986659 
339	 0,107866802062004 
340	 0,12703409635024 
341	 0,13937423056375 
342	 7,41449118671648E-02 
343	 6,53170281844941E-02 
344	 0,122579608678741 
345	 0,110034217328756 
346	 8,29586894757013E-02 
347	 9,86525604868329E-02 
348	 0,066383562371661 
349	 1,28763180529005E-02 
350	 0,039728495798297 
351	 6,36206276318852E-02 
352	 5,79305864004072E-02 
353	 0,068985920086802 
354	 7,43675696238338E-02 
355	 4,38260637959788E-02 
356	 2,34741951730025E-03 
357	-2,25213297522963E-02 
358	 4,07538852141639E-02 
359	 7,26125249660939E-02 
360	 2,96491090936838E-02 
361	 2,11415285309361E-02 
362	 4,09565939305416E-02 
363	 6,27555401095756E-02 
364	 7,33112140668727E-02 
365	 6,90075672231891E-02 
366	 5,23945298432802E-02 
367	 4,05459464471185E-02 
368	 4,21617458768366E-02 
369	 0,038161127525409 
370	 3,06354334596493E-02 
371	 2,80763614666631E-02 
372	 3,14617430114178E-02 
373	 3,72383639201543E-02 
374	 2,88341426079374E-02 
375	 2,57758948749284E-02 
376	 4,14478245376779E-02 
377	 5,17260543594543E-02 
378	 5,48996845600252E-02 
379	 5,52247390732741E-02 
380	 5,13598528802235E-02 
381	 4,75040443192869E-02 
382	 6,65923647741213E-02 
383	 7,89613782450661E-02 
384	 6,00635171181289E-02 
385	 4,56502445662113E-02 
386	 4,18137590990649E-02 
387	 4,37247576219033E-02 
388	 4,96426940825411E-02 
389	 5,52275177895738E-02 
390	 4,40081967187198E-02 
391	 3,45211757000377E-02 
392	 4,94834780988543E-02 
393	 5,07977949415639E-02 
394	 4,02738450441726E-02 
395	 4,86518286902107E-02 
396	 5,42860731989221E-02 
397	 0,047779032218904 
398	 4,86895666363188E-02 
399	 5,19307520886904E-02 
400	 4,67646872019962E-02 
401	 4,43944976920065E-02 
402	 4,66877737858319E-02 
403	 5,03799638784238E-02 
404	 4,88507615246942E-02 
405	 3,93421777694119E-02 
406	 0,039571625537068 
407	 4,63868838571908E-02 
408	 4,87567619305096E-02 
409	 4,71770585430127E-02 
410	 4,41602537432699E-02 
411	 5,25510926625678E-02 
412	 5,90986783508137E-02 
413	 5,20175017545845E-02 
414	 4,31440623567909E-02 
415	 3,83133311254043E-02 
416	 0,04621563446266 
417	 5,48288770667703E-02 
418	 5,80880817550997E-02 
419	 0,052997056154101 
420	 4,71571887466982E-02 
421	 5,04235865388897E-02 
422	 4,53145051669294E-02 
423	 3,50033585969076E-02 
424	 4,24412649570949E-02 
425	 5,04309444073462E-02 
426	 4,85790050365575E-02 
427	 4,56839340637525E-02 
428	 4,40754642292966E-02 
429	 4,59050159034742E-02 
430	 4,71590002988806E-02 
431	 4,73935425390363E-02 
432	 5,08119488987878E-02 
433	 5,31498471975887E-02 
434	 5,08376854615507E-02 
435	 4,90636955351124E-02 
436	 4,90845624562724E-02 
437	 5,17295114192787E-02 
438	 5,23167376319806E-02 
439	 4,98371410770177E-02 
440	 5,11776828601825E-02 
441	 0,053145302255205 
442	 5,10258781717349E-02 
443	 5,12331076599288E-02 
444	 5,40804455708795E-02 
445	 5,57069511823206E-02 
446	 5,50253065786257E-02 
447	 0,051853642359404 
448	 5,08519080369365E-02 
449	 5,19104979640077E-02 
450	 0,053635001329173 
451	 5,37465222771229E-02 
452	 5,22984128715726E-02 
453	 5,35030080377589E-02 
454	 5,56413029688318E-02 
455	 5,68786918463529E-02 
456	 5,60687097099355E-02 
457	 5,39636573025718E-02 
458	 5,23893513597156E-02 
459	 5,50271902256436E-02 
460	 6,14635697984821E-02 
461	 5,87926524959343E-02 
462	 5,27637128862995E-02 
463	 5,25741197420878E-02 
464	 5,42471456092881E-02 
465	 5,61774164951094E-02 
466	 5,58057329050721E-02 
467	 5,63048484362097E-02 
468	 5,93875011174866E-02 
469	 6,03361076771736E-02 
470	 5,99820777893122E-02 
471	 6,15971813887904E-02 
472	 6,13418090392992E-02 
473	 5,87590316747801E-02 
474	 5,73082007266594E-02 
475	 0,057207314312614 
476	 5,84151546324277E-02 
477	 5,99555649763167E-02 
478	 6,13768096267958E-02 
479	 6,25564848595956E-02 
480	 6,26952804045736E-02 
481	 6,15326593984134E-02 
482	 5,98807476631423E-02 
483	 5,91587449734919E-02 
484	 6,12217298674549E-02 
485	 6,36599994806584E-02 
486	 6,50607831783298E-02 
487	 6,31017480919652E-02 
488	 6,10624069347508E-02 
489	 6,14509287601717E-02 
490	 6,24995848972968E-02 
491	 6,36039761867735E-02 
492	 6,41402199914973E-02 
493	 0,064740517578386 
494	 6,54317329153033E-02 
495	 6,53845479579251E-02 
496	 6,46921306067611E-02 
497	 6,35502749475265E-02 
498	 0,063157859064815 
499	 6,34996241899655E-02 
500	 6,34932193111299E-02 
501	 6,36289016902664E-02 
502	 6,42240974471052E-02 
503	 6,55622939199582E-02 
504	 0,067073439667165 
505	 6,78564163171202E-02 
506	 6,76440841564389E-02 
507	 6,67034583802042E-02 
508	 6,63462052484587E-02 
509	 6,68754684162008E-02 
510	 6,83661252985196E-02 
511	 6,83227634019032E-02 
512	 6,76392362988909E-02 
513	 0,070199468873604 
514	 7,14961387837366E-02 
515	 7,00392348020713E-02 
516	 0,069634495422002 
517	 7,02887887357873E-02 
518	 7,14482009134376E-02 
519	 7,22472445008228E-02 
520	 7,25325118403493E-02 
521	 7,29549793887215E-02 
522	 7,29375173920108E-02 
523	 0,072247932016894 
524	 7,32045711782102E-02 
525	 7,47777891175564E-02 
526	 7,37129080302355E-02 
527	 7,33793842360401E-02 
528	 7,45521208073471E-02 
529	 7,48220394303965E-02 
530	 7,44150591604869E-02 
531	 7,38139604660532E-02 
532	 7,38836200431507E-02 
533	 7,47116974183367E-02 
534	 7,58709802843716E-02 
535	 7,68521043788209E-02 
536	 7,73154951471801E-02 
537	 7,73357646133678E-02 
538	 7,73442904767541E-02 
539	 7,81110736036096E-02 
540	 7,86394278859341E-02 
541	 7,87364133753947E-02 
542	 7,91475316017566E-02 
543	 7,93296036666226E-02 
544	 7,88010724827014E-02 
545	 7,94432974815706E-02 
546	 8,07496866246849E-02 
547	 8,01895758876297E-02 
548	 7,98017069215616E-02 
549	 8,04861780737736E-02 
550	 8,09950738422018E-02 
551	 0,081618503236352 
552	 8,30931579039982E-02 
553	 8,31869217979551E-02 
554	 8,20019885031615E-02 
555	 8,26660916565281E-02 
556	 8,36587198506197E-02 
557	 8,36827372986711E-02 
558	 8,35963132035845E-02 
559	 8,37247941651535E-02 
560	 8,45028103952699E-02 
561	 8,54546712570533E-02 
562	 8,61817428776188E-02 
563	 8,57861736774057E-02 
564	 8,50096600016581E-02 
565	 8,49111115634959E-02 
566	 8,53982444044615E-02 
567	 8,62029857038874E-02 
568	 8,64328217198076E-02 
569	 8,65959920598699E-02 
570	 8,70413588679994E-02 
571	 8,75409448887791E-02 
572	 8,79269801382385E-02 
573	 8,78978107530009E-02 
574	 8,78684348051073E-02 
575	 8,81259472687581E-02 
576	 8,92399752303417E-02 
577	 9,03683292317672E-02 
578	 9,05512673763705E-02 
579	 9,08316123896985E-02 
580	 0,091332513629295 
581	 9,17046646105083E-02 
582	 9,17810274659861E-02 
583	 0,091566908388576 
584	 9,19018895326852E-02 
585	 9,25804846820419E-02 
586	 9,30598334765704E-02 
587	 9,32890406316925E-02 
588	 9,33761387214303E-02 
589	 9,39209675570729E-02 
590	 9,46429853102698E-02 
591	 0,095229519863477 
592	 0,095318457803259 
593	 9,51289311920619E-02 
594	 9,54688395797862E-02 
595	 9,57847933537978E-02 
596	 9,58202847240315E-02 
597	 9,56501977844044E-02 
598	 9,55025474892257E-02 
599	 9,56971634001613E-02 
600	 0,095862454486332 
601	 9,59717784667137E-02 
602	 9,63946095039239E-02 
603	 9,66612798611277E-02 
604	 9,64743391138586E-02 
605	 9,70720646658295E-02 
606	 0,097857686608785 
607	 0,09679824418208 
608	 9,59717654585228E-02 
609	 9,61743324254452E-02 
610	 9,70268472808474E-02 
611	 0,097592094393241 
612	 9,67865359429255E-02 
613	 9,59962077882066E-02 
614	 9,57028252099152E-02 
615	 9,61732328066563E-02 
616	 9,68152625806037E-02 
617	 9,71765712055063E-02 
618	 9,70264820210953E-02 
619	 9,67067954718031E-02 
620	 9,69645035117971E-02 
621	 9,71794122585319E-02 
622	 9,71339528826067E-02 
623	 9,67078969837873E-02 
624	 9,66809215476737E-02 
625	 9,77918103281292E-02 
626	 9,82534923192213E-02 
627	 0,097959642419985 
628	 9,78014469348185E-02 
629	 0,097685489412421 
630	 9,76501816741517E-02 
631	 9,80511773657626E-02 
632	 9,86160288853507E-02 
633	 9,88570602918728E-02 
634	 9,90038090513136E-02 
635	 9,91455893364086E-02 
636	 9,94293758321077E-02 
637	 9,95387442484505E-02 
638	 0,099276148332021 
639	 9,97776018310593E-02 
640	 0,100702535915171 
641	 0,100673289566774 
642	 0,100582615114426 
643	 0,100787971002811 
644	 0,101176913894186 
645	 0,101650383235377 
646	 0,102094452216926 
647	 0,101998608116061 
648	 0,101521890207697 
649	 0,101688165213421 
650	 0,101863532749248 
651	 0,101644112068593 
652	 0,101505767200687 
653	 0,101342577215641 
654	 0,100787475260249 
655	 0,100292476628349 
656	 9,99821770992974E-02 
657	 9,95794724103193E-02 
658	 9,93077059750309E-02 
659	 9,93877564026307E-02 
660	 9,92084130779475E-02 
661	 0,098725811644307 
662	 9,82094745716812E-02 
663	 9,77886474755396E-02 
664	 0,097507929743551 
665	 9,70371329349344E-02 
666	 0,096603834787381 
667	 9,66149452530498E-02 
668	 9,66626890903545E-02 
669	 9,66680051005619E-02 
670	 9,68534643714561E-02 
671	 9,69624942834301E-02 
672	 9,68071226094878E-02 
673	 9,67384498582983E-02 
674	 9,67650496906615E-02 
675	 9,66820170571452E-02 
676	 9,69855085198434E-02 
677	 0,097671783927452 
678	 9,75875218718555E-02 
679	 9,74890027036794E-02 
680	 9,83616073136284E-02 
681	 9,88402675053753E-02 
682	 9,89073031872196E-02 
683	 0,099601615190386 
684	 0,100250173811611 
685	 0,100480556171567 
686	 0,100591263870604 
687	 0,10099993296305 
688	 0,102368314846456 
689	 0,103703901702028 
690	 0,104694674707929 
691	 0,105552207349137 
692	 0,106355692482586 
693	 0,107205768146373 
694	 0,108553074038125 
695	 0,110233181894048 
696	 0,111596502867737 
697	 0,113053762899069 
698	 0,114675213757288 
699	 0,115900894771093 
700	 0,117010398509266 
701	 0,118420510511341 
702	 0,12007246502177 
703	 0,121784278889183 
704	 0,123137560024733 
705	 0,123886109431504 
706	 0,124090664488708 
707	 0,125740247583255 
708	 0,127821482640709 
709	 0,127884598425185 
710	 0,128215029843127 
711	 0,129424717699134 
712	 0,130917996190494 
713	 0,131921721330065 
714	 0,131839120318085 
715	 0,132478605467629 
716	 0,133608743565524 
717	 0,133580813451848 
718	 0,133921745679349 
719	 0,135031953624501 
720	 0,135216451255679 
721	 0,135236830765448 
722	 0,136247327431247 
723	 0,13679206831137 
724	 0,136808928209175 
725	 0,137267061944884 
726	 0,138001652977187 
727	 0,138813421768709 
728	 0,138928638396858 
729	 0,138693675291747 
730	 0,138902523265185 
731	 0,139299102484823 
732	 0,139766153690321 
733	 0,140060342945507 
734	 0,140397589206322 
735	 0,140933713939744 
736	 0,14103583349163 
737	 0,140909113084231 
738	 0,141326790640119 
739	 0,141870984556973 
740	 0,142327961375362 
741	 0,142433268912307 
742	 0,142406787671773 
743	 0,142531683877758 
744	 0,142750522142895 
745	 0,142995828403769 
746	 0,143043288150898 
747	 0,143313274000477 
748	 0,143907194468961 
749	 0,143847315992533 
750	 0,14348474919132 
751	 0,143521177116839 
752	 0,143842319436759 
753	 0,144327859870277 
754	 0,144619815312192 
755	 0,144809810953778 
756	 0,144966982837779 
757	 0,14505933591158 
758	 0,145121391762933 
759	 0,14521057107588 
760	 0,145361778912599 
761	 0,14560379928987 
762	 0,145972130737063 
763	 0,146400637490988 
764	 0,146814105029327 
765	 0,147055072091334 
766	 0,147159338576097 
767	 0,147283191986928 
768	 0,147530231805192 
769	 0,147865881025731 
770	 0,147758410569712 
771	 0,147670919966838 
772	 0,148178457883644 
773	 0,148452428434894 
774	 0,148448550606904 
775	 0,148632650898589 
776	 0,14888189544809 
777	 0,149133956872426 
778	 0,14936278519613 
779	 0,149586688660193 
780	 0,14984220929388 
781	 0,150036599785879 
782	 0,150155802446234 
783	 0,150282833470912 
784	 0,150220656228917 
785	 0,149940309653591 
786	 0,150380187999346 
787	 0,150968518962208 
788	 0,150432977519537 
789	 0,150262761366641 
790	 0,150732616554442 
791	 0,151009139737361 
792	 0,151046523274114 
793	 0,15088618120589 
794	 0,151240128716395 
795	 0,15187422342238 
796	 0,152030326457567 
797	 0,152178559319088 
798	 0,152379858871544 
799	 0,152178655323752 
800	 0,152068570073408 
801	 0,152490828951141 
802	 0,152709746600347 
803	 0,152697708245518 
804	 0,152730715477963 
805	 0,152892634559718 
806	 0,153194714818831 
807	 0,153430677254149 
808	 0,153640326914001 
809	 0,153856430180728 
810	 0,153373189234652 
811	 0,152690856627333 
812	 0,153649537436198 
813	 0,154269393939851 
814	 0,153840082884584 
815	 0,153568450987007 
816	 0,153712082100363 
817	 0,154426242263351 
818	 0,155148027443318 
819	 0,155560211190581 
820	 0,15522389944171 
821	 0,154806188185691 
822	 0,154730161331914 
823	 0,155324678236587 
824	 0,1559030507503 
825	 0,155566625804136 
826	 0,155274663496928 
827	 0,155270974034084 
828	 0,155523407642801 
829	 0,155792736436038 
830	 0,155957449160004 
831	 0,156262645882328 
832	 0,156387834721576 
833	 0,155884708722923 
834	 0,155739617614211 
835	 0,156006047676719 
836	 0,155934711288519 
837	 0,156020203756244 
838	 0,156426414034498 
839	 0,156321368113353 
840	 0,156223815322696 
841	 0,15697710601418 
842	 0,157035531130296 
843	 0,156424489797188 
844	 0,156571002254883 
845	 0,156869174016637 
846	 0,156943614107752 
847	 0,156529841518369 
848	 0,156253561795907 
849	 0,157012421856246 
850	 0,157467469255168 
851	 0,157356904678359 
852	 0,157063657266582 
853	 0,156697800725534 
854	 0,156431317061765 
855	 0,156769101068178 
856	 0,157381355351009 
857	 0,157746221324112 
858	 0,157130666913034 
859	 0,1560470807273 
860	 0,15669526979361 
861	 0,157580557252786 
862	 0,157894707103392 
863	 0,157875764917812 
864	 0,157739841035145 
865	 0,157751134186453 
866	 0,158037268523725 
867	 0,158312126476679 
868	 0,157524579924278 
869	 0,157170592534042 
870	 0,157827510416892 
871	 0,158212093694251 
872	 0,158243396961585 
873	 0,157995849845236 
874	 0,158019010150212 
875	 0,158290919410009 
876	 0,158301395830253 
877	 0,158526043909523 
878	 0,159009438655021 
879	 0,158874087197892 
880	 0,15858422276169 
881	 0,158670009324353 
882	 0,15801654375418 
883	 0,157130512053186 
884	 0,1578493464183 
885	 0,158887494160121 
886	 0,159634925858287 
887	 0,159688239816622 
888	 0,159397910058367 
889	 0,15913985849958 
890	 0,158825835516525 
891	 0,158751025740681 
892	 0,159596283467063 
893	 0,159942329303149 
894	 0,15956055819381 
895	 0,159805661454702 
896	 0,159992122976905 
897	 0,159567975007937 
898	 0,158767161058684 
899	 0,158370122919429 
900	 0,159667410643451 
901	 0,160613291088796 
902	 0,160720123170916 
903	 0,160696725703047 
904	 0,160632052419914 
905	 0,160615831507773 
906	 0,160788705618282 
907	 0,160790111169465 
908	 0,160104284168183 
909	 0,160262985299619 
910	 0,161080927809833 
911	 0,160680665022563 
912	 0,160480114196542 
913	 0,161029318062602 
914	 0,161409904278861 
915	 0,161434084325892 
916	 0,161048287560564 
917	 0,161514343860767 
918	 0,162412306536533 
919	 0,162016993195644 
920	 0,1615323949814 
921	 0,161410902582038 
922	 0,161687887731283 
923	 0,161951787128826 
924	 0,161838510503931 
925	 0,161318639251121 
926	 0,160926887599892 
927	 0,161640149817321 
928	 0,161641890833643 
929	 0,16097392778457 
930	 0,161723028131703 
931	 0,16305078579541 
932	 0,16417760675068 
933	 0,1636098320684 
934	 0,162448912711733 
935	 0,162330910867867 
936	 0,163060921344834 
937	 0,163776634765459 
938	 0,161906728699297 
939	 0,161462352418971 
940	 0,163344837541651 
941	 0,163450385093143 
942	 0,163529764737738 
943	 0,164985868497423 
944	 0,163539364293561 
945	 0,160950030567921 
946	 0,161666528641709 
947	 0,163014120996543 
948	 0,163987434477803 
949	 0,163827212964169 
950	 0,163734084796265 
951	 0,164247419656296 
952	 0,163900429853638 
953	 0,163520718780473 
954	 0,164200638953114 
955	 0,164064065501719 
956	 0,163388644781902 
957	 0,16400773667585 
958	 0,163882710457974 
959	 0,162827934554026 
960	 0,163310726873143 
961	 0,164107296061619 
962	 0,164206581939785 
963	 0,163999085528008 
964	 0,16345117548062 
965	 0,162453638917325 
966	 0,163554441787448 
967	 0,165977786753013 
968	 0,16542632110338 
969	 0,164018726575447 
970	 0,163000565701646 
971	 0,163949723056121 
972	 0,164832423663035 
973	 0,163878212513155 
974	 0,163716508251272 
975	 0,164540261062975 
976	 0,165922234685596 
977	 0,166073008950665 
978	 0,165179299062707 
979	 0,166004370800766 
980	 0,165903107010518 
981	 0,164263548619837 
982	 0,165553467807689 
983	 0,167556514444316 
984	 0,167658074891752 
985	 0,16648833287757 
986	 0,165378224591591 
987	 0,166653634713462 
988	 0,16807363511974 
989	 0,168788963012453 
990	 0,168350442240043 
991	 0,168231055425679 
992	 0,168845203587901 
993	 0,167343164844562 
994	 0,166175071473844 
995	 0,167908024209565 
996	 0,169896221747386 
997	 0,170438229150218 
998	 0,167215229541492 
999	 0,167091009902928 
1000	 0,1702620229903 
1001	 0,169686077335331 
1002	 0,168911304005445 
1003	 0,169482147120178 
1004	 0,169484755388462 
1005	 0,169273199388517 
1006	 0,169461477075733 
1007	 0,171796618889672 
1008	 0,174278700097477 
1009	 0,172995680571945 
1010	 0,171985254980573 
1011	 0,171776364533739 
1012	 0,169966285033864 
1013	 0,17040624014368 
1014	 0,173591755947052 
1015	 0,172998085231736 
1016	 0,170857618576457 
1017	 0,169818922962736 
1018	 0,17306376495017 
1019	 0,176300926366765 
1020	 0,172749388031308 
1021	 0,169856190152566 
1022	 0,169914793059447 
1023	 0,174559548281727 
1024	 0,176161302794269 
1025	 0,173316206538765 
1026	 0,17378707307474 
1027	 0,173130130826754 
1028	 0,169520392099187 
1029	 0,171658733521911 
1030	 0,175505645588861 
1031	 0,175482642981765 
1032	 0,176156406372528 
1033	 0,176961645215113 
1034	 0,17522362417893 
1035	 0,172411004640492 
1036	 0,170906403978591 
1037	 0,177365567140717 
1038	 0,180178039261413 
1039	 0,17570806161689 
1040	 0,175784596407902 
1041	 0,17641844133194 
1042	 0,174646442755066 
1043	 0,178261038345976 
1044	 0,182762094296837 
1045	 0,181234988456161 
1046	 0,186797617810314 
1047	 0,193024257312024 
1048	 0,178037141025904 
1049	 0,175929732630009 
1050	 0,189330674437197 
1051	 0,184890579822595 
1052	 0,182524790608036 
1053	 0,190038223110204 
1054	 0,19351970447981 
1055	 0,189820810456079 
1056	 0,178789732457792 
1057	 0,178116903763152 
1058	 0,17990710384874 
1059	 0,170290049945937 
1060	 0,172631689502077 
1061	 0,182885085478722 
1062	 0,180430156000902 
1063	 0,177131444521315 
1064	 0,176965259301657 
1065	 0,182768986604196 
1066	 0,18240114501528 
1067	 0,172553926261402 
1068	 0,164587694652939 
1069	 0,164686257914425 
1070	 0,175475990443467 
1071	 0,183658166050972 
1072	 0,185807839498716 
1073	 0,180395413837983 
1074	 0,17788522150834 
1075	 0,175774832271458 
