Wavelength	ABBE00384.asd
325	 0,115501134298074 
326	 0,12821326209756 
327	 0,1505921864465 
328	 0,141952423312003 
329	-9,0721959281797E-03 
330	-0,110990474664863 
331	-6,85565577270864E-03 
332	 1,85174722829786E-02 
333	 5,8891073690228E-04 
334	 0,099949106723861 
335	 0,205398410796822 
336	 0,25393392164703 
337	 8,36911278465372E-02 
338	-9,00611957756268E-02 
339	-0,100170353970024 
340	 4,47519063511688E-02 
341	 0,170287953047935 
342	 1,56316243690342E-02 
343	-5,69362153694556E-02 
344	 1,61778170757928E-02 
345	 0,059479690267262 
346	 0,064114854353016 
347	 3,68776731010766E-02 
348	 2,05401480394076E-02 
349	 1,90604621018058E-02 
350	 1,58548810396434E-02 
351	 2,37882218507311E-02 
352	 4,27382809111783E-02 
353	 5,02200780332539E-02 
354	 4,00575816050994E-02 
355	 1,02301171015475E-02 
356	-1,67934077944901E-02 
357	-2,58598099666083E-02 
358	 1,75551583938048E-02 
359	 4,71455380295357E-02 
360	 3,68819457627203E-02 
361	 3,45534396373035E-02 
362	 3,54160436240487E-02 
363	 2,54852990614296E-02 
364	 1,89405042256566E-02 
365	 1,80544886524834E-02 
366	 0,016951568412863 
367	 2,45257112378127E-02 
368	 4,15663739546566E-02 
369	 3,57594478425939E-02 
370	 1,54523541926609E-02 
371	 2,65452143156262E-03 
372	 4,90525397455202E-03 
373	 1,82027940164228E-02 
374	 1,44981023438766E-02 
375	 1,17124058094056E-02 
376	 2,23981418371792E-02 
377	 2,05184643333355E-02 
378	 1,63563227921793E-02 
379	 4,32080236645113E-02 
380	 4,43739061745951E-02 
381	 1,46094094686303E-02 
382	 3,05052192302771E-02 
383	 4,60113279782236E-02 
384	 1,86510390778255E-02 
385	-8,77796015433087E-04 
386	-3,11337544310076E-03 
387	 0,009766190566939 
388	 1,91514341154793E-02 
389	 1,86256504488044E-02 
390	 2,21900137507829E-02 
391	 2,52591176526096E-02 
392	 2,12491841119678E-02 
393	 1,24780833885425E-02 
394	 4,80830763618333E-03 
395	 1,30363574151789E-02 
396	 1,81754249123159E-02 
397	 1,28059217714327E-02 
398	 2,36096841547079E-02 
399	 3,35782562349828E-02 
400	 1,30115269627296E-02 
401	 7,9789715406192E-03 
402	 2,18679522003219E-02 
403	 2,03445194028178E-02 
404	 1,69143074217817E-02 
405	 1,98923040440292E-02 
406	 1,28910985388524E-02 
407	 2,93895487355064E-03 
408	 8,31640839163657E-03 
409	 1,16832809757454E-02 
410	 9,40672164311724E-03 
411	 9,19206192044237E-03 
412	 1,16149220293315E-02 
413	 1,64259884251499E-02 
414	 1,71117132904391E-02 
415	 1,44693873412878E-02 
416	 1,27976883140273E-02 
417	 1,62187747069623E-02 
418	 2,37472686248051E-02 
419	 1,91969669819014E-02 
420	 1,01444185172129E-02 
421	 7,81266123815186E-03 
422	 1,15665367662507E-02 
423	 1,81919841878412E-02 
424	 1,83946488294314E-02 
425	 1,68618824736406E-02 
426	 1,63730212961286E-02 
427	 1,41961384847795E-02 
428	 1,20217994334264E-02 
429	 1,36050887760388E-02 
430	 1,27521840848909E-02 
431	 9,67689043117393E-03 
432	 1,38174307116876E-02 
433	 1,76384690211311E-02 
434	 1,46333089577982E-02 
435	 1,27497803263585E-02 
436	 1,30721230206618E-02 
437	 1,47339790557204E-02 
438	 1,45746103377026E-02 
439	 1,20445453502709E-02 
440	 1,24751838199563E-02 
441	 1,46044050646314E-02 
442	 1,62492564978145E-02 
443	 0,017007477991794 
444	 0,016902307210257 
445	 0,016701515265519 
446	 1,63821039103949E-02 
447	 1,59759166002481E-02 
448	 1,53944425976566E-02 
449	 1,57467808915123E-02 
450	 1,94746028688424E-02 
451	 1,91686389403666E-02 
452	 1,43387196775347E-02 
453	 1,43834832345983E-02 
454	 1,57907671200637E-02 
455	 0,015061496850529 
456	 1,53404645447433E-02 
457	 1,63207771697685E-02 
458	 1,56819802776169E-02 
459	 1,55978318443448E-02 
460	 1,64095241243241E-02 
461	 1,37562880274847E-02 
462	 1,20639054042878E-02 
463	 1,76674580715338E-02 
464	 1,83676434273359E-02 
465	 1,37537598580142E-02 
466	 1,33823705562141E-02 
467	 1,53718148931197E-02 
468	 1,80209988630151E-02 
469	 1,77166041376446E-02 
470	 1,59966512752868E-02 
471	 0,017274399923835 
472	 1,69536654450198E-02 
473	 1,43320767168082E-02 
474	 1,27992264522073E-02 
475	 1,30375408724104E-02 
476	 1,54044754094481E-02 
477	 1,76148877433035E-02 
478	 1,88133263248035E-02 
479	 1,84655303156561E-02 
480	 0,017711452468378 
481	 1,71223180451291E-02 
482	 1,61277290091373E-02 
483	 1,54089243385423E-02 
484	 1,60762272090322E-02 
485	 1,54858654718196E-02 
486	 1,35040313568193E-02 
487	 1,21760402087431E-02 
488	 1,23182208097378E-02 
489	 1,42731472950178E-02 
490	 1,50255289187397E-02 
491	 1,46635946116698E-02 
492	 1,44636319219274E-02 
493	 1,54063218384516E-02 
494	 0,017183565934033 
495	 1,60171201714163E-02 
496	 1,39107313395176E-02 
497	 1,34066941682537E-02 
498	 1,27617322090452E-02 
499	 1,19470066709473E-02 
500	 1,18938427327255E-02 
501	 1,21671380598042E-02 
502	 1,26051214522982E-02 
503	 1,41864536102528E-02 
504	 0,015671432300004 
505	 1,47508656023323E-02 
506	 0,014058095294265 
507	 1,41390217961018E-02 
508	 0,013550951150102 
509	 1,29568399140083E-02 
510	 1,30100850039308E-02 
511	 1,35589518707631E-02 
512	 1,45508909805396E-02 
513	 1,63490749977328E-02 
514	 1,62490314112245E-02 
515	 1,37374094394534E-02 
516	 0,013751060609748 
517	 1,50971504396951E-02 
518	 0,015432433938814 
519	 1,50536953353777E-02 
520	 1,43754277748231E-02 
521	 1,49813883371275E-02 
522	 1,48209979612641E-02 
523	 1,27373573924553E-02 
524	 1,31861012163128E-02 
525	 1,52243120255802E-02 
526	 1,51888343295781E-02 
527	 1,50950022644548E-02 
528	 1,53220950713221E-02 
529	 1,44583239067118E-02 
530	 1,33113087101769E-02 
531	 1,28961369147845E-02 
532	 1,30242982243605E-02 
533	 1,35551850275757E-02 
534	 1,42850226324896E-02 
535	 1,45502419425708E-02 
536	 1,40635920578974E-02 
537	 1,40280406902249E-02 
538	 1,43535857143189E-02 
539	 1,45997255006557E-02 
540	 1,43799040692191E-02 
541	 1,38476931374449E-02 
542	 1,43496233522288E-02 
543	 1,50579830065736E-02 
544	 1,51246257090073E-02 
545	 1,52616958963786E-02 
546	 1,53648827747992E-02 
547	 1,46652997118449E-02 
548	 1,44235250609243E-02 
549	 1,50514075482256E-02 
550	 1,45956492181263E-02 
551	 1,39925633077539E-02 
552	 1,50619642526335E-02 
553	 1,54367075112428E-02 
554	 1,47639197940979E-02 
555	 1,45194662322715E-02 
556	 1,44853123600208E-02 
557	 1,44361661632454E-02 
558	 0,014224258863979 
559	 1,39291607392181E-02 
560	 1,37751358658973E-02 
561	 1,39239392935242E-02 
562	 1,43571038829891E-02 
563	 1,45556002830112E-02 
564	 0,014426495423912 
565	 1,39141246762525E-02 
566	 0,014262452886156 
567	 1,53108694692494E-02 
568	 1,53688756622201E-02 
569	 1,49564152197421E-02 
570	 1,44983513362835E-02 
571	 1,43316343105413E-02 
572	 1,45003759135723E-02 
573	 1,50369571754846E-02 
574	 1,48931621521579E-02 
575	 1,40981590837835E-02 
576	 1,50390511140015E-02 
577	 1,62534991468111E-02 
578	 1,59508738218445E-02 
579	 1,57417265163954E-02 
580	 1,58197642910873E-02 
581	 1,55138631299831E-02 
582	 1,56129158150497E-02 
583	 1,64205589318586E-02 
584	 1,65765622025564E-02 
585	 1,63184991037795E-02 
586	 1,63855766281354E-02 
587	 1,64428822441606E-02 
588	 1,65204367639183E-02 
589	 1,70830111371372E-02 
590	 1,77812339295935E-02 
591	 1,82379738694361E-02 
592	 1,79728809795586E-02 
593	 1,72727651700706E-02 
594	 1,70859689271762E-02 
595	 1,73224225093193E-02 
596	 1,78326474262793E-02 
597	 1,76844180759813E-02 
598	 1,75008703608254E-02 
599	 1,83926374481794E-02 
600	 1,85572697732312E-02 
601	 1,77455167754139E-02 
602	 1,69731803011901E-02 
603	 1,68350347320404E-02 
604	 1,76930143031372E-02 
605	 1,82760248929738E-02 
606	 1,82092308297753E-02 
607	 1,70520495067046E-02 
608	 1,65910715013393E-02 
609	 1,72581847312788E-02 
610	 0,016912243205567 
611	 1,63380050092364E-02 
612	 1,67152807861533E-02 
613	 1,65226558663449E-02 
614	 1,58652450340082E-02 
615	 1,63504509822258E-02 
616	 1,69048012179838E-02 
617	 1,68362662345695E-02 
618	 1,65440623666018E-02 
619	 1,62688181485348E-02 
620	 1,63997710527753E-02 
621	 1,62649988066153E-02 
622	 1,57795737445681E-02 
623	 1,56144984637753E-02 
624	 1,57851522944456E-02 
625	 1,62403515717643E-02 
626	 1,64150339199036E-02 
627	 1,63203578124874E-02 
628	 1,64052761590845E-02 
629	 1,64352022496969E-02 
630	 1,64136414269827E-02 
631	 1,72820985616814E-02 
632	 1,81450388678099E-02 
633	 1,73875841586349E-02 
634	 1,69162482565157E-02 
635	 1,71643688491361E-02 
636	 1,73686324275356E-02 
637	 1,75590657041653E-02 
638	 1,77913914722679E-02 
639	 1,83470412511632E-02 
640	 0,018938440256989 
641	 1,86927636223913E-02 
642	 1,86312907172558E-02 
643	 1,90428577153749E-02 
644	 1,89393650189124E-02 
645	 1,86867950081085E-02 
646	 1,88695889886285E-02 
647	 1,88356353454639E-02 
648	 1,86323712535203E-02 
649	 1,89839397068342E-02 
650	 1,94064894625781E-02 
651	 1,95389551057391E-02 
652	 1,94022059954816E-02 
653	 1,88465388981722E-02 
654	 1,74589570803435E-02 
655	 1,67345509482786E-02 
656	 1,70719573184056E-02 
657	 1,75747278118394E-02 
658	 1,77026293228587E-02 
659	 1,70128137586459E-02 
660	 1,70005364253091E-02 
661	 1,74496008008411E-02 
662	 1,67404429080558E-02 
663	 1,60002792873062E-02 
664	 1,57576058730727E-02 
665	 1,54200229745798E-02 
666	 1,50753546550601E-02 
667	 0,014928242057946 
668	 1,52913135249492E-02 
669	 1,60274233817145E-02 
670	 1,63535453053532E-02 
671	 1,62495442274949E-02 
672	 1,57629029343864E-02 
673	 1,54169059448465E-02 
674	 1,52936613978632E-02 
675	 1,53357185669626E-02 
676	 1,53046556028559E-02 
677	 1,50975248981247E-02 
678	 0,014666276767828 
679	 1,46173130081224E-02 
680	 1,56374248688227E-02 
681	 1,62494640336808E-02 
682	 0,01622228236784 
683	 1,60489685408087E-02 
684	 1,60363650821377E-02 
685	 1,63282777124551E-02 
686	 1,62261792189971E-02 
687	 0,016299819765134 
688	 1,78067307852994E-02 
689	 1,83252430386186E-02 
690	 1,76598459071543E-02 
691	 1,83929578407945E-02 
692	 1,97457548577132E-02 
693	 2,09184698751244E-02 
694	 2,20291379834766E-02 
695	 2,33137089016606E-02 
696	 0,025319532966133 
697	 2,77245154353639E-02 
698	 3,03341874585671E-02 
699	 3,28359486151565E-02 
700	 3,54628649971661E-02 
701	 3,85491304964976E-02 
702	 0,042275576800892 
703	 4,63639720258695E-02 
704	 4,98930578947907E-02 
705	 5,31122302869287E-02 
706	 5,62422949353757E-02 
707	 5,97900296541614E-02 
708	 6,34491777916375E-02 
709	 0,066498222959147 
710	 6,96785987643765E-02 
711	 7,31324497237931E-02 
712	 7,65218279289646E-02 
713	 7,94535275542876E-02 
714	 8,16379903218648E-02 
715	 8,41911391553724E-02 
716	 8,69583247906431E-02 
717	 8,89266761126798E-02 
718	 9,08316232187292E-02 
719	 9,29038235492367E-02 
720	 9,46264857606205E-02 
721	 9,61636399424069E-02 
722	 9,77714415300543E-02 
723	 9,91628187744517E-02 
724	 0,10037720820632 
725	 0,101725695661901 
726	 0,103088082508151 
727	 0,104338676586586 
728	 0,105096652061218 
729	 0,105583915660611 
730	 0,106279836176322 
731	 0,106929733120073 
732	 0,107535132134503 
733	 0,108423086043023 
734	 0,109135894177222 
735	 0,109299450829351 
736	 0,109520722893109 
737	 0,109898956656105 
738	 0,110362936519025 
739	 0,110884885323115 
740	 0,111406435768998 
741	 0,111809317244519 
742	 0,111881375413334 
743	 0,111420815658908 
744	 0,11152623183974 
745	 0,11219988934506 
746	 0,112610445249016 
747	 0,112887002303302 
748	 0,113057948198048 
749	 0,112971358782003 
750	 0,112837855902057 
751	 0,112989555935817 
752	 0,113214957068803 
753	 0,113427270942743 
754	 0,113538849877285 
755	 0,113633593481641 
756	 0,113769891480408 
757	 0,113868116024798 
758	 0,113959340671599 
759	 0,114119370147755 
760	 0,11435764710684 
761	 0,114640543697511 
762	 0,114812042863883 
763	 0,114915909268504 
764	 0,114998480525174 
765	 0,114944362338857 
766	 0,114888719696989 
767	 0,115276840313865 
768	 0,115385040937666 
769	 0,115040008582981 
770	 0,115062284529746 
771	 0,115274238018154 
772	 0,115385106212406 
773	 0,115573480353528 
774	 0,115819075758375 
775	 0,116004981518402 
776	 0,115970670542435 
777	 0,115734272233397 
778	 0,116080354096154 
779	 0,116504564010955 
780	 0,116142506270744 
781	 0,116146263546363 
782	 0,116584780663389 
783	 0,116560919377057 
784	 0,116445303655205 
785	 0,116481699332143 
786	 0,116551469905514 
787	 0,116593222035873 
788	 0,116515626099027 
789	 0,116530522414407 
790	 0,116644141274865 
791	 0,116583384232111 
792	 0,116533426482335 
793	 0,116644654947668 
794	 0,116815371211694 
795	 0,116978989194469 
796	 0,117058494859907 
797	 0,116971154742555 
798	 0,116719215203494 
799	 0,116402791302129 
800	 0,116354251013563 
801	 0,116825663381919 
802	 0,116980842770246 
803	 0,116859899381763 
804	 0,116989020653394 
805	 0,117232308718725 
806	 0,117465255723695 
807	 0,117238204221328 
808	 0,116976072934287 
809	 0,117147480621141 
810	 0,117172249390939 
811	 0,117146731466834 
812	 0,117730093779674 
813	 0,118026145638558 
814	 0,11778545644287 
815	 0,117979000363323 
816	 0,118475739192019 
817	 0,119005422857715 
818	 0,119175218359321 
819	 0,119064560815429 
820	 0,11927488998001 
821	 0,119228162433982 
822	 0,118816100636044 
823	 0,119169488793538 
824	 0,119664887946728 
825	 0,11938011272933 
826	 0,119526570120984 
827	 0,120118983491458 
828	 0,120308600902413 
829	 0,120262287594521 
830	 0,120114998737519 
831	 0,120244657662162 
832	 0,120458007052481 
833	 0,120433634986997 
834	 0,12031482514372 
835	 0,120219651627244 
836	 0,120414006783627 
837	 0,12056683328328 
838	 0,120570908050491 
839	 0,121039752894893 
840	 0,121659202914225 
841	 0,121907711928984 
842	 0,121459903875755 
843	 0,120701566135639 
844	 0,121170359248264 
845	 0,121655220822822 
846	 0,121533516837303 
847	 0,121522519059619 
848	 0,121513938594839 
849	 0,121254677494083 
850	 0,121138628190357 
851	 0,121203629912003 
852	 0,121208685712149 
853	 0,121255348750928 
854	 0,121387360279785 
855	 0,121541011269637 
856	 0,121686388724283 
857	 0,1217971189321 
858	 0,121273549362651 
859	 0,120570645667184 
860	 0,1216583132993 
861	 0,122380095391089 
862	 0,121839593188314 
863	 0,122234599450476 
864	 0,122722289675658 
865	 0,121962926850221 
866	 0,122542201769521 
867	 0,123951995253563 
868	 0,122665536012277 
869	 0,121834104032894 
870	 0,122733210873638 
871	 0,123252065283095 
872	 0,123174071404009 
873	 0,122522969452586 
874	 0,12258600613837 
875	 0,123254410405414 
876	 0,123260193853183 
877	 0,123449418325277 
878	 0,124015977715038 
879	 0,124039242708867 
880	 0,123949380360148 
881	 0,124244728424034 
882	 0,123975289995095 
883	 0,12341568843548 
884	 0,123762236601706 
885	 0,12410504809821 
886	 0,124275059546254 
887	 0,125249798653171 
888	 0,125831737697193 
889	 0,125009003369518 
890	 0,125124633468329 
891	 0,125880127610775 
892	 0,125657547422881 
893	 0,125423048706784 
894	 0,125464420909297 
895	 0,125675254864678 
896	 0,125868066237948 
897	 0,125864342052065 
898	 0,125423442049907 
899	 0,124936427458696 
900	 0,125118315679637 
901	 0,12574485235539 
902	 0,126537719669882 
903	 0,126857883485174 
904	 0,126648983304044 
905	 0,126032267526157 
906	 0,126096681257522 
907	 0,126437291377496 
908	 0,126280711256024 
909	 0,126260699139933 
910	 0,126495026450349 
911	 0,126895257417701 
912	 0,127195492646498 
913	 0,127243086594925 
914	 0,127064024480138 
915	 0,126841988842985 
916	 0,126777848214165 
917	 0,126869175940499 
918	 0,126995317461301 
919	 0,126855929143954 
920	 0,126670673328163 
921	 0,126606517654172 
922	 0,127091355593173 
923	 0,127326870531986 
924	 0,126733407862934 
925	 0,126596811255039 
926	 0,126809457299953 
927	 0,126819426945265 
928	 0,126357736908309 
929	 0,125589526518172 
930	 0,125287493246803 
931	 0,125857107853537 
932	 0,127165190303288 
933	 0,126734990894606 
934	 0,125432624512257 
935	 0,124764214740978 
936	 0,125010237094278 
937	 0,125582403352622 
938	 0,124487079317524 
939	 0,123827931272909 
940	 0,124210405442297 
941	 0,124286687376763 
942	 0,124220856234303 
943	 0,124107747865258 
944	 0,122696189146397 
945	 0,120808233111333 
946	 0,120267031499885 
947	 0,120234342277881 
948	 0,120418955506773 
949	 0,120653898093626 
950	 0,120800205939703 
951	 0,120619178726561 
952	 0,119051436755513 
953	 0,118034913135676 
954	 0,119815677357945 
955	 0,119923093242189 
956	 0,118281951520726 
957	 0,117171900521854 
958	 0,116627683548229 
959	 0,116692449163735 
960	 0,117085305140275 
961	 0,116826055414525 
962	 0,115343378637613 
963	 0,114433003465825 
964	 0,113608456974813 
965	 0,111712767237289 
966	 0,113083317424251 
967	 0,116751303438449 
968	 0,11644827878671 
969	 0,115548758917326 
970	 0,115255239166616 
971	 0,114017691300591 
972	 0,11321511697684 
973	 0,114019105384754 
974	 0,11433862414487 
975	 0,114778744346125 
976	 0,117136262034526 
977	 0,116951633110523 
978	 0,114142523515753 
979	 0,112770558273046 
980	 0,112535559884054 
981	 0,113297319156753 
982	 0,114505313234772 
983	 0,116097191918081 
984	 0,117857752663708 
985	 0,117165299436839 
986	 0,115607102919536 
987	 0,117150342842082 
988	 0,118303411117165 
989	 0,118295952179417 
990	 0,11831308899351 
991	 0,11760715077191 
992	 0,116095100832437 
993	 0,115483885171351 
994	 0,115065832782488 
995	 0,114263641587135 
996	 0,117572933865975 
997	 0,122206501976352 
998	 0,121361467168897 
999	 0,12104831712496 
1000	 0,122252717994189 
1001	 0,122190111219962 
1002	 0,12147670819183 
1003	 0,120874864681524 
1004	 0,122889406553135 
1005	 0,124813911128841 
1006	 0,123966428765396 
1007	 0,122544940562793 
1008	 0,121885914298578 
1009	 0,123551641502571 
1010	 0,125007876492079 
1011	 0,125334884511223 
1012	 0,123903414505632 
1013	 0,123644595341676 
1014	 0,125210494111067 
1015	 0,124417916960578 
1016	 0,123423128602272 
1017	 0,124107672309861 
1018	 0,124315176276151 
1019	 0,124797926897283 
1020	 0,127007550778728 
1021	 0,128271250594237 
1022	 0,128684792235597 
1023	 0,130489301972138 
1024	 0,131680036695539 
1025	 0,130595795893391 
1026	 0,122436272989215 
1027	 0,119629546249325 
1028	 0,128254495138991 
1029	 0,130446979961781 
1030	 0,130056748128001 
1031	 0,133342795611759 
1032	 0,131449075352925 
1033	 0,12761585211375 
1034	 0,13158356858851 
1035	 0,131243797030148 
1036	 0,126867532513571 
1037	 0,131908605639577 
1038	 0,136410934319558 
1039	 0,13569753950026 
1040	 0,130768236091118 
1041	 0,127563586793593 
1042	 0,130482852201838 
1043	 0,133917020472249 
1044	 0,136130370316755 
1045	 0,136084893252368 
1046	 0,136918469940914 
1047	 0,137155637894342 
1048	 0,131336686751789 
1049	 0,132273794674898 
1050	 0,139408726385193 
1051	 0,133798102277707 
1052	 0,131542300069112 
1053	 0,139364404459058 
1054	 0,147818416088526 
1055	 0,147195326661101 
1056	 0,132492288844207 
1057	 0,133315585514062 
1058	 0,1376630757956 
1059	 0,124049905134249 
1060	 0,126595311977849 
1061	 0,139266700237314 
1062	 0,130880034368639 
1063	 0,135094670662458 
1064	 0,151912226468837 
1065	 0,142816165159634 
1066	 0,138815530368011 
1067	 0,147975067732899 
1068	 0,13735926156598 
1069	 0,124910517877332 
1070	 0,126089183407395 
1071	 0,131915089000438 
1072	 0,135571770402564 
1073	 0,130833160141893 
1074	 0,132571216268919 
1075	 0,134241597113608 
