Wavelength	ABBE00218.asd
325	 0,229399456100551 
326	 0,157887414085761 
327	 0,15028178152073 
328	 0,177284857528193 
329	 0,126647133949365 
330	 0,125517278204455 
331	 0,272122530516553 
332	 0,255889782971889 
333	 0,130743111715628 
334	 8,06713506106091E-02 
335	 9,41521883043766E-02 
336	 0,148372218450981 
337	 0,168276166743748 
338	 0,158793714295401 
339	 0,125458947652685 
340	 0,143878593838216 
341	 0,177090737342532 
342	 0,116761771739593 
343	 0,105734173857018 
344	 0,157691740894014 
345	 0,144226327282731 
346	 0,125761999007705 
347	 0,163573611539313 
348	 0,175057632648563 
349	 0,164394384401239 
350	 0,179536496450645 
351	 0,191024398501809 
352	 0,1902810486504 
353	 0,197511327606087 
354	 0,193106464193573 
355	 0,154414991661547 
356	 0,142387495669132 
357	 0,158544796778442 
358	 0,178262767521391 
359	 0,191206655781513 
360	 0,192932304519856 
361	 0,188576952325738 
362	 0,187163667151 
363	 0,199865869835818 
364	 0,200046920781894 
365	 0,185178794520275 
366	 0,168852134185024 
367	 0,163306285686902 
368	 0,174169571337223 
369	 0,189082758418196 
370	 0,199806021389992 
371	 0,192815601709848 
372	 0,191103312475818 
373	 0,200230734180651 
374	 0,211966683095969 
375	 0,222179938981232 
376	 0,226600991879097 
377	 0,21535095523352 
378	 0,201955002297564 
379	 0,218349638458855 
380	 0,229326024966837 
381	 0,226911346761465 
382	 0,234356942147459 
383	 0,229055546596939 
384	 0,192496708416967 
385	 0,180004911477705 
386	 0,190677014193812 
387	 0,191549497954446 
388	 0,194913129616645 
389	 0,203389010050788 
390	 0,210109054553836 
391	 0,216241844998745 
392	 0,223372844430559 
393	 0,21822354525472 
394	 0,206936578591634 
395	 0,215141011267107 
396	 0,220103449598937 
397	 0,212901674071916 
398	 0,220858490547646 
399	 0,234503982842993 
400	 0,23631575845057 
401	 0,23164968405675 
402	 0,224273315559143 
403	 0,222948554063002 
404	 0,220814747222364 
405	 0,214104049223122 
406	 0,216175146278881 
407	 0,221270493973139 
408	 0,212887024230024 
409	 0,215344312573912 
410	 0,230470733892532 
411	 0,232384992294102 
412	 0,227919920352178 
413	 0,224958939534982 
414	 0,223678300594356 
415	 0,223801466279776 
416	 0,223872862260464 
417	 0,224182600364108 
418	 0,224834134283058 
419	 0,226567745032833 
420	 0,226976368570114 
421	 0,223046376348508 
422	 0,221041138882014 
423	 0,221567327616235 
424	 0,221331716636204 
425	 0,221464311115127 
426	 0,222636605491511 
427	 0,224774092555849 
428	 0,226888871459849 
429	 0,227345364845815 
430	 0,226861674309595 
431	 0,2259518437583 
432	 0,225922765600649 
433	 0,225205988772846 
434	 0,22255973864925 
435	 0,22119725562674 
436	 0,221693726660428 
437	 0,224108867364809 
438	 0,225264945610136 
439	 0,224291486548245 
440	 0,225301690204456 
441	 0,225992126986111 
442	 0,223062377194351 
443	 0,223042513447938 
444	 0,226445299269762 
445	 0,230015981613465 
446	 0,23017396115351 
447	 0,225464219971986 
448	 0,223852203173085 
449	 0,22495841000251 
450	 0,225822931817611 
451	 0,226544537517664 
452	 0,226922617800589 
453	 0,22647592859264 
454	 0,227120286205273 
455	 0,230408240185983 
456	 0,232383791814067 
457	 0,232226270146876 
458	 0,229557607014353 
459	 0,229525171557376 
460	 0,233217803275422 
461	 0,231824873176229 
462	 0,228566349785427 
463	 0,228762977804436 
464	 0,231150956561686 
465	 0,234270383825648 
466	 0,234310768358293 
467	 0,233160918859727 
468	 0,232308489954352 
469	 0,232845327601949 
470	 0,234284223970839 
471	 0,235212270409801 
472	 0,236919421751277 
473	 0,238784328161589 
474	 0,236148340832951 
475	 0,233600799064756 
476	 0,235732675534944 
477	 0,23854411375491 
478	 0,240248490692512 
479	 0,238575759595892 
480	 0,236591283032335 
481	 0,235790510103678 
482	 0,234841432202673 
483	 0,234623925411574 
484	 0,236579598220632 
485	 0,2389211719039 
486	 0,240150121980581 
487	 0,236731380982755 
488	 0,234062187101394 
489	 0,236087150115027 
490	 0,238385672351995 
491	 0,239575397998005 
492	 0,238163163004372 
493	 0,237865803134644 
494	 0,239516637614314 
495	 0,239654629913556 
496	 0,239112472814544 
497	 0,239112632999678 
498	 0,239056453935319 
499	 0,238913320245478 
500	 0,238756646431084 
501	 0,239264221500428 
502	 0,240732297115496 
503	 0,24240249156651 
504	 0,243432152380577 
505	 0,242586487579225 
506	 0,241764977871887 
507	 0,24181436991764 
508	 0,243363814251816 
509	 0,245090105571952 
510	 0,245796563037706 
511	 0,246392853197257 
512	 0,247246026705392 
513	 0,249052642203403 
514	 0,249821023380937 
515	 0,249082583945566 
516	 0,249939312704259 
517	 0,251203871628523 
518	 0,25083544674384 
519	 0,249966798577257 
520	 0,24927969777828 
521	 0,250147657448928 
522	 0,250645975866013 
523	 0,249572046520912 
524	 0,249917407137087 
525	 0,251225869670707 
526	 0,251503672551708 
527	 0,251430422530486 
528	 0,251059505368567 
529	 0,249631348870134 
530	 0,248344229731433 
531	 0,248572441338759 
532	 0,249227652594618 
533	 0,249966933959323 
534	 0,25069066894891 
535	 0,2511557978706 
536	 0,251185564790305 
537	 0,250645502212692 
538	 0,250036253754338 
539	 0,250259374791625 
540	 0,250574787047011 
541	 0,250694853857266 
542	 0,250488375552775 
543	 0,250150921705144 
544	 0,249909208629158 
545	 0,250437436833602 
546	 0,251238300697661 
547	 0,250553002591359 
548	 0,249860906750409 
549	 0,249948102201816 
550	 0,250770592755988 
551	 0,251698682631312 
552	 0,251791730800344 
553	 0,251735084520997 
554	 0,251686785791516 
555	 0,251494949321529 
556	 0,251186063085415 
557	 0,250798317989914 
558	 0,250508375179463 
559	 0,250290122164509 
560	 0,249979929101605 
561	 0,249716335806957 
562	 0,249450522602682 
563	 0,248553628798734 
564	 0,24758087162636 
565	 0,247310879099052 
566	 0,24760596964328 
567	 0,248178265715577 
568	 0,248056825665503 
569	 0,248411593190076 
570	 0,249936050075376 
571	 0,250802989677121 
572	 0,251485838883954 
573	 0,25387569049364 
574	 0,254929211687286 
575	 0,254201114488175 
576	 0,255447710546373 
577	 0,257426770473881 
578	 0,258462129935539 
579	 0,259638834669114 
580	 0,260892430865911 
581	 0,261241015692155 
582	 0,262016546121827 
583	 0,263880602464793 
584	 0,265556871582567 
585	 0,266931082639544 
586	 0,268096310563709 
587	 0,269459823930942 
588	 0,271043671266571 
589	 0,272356741767179 
590	 0,27325472224473 
591	 0,273662642838213 
592	 0,274212374188371 
593	 0,274931044170716 
594	 0,27552932496026 
595	 0,275855925953028 
596	 0,275868682057045 
597	 0,275838707807162 
598	 0,276000058685397 
599	 0,276653077166257 
600	 0,277013839366665 
601	 0,276827940542816 
602	 0,276113518699172 
603	 0,275452048325952 
604	 0,275253140484424 
605	 0,274565421127377 
606	 0,273589418347082 
607	 0,27320292871035 
608	 0,272802178358155 
609	 0,272197294083693 
610	 0,271626015493271 
611	 0,271082726381325 
612	 0,270541322487822 
613	 0,269643891461133 
614	 0,268693998043394 
615	 0,268988601205597 
616	 0,26929721121644 
617	 0,268846258219147 
618	 0,268347415692335 
619	 0,267961066070414 
620	 0,267789503910618 
621	 0,267676998371189 
622	 0,267593597497993 
623	 0,267639294662534 
624	 0,267848209254311 
625	 0,268229493930549 
626	 0,268217684370391 
627	 0,268124901222673 
628	 0,269313526160767 
629	 0,270106236927398 
630	 0,269807015568726 
631	 0,270215727873481 
632	 0,271056381499276 
633	 0,27152509180942 
634	 0,27208953948093 
635	 0,272901058545292 
636	 0,274133026286351 
637	 0,275017719939894 
638	 0,275026462564997 
639	 0,276119305526168 
640	 0,27797083433628 
641	 0,278916231073388 
642	 0,279495117315359 
643	 0,279895121820524 
644	 0,280172066113772 
645	 0,280429411206664 
646	 0,280778021060462 
647	 0,28106848174055 
648	 0,28111600696198 
649	 0,280492064449558 
650	 0,279654444713595 
651	 0,278895385509502 
652	 0,277799253431539 
653	 0,276534073434548 
654	 0,275547220102589 
655	 0,274479660805164 
656	 0,273265959021928 
657	 0,272250635746534 
658	 0,270959851674322 
659	 0,268923385109529 
660	 0,267118588067667 
661	 0,26560356476737 
662	 0,263836570737647 
663	 0,26219348864454 
664	 0,260804866895665 
665	 0,259181100638088 
666	 0,257537148748374 
667	 0,256251626215724 
668	 0,255616109265184 
669	 0,255605780421857 
670	 0,255856288643933 
671	 0,255735445983252 
672	 0,25484468212833 
673	 0,254688363600105 
674	 0,255023646785424 
675	 0,254611832066076 
676	 0,254192401164498 
677	 0,254000271391742 
678	 0,253741083671595 
679	 0,253796749151907 
680	 0,254618420383179 
681	 0,254994227365374 
682	 0,255105965203716 
683	 0,256490799740186 
684	 0,258073915512102 
685	 0,259282947004971 
686	 0,260866576053516 
687	 0,263045415765835 
688	 0,266018720477604 
689	 0,269266204161067 
690	 0,272731967110939 
691	 0,276854148603974 
692	 0,281732551990423 
693	 0,287426174006359 
694	 0,293649788731751 
695	 0,300462160886972 
696	 0,308134308142036 
697	 0,316617157252534 
698	 0,325705062448567 
699	 0,334356546140418 
700	 0,343219313770572 
701	 0,35325669744436 
702	 0,362821340592998 
703	 0,371652659881267 
704	 0,380577718837492 
705	 0,389147282448122 
706	 0,397158517631846 
707	 0,405532554922288 
708	 0,413723858391142 
709	 0,420517566875842 
710	 0,426991702985953 
711	 0,433397582767669 
712	 0,439300708540122 
713	 0,444798631160107 
714	 0,449965712059802 
715	 0,454344002259207 
716	 0,45818133446585 
717	 0,462300915921577 
718	 0,466287274481626 
719	 0,469916649875529 
720	 0,47300104497194 
721	 0,475659308142518 
722	 0,478055022608427 
723	 0,48046344329871 
724	 0,482837285903353 
725	 0,484615782994498 
726	 0,486542364825463 
727	 0,48894374732186 
728	 0,490460310052305 
729	 0,491344930726052 
730	 0,492347393832725 
731	 0,493602297325276 
732	 0,495121364884547 
733	 0,496624796852551 
734	 0,497904239492514 
735	 0,498792479781129 
736	 0,49942097691288 
737	 0,500037626369367 
738	 0,501183190748985 
739	 0,502178638175097 
740	 0,502787199741611 
741	 0,503341775909484 
742	 0,503710414632697 
743	 0,50373313534877 
744	 0,504319533203975 
745	 0,505360766804048 
746	 0,505858185548129 
747	 0,506230048994038 
748	 0,506645896774103 
749	 0,506733359912915 
750	 0,506691540484198 
751	 0,506883592730072 
752	 0,506931250785613 
753	 0,5068394309508 
754	 0,506962951018168 
755	 0,507294469185125 
756	 0,507793521015733 
757	 0,508188536774589 
758	 0,508448131133579 
759	 0,508589926130376 
760	 0,508896927604483 
761	 0,509428336375678 
762	 0,509968082862326 
763	 0,510344482788238 
764	 0,510425426058052 
765	 0,510466267147867 
766	 0,510615564766358 
767	 0,511089434272096 
768	 0,511639888183168 
769	 0,512100348210609 
770	 0,51221652102379 
771	 0,512225757145538 
772	 0,512431764810566 
773	 0,512681271212589 
774	 0,512931237619554 
775	 0,513160795341407 
776	 0,513299478240164 
777	 0,513365990444936 
778	 0,513794782201267 
779	 0,514199446459867 
780	 0,513949550902957 
781	 0,513981766761127 
782	 0,514424794935402 
783	 0,514804401470779 
784	 0,515017554391037 
785	 0,514994003412577 
786	 0,514782178086492 
787	 0,514642452740969 
788	 0,515000905931783 
789	 0,515422068403063 
790	 0,515681358998078 
791	 0,515478139429326 
792	 0,515333564737916 
793	 0,515647812344847 
794	 0,515895150367111 
795	 0,51613557623943 
796	 0,516775782290722 
797	 0,516752438198805 
798	 0,516015791531252 
799	 0,516165547115638 
800	 0,516571342273122 
801	 0,516578799932244 
802	 0,516600511296526 
803	 0,516720177842177 
804	 0,51699452546717 
805	 0,517186107249749 
806	 0,517229801745137 
807	 0,517283771666512 
808	 0,51756708468958 
809	 0,518256671020856 
810	 0,518454529927073 
811	 0,518277739794383 
812	 0,518625904509057 
813	 0,518888370742811 
814	 0,518895832032442 
815	 0,519141117136264 
816	 0,519674410709502 
817	 0,520483239254363 
818	 0,520966415926078 
819	 0,521018798282522 
820	 0,520762808331178 
821	 0,520719899030767 
822	 0,521157838377875 
823	 0,521877589364479 
824	 0,52245638429544 
825	 0,522404985074248 
826	 0,522316726827401 
827	 0,522420992214688 
828	 0,522926284135637 
829	 0,523384151632382 
830	 0,523578632423166 
831	 0,523866113684301 
832	 0,524118673409186 
833	 0,524119281622035 
834	 0,524266282509235 
835	 0,524630479779119 
836	 0,525143115284638 
837	 0,525390011626462 
838	 0,525168045550088 
839	 0,524774772730264 
840	 0,524693260581372 
841	 0,525514968878944 
842	 0,526142387949358 
843	 0,526336387621894 
844	 0,526430063067657 
845	 0,526247391772916 
846	 0,525785791700498 
847	 0,525586670839171 
848	 0,525682442099526 
849	 0,526010061250248 
850	 0,526203795544929 
851	 0,526156778803746 
852	 0,525882973556298 
853	 0,525706529804601 
854	 0,525868419023424 
855	 0,526595835605208 
856	 0,527417420302715 
857	 0,527679058391893 
858	 0,527107947133816 
859	 0,526294608639673 
860	 0,527356595043118 
861	 0,528167579602237 
862	 0,527788057078326 
863	 0,527912464779424 
864	 0,528399928604639 
865	 0,528835239033994 
866	 0,529122429533858 
867	 0,529279994287627 
868	 0,529485026167437 
869	 0,529708617924852 
870	 0,529984382548286 
871	 0,530522855431563 
872	 0,531231981691546 
873	 0,531957797625311 
874	 0,532047036501701 
875	 0,531710593015899 
876	 0,531897888087023 
877	 0,532624715313104 
878	 0,533647568812258 
879	 0,5334403262431 
880	 0,533134160173043 
881	 0,533999831399595 
882	 0,534195292207082 
883	 0,533843214268461 
884	 0,534295362848649 
885	 0,53442602260224 
886	 0,534093723296221 
887	 0,534683037022822 
888	 0,535356618693161 
889	 0,53527472928994 
890	 0,534912452562287 
891	 0,534564449560208 
892	 0,534650205443132 
893	 0,534967281382707 
894	 0,53527327983845 
895	 0,534850251292542 
896	 0,534393211458436 
897	 0,534486397411361 
898	 0,534911730225307 
899	 0,535747451523306 
900	 0,537248674411861 
901	 0,537442621483513 
902	 0,53649484950456 
903	 0,537498221413653 
904	 0,537849172332686 
905	 0,536272301914656 
906	 0,536157372217352 
907	 0,536897014349289 
908	 0,537035990037854 
909	 0,537185485323315 
910	 0,5374485204767 
911	 0,537849139226162 
912	 0,53791304200449 
913	 0,537542144164326 
914	 0,53761596256185 
915	 0,537850259895055 
916	 0,537877936762245 
917	 0,538489803052988 
918	 0,539521558352718 
919	 0,540321483580752 
920	 0,540222868198641 
921	 0,539357223959933 
922	 0,539668879393326 
923	 0,540127972427217 
924	 0,539841480803608 
925	 0,539626482741255 
926	 0,539412608680168 
927	 0,538851467287752 
928	 0,538421475042492 
929	 0,538162917382855 
930	 0,537589236345306 
931	 0,537370117216426 
932	 0,537814626626536 
933	 0,538270200189212 
934	 0,53812979424592 
935	 0,536812599817266 
936	 0,536593207711754 
937	 0,537403137284906 
938	 0,537539902834562 
939	 0,53746825459589 
940	 0,537208458586876 
941	 0,536204704742427 
942	 0,535376219263689 
943	 0,535441506431997 
944	 0,534828487347447 
945	 0,533725500941296 
946	 0,532958461668586 
947	 0,53240113203739 
948	 0,532052206056212 
949	 0,531941860491686 
950	 0,531849316715143 
951	 0,5315363604742 
952	 0,530407604171397 
953	 0,52932663364901 
954	 0,529326748171339 
955	 0,5285061258358 
956	 0,526995969267612 
957	 0,526079396330401 
958	 0,525818533583672 
959	 0,526079193318743 
960	 0,525950717777711 
961	 0,525748282657244 
962	 0,525661568081574 
963	 0,524998500865587 
964	 0,524098131500032 
965	 0,523594062293016 
966	 0,524110228558782 
967	 0,525156924937476 
968	 0,524772365780916 
969	 0,524168470664575 
970	 0,52390159696684 
971	 0,523906167191043 
972	 0,524439916347824 
973	 0,525470566622868 
974	 0,52398439425684 
975	 0,522190372017552 
976	 0,524885765253218 
977	 0,526021724393904 
978	 0,524539212722034 
979	 0,522777091665191 
980	 0,522124726430722 
981	 0,523348787603431 
982	 0,525914690592976 
983	 0,527993049535911 
984	 0,52790683844379 
985	 0,527389827573256 
986	 0,52747261001212 
987	 0,529512796933054 
988	 0,53007639336041 
989	 0,529026188418975 
990	 0,529840644811418 
991	 0,530412217367496 
992	 0,529914160904119 
993	 0,530414124200428 
994	 0,531246174687242 
995	 0,531543027109311 
996	 0,531102200315024 
997	 0,531322309231493 
998	 0,535039998004288 
999	 0,536033254623361 
1000	 0,534022499451943 
1001	 0,534747594075952 
1002	 0,536725972672375 
1003	 0,539037476224069 
1004	 0,540996417307286 
1005	 0,541582165155999 
1006	 0,540272067108749 
1007	 0,541527226955698 
1008	 0,543625994990624 
1009	 0,542152117501233 
1010	 0,54179993540428 
1011	 0,542524524677252 
1012	 0,539328014461031 
1013	 0,540019808968545 
1014	 0,546086154515086 
1015	 0,546598455760938 
1016	 0,544387284861298 
1017	 0,542503949974409 
1018	 0,54045275711514 
1019	 0,539852951178703 
1020	 0,542813226119411 
1021	 0,546448709213132 
1022	 0,549376777014787 
1023	 0,550053017780315 
1024	 0,549884809485296 
1025	 0,549153833092515 
1026	 0,546092362492657 
1027	 0,546257414199622 
1028	 0,551547107368249 
1029	 0,5483839732032 
1030	 0,545334902449624 
1031	 0,552986948644938 
1032	 0,552838748074678 
1033	 0,548624497394019 
1034	 0,555322107918424 
1035	 0,555015707615866 
1036	 0,548095653114453 
1037	 0,55406229204909 
1038	 0,560474603782162 
1039	 0,561373479143941 
1040	 0,558114453616342 
1041	 0,551444410932017 
1042	 0,543871701696836 
1043	 0,548978656998005 
1044	 0,55944790734519 
1045	 0,563014085305027 
1046	 0,56621482895627 
1047	 0,565965040007803 
1048	 0,552257814713561 
1049	 0,548689350493697 
1050	 0,557237253834916 
1051	 0,55364686359742 
1052	 0,557420741602248 
1053	 0,571855087605035 
1054	 0,559830186159745 
1055	 0,548990893106394 
1056	 0,562198266994753 
1057	 0,563601292083333 
1058	 0,55532086751068 
1059	 0,548270438793508 
1060	 0,559957225378336 
1061	 0,576824610094049 
1062	 0,558950596481095 
1063	 0,550570545723802 
1064	 0,558756789473808 
1065	 0,558205567112904 
1066	 0,556765656921985 
1067	 0,557229384630973 
1068	 0,558121602497433 
1069	 0,552819466282943 
1070	 0,540076849516329 
1071	 0,544048055146035 
1072	 0,560034028904007 
1073	 0,576375581244961 
1074	 0,562274937639006 
1075	 0,532711724552205 
