Wavelength	ABBE00541.asd
325	 0,59049373670194 
326	 0,42456242869466 
327	 0,351777831490834 
328	 0,368509856810812 
329	 0,352769889565021 
330	 0,37942931050338 
331	 0,501463132220722 
332	 0,461882201650242 
333	 0,343433522080457 
334	 0,372461670312917 
335	 0,410506821013642 
336	 0,407191809483071 
337	 0,295900089045966 
338	 0,172534793443068 
339	 0,103553387750421 
340	 0,180910403281711 
341	 0,30266273334727 
342	 0,263930640755279 
343	 0,252627057619667 
344	 0,296949249995772 
345	 0,278533641308397 
346	 0,254876522233815 
347	 0,28300057729672 
348	 0,269339037399481 
349	 0,22665980577193 
350	 0,221386008032029 
351	 0,240802420805383 
352	 0,267888150067181 
353	 0,228761506872778 
354	 0,189212959275077 
355	 0,238189208739789 
356	 0,24344583468766 
357	 0,214638004614998 
358	 0,253387674456997 
359	 0,268676649333379 
360	 0,228548085119054 
361	 0,220060012783645 
362	 0,228403457820431 
363	 0,218436821399042 
364	 0,235562943504481 
365	 0,269256655677795 
366	 0,243273390675423 
367	 0,224789068986604 
368	 0,248086322419183 
369	 0,240158015195377 
370	 0,221836233533335 
371	 0,249247169326685 
372	 0,255794799504151 
373	 0,231583437551503 
374	 0,216765919730986 
375	 0,217025227511367 
376	 0,233776776298333 
377	 0,247982444000712 
378	 0,2548762770482 
379	 0,251763686914759 
380	 0,24153450777753 
381	 0,231629614514885 
382	 0,25549301835359 
383	 0,271851416923145 
384	 0,245932286350649 
385	 0,223975326169144 
386	 0,217861883852898 
387	 0,232872130505327 
388	 0,244285415341802 
389	 0,243091199769206 
390	 0,241814268626873 
391	 0,244415369131856 
392	 0,254003804831495 
393	 0,246833754480305 
394	 0,229974754927342 
395	 0,238673318826252 
396	 0,24495852712832 
397	 0,237904759592428 
398	 0,253245499969782 
399	 0,269985223607748 
400	 0,252024997703929 
401	 0,239071297708672 
402	 0,238894504459291 
403	 0,239412734931904 
404	 0,235217335113945 
405	 0,224398799940933 
406	 0,225462839782428 
407	 0,233767361417503 
408	 0,23473896408442 
409	 0,236255265163339 
410	 0,239540495995638 
411	 0,241123935045261 
412	 0,238336338625219 
413	 0,229802590878601 
414	 0,23017583252141 
415	 0,236862518983597 
416	 0,236012132160628 
417	 0,235860917390447 
418	 0,238631016476861 
419	 0,237642346101334 
420	 0,235387912581281 
421	 0,235735062635702 
422	 0,234059442400704 
423	 0,230104727380434 
424	 0,225370557925036 
425	 0,22467782561231 
426	 0,22998466531793 
427	 0,230976265995383 
428	 0,230182530438276 
429	 0,234845540460051 
430	 0,237971202785118 
431	 0,2375362411948 
432	 0,234428666728418 
433	 0,231288064056164 
434	 0,230324090122362 
435	 0,229706102424434 
436	 0,230305196251594 
437	 0,235863469030344 
438	 0,23796008615971 
439	 0,234607199442235 
440	 0,236848780093231 
441	 0,239790007160653 
442	 0,236143353681534 
443	 0,23675319907858 
444	 0,241662644333583 
445	 0,242168680296618 
446	 0,241045998869223 
447	 0,240324634834422 
448	 0,242054659013197 
449	 0,244912760856159 
450	 0,246038459474491 
451	 0,246378155970317 
452	 0,246346676651464 
453	 0,246847676085677 
454	 0,246976496621927 
455	 0,245997774715583 
456	 0,246194673911478 
457	 0,247745913209499 
458	 0,249940209152357 
459	 0,252159857339595 
460	 0,253693671968037 
461	 0,253043990074139 
462	 0,25138668087961 
463	 0,25043814513859 
464	 0,250159226892715 
465	 0,250508963214955 
466	 0,251068649415732 
467	 0,252119768307224 
468	 0,253607865889008 
469	 0,25336027962904 
470	 0,252435052803692 
471	 0,253644802228775 
472	 0,254086564238596 
473	 0,253143695864328 
474	 0,25254111523385 
475	 0,251940319926122 
476	 0,251013972175659 
477	 0,252238048840661 
478	 0,254527970432933 
479	 0,25366218853311 
480	 0,252816347011117 
481	 0,253230981663961 
482	 0,252633296829811 
483	 0,251409064762199 
484	 0,250411325838881 
485	 0,25077662987356 
486	 0,252141412903621 
487	 0,252210242008062 
488	 0,25079108362655 
489	 0,248150234264192 
490	 0,248350966076208 
491	 0,25045529332137 
492	 0,250819534953077 
493	 0,25137043557421 
494	 0,25220363411343 
495	 0,25073463704079 
496	 0,24902034223752 
497	 0,249520628533502 
498	 0,250583565901668 
499	 0,251352220967788 
500	 0,250319783336816 
501	 0,249788533599783 
502	 0,251125424233299 
503	 0,254016380423096 
504	 0,256625768407136 
505	 0,255968080165151 
506	 0,255085187964653 
507	 0,255182911316747 
508	 0,256975237203577 
509	 0,258730290754707 
510	 0,258949505217604 
511	 0,259784242918006 
512	 0,261679330618268 
513	 0,264989649531569 
514	 0,266941143771154 
515	 0,266638715377896 
516	 0,267054058201231 
517	 0,267956775006356 
518	 0,268588937986922 
519	 0,269037987681469 
520	 0,269144711692168 
521	 0,268424648800567 
522	 0,267322901506239 
523	 0,266355493126936 
524	 0,267310117058546 
525	 0,269208768782281 
526	 0,269374526514101 
527	 0,269048467718939 
528	 0,268688781341365 
529	 0,268592836070133 
530	 0,268571928416297 
531	 0,268372713425371 
532	 0,267704956176279 
533	 0,267071232574878 
534	 0,268352055322043 
535	 0,269053004957098 
536	 0,267932403621419 
537	 0,267876862775165 
538	 0,268560586001325 
539	 0,268621762546954 
540	 0,269035105976083 
541	 0,26979596380483 
542	 0,269569115083803 
543	 0,269328176565813 
544	 0,270042133623778 
545	 0,270638908853151 
546	 0,271059545927763 
547	 0,271879486513731 
548	 0,272309493840043 
549	 0,272046103480837 
550	 0,27186846865739 
551	 0,272014055246232 
552	 0,272707232225908 
553	 0,273131149542663 
554	 0,273133135671615 
555	 0,273300922179313 
556	 0,273148131854077 
557	 0,272300718111952 
558	 0,271435619334154 
559	 0,27061533451062 
560	 0,269510145663078 
561	 0,268970539848271 
562	 0,269134244436585 
563	 0,268542369299074 
564	 0,267597316491722 
565	 0,26699424693056 
566	 0,2673318246214 
567	 0,26833127074871 
568	 0,26833370944444 
569	 0,26862844972291 
570	 0,270047718973519 
571	 0,271253532023968 
572	 0,272551177379493 
573	 0,275088092020534 
574	 0,277732206024882 
575	 0,280071666523532 
576	 0,282245704012395 
577	 0,28478796798896 
578	 0,28826122789423 
579	 0,291592831774231 
580	 0,294205057767409 
581	 0,295157211867427 
582	 0,296467690841303 
583	 0,299142949587312 
584	 0,301067191962004 
585	 0,302454021284946 
586	 0,304199783900893 
587	 0,305474186385111 
588	 0,306211119572034 
589	 0,307044407717629 
590	 0,308423214622562 
591	 0,310644762945414 
592	 0,312082074716307 
593	 0,312637138302362 
594	 0,312960204807805 
595	 0,313500006054062 
596	 0,314378209842422 
597	 0,314633267380779 
598	 0,314423852460317 
599	 0,314151166583214 
600	 0,313581782166077 
601	 0,312913209047594 
602	 0,313015643743727 
603	 0,313178103527853 
604	 0,312788217333616 
605	 0,311748273091049 
606	 0,310425733525211 
607	 0,309787372820234 
608	 0,308808250414573 
609	 0,307276912721845 
610	 0,306248509014075 
611	 0,305455382281226 
612	 0,304461278157138 
613	 0,303265642022298 
614	 0,302065406964132 
615	 0,301543896139376 
616	 0,301020082176578 
617	 0,300120373704857 
618	 0,299649029690998 
619	 0,299557643160918 
620	 0,299571739133588 
621	 0,299325829017692 
622	 0,298785418560457 
623	 0,298475948481606 
624	 0,29848104336614 
625	 0,298827897268629 
626	 0,29884769034779 
627	 0,29874425544815 
628	 0,299562672405478 
629	 0,30047265236959 
630	 0,301066107171958 
631	 0,301684036811781 
632	 0,302613434956158 
633	 0,304289716791906 
634	 0,305385982731651 
635	 0,305772971872089 
636	 0,306688610164643 
637	 0,307800157490253 
638	 0,308857244353641 
639	 0,31078525323814 
640	 0,313159666173341 
641	 0,314715102901729 
642	 0,315453392145266 
643	 0,315547984097386 
644	 0,31628879369582 
645	 0,3172730129572 
646	 0,317811445528781 
647	 0,318043832723529 
648	 0,317927386479523 
649	 0,317362624202213 
650	 0,316313562925151 
651	 0,314766227414136 
652	 0,312782852873953 
653	 0,310516035909024 
654	 0,308166894115688 
655	 0,306026457584896 
656	 0,304125610687901 
657	 0,302123714479487 
658	 0,299487207627105 
659	 0,295761029349285 
660	 0,29273856542612 
661	 0,290289876998038 
662	 0,286707855136141 
663	 0,283484830087574 
664	 0,281237712217116 
665	 0,278563724652807 
666	 0,275846555954753 
667	 0,273880049512046 
668	 0,272953691115106 
669	 0,272630820826838 
670	 0,270877860332133 
671	 0,269209666184173 
672	 0,268813013488325 
673	 0,268271481186301 
674	 0,267518037217892 
675	 0,266964688900745 
676	 0,266618107374615 
677	 0,266494591233036 
678	 0,266550874527818 
679	 0,26671099010669 
680	 0,266895153675043 
681	 0,26741568341113 
682	 0,268421454098002 
683	 0,270002778440777 
684	 0,272154546624648 
685	 0,274888375501696 
686	 0,278227723444716 
687	 0,282259836517877 
688	 0,287126630605943 
689	 0,292490108290255 
690	 0,298410840417088 
691	 0,305516222941206 
692	 0,313584805578336 
693	 0,322387722783111 
694	 0,33186945623231 
695	 0,342112470707313 
696	 0,353388318777793 
697	 0,365384882146379 
698	 0,377795250553358 
699	 0,389849559075647 
700	 0,40183076723594 
701	 0,414220027899816 
702	 0,426308628806375 
703	 0,437916001001662 
704	 0,449342604192021 
705	 0,460091797319322 
706	 0,469863009103547 
707	 0,479149594185958 
708	 0,487794194735775 
709	 0,495330009727441 
710	 0,502893385672649 
711	 0,510579892126689 
712	 0,517131328886706 
713	 0,522872416897027 
714	 0,528159001744513 
715	 0,53301088992099 
716	 0,537450238829212 
717	 0,541428775474114 
718	 0,54523925543025 
719	 0,548929975009741 
720	 0,55201496264451 
721	 0,554618783640159 
722	 0,556943287213159 
723	 0,559287104595109 
724	 0,561647892442499 
725	 0,563623894549551 
726	 0,565556891822407 
727	 0,567578912778599 
728	 0,568947223659399 
729	 0,569817019467394 
730	 0,570600048757864 
731	 0,571674164855786 
732	 0,573092599872772 
733	 0,574429307405347 
734	 0,575561886508558 
735	 0,576396030606573 
736	 0,576941266310966 
737	 0,577469105722696 
738	 0,578677374634301 
739	 0,579531480917094 
740	 0,579733982274766 
741	 0,580087859377003 
742	 0,580444431734445 
743	 0,580566483554564 
744	 0,580957004843473 
745	 0,58156041137835 
746	 0,581873406009536 
747	 0,58200458766462 
748	 0,582051221754939 
749	 0,582339360110836 
750	 0,582606300836303 
751	 0,582379437980601 
752	 0,582366435397458 
753	 0,5826268066717 
754	 0,58258222576794 
755	 0,582501073842331 
756	 0,582580487298021 
757	 0,582713795839209 
758	 0,582796829309684 
759	 0,582593489402234 
760	 0,582860915127978 
761	 0,583641777293459 
762	 0,583897145997165 
763	 0,583903503229755 
764	 0,583976183240596 
765	 0,584075446582415 
766	 0,584158049808834 
767	 0,584033674372083 
768	 0,584276410539176 
769	 0,584943242563074 
770	 0,58492919825392 
771	 0,584685368061322 
772	 0,584846178249078 
773	 0,584891046446498 
774	 0,584938545646656 
775	 0,585785242570772 
776	 0,586154162717331 
777	 0,58551634874631 
778	 0,585284024773004 
779	 0,585305785968314 
780	 0,585105422872351 
781	 0,585179209512206 
782	 0,585523159848186 
783	 0,585668832437757 
784	 0,585834418867095 
785	 0,586108063773448 
786	 0,586015614291841 
787	 0,585652264489811 
788	 0,585268213680594 
789	 0,585337299213894 
790	 0,585785622024066 
791	 0,585630338678277 
792	 0,585281019938659 
793	 0,58512489281369 
794	 0,585428503938728 
795	 0,585867680078104 
796	 0,585668180013734 
797	 0,585325563906486 
798	 0,58505962872118 
799	 0,58507168754589 
800	 0,58509251441887 
801	 0,584896192829924 
802	 0,585171929087292 
803	 0,585695067615398 
804	 0,585581107455276 
805	 0,585427789936322 
806	 0,585458947600736 
807	 0,585630332077644 
808	 0,585876573683703 
809	 0,586105034908395 
810	 0,58580485756515 
811	 0,585340991580099 
812	 0,586054154617728 
813	 0,586593196231379 
814	 0,586463920582887 
815	 0,586471485977585 
816	 0,586571815519621 
817	 0,586637636117764 
818	 0,586907087836069 
819	 0,587198047621375 
820	 0,586753726067751 
821	 0,586675112107668 
822	 0,587376656102279 
823	 0,587822616814638 
824	 0,587996006329846 
825	 0,588021789593454 
826	 0,587995824605974 
827	 0,588033668195498 
828	 0,588378999066849 
829	 0,588610266341831 
830	 0,58860991672162 
831	 0,589259672630463 
832	 0,589889347764067 
833	 0,589490039707915 
834	 0,589273661676735 
835	 0,589410017105832 
836	 0,589384215476446 
837	 0,589346443053088 
838	 0,589363661008701 
839	 0,589347563723806 
840	 0,589343814749558 
841	 0,58942451944807 
842	 0,589739279496906 
843	 0,590087803637174 
844	 0,589728146627888 
845	 0,589264813896967 
846	 0,589039829945639 
847	 0,588851846273527 
848	 0,588763520797682 
849	 0,588879324363041 
850	 0,588949317966346 
851	 0,588925937109827 
852	 0,588949626076978 
853	 0,58870302580592 
854	 0,588174784071585 
855	 0,588510879189758 
856	 0,589068227830994 
857	 0,588810795275546 
858	 0,588760807893481 
859	 0,589058813831437 
860	 0,589401172867539 
861	 0,589382862692855 
862	 0,588914385031391 
863	 0,58895397844794 
864	 0,589261476694042 
865	 0,589387896514877 
866	 0,589717305398563 
867	 0,590184585544807 
868	 0,590303963504041 
869	 0,590741622631238 
870	 0,591616531071267 
871	 0,591626529468754 
872	 0,591321465521202 
873	 0,591495978180806 
874	 0,59164923723829 
875	 0,59171245548338 
876	 0,591719007560028 
877	 0,592059701538365 
878	 0,592729183428844 
879	 0,59270816634943 
880	 0,592433608266111 
881	 0,592444500556835 
882	 0,592133640624496 
883	 0,591676637572136 
884	 0,591755775833578 
885	 0,592203723476262 
886	 0,592813246315013 
887	 0,592920348041343 
888	 0,592683684796521 
889	 0,592330998092021 
890	 0,592208499237885 
891	 0,592295554878539 
892	 0,59233987387976 
893	 0,592695514157355 
894	 0,593226458568251 
895	 0,592899922859443 
896	 0,592441938135712 
897	 0,592441069138748 
898	 0,59250442096755 
899	 0,592575842183996 
900	 0,592649339820848 
901	 0,592722021712283 
902	 0,592933355064548 
903	 0,593904850461144 
904	 0,594353176618531 
905	 0,593608986873803 
906	 0,593136616863117 
907	 0,593051769437859 
908	 0,593231363744899 
909	 0,593352361685923 
910	 0,593485175213536 
911	 0,594288672799186 
912	 0,594428997685284 
913	 0,593610737829971 
914	 0,594202782856848 
915	 0,59505076527612 
916	 0,59469584091296 
917	 0,594259481810909 
918	 0,593963685232201 
919	 0,593698654320179 
920	 0,594033252824571 
921	 0,594851029807037 
922	 0,594765545198819 
923	 0,59398479764776 
924	 0,592915531258449 
925	 0,593078597604736 
926	 0,59392473122912 
927	 0,594056337917808 
928	 0,592974266381093 
929	 0,591287419004247 
930	 0,591631740194022 
931	 0,592905528262278 
932	 0,594160891276577 
933	 0,594075006191236 
934	 0,592922422240901 
935	 0,591363575564686 
936	 0,591119860343814 
937	 0,59194131403269 
938	 0,591925904425084 
939	 0,591654472796659 
940	 0,59119914831588 
941	 0,590039785242912 
942	 0,589030871591535 
943	 0,588902150414884 
944	 0,588840122406382 
945	 0,588685977308707 
946	 0,588440345054154 
947	 0,587797376380999 
948	 0,586826857024465 
949	 0,586113696968035 
950	 0,585327434142199 
951	 0,584432039271946 
952	 0,584266590609817 
953	 0,58488897291108 
954	 0,586120814586722 
955	 0,585149176444384 
956	 0,582425308568081 
957	 0,580549249756346 
958	 0,579812797612508 
959	 0,580098866686626 
960	 0,579654446591977 
961	 0,57968134434847 
962	 0,580918388513363 
963	 0,58138963676625 
964	 0,580832296880007 
965	 0,579336374056846 
966	 0,579837163593803 
967	 0,581628708774609 
968	 0,579977483469869 
969	 0,578745406324213 
970	 0,579182358764839 
971	 0,578410941134493 
972	 0,578152850980655 
973	 0,579832049469745 
974	 0,579736450255983 
975	 0,579107570181712 
976	 0,581353067780947 
977	 0,580690620019586 
978	 0,577277705804969 
979	 0,577039779782789 
980	 0,578628702047744 
981	 0,580918225305937 
982	 0,581349716699834 
983	 0,581193766605702 
984	 0,581847564828692 
985	 0,580943101801605 
986	 0,579417294644944 
987	 0,579742089381908 
988	 0,581056482020357 
989	 0,582900559233826 
990	 0,584865496318266 
991	 0,58524624905741 
992	 0,583394716945121 
993	 0,581115952867544 
994	 0,580713164108298 
995	 0,583941682887158 
996	 0,5851087330611 
997	 0,584748542929028 
998	 0,586102915014347 
999	 0,587144299432451 
1000	 0,58760181462881 
1001	 0,588357344551374 
1002	 0,589964489195095 
1003	 0,592037220769069 
1004	 0,590490470004994 
1005	 0,589745706890313 
1006	 0,593861234667866 
1007	 0,595757956015135 
1008	 0,594836812795328 
1009	 0,592308844435306 
1010	 0,594206635032487 
1011	 0,599245043339355 
1012	 0,597237351639821 
1013	 0,59527621561059 
1014	 0,596120180387984 
1015	 0,597094456891162 
1016	 0,596680905212561 
1017	 0,594361386987534 
1018	 0,596553666188076 
1019	 0,599805476582373 
1020	 0,59780568224583 
1021	 0,599361669692848 
1022	 0,603302755322194 
1023	 0,600096522007062 
1024	 0,600234011038094 
1025	 0,604808044384051 
1026	 0,601116180899368 
1027	 0,59945383893005 
1028	 0,605178634907591 
1029	 0,604834247433143 
1030	 0,602809862295931 
1031	 0,605436167998064 
1032	 0,604781475749794 
1033	 0,603130723948642 
1034	 0,608184236930758 
1035	 0,606778159708032 
1036	 0,600480928332474 
1037	 0,608829273719537 
1038	 0,61360744332714 
1039	 0,607881647023791 
1040	 0,601821388191419 
1041	 0,599899014704261 
1042	 0,604995355729169 
1043	 0,613435394971253 
1044	 0,619229783111872 
1045	 0,61588646264794 
1046	 0,61488480430655 
1047	 0,615265136636253 
1048	 0,607803995130479 
1049	 0,609926903539151 
1050	 0,620590079361588 
1051	 0,613615108052685 
1052	 0,610281746744568 
1053	 0,618554708135517 
1054	 0,619530344455921 
1055	 0,616460198639291 
1056	 0,613298043052938 
1057	 0,610176340017351 
1058	 0,609273021385408 
1059	 0,612980379574282 
1060	 0,617757960567146 
1061	 0,621528912344348 
1062	 0,621665962986912 
1063	 0,626769190324889 
1064	 0,633568923240676 
1065	 0,618866218658295 
1066	 0,612777129918862 
1067	 0,624706157509685 
1068	 0,630523854172051 
1069	 0,628246430744825 
1070	 0,619717632808453 
1071	 0,622918473742051 
1072	 0,629455049205692 
1073	 0,62688426360185 
1074	 0,621031722132418 
1075	 0,613528302261509 
