Wavelength	ABBE00179.asd
325	 8,53893953698094E-02 
326	 8,27336728163174E-02 
327	 0,11414250639256 
328	 0,108416310367586 
329	-0,125853805123582 
330	-0,207104102331349 
331	 0,149892952030472 
332	 0,12331619599519 
333	-0,131462617720546 
334	-8,17112478546611E-02 
335	 2,97780595561191E-02 
336	 0,118734598610737 
337	 8,76705851493418E-02 
338	-1,63753792951467E-03 
339	-0,105989394031877 
340	-2,58956455866273E-02 
341	 0,12520498943114 
342	 7,09672727871435E-02 
343	 2,11705850398575E-02 
344	 2,24832158016674E-02 
345	 2,70677984559215E-02 
346	 4,05277620055217E-02 
347	 6,90852433440171E-02 
348	 8,10015437580127E-02 
349	 7,31189583891715E-02 
350	 5,18988542260331E-02 
351	 3,50805171720592E-02 
352	 3,01604005021005E-02 
353	 0,037765242995487 
354	 2,96572902831448E-02 
355	-2,36170425276259E-02 
356	-0,022351205677812 
357	 2,46644497250603E-02 
358	 4,77298812886572E-02 
359	 0,047804177837776 
360	 2,85349333789922E-02 
361	 1,67570052311062E-02 
362	 1,46286979354253E-02 
363	 1,90104805516941E-02 
364	 2,89666171453664E-02 
365	 3,98779333843235E-02 
366	 3,81182177124102E-02 
367	 3,55845489842287E-02 
368	 3,76085777621326E-02 
369	 2,16818028223966E-02 
370	 4,95314867952106E-03 
371	 2,57606513172163E-02 
372	 3,24588620619121E-02 
373	 1,78421506752368E-02 
374	 1,79774174379754E-02 
375	 2,44958658522104E-02 
376	 2,95514019786227E-02 
377	 3,17528101241353E-02 
378	 3,19041794932921E-02 
379	 3,34065023745003E-02 
380	 2,60711494230915E-02 
381	 1,30515975951541E-02 
382	 3,04281185703196E-02 
383	 4,35130311870459E-02 
384	 2,25963855193113E-02 
385	 1,49762748755523E-02 
386	 2,07491502676839E-02 
387	 1,39930679917365E-02 
388	 1,52070730129742E-02 
389	 2,77917927062666E-02 
390	 2,80061933855224E-02 
391	 2,48640330373654E-02 
392	 3,08100888243334E-02 
393	 3,04627559653995E-02 
394	 2,14398492347492E-02 
395	 3,32860433129702E-03 
396	-3,82167479865382E-03 
397	 9,68297035472358E-03 
398	 3,15791679744844E-02 
399	 4,32172968104755E-02 
400	 1,98339426489396E-02 
401	 5,81491596084622E-03 
402	 1,08650041865095E-02 
403	 2,36107625031937E-02 
404	 2,74738293197777E-02 
405	 1,40792928393961E-02 
406	 1,25635996129425E-02 
407	 2,03467871450506E-02 
408	 2,35680827644342E-02 
409	 2,62391372068098E-02 
410	 2,73632216288086E-02 
411	 1,74565746941559E-02 
412	 1,16461383336072E-02 
413	 2,23542793697749E-02 
414	 1,96038457089495E-02 
415	 8,78821610599307E-03 
416	 1,83795897525699E-02 
417	 2,66823227846768E-02 
418	 2,51219065889573E-02 
419	 1,79545740797042E-02 
420	 1,15346495620788E-02 
421	 1,31758383074348E-02 
422	 1,58346259204536E-02 
423	 1,71364251597302E-02 
424	 1,48617268636369E-02 
425	 1,54036270629749E-02 
426	 2,13195389925102E-02 
427	 1,95063620264344E-02 
428	 1,40926957844069E-02 
429	 1,55532528246616E-02 
430	 1,56418819107947E-02 
431	 1,37517575241531E-02 
432	 1,81868662911077E-02 
433	 2,09845691182836E-02 
434	 1,54263678985656E-02 
435	 1,07982704800504E-02 
436	 0,010077926035694 
437	 0,016264770006076 
438	 2,07328835206896E-02 
439	 2,01454986502101E-02 
440	 1,94326828059619E-02 
441	 1,77226671146313E-02 
442	 1,33874682177999E-02 
443	 1,14830358183544E-02 
444	 0,012879406909032 
445	 1,59892280595472E-02 
446	 1,82816844917312E-02 
447	 1,83029339252514E-02 
448	 1,84620068577901E-02 
449	 0,018604915180955 
450	 1,77488182457459E-02 
451	 1,72369640546818E-02 
452	 1,71872065147108E-02 
453	 0,01609979167781 
454	 1,45322514888182E-02 
455	 1,31321330466797E-02 
456	 1,30249408399053E-02 
457	 0,014562701444936 
458	 1,84462324058687E-02 
459	 2,06940569935379E-02 
460	 1,95720037914374E-02 
461	 1,66852306588549E-02 
462	 1,51568286452063E-02 
463	 1,88186974970476E-02 
464	 1,93458279623725E-02 
465	 0,01669991475118 
466	 1,87276952641908E-02 
467	 2,07072786843261E-02 
468	 1,95509914427955E-02 
469	 1,68980247665772E-02 
470	 1,51826895443522E-02 
471	 1,89005501614131E-02 
472	 0,020984195210272 
473	 1,93689051841382E-02 
474	 1,62032458747544E-02 
475	 1,43033171675032E-02 
476	 1,61443896774211E-02 
477	 1,76674403661918E-02 
478	 1,82339617761385E-02 
479	 1,89631936511207E-02 
480	 1,86327861883228E-02 
481	 1,68976659034177E-02 
482	 1,51315731874943E-02 
483	 1,46113703092768E-02 
484	 1,69950894856245E-02 
485	 1,76493952949226E-02 
486	 1,58354698992312E-02 
487	 1,37462889605813E-02 
488	 1,30137127913056E-02 
489	 0,014744844228279 
490	 1,73644532857562E-02 
491	 1,89415859292179E-02 
492	 1,56412399982233E-02 
493	 1,39292447278284E-02 
494	 1,55713409829066E-02 
495	 1,64425854931778E-02 
496	 1,58513123734028E-02 
497	 1,34596728982638E-02 
498	 1,33500208594076E-02 
499	 1,52306628074613E-02 
500	 1,49861442898929E-02 
501	 1,49333814103683E-02 
502	 1,61877415515979E-02 
503	 1,69535357230073E-02 
504	 0,016829621041085 
505	 1,54923506807298E-02 
506	 1,44172186055896E-02 
507	 1,42142706075997E-02 
508	 0,015081378369384 
509	 1,59304662567127E-02 
510	 1,58458767206598E-02 
511	 1,65748432525277E-02 
512	 1,77569850174176E-02 
513	 1,77356955131112E-02 
514	 1,70802231850724E-02 
515	 1,62285371780518E-02 
516	 0,016336870486608 
517	 1,67924632017852E-02 
518	 1,65868013695614E-02 
519	 1,60776612655127E-02 
520	 1,57554903968606E-02 
521	 1,72352327593686E-02 
522	 1,78809367597357E-02 
523	 1,60713789405559E-02 
524	 1,61666224162702E-02 
525	 1,74467468445038E-02 
526	 1,65457337223722E-02 
527	 1,66160239528993E-02 
528	 1,79966744585694E-02 
529	 1,64981813372989E-02 
530	 1,46915554282322E-02 
531	 1,57861376378863E-02 
532	 1,66059787938574E-02 
533	 1,67024743386338E-02 
534	 1,71317555765605E-02 
535	 1,73014281822347E-02 
536	 1,68991127106362E-02 
537	 1,62684870223344E-02 
538	 1,58723050643365E-02 
539	 1,65019462225778E-02 
540	 1,66152823681268E-02 
541	 1,59811467431459E-02 
542	 1,59650606503096E-02 
543	 1,62943953347379E-02 
544	 1,66320379381672E-02 
545	 1,70975519497194E-02 
546	 1,73353599467608E-02 
547	 1,62670964810459E-02 
548	 0,01558081055897 
549	 1,60564199637277E-02 
550	 1,66723324407443E-02 
551	 1,70941223778592E-02 
552	 1,70349149525113E-02 
553	 1,64185537363037E-02 
554	 1,55997807098392E-02 
555	 1,59989727616761E-02 
556	 1,64628049745482E-02 
557	 1,60632313707189E-02 
558	 1,60337190660564E-02 
559	 0,016331793786252 
560	 1,62505026527624E-02 
561	 1,64526255073742E-02 
562	 1,70293492828756E-02 
563	 1,69848602197485E-02 
564	 1,64713073933537E-02 
565	 1,58026682575276E-02 
566	 1,59809700727595E-02 
567	 1,67991757038064E-02 
568	 0,016480537189081 
569	 0,016226003960062 
570	 1,67975656187023E-02 
571	 1,69730746343211E-02 
572	 1,67544224541161E-02 
573	 1,65451657281449E-02 
574	 1,63651155295204E-02 
575	 0,016359215262003 
576	 1,69790006643042E-02 
577	 1,79130733041951E-02 
578	 1,87604510457637E-02 
579	 1,88339609156523E-02 
580	 1,83134172204221E-02 
581	 1,82261193596535E-02 
582	 1,85584868455451E-02 
583	 1,92217208919991E-02 
584	 0,019408239384803 
585	 0,019431975741057 
586	 2,00786606276822E-02 
587	 0,020371646964683 
588	 2,02061134996892E-02 
589	 2,05304607840737E-02 
590	 2,08185037680143E-02 
591	 2,05986549963989E-02 
592	 2,11192019821231E-02 
593	 0,021944392828509 
594	 2,11380707088745E-02 
595	 2,07160007812373E-02 
596	 0,021388798031776 
597	 2,10937501635209E-02 
598	 2,04255464007264E-02 
599	 2,05974685505503E-02 
600	 2,04490737520843E-02 
601	 1,99490080903295E-02 
602	 2,01930685530502E-02 
603	 2,06445455347764E-02 
604	 2,08282147106818E-02 
605	 2,06397861119732E-02 
606	 2,01512927453722E-02 
607	 1,94680953301585E-02 
608	 0,01940067677682 
609	 0,020034004079594 
610	 1,98253330274277E-02 
611	 1,91147813911577E-02 
612	 1,84956536532472E-02 
613	 1,83224090150115E-02 
614	 1,85516883329824E-02 
615	 1,86377495620621E-02 
616	 1,87735594533925E-02 
617	 1,89837348964652E-02 
618	 1,83691768083475E-02 
619	 1,75668270789198E-02 
620	 1,80766668648684E-02 
621	 0,01853678105786 
622	 1,84821474576853E-02 
623	 1,79840593824011E-02 
624	 1,76460409235986E-02 
625	 1,80620489959209E-02 
626	 1,84965402770751E-02 
627	 1,87092224230109E-02 
628	 0,018449547586342 
629	 1,85358004894511E-02 
630	 1,92565265403289E-02 
631	 1,93257706092161E-02 
632	 1,90206147407009E-02 
633	 0,019028988639967 
634	 1,91460425863309E-02 
635	 1,93761087879837E-02 
636	 1,99226300288647E-02 
637	 2,03445487977421E-02 
638	 2,03074116266247E-02 
639	 2,05676556844062E-02 
640	 2,10729597793983E-02 
641	 2,12981901363981E-02 
642	 2,17495157947963E-02 
643	 2,24049056024338E-02 
644	 2,18724989737652E-02 
645	 2,12765373735676E-02 
646	 2,22150682940733E-02 
647	 2,25201629940527E-02 
648	 2,19610456638067E-02 
649	 2,17339499226868E-02 
650	 0,021675343762532 
651	 2,16559335075108E-02 
652	 2,15305808012933E-02 
653	 2,11341800269812E-02 
654	 2,01092320089504E-02 
655	 1,96583761872737E-02 
656	 1,99849798403333E-02 
657	 1,98735678182074E-02 
658	 1,93723898058354E-02 
659	 1,86445286610132E-02 
660	 1,85464397096873E-02 
661	 1,88351228545499E-02 
662	 1,82303734746994E-02 
663	 1,75706240791191E-02 
664	 1,72595266885042E-02 
665	 1,69511008700964E-02 
666	 1,66833232393531E-02 
667	 1,65657107048333E-02 
668	 1,65174500950725E-02 
669	 0,016499291879778 
670	 1,64367729972466E-02 
671	 1,65471304212636E-02 
672	 1,69410470312273E-02 
673	 1,67731085664881E-02 
674	 1,62559285084419E-02 
675	 1,62407969658176E-02 
676	 0,016339508071248 
677	 1,63551813385402E-02 
678	 0,015861391952558 
679	 0,015608204881759 
680	 1,64932365876518E-02 
681	 1,67615037853287E-02 
682	 1,64171236878646E-02 
683	 1,69233460703167E-02 
684	 1,74006549810344E-02 
685	 0,017353060551205 
686	 1,70761400800368E-02 
687	 1,71839552363471E-02 
688	 1,87257043937236E-02 
689	 1,97909063224017E-02 
690	 0,019965032433695 
691	 2,01904248345281E-02 
692	 2,11195649257612E-02 
693	 0,02322355599179 
694	 2,50726922192341E-02 
695	 2,67561026688457E-02 
696	 2,91819312507775E-02 
697	 3,22694232143054E-02 
698	 3,58627525951231E-02 
699	 3,90950029424988E-02 
700	 4,23690127364695E-02 
701	 4,63007092975286E-02 
702	 5,12980801675421E-02 
703	 5,69985074761958E-02 
704	 6,20113429115573E-02 
705	 6,66819614642436E-02 
706	 7,13205310754195E-02 
707	 7,67580282779291E-02 
708	 8,22851978261507E-02 
709	 8,63257518464501E-02 
710	 0,090812464072459 
711	 9,61405865775973E-02 
712	 0,101255995941717 
713	 0,105850951647391 
714	 0,109727441114968 
715	 0,113805149623963 
716	 0,117882299118638 
717	 0,120901204791767 
718	 0,123937347422684 
719	 0,127304155563189 
720	 0,129991800823816 
721	 0,132356863053575 
722	 0,134951686554492 
723	 0,137349284353216 
724	 0,139468139564019 
725	 0,141313653871681 
726	 0,143150169575862 
727	 0,145060035431808 
728	 0,146214277849214 
729	 0,146978620809553 
730	 0,148162100686361 
731	 0,149660829576263 
732	 0,151237064022909 
733	 0,151974051933275 
734	 0,152549140860718 
735	 0,153544594208023 
736	 0,154174487419377 
737	 0,154571466494195 
738	 0,155432581674784 
739	 0,156072195755927 
740	 0,156332023756157 
741	 0,156900670043845 
742	 0,157377051815121 
743	 0,157260084137535 
744	 0,157645819843144 
745	 0,158503977911427 
746	 0,158917298747553 
747	 0,159364236477362 
748	 0,159986476347289 
749	 0,15998446915697 
750	 0,159707825960999 
751	 0,159815958705992 
752	 0,160159442193127 
753	 0,160580166593041 
754	 0,160564611354335 
755	 0,160714056807943 
756	 0,161394367315401 
757	 0,161635537804204 
758	 0,161597887260566 
759	 0,161930609707359 
760	 0,162161121097421 
761	 0,162219391731097 
762	 0,162458753531812 
763	 0,162827442271374 
764	 0,163232124656101 
765	 0,163222035610469 
766	 0,162982632163126 
767	 0,163238851650507 
768	 0,163413121473028 
769	 0,163358154353697 
770	 0,163581834296091 
771	 0,163915165566174 
772	 0,164109969505603 
773	 0,164057502577494 
774	 0,163882265660558 
775	 0,164058859498609 
776	 0,164158557789855 
777	 0,164041279197123 
778	 0,164364676471709 
779	 0,164851909739489 
780	 0,165001028632519 
781	 0,165117095879612 
782	 0,165192079513379 
783	 0,164906854426708 
784	 0,164710211099833 
785	 0,164874248001927 
786	 0,164990151257235 
787	 0,165000848717328 
788	 0,164904069169561 
789	 0,164953094203289 
790	 0,165157326759387 
791	 0,165203783675151 
792	 0,165168262710898 
793	 0,165129375279127 
794	 0,165185315130105 
795	 0,165278535360339 
796	 0,165245191562784 
797	 0,165211951634017 
798	 0,165220768895359 
799	 0,165262978430488 
800	 0,1652771481951 
801	 0,16521752148944 
802	 0,165257570842727 
803	 0,165412312043132 
804	 0,165643303803847 
805	 0,165843537219232 
806	 0,165947225209976 
807	 0,165872941970421 
808	 0,165911568823775 
809	 0,166338243202068 
810	 0,166192279494056 
811	 0,165750891368485 
812	 0,166431616790534 
813	 0,166695765298409 
814	 0,166112397396009 
815	 0,166298012708563 
816	 0,166758492292118 
817	 0,166762415220307 
818	 0,167136675433239 
819	 0,167758673702868 
820	 0,167706109681851 
821	 0,167826507892906 
822	 0,168402293041355 
823	 0,168516637485986 
824	 0,168335698125044 
825	 0,168194865334266 
826	 0,168297971900444 
827	 0,168618409012044 
828	 0,168880831688476 
829	 0,169028715142299 
830	 0,169067021143646 
831	 0,169288328364831 
832	 0,169661144594547 
833	 0,170095587228868 
834	 0,169889078262956 
835	 0,16927133594975 
836	 0,169565025808888 
837	 0,17002443600918 
838	 0,170209378259626 
839	 0,170055704100833 
840	 0,169953693943927 
841	 0,170454238502936 
842	 0,170788133062901 
843	 0,170806019492518 
844	 0,17066130713216 
845	 0,170851759985593 
846	 0,171493344849211 
847	 0,171313516166875 
848	 0,170693403012949 
849	 0,170374354394505 
850	 0,170343613153889 
851	 0,170558734540994 
852	 0,17088788802938 
853	 0,170840598977657 
854	 0,170256560351754 
855	 0,169990180249314 
856	 0,170239280074262 
857	 0,171107231005554 
858	 0,171042812862082 
859	 0,170245275090842 
860	 0,170738377134688 
861	 0,171089092299461 
862	 0,170711582298601 
863	 0,170871467985711 
864	 0,171381268854215 
865	 0,171824555259847 
866	 0,172321203532045 
867	 0,172643607923442 
868	 0,172028345114483 
869	 0,171754265667967 
870	 0,172281425858071 
871	 0,172179976575517 
872	 0,172053758758102 
873	 0,172737307126672 
874	 0,172711990048104 
875	 0,172228139666872 
876	 0,172921878946304 
877	 0,174020466464325 
878	 0,174992852430705 
879	 0,174834019620965 
880	 0,174563655470934 
881	 0,175279024786826 
882	 0,17485442558553 
883	 0,173705760099714 
884	 0,173974802670972 
885	 0,174545316442554 
886	 0,175036939853233 
887	 0,175615682867848 
888	 0,175916464779407 
889	 0,175653245643839 
890	 0,175554766441034 
891	 0,17576472978542 
892	 0,176248603156378 
893	 0,176946143128376 
894	 0,177592454015916 
895	 0,177388632102021 
896	 0,176576582569329 
897	 0,175528452732609 
898	 0,175482990352046 
899	 0,176071591271624 
900	 0,176224875174237 
901	 0,176963306354363 
902	 0,178073516754546 
903	 0,177903750811709 
904	 0,177150749751437 
905	 0,176458335464377 
906	 0,177012732660864 
907	 0,177635468224365 
908	 0,176479554698033 
909	 0,176309525612017 
910	 0,177281595569067 
911	 0,177751169613432 
912	 0,177609658744741 
913	 0,176872899814747 
914	 0,176101038379229 
915	 0,176108237379039 
916	 0,177590571807567 
917	 0,178335977335051 
918	 0,17803127699651 
919	 0,177063098092442 
920	 0,176711230850212 
921	 0,177349191397317 
922	 0,178180660122711 
923	 0,178271380571525 
924	 0,177013231654803 
925	 0,17605857208517 
926	 0,175647212801743 
927	 0,175678486091677 
928	 0,175411521240126 
929	 0,174955588928464 
930	 0,17561278389061 
931	 0,176369840686867 
932	 0,176473819763941 
933	 0,175416793098363 
934	 0,173849382926225 
935	 0,172715993128847 
936	 0,173005663255783 
937	 0,173876518419124 
938	 0,172161374299244 
939	 0,171355678364759 
940	 0,172208318409316 
941	 0,17123217104897 
942	 0,170040905337932 
943	 0,170044516408771 
944	 0,16862010561234 
945	 0,16674166118806 
946	 0,166937639970992 
947	 0,167482659091173 
948	 0,167358308672475 
949	 0,164746102363374 
950	 0,162729028399559 
951	 0,16293912442607 
952	 0,163299448304046 
953	 0,163083911927633 
954	 0,161729555719615 
955	 0,159919768864057 
956	 0,158297986776072 
957	 0,158003728748369 
958	 0,157686663215969 
959	 0,156994124991691 
960	 0,156761859264876 
961	 0,156301776076232 
962	 0,155201183910861 
963	 0,154791793042973 
964	 0,154586541256823 
965	 0,153561652581127 
966	 0,153513542117211 
967	 0,154472360718062 
968	 0,155271633238488 
969	 0,15507609047156 
970	 0,153812023853085 
971	 0,153403943290428 
972	 0,15342193294518 
973	 0,153341107091037 
974	 0,152978610133467 
975	 0,15345592944537 
976	 0,156930878660914 
977	 0,156161153131865 
978	 0,151441614255555 
979	 0,150889006310514 
980	 0,15213265183301 
981	 0,153898513079439 
982	 0,155872195213442 
983	 0,156536726795776 
984	 0,154771871885165 
985	 0,154712012146137 
986	 0,156207318157701 
987	 0,157408245831714 
988	 0,158122337725055 
989	 0,158479698418121 
990	 0,159786990512115 
991	 0,159429938793319 
992	 0,156789525521948 
993	 0,156811047106841 
994	 0,157870147463257 
995	 0,157980365136918 
996	 0,159731078473187 
997	 0,161601961705469 
998	 0,159886950919685 
999	 0,159287529590366 
1000	 0,160500438539694 
1001	 0,160895426343188 
1002	 0,160550530979097 
1003	 0,159960574712026 
1004	 0,162056371288338 
1005	 0,163554207242339 
1006	 0,161562356852748 
1007	 0,162814201402664 
1008	 0,165904769398219 
1009	 0,166295981635103 
1010	 0,167506486439707 
1011	 0,169129363843685 
1012	 0,166528393912131 
1013	 0,166354219871135 
1014	 0,170191680922239 
1015	 0,170097752376677 
1016	 0,167779571501053 
1017	 0,165608976750457 
1018	 0,167478641087446 
1019	 0,170850937929346 
1020	 0,171089390586213 
1021	 0,170662779836499 
1022	 0,171415242557225 
1023	 0,177679846355372 
1024	 0,178133959697244 
1025	 0,171468554021408 
1026	 0,170995985658222 
1027	 0,173423450934527 
1028	 0,175760379726549 
1029	 0,174778908856332 
1030	 0,174091813045411 
1031	 0,177978155671339 
1032	 0,179943556735734 
1033	 0,179185554744263 
1034	 0,176868864530408 
1035	 0,174065195678552 
1036	 0,173705122067011 
1037	 0,184729218300298 
1038	 0,188812364649688 
1039	 0,179781909165137 
1040	 0,173314621639114 
1041	 0,173194907771471 
1042	 0,180582295473817 
1043	 0,18488712163606 
1044	 0,185855046578905 
1045	 0,185673700888097 
1046	 0,18838696854823 
1047	 0,191192687150335 
1048	 0,185269061123837 
1049	 0,181969632566599 
1050	 0,183425899977254 
1051	 0,182475321226866 
1052	 0,186406495946123 
1053	 0,196664162106821 
1054	 0,203217934666735 
1055	 0,199280482808086 
1056	 0,182762360390029 
1057	 0,184342319657516 
1058	 0,189259710397832 
1059	 0,172343156219688 
1060	 0,177688833723206 
1061	 0,197322685335553 
1062	 0,191531562487062 
1063	 0,184102514867812 
1064	 0,182270999538306 
1065	 0,187393395652678 
1066	 0,189297639174775 
1067	 0,185321344552239 
1068	 0,188307270465469 
1069	 0,186818129307649 
1070	 0,17572146771986 
1071	 0,186483192576925 
1072	 0,203088816981554 
1073	 0,202592893171569 
1074	 0,200604457977965 
1075	 0,194909801614971 
