Wavelength	ABBE00081.asd
325	 0,1030379461455 
326	 0,187784177866822 
327	 0,167359141043419 
328	 2,30480071164165E-02 
329	 7,11652017128691E-02 
330	 0,152669378020237 
331	 9,29726662252908E-02 
332	 7,05079055052017E-02 
333	 0,09112346427357 
334	 0,114886613746472 
335	 0,105986211972424 
336	 6,73392908619199E-02 
337	 5,47926057334557E-02 
338	 2,42460714346256E-02 
339	-6,92772811432398E-02 
340	-3,23061310540496E-02 
341	 8,09876657917354E-02 
342	 0,092961035504217 
343	 9,78700557120659E-02 
344	 0,109149834151102 
345	 6,57282215586366E-02 
346	 2,87005603101519E-02 
347	 5,40838052751264E-02 
348	 6,59713032210329E-02 
349	 6,12082708023792E-02 
350	 7,23086454659631E-02 
351	 6,31144592335527E-02 
352	 2,97938081903923E-02 
353	 3,32522296678793E-02 
354	 0,039031777177721 
355	 1,19023477816082E-03 
356	-7,45516435865656E-03 
357	 1,48429628152178E-02 
358	 4,05594369090289E-02 
359	 0,04935273555486 
360	 0,036188997949073 
361	 3,87845349433772E-02 
362	 4,83044329690358E-02 
363	 4,64429952480897E-02 
364	 5,10656367127813E-02 
365	 5,86895314825353E-02 
366	 4,10207762940439E-02 
367	 2,94428337627134E-02 
368	 4,05779263731735E-02 
369	 4,86332670955451E-02 
370	 4,93684118869529E-02 
371	 4,19951087244405E-02 
372	 1,42036478883306E-02 
373	-0,022138362950683 
374	-1,31088622142461E-02 
375	 1,32458226079867E-02 
376	 3,04339031825453E-02 
377	 0,02016040278629 
378	 2,07730870621241E-03 
379	 2,61895139652813E-02 
380	 3,30890750774347E-02 
381	 1,44376227908128E-02 
382	 3,25812856918533E-02 
383	 0,045478954665712 
384	 1,58102226893467E-02 
385	-1,22339087525071E-03 
386	 1,26365771469417E-03 
387	 1,02919426983212E-02 
388	 0,025583144455134 
389	 3,98876957519118E-02 
390	 2,21438510855657E-02 
391	 2,43547853657193E-03 
392	 1,81854290709855E-02 
393	 2,15556489408065E-02 
394	 1,00061328896405E-02 
395	 4,47600718952569E-03 
396	 1,26274001100617E-02 
397	 0,033978662361101 
398	 3,62741523878965E-02 
399	 2,64818667712994E-02 
400	 0,01993423869362 
401	 1,67761400295765E-02 
402	 1,72273419231212E-02 
403	 1,96011407201118E-02 
404	 2,04475940205919E-02 
405	 1,83644598416767E-02 
406	 2,39901214881654E-02 
407	 3,10283606586309E-02 
408	 2,39443915962732E-02 
409	 1,88566446389603E-02 
410	 1,99578163763909E-02 
411	 2,37426585399436E-02 
412	 2,48708678320465E-02 
413	 1,93538082454793E-02 
414	 1,80614927944226E-02 
415	 2,01400301865839E-02 
416	 1,75909594000672E-02 
417	 1,76119362983921E-02 
418	 2,16691693102677E-02 
419	 2,06635208074804E-02 
420	 1,85211008640263E-02 
421	 2,11636647451226E-02 
422	 2,20036745887966E-02 
423	 2,02179023632843E-02 
424	 1,76725491944127E-02 
425	 1,72457026085875E-02 
426	 1,99279735448597E-02 
427	 1,80205095864446E-02 
428	 1,40487986576241E-02 
429	 1,42670936015908E-02 
430	 1,50389605475158E-02 
431	 1,57331772297104E-02 
432	 1,84989744016771E-02 
433	 2,02230397283214E-02 
434	 1,83640921238486E-02 
435	 1,71631173607588E-02 
436	 1,72504915813245E-02 
437	 1,79405268236892E-02 
438	 1,89777366368348E-02 
439	 1,99243962680464E-02 
440	 1,94989070275357E-02 
441	 1,83727232123643E-02 
442	 1,75141842334979E-02 
443	 1,76917714634046E-02 
444	 1,90877512185624E-02 
445	 2,21465953923445E-02 
446	 2,23003396989371E-02 
447	 1,74247026795489E-02 
448	 1,50364498812086E-02 
449	 1,53605869450121E-02 
450	 1,66187264816247E-02 
451	 0,018057783646105 
452	 1,92102484208779E-02 
453	 2,05585586497682E-02 
454	 1,97400462552266E-02 
455	 1,50502799697265E-02 
456	 1,49319238910782E-02 
457	 1,79813540816207E-02 
458	 1,54634487313491E-02 
459	 1,51878008875078E-02 
460	 0,019164996894783 
461	 1,82357997594347E-02 
462	 1,63138318890655E-02 
463	 1,96927709007964E-02 
464	 2,01107707483264E-02 
465	 1,70582150043296E-02 
466	 1,59257766649318E-02 
467	 1,62558145756122E-02 
468	 1,75499436395705E-02 
469	 1,81106511621694E-02 
470	 1,79147911402702E-02 
471	 1,73864755034729E-02 
472	 0,018051005047835 
473	 1,97045535317819E-02 
474	 1,88217067734953E-02 
475	 1,73339850102305E-02 
476	 1,73536011917051E-02 
477	 0,019376791278353 
478	 2,15491185341108E-02 
479	 1,83902960810397E-02 
480	 0,016426408556752 
481	 1,82604173156617E-02 
482	 1,87394575104841E-02 
483	 1,80661442353111E-02 
484	 1,73504515682416E-02 
485	 1,73537028311723E-02 
486	 1,79377903349267E-02 
487	 1,76076214229573E-02 
488	 1,71462423474996E-02 
489	 1,70927809606875E-02 
490	 1,60708087725776E-02 
491	 1,51642422838673E-02 
492	 1,74807816773162E-02 
493	 0,01876246267937 
494	 1,78226997522775E-02 
495	 1,74446449251784E-02 
496	 1,68342040658901E-02 
497	 1,49078192065507E-02 
498	 1,41925448059066E-02 
499	 0,014499613691686 
500	 1,30939578735406E-02 
501	 1,28011608030343E-02 
502	 1,49668471651352E-02 
503	 1,70493408081562E-02 
504	 1,78805298461344E-02 
505	 1,60131970259275E-02 
506	 1,51312748308408E-02 
507	 1,58896677711333E-02 
508	 0,015570691265235 
509	 0,015097617965806 
510	 1,53487302717456E-02 
511	 1,49133439142518E-02 
512	 1,44768102917865E-02 
513	 1,66823914726789E-02 
514	 1,79038574562055E-02 
515	 1,69514397987886E-02 
516	 1,72995401171383E-02 
517	 1,79939097070006E-02 
518	 1,72285105523747E-02 
519	 1,67568431902398E-02 
520	 1,68383758939874E-02 
521	 1,67286214076097E-02 
522	 1,63120202660678E-02 
523	 1,56600969227776E-02 
524	 1,65474623608727E-02 
525	 1,79812474061705E-02 
526	 1,70563557707953E-02 
527	 1,66461537816395E-02 
528	 1,73185160265846E-02 
529	 1,64446197597978E-02 
530	 1,53970144193181E-02 
531	 1,59167107257907E-02 
532	 1,60551536618478E-02 
533	 0,015850286047735 
534	 1,69536974344879E-02 
535	 1,76546996920758E-02 
536	 1,71013556909711E-02 
537	 1,73127163579624E-02 
538	 1,77802687728867E-02 
539	 1,70729632037519E-02 
540	 0,016171587404836 
541	 1,55318727202944E-02 
542	 1,56856658064404E-02 
543	 1,58803208758359E-02 
544	 1,54251702342303E-02 
545	 1,62136116458823E-02 
546	 1,74896103832799E-02 
547	 1,60610032226533E-02 
548	 0,014853773803705 
549	 1,52627614874621E-02 
550	 1,60689104700966E-02 
551	 0,016897876845094 
552	 1,74642277050644E-02 
553	 1,68512883627888E-02 
554	 1,53911214439838E-02 
555	 1,54353483680796E-02 
556	 1,59107773228186E-02 
557	 1,58991749149823E-02 
558	 1,61761599245646E-02 
559	 0,016572904850527 
560	 1,63615234774346E-02 
561	 1,61999468918893E-02 
562	 1,63545147194326E-02 
563	 1,68265760112982E-02 
564	 1,68060906506749E-02 
565	 1,52391472791987E-02 
566	 1,53639376236184E-02 
567	 0,016968042809287 
568	 1,61265318561555E-02 
569	 1,52997293385487E-02 
570	 1,60777951543287E-02 
571	 1,62068440275715E-02 
572	 0,015700955212583 
573	 1,52740196893303E-02 
574	 1,52063682651073E-02 
575	 1,57388180230067E-02 
576	 1,72695838247925E-02 
577	 0,018735145346718 
578	 1,89493131627793E-02 
579	 1,88576578929167E-02 
580	 1,85516105627664E-02 
581	 1,73696428591759E-02 
582	 1,71288421718327E-02 
583	 1,85892886082061E-02 
584	 1,87622877999814E-02 
585	 0,018222278513331 
586	 1,87417477498888E-02 
587	 0,018718681373911 
588	 1,81555180042274E-02 
589	 1,92838215007435E-02 
590	 2,01708182993151E-02 
591	 1,90617500890258E-02 
592	 1,88687000862611E-02 
593	 1,95530403704652E-02 
594	 1,93200746053592E-02 
595	 1,93392807037031E-02 
596	 1,99570768371956E-02 
597	 1,98077433865872E-02 
598	 1,93609337786462E-02 
599	 0,019533362538457 
600	 1,94410709375594E-02 
601	 1,90806868129126E-02 
602	 1,93596307925441E-02 
603	 1,98076585031188E-02 
604	 1,99817410159602E-02 
605	 1,94232041893855E-02 
606	 1,85254713092535E-02 
607	 1,84000698208739E-02 
608	 1,83350617188881E-02 
609	 1,82000287387086E-02 
610	 1,88452887076175E-02 
611	 1,92666330925334E-02 
612	 1,81816647588563E-02 
613	 1,74502263438229E-02 
614	 1,74391168764281E-02 
615	 1,76623288825778E-02 
616	 0,017951154243484 
617	 1,81420492188595E-02 
618	 1,79808208288078E-02 
619	 1,77128392716239E-02 
620	 1,79095972684894E-02 
621	 1,79499093854656E-02 
622	 1,77017281692671E-02 
623	 1,75117998213834E-02 
624	 1,76019375117795E-02 
625	 0,0181374624055 
626	 1,80396629665245E-02 
627	 1,74916483360321E-02 
628	 1,77519924072422E-02 
629	 1,79582015025379E-02 
630	 1,77800060527087E-02 
631	 1,81785174624917E-02 
632	 1,88150556027475E-02 
633	 1,89852846829441E-02 
634	 1,89908668522273E-02 
635	 0,018926412918596 
636	 1,87946885395616E-02 
637	 0,018833438052462 
638	 1,92534841274354E-02 
639	 2,02304750333882E-02 
640	 2,11649822299286E-02 
641	 2,04853835763733E-02 
642	 1,99347169487623E-02 
643	 2,01792331208092E-02 
644	 2,04679495873952E-02 
645	 2,07292374269494E-02 
646	 2,09597626935368E-02 
647	 2,08841472780793E-02 
648	 2,06017776834997E-02 
649	 2,06610200568585E-02 
650	 2,09212215508731E-02 
651	 2,12065683125055E-02 
652	 2,09040962077412E-02 
653	 2,01570136888089E-02 
654	 0,01939898239661 
655	 1,89062761220971E-02 
656	 1,88296135860761E-02 
657	 1,92553207631993E-02 
658	 1,94618675476818E-02 
659	 1,87468241761977E-02 
660	 1,82974440264727E-02 
661	 1,81631152814661E-02 
662	 0,01767238420489 
663	 1,72294582476736E-02 
664	 1,69997041388199E-02 
665	 0,016655352488394 
666	 1,62353241793413E-02 
667	 1,58286799486663E-02 
668	 1,58999557085656E-02 
669	 1,64777136646441E-02 
670	 1,72111841831125E-02 
671	 1,74732306827723E-02 
672	 1,68439174431359E-02 
673	 1,64387257538768E-02 
674	 1,64141282827846E-02 
675	 1,66386658279612E-02 
676	 1,67878722011927E-02 
677	 1,67144556841944E-02 
678	 1,64389029610969E-02 
679	 1,63541952438704E-02 
680	 0,016901983184264 
681	 1,68861890323603E-02 
682	 1,64871479817874E-02 
683	 1,73080418864726E-02 
684	 1,78641862617276E-02 
685	 0,0174039590019 
686	 1,73813372608707E-02 
687	 0,017902329400523 
688	 1,88392324153764E-02 
689	 1,92890211736886E-02 
690	 1,92610561808238E-02 
691	 0,02010655226374 
692	 0,021510333286375 
693	 2,30948266519137E-02 
694	 2,42290618593765E-02 
695	 2,53900136069698E-02 
696	 2,81429866167722E-02 
697	 3,10738976794562E-02 
698	 3,36512318656179E-02 
699	 3,64680335979375E-02 
700	 0,039633255044861 
701	 4,32116456611746E-02 
702	 4,75051924395281E-02 
703	 5,22080642197129E-02 
704	 5,61357376762289E-02 
705	 6,02620050380421E-02 
706	 6,51246447308437E-02 
707	 6,97904356734584E-02 
708	 7,40261585083547E-02 
709	 0,077643318925317 
710	 8,15303649638721E-02 
711	 8,58665211728943E-02 
712	 9,01135908677661E-02 
713	 9,37951887705093E-02 
714	 9,65722983065608E-02 
715	 9,98990104066118E-02 
716	 0,103554087128118 
717	 0,106189976602778 
718	 0,10869579304255 
719	 0,11131566611313 
720	 0,113226262822909 
721	 0,115005981728862 
722	 0,1174561673895 
723	 0,11956363673043 
724	 0,121142146849009 
725	 0,122360466952721 
726	 0,123805544613492 
727	 0,125705190567952 
728	 0,126667041381925 
729	 0,126988868316098 
730	 0,12748962123007 
731	 0,128540218062221 
732	 0,130006442012688 
733	 0,130657993342561 
734	 0,13109793074352 
735	 0,131856330424185 
736	 0,132206124580336 
737	 0,132351399112152 
738	 0,133093619842166 
739	 0,133855456940412 
740	 0,134388888734202 
741	 0,134605078299543 
742	 0,134809246923663 
743	 0,135351869512643 
744	 0,135556424334486 
745	 0,135489548145005 
746	 0,135861885762486 
747	 0,136153416869749 
748	 0,136120970925081 
749	 0,136106483699088 
750	 0,136231019488313 
751	 0,136616346496467 
752	 0,136878470143863 
753	 0,13695814563196 
754	 0,13708699148723 
755	 0,137296092169892 
756	 0,137578848451968 
757	 0,13763705042103 
758	 0,137614459817241 
759	 0,137921603478822 
760	 0,138008191485502 
761	 0,13784855912453 
762	 0,138213973629207 
763	 0,138608761055832 
764	 0,138550931989383 
765	 0,138507858033376 
766	 0,138495463092164 
767	 0,138240484305673 
768	 0,138366911576166 
769	 0,138997467676486 
770	 0,139312269586319 
771	 0,139263387814524 
772	 0,138899689166923 
773	 0,13857578800366 
774	 0,138474040471751 
775	 0,13883593124628 
776	 0,139058227862844 
777	 0,138901083943921 
778	 0,139153090692889 
779	 0,139548472938321 
780	 0,139572058426327 
781	 0,139783400445203 
782	 0,14010732851052 
783	 0,139740157856364 
784	 0,139409368926316 
785	 0,139567100611958 
786	 0,139666557604644 
787	 0,139627415864728 
788	 0,139437508736566 
789	 0,139384791493617 
790	 0,139488464220664 
791	 0,139402756305197 
792	 0,139315307413159 
793	 0,139355284054067 
794	 0,139125518966336 
795	 0,138838935689669 
796	 0,139126804166716 
797	 0,139050042204796 
798	 0,13851477487309 
799	 0,13867620665314 
800	 0,139005630764426 
801	 0,138967315029399 
802	 0,138949064079267 
803	 0,139011922841492 
804	 0,139123230099547 
805	 0,139333275188118 
806	 0,139614311879785 
807	 0,139723812116751 
808	 0,139868178264841 
809	 0,140254390603435 
810	 0,140150154862714 
811	 0,1396940654794 
812	 0,139664077607493 
813	 0,139799620606577 
814	 0,140010933175853 
815	 0,140359364645616 
816	 0,140652107607647 
817	 0,140673163687352 
818	 0,140764249834848 
819	 0,140907570929358 
820	 0,140725828778239 
821	 0,140923001426045 
822	 0,141698651351806 
823	 0,142017673416387 
824	 0,142028815533403 
825	 0,142066501962451 
826	 0,141884100186926 
827	 0,141669832271385 
828	 0,142159428807242 
829	 0,142503935976239 
830	 0,142376776009864 
831	 0,142880657693274 
832	 0,143403291038089 
833	 0,142980079777931 
834	 0,142525677868437 
835	 0,142453797202181 
836	 0,143323597914553 
837	 0,143968985484154 
838	 0,143798385140651 
839	 0,14365244293312 
840	 0,143701832959803 
841	 0,144039018921265 
842	 0,144329621648388 
843	 0,144506093948236 
844	 0,144727845018308 
845	 0,144735084036849 
846	 0,144449668884233 
847	 0,144393384849269 
848	 0,144402089186167 
849	 0,144161533172701 
850	 0,14375273129434 
851	 0,143399896452719 
852	 0,143762111954222 
853	 0,14403401970484 
854	 0,143840059996468 
855	 0,143895859444776 
856	 0,144131269918243 
857	 0,144343335655751 
858	 0,144060076673428 
859	 0,14359870575403 
860	 0,144428767605008 
861	 0,144898162984127 
862	 0,14435313035344 
863	 0,144644995417715 
864	 0,145141138050863 
865	 0,14479639133424 
866	 0,145040418539594 
867	 0,145662242836681 
868	 0,144896116894437 
869	 0,144626677569379 
870	 0,145517119713588 
871	 0,145641905350737 
872	 0,145464363306164 
873	 0,145741530295924 
874	 0,145909775237518 
875	 0,145972676957857 
876	 0,146227951824735 
877	 0,146764118915645 
878	 0,147443729794836 
879	 0,147257552017269 
880	 0,147058627557132 
881	 0,147759376620731 
882	 0,147324360861036 
883	 0,146200243110353 
884	 0,146558052369766 
885	 0,147347460835914 
886	 0,148097073288935 
887	 0,148451831889496 
888	 0,148332366827781 
889	 0,147791045600413 
890	 0,147978794662465 
891	 0,14870372387839 
892	 0,14906392684502 
893	 0,149295774914706 
894	 0,149428539828999 
895	 0,149443329629751 
896	 0,149229204742179 
897	 0,148758355968599 
898	 0,148481334852803 
899	 0,148633483336087 
900	 0,149489856356574 
901	 0,150041583817185 
902	 0,150019513368705 
903	 0,149737764643401 
904	 0,149381206265287 
905	 0,149155387202464 
906	 0,149562322273575 
907	 0,149921892314716 
908	 0,149214049224616 
909	 0,149361781446728 
910	 0,150376986694237 
911	 0,150884424224913 
912	 0,150568105283222 
913	 0,149473478864456 
914	 0,148907688064684 
915	 0,149104906163359 
916	 0,150097627583556 
917	 0,150742148867926 
918	 0,150666404341062 
919	 0,149566874739382 
920	 0,148998451131579 
921	 0,149354635922358 
922	 0,149438268781787 
923	 0,149230995123135 
924	 0,148771985727811 
925	 0,14814328783488 
926	 0,147676860889385 
927	 0,147945420601594 
928	 0,147464526568527 
929	 0,146339685999327 
930	 0,146480246735442 
931	 0,147339776595168 
932	 0,148307087748086 
933	 0,147796559444883 
934	 0,146525106492936 
935	 0,145679689468397 
936	 0,145307458826248 
937	 0,145217200811593 
938	 0,144764574694168 
939	 0,144195030205923 
940	 0,143636451524574 
941	 0,143306964698639 
942	 0,142982996945862 
943	 0,142417953586422 
944	 0,141341346073388 
945	 0,139972740185935 
946	 0,138748720473327 
947	 0,138326668161047 
948	 0,138568777917888 
949	 0,138186190838526 
950	 0,137806967774579 
951	 0,137595420578753 
952	 0,136173167446155 
953	 0,134701689937813 
954	 0,134654654040594 
955	 0,133849134798975 
956	 0,132402680886815 
957	 0,131815146270272 
958	 0,131248056947907 
959	 0,13040186685204 
960	 0,129133232435229 
961	 0,128244959850051 
962	 0,128322848332593 
963	 0,12900839211099 
964	 0,129207597812886 
965	 0,127424103782635 
966	 0,127804805257518 
967	 0,129644109726382 
968	 0,127305882065897 
969	 0,125374195411439 
970	 0,125604147896876 
971	 0,126075568481359 
972	 0,126433337088576 
973	 0,126486925764247 
974	 0,126690718986007 
975	 0,127445738914517 
976	 0,129394338384781 
977	 0,128815724037637 
978	 0,126023777057382 
979	 0,12587825663676 
980	 0,125853684542608 
981	 0,125171101678993 
982	 0,126730165477033 
983	 0,128892236858735 
984	 0,12971634300358 
985	 0,129171265934312 
986	 0,127898797502468 
987	 0,127024126150324 
988	 0,129065270623344 
989	 0,132747548564051 
990	 0,130875617688322 
991	 0,128530285738106 
992	 0,128426705903748 
993	 0,128920428947475 
994	 0,129786316329223 
995	 0,130856389186593 
996	 0,131928154221229 
997	 0,132581521491294 
998	 0,132166627759992 
999	 0,131754775876722 
1000	 0,131940317132152 
1001	 0,133780470235694 
1002	 0,133668650100176 
1003	 0,13101615937047 
1004	 0,134187621036574 
1005	 0,136347400940727 
1006	 0,131224122849492 
1007	 0,131509359474214 
1008	 0,136259130309349 
1009	 0,139838263488664 
1010	 0,14112643169738 
1011	 0,139856660528996 
1012	 0,136728227230074 
1013	 0,135214574216879 
1014	 0,136652268324124 
1015	 0,138703593672347 
1016	 0,138830210160271 
1017	 0,135890442698209 
1018	 0,138651055562294 
1019	 0,143184266728334 
1020	 0,141923566922963 
1021	 0,142550441659701 
1022	 0,145282039765749 
1023	 0,145759440431954 
1024	 0,145708322236399 
1025	 0,14533810091428 
1026	 0,142593015008784 
1027	 0,143406109778569 
1028	 0,14983736180535 
1029	 0,148182265069151 
1030	 0,14437500644009 
1031	 0,146784603222743 
1032	 0,149634494468246 
1033	 0,151573567214734 
1034	 0,152273689101381 
1035	 0,150661558075576 
1036	 0,148651811472549 
1037	 0,153918181424872 
1038	 0,156970345660298 
1039	 0,153563759295296 
1040	 0,145879055848114 
1041	 0,142918454544543 
1042	 0,150529783534663 
1043	 0,154575842399695 
1044	 0,15581023746787 
1045	 0,158131501629897 
1046	 0,160617678248101 
1047	 0,161853987109456 
1048	 0,159013046346386 
1049	 0,157270136367754 
1050	 0,156968864174322 
1051	 0,151037421123948 
1052	 0,155318601557005 
1053	 0,172354158518314 
1054	 0,172169001803499 
1055	 0,163843092310658 
1056	 0,157358880778381 
1057	 0,153316080067919 
1058	 0,150061407638736 
1059	 0,145172418269864 
1060	 0,155146035231775 
1061	 0,170741044271896 
1062	 0,163523041528572 
1063	 0,15729018285565 
1064	 0,156902835560723 
1065	 0,152282446910574 
1066	 0,154604519656118 
1067	 0,164408229364635 
1068	 0,15917414274124 
1069	 0,153247772070364 
1070	 0,157388024173899 
1071	 0,154779812127376 
1072	 0,153068127202305 
1073	 0,162593704471395 
1074	 0,173079697605054 
1075	 0,170232533338267 
