Wavelength	ABBE00356.asd
325	 0,143002578590652 
326	 0,129529454322843 
327	 0,13018687903113 
328	 9,14201268329077E-02 
329	 6,22342423559462E-02 
330	 0,12637458803148 
331	 0,315213995626367 
332	 0,255924757131366 
333	 7,04450588171518E-02 
334	 8,39012009491266E-02 
335	 0,146818293636587 
336	 0,204063642027543 
337	 0,197547439410778 
338	 0,122342391212219 
339	-3,81566997571392E-02 
340	-1,00302300485253E-02 
341	 0,125256091612274 
342	 0,075990302438248 
343	 5,35694884849097E-02 
344	 8,85739410674726E-02 
345	 5,36530007508325E-02 
346	 2,33015632446963E-02 
347	 6,92859522395595E-02 
348	 7,88467763597419E-02 
349	 5,78808613722599E-02 
350	 7,36665210111741E-02 
351	 8,49719618257613E-02 
352	 7,52087039488866E-02 
353	 3,90207244586965E-02 
354	 6,30276349436783E-03 
355	 1,72701325980563E-02 
356	 3,87188490072044E-02 
357	 5,55058444037126E-02 
358	 4,73696951663936E-02 
359	 3,01887053328456E-02 
360	 1,47653096800529E-02 
361	 2,10269123616874E-02 
362	 4,15024233297709E-02 
363	 6,36607199643834E-02 
364	 4,75181581196915E-02 
365	 3,88620020097412E-03 
366	 5,97464904470944E-03 
367	 2,31412078828141E-02 
368	 3,41450053603502E-02 
369	 0,037030954595514 
370	 3,48331023944329E-02 
371	 3,29166654173625E-02 
372	 4,45982812881221E-02 
373	 6,09012205644262E-02 
374	 2,78698971359949E-02 
375	 2,76622780402559E-03 
376	 2,68552459268222E-02 
377	 3,65038255471422E-02 
378	 3,57608045965098E-02 
379	 5,69247035228462E-02 
380	 0,054920729585179 
381	 2,66076614344355E-02 
382	 3,69550325538362E-02 
383	 4,74718825877664E-02 
384	 2,24707931292236E-02 
385	 1,10149964283555E-02 
386	 1,75872707910898E-02 
387	 2,76947978824246E-02 
388	 4,14343057163511E-02 
389	 0,053227236444171 
390	 0,039817512028378 
391	 2,33703223698642E-02 
392	 3,15511652783215E-02 
393	 2,85481980860767E-02 
394	 1,74658255899471E-02 
395	 3,10291056776426E-02 
396	 0,040125482965401 
397	 3,14543525060496E-02 
398	 2,81543101448315E-02 
399	 0,028954333552679 
400	 2,80499935801393E-02 
401	 2,84587159582312E-02 
402	 2,83457429228284E-02 
403	 1,79517564827265E-02 
404	 1,23845180796027E-02 
405	 2,04873292240769E-02 
406	 2,67822973811272E-02 
407	 2,73275329580149E-02 
408	 1,81833905241037E-02 
409	 1,84957156027765E-02 
410	 0,029183086172017 
411	 2,55042008741663E-02 
412	 0,018268619477731 
413	 1,81445245180127E-02 
414	 1,37230136828029E-02 
415	 8,5732289818241E-03 
416	 1,70873235684357E-02 
417	 2,45749923904949E-02 
418	 0,024678798578872 
419	 0,018333880312832 
420	 0,012019671970201 
421	 1,36059987795009E-02 
422	 1,44724956088755E-02 
423	 1,29958674634176E-02 
424	 9,75135820542027E-03 
425	 1,18352001669562E-02 
426	 2,12018569452712E-02 
427	 1,64936197347159E-02 
428	 5,54744570694261E-03 
429	 6,9602824800104E-03 
430	 1,08993537413601E-02 
431	 1,48193765379835E-02 
432	 2,08047383671701E-02 
433	 2,45295881171776E-02 
434	 2,23555357684352E-02 
435	 0,016726549583982 
436	 1,13968063061989E-02 
437	 1,40039315200686E-02 
438	 0,01570575187511 
439	 1,39878388155332E-02 
440	 1,74158108385248E-02 
441	 2,06116481619699E-02 
442	 1,60796937107324E-02 
443	 1,52570119950679E-02 
444	 1,89186986948006E-02 
445	 2,03094132258273E-02 
446	 1,88556231343405E-02 
447	 1,49383188858225E-02 
448	 1,53318379600512E-02 
449	 1,88249298348906E-02 
450	 2,18583048809653E-02 
451	 1,99642272808819E-02 
452	 1,42713690842677E-02 
453	 1,76738113751344E-02 
454	 2,13062366669727E-02 
455	 1,70322304405641E-02 
456	 1,61037857660572E-02 
457	 1,80130992662991E-02 
458	 1,48865278206784E-02 
459	 0,015383429264216 
460	 2,12527548908332E-02 
461	 1,95715288840155E-02 
462	 1,49171575339319E-02 
463	 1,49302446564255E-02 
464	 1,64314489202044E-02 
465	 1,76257196227202E-02 
466	 1,43761976147929E-02 
467	 1,33248452699055E-02 
468	 1,80695002252353E-02 
469	 1,87471265160254E-02 
470	 1,68823530918909E-02 
471	 1,86183579799447E-02 
472	 0,018929719197343 
473	 1,70809253655145E-02 
474	 1,72190438344087E-02 
475	 1,73007606966778E-02 
476	 1,53180324310687E-02 
477	 1,68047868656894E-02 
478	 2,04631577775925E-02 
479	 2,00021268230453E-02 
480	 1,84704673119788E-02 
481	 1,72791367606663E-02 
482	 1,56363997507741E-02 
483	 1,49961816677818E-02 
484	 1,76005458475248E-02 
485	 1,83066159483855E-02 
486	 1,65024150170307E-02 
487	 1,55312481549321E-02 
488	 1,52532703903878E-02 
489	 1,54914545058856E-02 
490	 1,57976404455411E-02 
491	 1,59824307502418E-02 
492	 1,58098663045616E-02 
493	 0,016109710499295 
494	 1,67569643798846E-02 
495	 1,54331207505418E-02 
496	 1,38839306092293E-02 
497	 1,42062812343846E-02 
498	 1,34641599614451E-02 
499	 1,19790335170343E-02 
500	 1,26343422741203E-02 
501	 1,40941551494652E-02 
502	 1,54310447139407E-02 
503	 1,59766211806147E-02 
504	 1,56233055088701E-02 
505	 1,42698514952194E-02 
506	 1,39768203477192E-02 
507	 1,48843988217661E-02 
508	 1,45680754158317E-02 
509	 1,36613189630721E-02 
510	 1,29121332473003E-02 
511	 1,33801942845764E-02 
512	 1,47685343584451E-02 
513	 1,59710965131042E-02 
514	 0,016151157745324 
515	 1,52641940680208E-02 
516	 1,58889343083999E-02 
517	 1,68820917173551E-02 
518	 1,63148894381839E-02 
519	 1,55890773983784E-02 
520	 1,52831974246143E-02 
521	 0,016165475809419 
522	 1,66131606681872E-02 
523	 1,56211366877547E-02 
524	 1,57964167458625E-02 
525	 1,67367525837454E-02 
526	 1,66109994370672E-02 
527	 1,64692747035242E-02 
528	 1,65075279603599E-02 
529	 1,59343262131819E-02 
530	 0,015254751536471 
531	 1,50923042561896E-02 
532	 1,46746007022564E-02 
533	 1,42417215346033E-02 
534	 1,51627997398958E-02 
535	 1,57225077230463E-02 
536	 1,50929085644221E-02 
537	 1,56018397846264E-02 
538	 1,64015711976264E-02 
539	 1,53509000411193E-02 
540	 1,43234962044217E-02 
541	 1,39986103940732E-02 
542	 1,45216295201251E-02 
543	 1,50668403027838E-02 
544	 1,48745846011932E-02 
545	 1,53675598271507E-02 
546	 1,61277970959613E-02 
547	 1,52564853987843E-02 
548	 1,40284913967607E-02 
549	 1,32989669153098E-02 
550	 1,41159680010623E-02 
551	 1,54990142049102E-02 
552	 1,58062428116921E-02 
553	 1,53753829368852E-02 
554	 1,46155163683751E-02 
555	 1,49556763351652E-02 
556	 1,49720648596103E-02 
557	 1,36122751474622E-02 
558	 1,34417212556891E-02 
559	 1,42729301891187E-02 
560	 0,014482561675758 
561	 1,45192423944438E-02 
562	 1,45514074904833E-02 
563	 1,48917804146119E-02 
564	 0,014995922846539 
565	 1,41167058458735E-02 
566	 0,013896951959054 
567	 1,44673324352944E-02 
568	 1,47034122096932E-02 
569	 1,46894025999004E-02 
570	 0,014522655716788 
571	 1,46519694396338E-02 
572	 1,48922437920275E-02 
573	 1,46150860280349E-02 
574	 1,46757136849809E-02 
575	 0,015311695259941 
576	 1,60706020822621E-02 
577	 0,016616433842752 
578	 1,66306233631141E-02 
579	 1,67083948418029E-02 
580	 1,68180408712348E-02 
581	 1,63002924845475E-02 
582	 1,60852250939685E-02 
583	 1,66520685356332E-02 
584	 1,72196846592122E-02 
585	 1,75759008183339E-02 
586	 1,75307222739595E-02 
587	 1,77243506597542E-02 
588	 0,018180285559967 
589	 1,80350697514592E-02 
590	 1,77379894375294E-02 
591	 1,77561225769393E-02 
592	 1,82629128177881E-02 
593	 1,88589002069628E-02 
594	 1,82726263656784E-02 
595	 0,018120282108772 
596	 1,89890724435835E-02 
597	 1,93218116251894E-02 
598	 1,92547883942422E-02 
599	 1,92642104572996E-02 
600	 1,89550304783472E-02 
601	 1,83434039608177E-02 
602	 1,77316950231393E-02 
603	 0,017592190523547 
604	 1,82141601130254E-02 
605	 1,85726334513722E-02 
606	 1,84190415148962E-02 
607	 1,75117138281663E-02 
608	 1,72252242296846E-02 
609	 1,78772270972642E-02 
610	 1,78292502633061E-02 
611	 1,72459948039936E-02 
612	 0,016517843040161 
613	 0,016144669143994 
614	 1,62932338520928E-02 
615	 1,70494118835986E-02 
616	 1,74760026991254E-02 
617	 1,70124258691196E-02 
618	 1,65413895206081E-02 
619	 1,62617027102874E-02 
620	 1,62516877364825E-02 
621	 1,65455668115589E-02 
622	 1,68739053696384E-02 
623	 1,59053148155768E-02 
624	 1,51248710485551E-02 
625	 1,60654538788831E-02 
626	 1,65200193940908E-02 
627	 1,63266265989272E-02 
628	 1,64715580968604E-02 
629	 1,66392101046982E-02 
630	 1,67467795985445E-02 
631	 1,73135614048626E-02 
632	 1,78961798001623E-02 
633	 1,77150815407759E-02 
634	 0,017187886300398 
635	 1,67559847094214E-02 
636	 1,77301522825884E-02 
637	 1,83012339480209E-02 
638	 1,70994331621371E-02 
639	 1,75156133752875E-02 
640	 1,91075429885536E-02 
641	 1,92073695487042E-02 
642	 1,91165794570581E-02 
643	 1,92478319427477E-02 
644	 1,90163438555708E-02 
645	 1,89304910703528E-02 
646	 0,019689752499245 
647	 2,01306368249695E-02 
648	 1,99808776319328E-02 
649	 1,93575811974536E-02 
650	 1,91542085141251E-02 
651	 1,98342936085768E-02 
652	 1,97599363517893E-02 
653	 1,89908755516773E-02 
654	 1,80787759390505E-02 
655	 1,78133340682855E-02 
656	 1,82543260101173E-02 
657	 1,80400232051879E-02 
658	 1,76652189222084E-02 
659	 0,01770330583077 
660	 1,73867372649755E-02 
661	 1,66886934762682E-02 
662	 1,59495102216418E-02 
663	 1,54069397016288E-02 
664	 1,51851165643255E-02 
665	 1,51043867114027E-02 
666	 1,49205271488108E-02 
667	 1,42701756035484E-02 
668	 1,42020768302259E-02 
669	 1,47965278122129E-02 
670	 1,51127725709414E-02 
671	 1,52781056525667E-02 
672	 1,53876862089207E-02 
673	 1,51161473402169E-02 
674	 1,46941052682118E-02 
675	 1,47872976489154E-02 
676	 1,48196118648078E-02 
677	 0,014661299430399 
678	 1,47742704223538E-02 
679	 1,51337460433383E-02 
680	 1,56556869952692E-02 
681	 1,53941686266778E-02 
682	 1,46220669439313E-02 
683	 1,49139089779846E-02 
684	 0,015521373156145 
685	 1,59313518913098E-02 
686	 1,57261488888425E-02 
687	 1,55257288031364E-02 
688	 1,65289196923413E-02 
689	 0,017592291072637 
690	 1,83217386945092E-02 
691	 1,86312884603185E-02 
692	 1,91845934184191E-02 
693	 2,05594720675343E-02 
694	 2,21349485453115E-02 
695	 2,39020479803577E-02 
696	 2,61259225859126E-02 
697	 0,02867081094666 
698	 3,15061695225458E-02 
699	 0,034712980806759 
700	 0,038375465185914 
701	 4,25853800552467E-02 
702	 4,73633718507773E-02 
703	 5,23788557466167E-02 
704	 5,66657210110869E-02 
705	 6,10415630692992E-02 
706	 6,60457206786308E-02 
707	 7,16283464841679E-02 
708	 7,70532251255346E-02 
709	 8,09520098726043E-02 
710	 8,53700765465643E-02 
711	 9,07174235107013E-02 
712	 9,57470500160133E-02 
713	 0,10029835408246 
714	 0,104313637022286 
715	 0,108617507096533 
716	 0,112970282726436 
717	 0,116282579271693 
718	 0,119605866037985 
719	 0,123225403567026 
720	 0,126057505684206 
721	 0,128592919817938 
722	 0,131559890428672 
723	 0,13401213429977 
724	 0,135964592054248 
725	 0,138192678768096 
726	 0,140350379965331 
727	 0,142222652214904 
728	 0,143864052997023 
729	 0,145289288372064 
730	 0,146507675132666 
731	 0,147636045044512 
732	 0,148746618028506 
733	 0,149884090452025 
734	 0,151115670486394 
735	 0,152440322821963 
736	 0,153105297053054 
737	 0,153394913475612 
738	 0,154366331270813 
739	 0,155221860079927 
740	 0,155754477946479 
741	 0,156590836423846 
742	 0,157248889574638 
743	 0,157147599617995 
744	 0,157416862188007 
745	 0,158140963877646 
746	 0,158708930736775 
747	 0,159276226037458 
748	 0,159821729972643 
749	 0,159710545503856 
750	 0,159413302196503 
751	 0,159740552571341 
752	 0,16031716545659 
753	 0,160856956975581 
754	 0,160658105367889 
755	 0,160605939298632 
756	 0,161293932408392 
757	 0,161811393869144 
758	 0,162063816461853 
759	 0,162145247055642 
760	 0,162343811544654 
761	 0,162720401792422 
762	 0,162989124934074 
763	 0,163252271225787 
764	 0,163597766775405 
765	 0,163602074867035 
766	 0,163475189080814 
767	 0,163972472359793 
768	 0,16444264585618 
769	 0,164628750579572 
770	 0,164663539584173 
771	 0,164741126395517 
772	 0,165069071807986 
773	 0,165292038956445 
774	 0,165408671718731 
775	 0,165723107936776 
776	 0,165826688078724 
777	 0,165588392658666 
778	 0,16567852840356 
779	 0,165912722475402 
780	 0,165907279978114 
781	 0,165964360076274 
782	 0,166100139628445 
783	 0,166082682353281 
784	 0,166117193591365 
785	 0,166317242288362 
786	 0,166407579884247 
787	 0,166467644023894 
788	 0,166712649567779 
789	 0,166942205343663 
790	 0,167027705993819 
791	 0,166730859482147 
792	 0,166399961404968 
793	 0,166349822441761 
794	 0,166746850815327 
795	 0,167270552564801 
796	 0,167234611121451 
797	 0,166829188316718 
798	 0,166296628533747 
799	 0,166479676341745 
800	 0,166684445407168 
801	 0,166280673392885 
802	 0,166415982562008 
803	 0,166990132101442 
804	 0,167232412701164 
805	 0,167343039388288 
806	 0,167376555748833 
807	 0,16730969718761 
808	 0,167483529905326 
809	 0,168209455518774 
810	 0,168448255875256 
811	 0,168229912990718 
812	 0,168251712595397 
813	 0,168467611433634 
814	 0,168835642368164 
815	 0,169072916101027 
816	 0,169225195612256 
817	 0,169385659144346 
818	 0,169705997182025 
819	 0,170077668885429 
820	 0,170059056544639 
821	 0,170044694100049 
822	 0,170290149112639 
823	 0,17113855205776 
824	 0,17183284651747 
825	 0,171398050621464 
826	 0,171162166907502 
827	 0,171383694471747 
828	 0,171791820849504 
829	 0,171999104103698 
830	 0,17190742545484 
831	 0,172431303981483 
832	 0,173199170431607 
833	 0,173580440212538 
834	 0,173316053253758 
835	 0,172699227378504 
836	 0,17283386777851 
837	 0,173393469279241 
838	 0,174084376100622 
839	 0,174172521357765 
840	 0,174082898944923 
841	 0,174533375999607 
842	 0,174881621481525 
843	 0,174981957491126 
844	 0,174856063469907 
845	 0,175023509008696 
846	 0,175571506811337 
847	 0,174865388541123 
848	 0,173980995739872 
849	 0,17465211591474 
850	 0,17504145969942 
851	 0,174857153597934 
852	 0,174777590166725 
853	 0,174567153104131 
854	 0,174207281329209 
855	 0,174316021615542 
856	 0,174757826613908 
857	 0,175246887169155 
858	 0,174839253641903 
859	 0,173994686925221 
860	 0,175053651784703 
861	 0,175740478592614 
862	 0,175082762495305 
863	 0,175058460247032 
864	 0,175454925067925 
865	 0,175726572874181 
866	 0,176303437992329 
867	 0,176944258881023 
868	 0,176664104879642 
869	 0,17649629087767 
870	 0,1768824200384 
871	 0,177192572065246 
872	 0,177371359931136 
873	 0,17743770823018 
874	 0,177936608591987 
875	 0,178703032496837 
876	 0,178941188943689 
877	 0,179008268201731 
878	 0,179042795588211 
879	 0,178909091563467 
880	 0,179038021071919 
881	 0,179823856996848 
882	 0,179878888731079 
883	 0,17929917246663 
884	 0,178930426871495 
885	 0,179629929799312 
886	 0,181289181137617 
887	 0,181543046392499 
888	 0,181052855503534 
889	 0,180624549306546 
890	 0,180528383992475 
891	 0,180720371098001 
892	 0,180878537050747 
893	 0,181413837329978 
894	 0,182202326258814 
895	 0,182276382306972 
896	 0,181857098273208 
897	 0,181242885040381 
898	 0,181149674516318 
899	 0,181510385733719 
900	 0,181981644715686 
901	 0,182063401062004 
902	 0,181946654707528 
903	 0,183096813066037 
904	 0,183758045699787 
905	 0,183004395381151 
906	 0,182761642421684 
907	 0,182950198631705 
908	 0,183104863880449 
909	 0,183161511297792 
910	 0,183178815084981 
911	 0,183522803734243 
912	 0,183526376014072 
913	 0,182976844523851 
914	 0,182579980385297 
915	 0,182617621302749 
916	 0,183287796067291 
917	 0,184148298261898 
918	 0,184580919517891 
919	 0,183227573539157 
920	 0,182664995003606 
921	 0,183508385604327 
922	 0,183816075615456 
923	 0,183900435277089 
924	 0,183975997490221 
925	 0,182770904171182 
926	 0,181415461534573 
927	 0,182283889225612 
928	 0,182242646786935 
929	 0,181013879290486 
930	 0,180998749842938 
931	 0,181394063967791 
932	 0,18161665866374 
933	 0,181311874798794 
934	 0,180211117568965 
935	 0,178147875649672 
936	 0,177811899661874 
937	 0,1788794830171 
938	 0,178664906298736 
939	 0,17816422944811 
940	 0,177613465878177 
941	 0,176508933923608 
942	 0,175620893941378 
943	 0,175534028825433 
944	 0,174760438177168 
945	 0,173590646931698 
946	 0,173022951402089 
947	 0,172442333161569 
948	 0,171855742877523 
949	 0,172136153935796 
950	 0,171103743235206 
951	 0,168116451222429 
952	 0,167654317834385 
953	 0,168131037458893 
954	 0,167089069087217 
955	 0,165780370071617 
956	 0,164268362217059 
957	 0,161948589869313 
958	 0,160741985469633 
959	 0,160903471258528 
960	 0,160015979589516 
961	 0,159562807209781 
962	 0,160401563825756 
963	 0,159347885221055 
964	 0,157720035307843 
965	 0,158149292189871 
966	 0,158797370923461 
967	 0,159202652227872 
968	 0,159501731727975 
969	 0,159391823636754 
970	 0,158694017700609 
971	 0,157072218295679 
972	 0,156203224917609 
973	 0,157432636082275 
974	 0,158258488415085 
975	 0,158798591864149 
976	 0,16016389472916 
977	 0,158985972695274 
978	 0,156096742134662 
979	 0,157637425771751 
980	 0,158822251968435 
981	 0,157860235473906 
982	 0,159260950969784 
983	 0,160974546152803 
984	 0,160707515297806 
985	 0,160689869794625 
986	 0,161028958005724 
987	 0,161095424029879 
988	 0,16242183436935 
989	 0,164516296648867 
990	 0,164166878628344 
991	 0,163365043655903 
992	 0,163348952273998 
993	 0,164697191831495 
994	 0,165405801078296 
995	 0,1636104915499 
996	 0,162957598381805 
997	 0,163498688899901 
998	 0,163837177203578 
999	 0,166397324997563 
1000	 0,17007734245511 
1001	 0,168790506924835 
1002	 0,167634247711445 
1003	 0,168903689881214 
1004	 0,169505503792505 
1005	 0,169906020094815 
1006	 0,17075507774618 
1007	 0,171750843407879 
1008	 0,172898826774373 
1009	 0,17435282967837 
1010	 0,173770461203256 
1011	 0,171595008489867 
1012	 0,171135264717734 
1013	 0,172533146540503 
1014	 0,174994151324386 
1015	 0,173934365330971 
1016	 0,172304468523167 
1017	 0,172948925881856 
1018	 0,175770932642681 
1019	 0,178515364629385 
1020	 0,177999924043378 
1021	 0,178664835179952 
1022	 0,181176055299013 
1023	 0,184479234715001 
1024	 0,186372041778759 
1025	 0,185932083875828 
1026	 0,183163980315823 
1027	 0,181715527869819 
1028	 0,18366030249649 
1029	 0,185419995573454 
1030	 0,186984635827719 
1031	 0,188638356170726 
1032	 0,187902283237321 
1033	 0,186783196638447 
1034	 0,190319812155978 
1035	 0,189380614230106 
1036	 0,185446947926924 
1037	 0,193445799365872 
1038	 0,198711579100349 
1039	 0,195126337022875 
1040	 0,188673272760487 
1041	 0,184669370542455 
1042	 0,18714809975328 
1043	 0,193841543275166 
1044	 0,199240437334185 
1045	 0,197087279923432 
1046	 0,199894295086545 
1047	 0,204149720267831 
1048	 0,194910489902206 
1049	 0,192396713794954 
1050	 0,198599983297763 
1051	 0,195118528863893 
1052	 0,195425649488051 
1053	 0,204384805270343 
1054	 0,211422119205594 
1055	 0,209170304886109 
1056	 0,194842333133179 
1057	 0,197548486007546 
1058	 0,205229835905543 
1059	 0,196103549258786 
1060	 0,197626390413902 
1061	 0,20475984474915 
1062	 0,19216117419784 
1063	 0,193101491746422 
1064	 0,209624169255549 
1065	 0,210157915904659 
1066	 0,213025383500384 
1067	 0,221349921892886 
1068	 0,209431278856042 
1069	 0,192576403594462 
1070	 0,185796284606257 
1071	 0,188793171426033 
1072	 0,197659870309781 
1073	 0,206949678601467 
1074	 0,213793483727789 
1075	 0,213090675024913 
