Wavelength	ABBE00050.asd
325	 0,116829178937282 
326	 0,196786042240588 
327	 0,220858193290674 
328	 0,1330425550231 
329	-3,73465554804297E-02 
330	-0,120589971551553 
331	-1,88587855286049E-03 
332	 4,86140816727333E-02 
333	 4,07235470660418E-02 
334	 9,08169582564977E-02 
335	 0,129810259620519 
336	 0,142835622425353 
337	 0,133893379535995 
338	 9,44177925446255E-02 
339	 9,11698934039165E-03 
340	 3,03229541117869E-02 
341	 0,100740981626443 
342	 3,69421123616472E-02 
343	 1,87222860896699E-03 
344	 2,68015683773383E-02 
345	 5,73051417697867E-02 
346	 6,91349553847206E-02 
347	 0,046385481090946 
348	 3,77064616456323E-02 
349	 4,89156268706756E-02 
350	 7,12078090252634E-02 
351	 9,01284465793427E-02 
352	 9,53450959277159E-02 
353	 6,84114471718477E-02 
354	 2,93093946453334E-02 
355	 1,00931606521851E-02 
356	 2,16504087981798E-02 
357	 4,89155441537049E-02 
358	 5,04208370281774E-02 
359	 3,92594575774373E-02 
360	 2,37804552735376E-02 
361	 2,34120202646239E-02 
362	 2,06945135625973E-02 
363	-1,25095401640908E-02 
364	 4,13983953315494E-03 
365	 5,71050767257699E-02 
366	 2,72201252700227E-02 
367	-3,25759367274674E-03 
368	 1,22714715701144E-02 
369	 1,89641126550007E-02 
370	 1,90631547847638E-02 
371	 2,83162278610814E-02 
372	 0,032040890260222 
373	 2,83517048153642E-02 
374	 2,63047312088062E-02 
375	 2,87646551167968E-02 
376	 0,036350580473163 
377	 3,63465420700351E-02 
378	 0,029989686874864 
379	 2,41776448176867E-02 
380	 1,50197231204477E-02 
381	 6,75163543012242E-03 
382	 2,84448958353937E-02 
383	 4,39597618362404E-02 
384	 2,29189037415908E-02 
385	 3,20403009884909E-03 
386	-3,04262519875713E-03 
387	 1,40899449816482E-02 
388	 3,03298981960094E-02 
389	 3,52412731756651E-02 
390	 3,39608610159138E-02 
391	 3,23065980368286E-02 
392	 3,63702590502539E-02 
393	 0,0338892319531 
394	 2,75291506600283E-02 
395	 3,38370238934068E-02 
396	 3,24269448309102E-02 
397	 1,76142755400167E-02 
398	 2,97831524483323E-02 
399	 4,79990164773024E-02 
400	 3,57771298516213E-02 
401	 2,12877471461171E-02 
402	 1,36174547778794E-02 
403	 0,016329783567158 
404	 2,04291874067431E-02 
405	 1,98115519807287E-02 
406	 1,76627542219581E-02 
407	 0,015940207895805 
408	 0,017676271973388 
409	 1,87654030705291E-02 
410	 1,81359077482455E-02 
411	 1,64131007966464E-02 
412	 1,71881885019657E-02 
413	 2,29116424269196E-02 
414	 0,018730600793842 
415	 9,80674035326518E-03 
416	 1,60861633850514E-02 
417	 2,37401004646105E-02 
418	 2,61018636479516E-02 
419	 1,89872355790365E-02 
420	 1,18938007272512E-02 
421	 1,70378538072502E-02 
422	 1,99321329865235E-02 
423	 1,76109425209911E-02 
424	 1,12026359458501E-02 
425	 0,008624110189576 
426	 1,37400768237769E-02 
427	 1,43986072533801E-02 
428	 1,27735484676252E-02 
429	 1,57461976895125E-02 
430	 1,84259190168737E-02 
431	 1,92403947849116E-02 
432	 1,79896838250498E-02 
433	 1,66571663284383E-02 
434	 1,67931210350821E-02 
435	 1,41026215932056E-02 
436	 1,13229455215647E-02 
437	 1,78588226884449E-02 
438	 0,02082900875267 
439	 1,65189629883191E-02 
440	 1,67185809547459E-02 
441	 1,87763897954866E-02 
442	 1,80801483201529E-02 
443	 1,78338045991016E-02 
444	 1,82022379988579E-02 
445	 1,72467331132501E-02 
446	 1,64908300301287E-02 
447	 1,67756083900727E-02 
448	 1,66690830965085E-02 
449	 1,66538194973858E-02 
450	 1,80771875753185E-02 
451	 1,86598705550251E-02 
452	 0,018005140684862 
453	 1,82568109987676E-02 
454	 1,74702795716403E-02 
455	 1,40956992911052E-02 
456	 1,41798826878123E-02 
457	 1,65348338184252E-02 
458	 1,46433329203012E-02 
459	 0,01358728533258 
460	 1,50592551762152E-02 
461	 1,52934512984702E-02 
462	 1,55655273338786E-02 
463	 1,80128924263873E-02 
464	 1,88603423206315E-02 
465	 0,017600254671895 
466	 1,56954645296596E-02 
467	 1,52082919455273E-02 
468	 1,72338429361867E-02 
469	 1,84056478206334E-02 
470	 1,86121218539517E-02 
471	 1,89246943831789E-02 
472	 0,017556757591072 
473	 1,48660464020631E-02 
474	 1,50257182564024E-02 
475	 1,55176558205295E-02 
476	 1,38354313826431E-02 
477	 1,53160886561284E-02 
478	 0,018711920739783 
479	 1,77187275575663E-02 
480	 1,73033885152081E-02 
481	 1,90041887140663E-02 
482	 1,65462366595557E-02 
483	 1,31348011155198E-02 
484	 1,43625064410487E-02 
485	 1,64033689356269E-02 
486	 1,76031743429143E-02 
487	 1,59147236502123E-02 
488	 1,40114017984141E-02 
489	 1,40559765927589E-02 
490	 1,60890117948205E-02 
491	 1,82872765096482E-02 
492	 1,66037821151418E-02 
493	 0,01514641972827 
494	 1,51727901524591E-02 
495	 1,49295974095317E-02 
496	 1,46581408872387E-02 
497	 1,47508234952283E-02 
498	 1,43242049450856E-02 
499	 1,37859080174794E-02 
500	 1,50896553531037E-02 
501	 1,60224385049959E-02 
502	 1,54428186933655E-02 
503	 1,52132859056316E-02 
504	 1,49435956602347E-02 
505	 1,33641938643313E-02 
506	 1,33685872925761E-02 
507	 0,015024996091966 
508	 1,46049484656236E-02 
509	 1,39561573667984E-02 
510	 1,48061569212056E-02 
511	 1,51034674254861E-02 
512	 1,51524551588866E-02 
513	 0,016934340796367 
514	 1,77967972852382E-02 
515	 1,68742965539776E-02 
516	 1,65445839707992E-02 
517	 1,68775698728548E-02 
518	 1,76464074798269E-02 
519	 1,71263640798453E-02 
520	 1,57080870329576E-02 
521	 1,66823002515832E-02 
522	 1,72668433797417E-02 
523	 0,01563007024483 
524	 1,51000933334798E-02 
525	 1,55793852213398E-02 
526	 1,56191654628009E-02 
527	 1,58158536994481E-02 
528	 1,61291685058568E-02 
529	 1,55204597122941E-02 
530	 1,47955987293652E-02 
531	 1,49366299888154E-02 
532	 1,47579023071391E-02 
533	 1,44599611863702E-02 
534	 1,56883524426478E-02 
535	 1,61673430124054E-02 
536	 1,48516260949845E-02 
537	 1,50909745551422E-02 
538	 1,61368414308608E-02 
539	 1,57533763697184E-02 
540	 1,55705270262144E-02 
541	 1,58497727283831E-02 
542	 1,54119000725753E-02 
543	 0,015060383582182 
544	 1,55969310450607E-02 
545	 1,64047084487559E-02 
546	 1,69284402401099E-02 
547	 1,60168062895195E-02 
548	 1,52274922477917E-02 
549	 0,015333348113693 
550	 1,57146576620392E-02 
551	 0,016091241731498 
552	 1,61721652588622E-02 
553	 1,57963173666699E-02 
554	 1,52061233229748E-02 
555	 1,55720073234553E-02 
556	 1,58925682844903E-02 
557	 1,53606265931906E-02 
558	 0,014996683378308 
559	 1,48322748898089E-02 
560	 1,43100370454792E-02 
561	 1,45927600619524E-02 
562	 1,58477925504686E-02 
563	 1,61629208001904E-02 
564	 1,56984408669569E-02 
565	 1,49099510814853E-02 
566	 1,47706983099143E-02 
567	 1,53379041759953E-02 
568	 1,57206192074764E-02 
569	 1,60794255125159E-02 
570	 1,64410540220326E-02 
571	 1,59985757706707E-02 
572	 1,52447444554879E-02 
573	 1,54594114500682E-02 
574	 1,59213748268701E-02 
575	 1,63005642924686E-02 
576	 1,61399644267003E-02 
577	 1,62161503857632E-02 
578	 0,017394332230463 
579	 1,79183388182111E-02 
580	 1,76587240945317E-02 
581	 0,017508285544159 
582	 1,77819091666817E-02 
583	 1,85106818424119E-02 
584	 0,01816989357212 
585	 1,75446965699444E-02 
586	 1,83709526322916E-02 
587	 1,91173930524884E-02 
588	 1,94135789780511E-02 
589	 1,98580059968034E-02 
590	 2,02407761852327E-02 
591	 2,03432703369362E-02 
592	 2,01260586288387E-02 
593	 1,97548015885796E-02 
594	 1,95938069357175E-02 
595	 1,98085494940646E-02 
596	 2,03764045734042E-02 
597	 2,05874633216101E-02 
598	 2,03733743518501E-02 
599	 1,97527402772204E-02 
600	 0,019400847798457 
601	 1,94187196799803E-02 
602	 1,92394790315078E-02 
603	 1,91965279237038E-02 
604	 1,95123141302029E-02 
605	 1,95140454576283E-02 
606	 1,93100643743968E-02 
607	 1,94951532216111E-02 
608	 1,94923515109314E-02 
609	 1,91446585894342E-02 
610	 1,89072736581938E-02 
611	 1,86134433780631E-02 
612	 1,80154272069918E-02 
613	 1,77528310630843E-02 
614	 1,78923885760472E-02 
615	 1,81202948851355E-02 
616	 1,81746206366962E-02 
617	 1,79480330796229E-02 
618	 1,82201442858409E-02 
619	 1,85887910039879E-02 
620	 1,79893734841794E-02 
621	 1,78264238829256E-02 
622	 1,82805959014496E-02 
623	 1,77795294625957E-02 
624	 1,72724911971204E-02 
625	 1,77815725296291E-02 
626	 1,78997411299033E-02 
627	 1,76227304180922E-02 
628	 1,78459414750469E-02 
629	 1,80862306440674E-02 
630	 1,81094518490115E-02 
631	 1,80536040692654E-02 
632	 1,81156138622253E-02 
633	 1,86106727528815E-02 
634	 1,86415834347213E-02 
635	 1,82406450989722E-02 
636	 1,87353521534856E-02 
637	 1,92246371642243E-02 
638	 1,89890980712653E-02 
639	 1,94204679120964E-02 
640	 2,03244228422646E-02 
641	 2,06267805842407E-02 
642	 2,06895240116119E-02 
643	 2,06821899821098E-02 
644	 2,08431091365885E-02 
645	 2,10931858446797E-02 
646	 2,12965503670633E-02 
647	 2,12053932185662E-02 
648	 2,08480075726175E-02 
649	 2,04602520193335E-02 
650	 2,05491776460575E-02 
651	 2,13071903082719E-02 
652	 2,12212307997232E-02 
653	 2,04769479475071E-02 
654	 1,99362666292229E-02 
655	 1,93391025057484E-02 
656	 1,87332209136161E-02 
657	 0,018579913744393 
658	 1,83671306310173E-02 
659	 1,75833998946349E-02 
660	 0,017528014261806 
661	 1,79646781481526E-02 
662	 1,73546093209719E-02 
663	 1,69527561629177E-02 
664	 1,72110083596344E-02 
665	 1,65831079786259E-02 
666	 1,56085319367731E-02 
667	 1,53796240434097E-02 
668	 1,53091193305342E-02 
669	 1,53495086294719E-02 
670	 1,59805181692592E-02 
671	 1,64473144506127E-02 
672	 1,61706611399463E-02 
673	 1,58831786803398E-02 
674	 1,56944634829372E-02 
675	 1,55221255920291E-02 
676	 1,53940952671647E-02 
677	 1,52967803474396E-02 
678	 1,50441689098412E-02 
679	 1,49947780580052E-02 
680	 1,55717037594504E-02 
681	 1,58978312779895E-02 
682	 1,59027820061857E-02 
683	 1,60876339433834E-02 
684	 1,63761870640989E-02 
685	 1,66661321417185E-02 
686	 1,63682066984074E-02 
687	 1,61661337265206E-02 
688	 1,74124981630031E-02 
689	 0,018446502982647 
690	 0,018990527213998 
691	 2,02761389188465E-02 
692	 0,021620884322828 
693	 2,24300455445188E-02 
694	 2,36195743415978E-02 
695	 2,55807316831873E-02 
696	 2,88884655106629E-02 
697	 3,21476896218721E-02 
698	 3,48733578049872E-02 
699	 3,81098894382883E-02 
700	 4,19637963715499E-02 
701	 4,64305842560616E-02 
702	 5,15653123513038E-02 
703	 5,70269563336437E-02 
704	 6,19664182946081E-02 
705	 6,63567403073719E-02 
706	 0,07034026913596 
707	 7,54038128098383E-02 
708	 8,07335051342585E-02 
709	 8,43788360645711E-02 
710	 8,84330906929449E-02 
711	 9,32895074743913E-02 
712	 0,097716336421752 
713	 0,101519577454573 
714	 0,104633420201052 
715	 0,10823116962668 
716	 0,112017833781214 
717	 0,114553399568784 
718	 0,117175021078742 
719	 0,120191809757796 
720	 0,121870674662513 
721	 0,12333538892662 
722	 0,126181469590918 
723	 0,128178510516938 
724	 0,129265027768445 
725	 0,131119854635409 
726	 0,132897049752663 
727	 0,134066638832124 
728	 0,134728093785086 
729	 0,135315383366335 
730	 0,136557980692618 
731	 0,13779898039213 
732	 0,138774812763747 
733	 0,139310727159161 
734	 0,139817425421145 
735	 0,140612554765365 
736	 0,140848068026479 
737	 0,140850023983306 
738	 0,141813610933278 
739	 0,142710927830358 
740	 0,143159287649416 
741	 0,143411471601237 
742	 0,14354248524236 
743	 0,143626013772268 
744	 0,143864537580741 
745	 0,144254296384031 
746	 0,144612308096537 
747	 0,144985334713311 
748	 0,145327991159023 
749	 0,145208486427408 
750	 0,144915964305648 
751	 0,144948450867529 
752	 0,145338970417919 
753	 0,145853163437773 
754	 0,145538869354071 
755	 0,145313843321352 
756	 0,14578956479147 
757	 0,14593444402337 
758	 0,145877156056311 
759	 0,146220409801127 
760	 0,146467166790764 
761	 0,146491313235149 
762	 0,146489028625397 
763	 0,14651744661761 
764	 0,146621521680082 
765	 0,146774330119657 
766	 0,146938275012101 
767	 0,147058970430467 
768	 0,147057605563041 
769	 0,146945849708169 
770	 0,146955174446781 
771	 0,147154093268525 
772	 0,147580775333154 
773	 0,147591158361886 
774	 0,147328352283059 
775	 0,147794011301005 
776	 0,147877949114261 
777	 0,147193425682305 
778	 0,147345956849037 
779	 0,147829476928543 
780	 0,147635950206357 
781	 0,147798442899974 
782	 0,148262717785033 
783	 0,147881488769362 
784	 0,147420836051974 
785	 0,147384375853447 
786	 0,147410173054901 
787	 0,147443293098625 
788	 0,147468749805236 
789	 0,147528595654084 
790	 0,147611134790107 
791	 0,147683995006203 
792	 0,147494323662142 
793	 0,146918969700756 
794	 0,14684615304967 
795	 0,147135045050064 
796	 0,147167238794065 
797	 0,147045618239838 
798	 0,146871519962056 
799	 0,147039168043237 
800	 0,14729772092108 
801	 0,147379593911869 
802	 0,14720132893233 
803	 0,14690185288619 
804	 0,146816900296884 
805	 0,147047002314419 
806	 0,147540793912612 
807	 0,147770832579332 
808	 0,147832987386139 
809	 0,147862044308037 
810	 0,147447139186525 
811	 0,146936651642124 
812	 0,147504305477154 
813	 0,148029919043651 
814	 0,148060743812413 
815	 0,147988457327682 
816	 0,148123014261519 
817	 0,148762632588433 
818	 0,148833647927599 
819	 0,148453766908928 
820	 0,148793725720537 
821	 0,148900751966018 
822	 0,148503375471518 
823	 0,148901040401319 
824	 0,149486342229412 
825	 0,14933611791964 
826	 0,149447150463934 
827	 0,149835094482057 
828	 0,149768633350018 
829	 0,149809275865421 
830	 0,150138206914767 
831	 0,149854762565498 
832	 0,14959523149083 
833	 0,150328633151149 
834	 0,150544858450303 
835	 0,150174389598737 
836	 0,150267225674104 
837	 0,150565917249967 
838	 0,150873833105668 
839	 0,150758447072216 
840	 0,150617998397347 
841	 0,151075961314889 
842	 0,150992268653476 
843	 0,150409860185425 
844	 0,150389959307711 
845	 0,150779676823417 
846	 0,151348316238068 
847	 0,151065794683306 
848	 0,150541122461657 
849	 0,150791693499679 
850	 0,150819883149479 
851	 0,15054818981037 
852	 0,150578340177301 
853	 0,150451407782999 
854	 0,150075886908814 
855	 0,150645338105361 
856	 0,151247634878971 
857	 0,150498263157633 
858	 0,150034836147207 
859	 0,150131696191998 
860	 0,150270252384622 
861	 0,150459944757583 
862	 0,150661795712528 
863	 0,150732345071045 
864	 0,150775113428277 
865	 0,150943885581107 
866	 0,151301536951416 
867	 0,151684611873035 
868	 0,151546783342902 
869	 0,151539676253453 
870	 0,151833345175127 
871	 0,151348655852394 
872	 0,150886415084761 
873	 0,151477019156406 
874	 0,151866599112736 
875	 0,151940506858304 
876	 0,152187553302665 
877	 0,152643714109493 
878	 0,153202956196025 
879	 0,153076787045525 
880	 0,153054962875501 
881	 0,153957958679476 
882	 0,153774506410585 
883	 0,152820028981609 
884	 0,152933317313481 
885	 0,153437016842262 
886	 0,15404585351237 
887	 0,154529056531827 
888	 0,154561592248861 
889	 0,153951660252838 
890	 0,153903309617211 
891	 0,154250345324701 
892	 0,154081771435039 
893	 0,154149603900622 
894	 0,154497728854833 
895	 0,154316505296277 
896	 0,153820079036309 
897	 0,153298865399987 
898	 0,153607794562309 
899	 0,154213900922635 
900	 0,153900273085534 
901	 0,154221476892477 
902	 0,15506783879698 
903	 0,154315362828687 
904	 0,153703796179619 
905	 0,154256837556923 
906	 0,154810397980148 
907	 0,155130249565142 
908	 0,155100400614416 
909	 0,155145991951664 
910	 0,155201465206014 
911	 0,154658931977353 
912	 0,154282768739987 
913	 0,154344606210956 
914	 0,153973596375156 
915	 0,153869497399492 
916	 0,154795123900822 
917	 0,155099316106183 
918	 0,154695594995926 
919	 0,154154355365018 
920	 0,154414841691287 
921	 0,155459168696061 
922	 0,155311411145462 
923	 0,155052136178161 
924	 0,155522330942109 
925	 0,155089195208619 
926	 0,153976770762967 
927	 0,153031037236238 
928	 0,152271553898374 
929	 0,151872500723572 
930	 0,15222317671136 
931	 0,152720571515526 
932	 0,152868946202811 
933	 0,152204819809983 
934	 0,150984504291609 
935	 0,149671829985959 
936	 0,150005015382623 
937	 0,151362897027759 
938	 0,150977966877143 
939	 0,149792872034196 
940	 0,14841220588453 
941	 0,148042063698836 
942	 0,148258483606499 
943	 0,148462513337603 
944	 0,147234659218444 
945	 0,145592987999888 
946	 0,145852311765006 
947	 0,146194131552461 
948	 0,146026418231893 
949	 0,145246014390922 
950	 0,144483410536065 
951	 0,143924043438524 
952	 0,142017814708865 
953	 0,140309045876308 
954	 0,140728061740788 
955	 0,140939613764318 
956	 0,140309401680072 
957	 0,138336890858541 
958	 0,138224249778431 
959	 0,140034747110806 
960	 0,138357142782639 
961	 0,1364208984896 
962	 0,13667138165635 
963	 0,136835584714565 
964	 0,136273762153307 
965	 0,134515118867289 
966	 0,134679797529844 
967	 0,136452039851881 
968	 0,136343951035261 
969	 0,135696832525385 
970	 0,134976215482889 
971	 0,133612139066098 
972	 0,132872372661234 
973	 0,133799032276144 
974	 0,134623337471765 
975	 0,135564823511116 
976	 0,137658330609986 
977	 0,137811563447115 
978	 0,135857443112002 
979	 0,134258399754123 
980	 0,133495074928578 
981	 0,133878830886097 
982	 0,135124893399774 
983	 0,1364427301393 
984	 0,136992487183117 
985	 0,136017159415828 
986	 0,134781859544779 
987	 0,135885231338783 
988	 0,137854183176899 
989	 0,139741424997614 
990	 0,14004643960372 
991	 0,139635099798529 
992	 0,139121611866091 
993	 0,139345775241046 
994	 0,1383137035284 
995	 0,134518296602215 
996	 0,136447085601355 
997	 0,141190405211567 
998	 0,140039220477755 
999	 0,140927001720846 
1000	 0,144192473403458 
1001	 0,143041308899518 
1002	 0,141786076461147 
1003	 0,142298191048084 
1004	 0,141601481253868 
1005	 0,141573763968906 
1006	 0,143961969236203 
1007	 0,145513003460455 
1008	 0,145588492422554 
1009	 0,144188390748803 
1010	 0,144591466011735 
1011	 0,146149449401201 
1012	 0,143004159268042 
1013	 0,143028038340459 
1014	 0,147731908719729 
1015	 0,145786407650256 
1016	 0,142957524500464 
1017	 0,144450400495334 
1018	 0,146096150773698 
1019	 0,148072177710065 
1020	 0,151361660549857 
1021	 0,152333145665201 
1022	 0,150886536452033 
1023	 0,149069640834591 
1024	 0,148721078509541 
1025	 0,150154099206675 
1026	 0,15080295966103 
1027	 0,15175529757875 
1028	 0,15323505571974 
1029	 0,151420189234855 
1030	 0,149902876943143 
1031	 0,153010473744938 
1032	 0,155520478198661 
1033	 0,156404204144888 
1034	 0,155807250533956 
1035	 0,156799638354038 
1036	 0,159279991250355 
1037	 0,159554565288602 
1038	 0,159544589240585 
1039	 0,158921292049942 
1040	 0,150992231615255 
1041	 0,1462152269333 
1042	 0,151807221028716 
1043	 0,150998110979788 
1044	 0,149239807666467 
1045	 0,156636544092205 
1046	 0,164731521762631 
1047	 0,167472614388525 
1048	 0,155429194073108 
1049	 0,155837612972009 
1050	 0,16926794152717 
1051	 0,162062677513852 
1052	 0,157237457033165 
1053	 0,164429964920131 
1054	 0,168673228187109 
1055	 0,169407053500716 
1056	 0,167132793116384 
1057	 0,165161521815875 
1058	 0,162854425741391 
1059	 0,158854043988776 
1060	 0,163159975175443 
1061	 0,170708309950508 
1062	 0,165381476095455 
1063	 0,158695893133879 
1064	 0,155980302487442 
1065	 0,164353739431711 
1066	 0,166694526186448 
1067	 0,158960614827568 
1068	 0,16365686402225 
1069	 0,163658391695092 
1070	 0,149521038695857 
1071	 0,159018973917227 
1072	 0,171663226937322 
1073	 0,159854250513055 
1074	 0,15835289349928 
1075	 0,159073936585675 
