Wavelength	AULNE200217.asd
325	 7,30253499792213E-02 
326	 0,219676540680042 
327	 0,338539333469083 
328	 0,33826022588887 
329	 0,1690591461991 
330	 2,98894135348385E-02 
331	 0,123040929333442 
332	 0,151147588143486 
333	 0,141100092255859 
334	 0,24371282345927 
335	 0,224070133443738 
336	 9,35865595824124E-02 
337	 0,162594725262786 
338	 0,223533037832205 
339	 0,07310222680426 
340	 3,66254174576999E-02 
341	 0,102467555640478 
342	 0,136827195467422 
343	 0,127655728358824 
344	 0,081778001875064 
345	 0,115783556164795 
346	 0,143746259847782 
347	 0,100660407124128 
348	 9,38870228776449E-02 
349	 0,116165265458469 
350	 9,30595262427203E-02 
351	 0,100649932453828 
352	 0,152579071380844 
353	 0,143533362717918 
354	 0,12255268683743 
355	 0,149640443436191 
356	 0,153869192319338 
357	 0,138883903489606 
358	 0,165260500195724 
359	 0,162497757782313 
360	 0,106614139112825 
361	 8,76248115281739E-02 
362	 0,106139914715895 
363	 0,147362172067378 
364	 0,150678166489423 
365	 0,116313943818225 
366	 0,114786516421444 
367	 0,131449397058088 
368	 0,151551015933057 
369	 0,1441180043775 
370	 0,122549589517106 
371	 0,122172349464488 
372	 9,99950702298916E-02 
373	 6,49369251633938E-02 
374	 0,105722458820572 
375	 0,138624166269173 
376	 0,107785689101083 
377	 0,106017940954635 
378	 0,130287805588189 
379	 0,144853189948403 
380	 0,149471373762313 
381	 0,144784084619888 
382	 0,149293939812307 
383	 0,147687013766555 
384	 0,12670172981465 
385	 0,130625278162858 
386	 0,148899860387439 
387	 0,139477021510686 
388	 0,140761571379521 
389	 0,161149645620974 
390	 0,15276709714192 
391	 0,13413415579742 
392	 0,131739781529597 
393	 0,138295696354733 
394	 0,147379144316894 
395	 0,14397697742843 
396	 0,13706011731153 
397	 0,1325766273824 
398	 0,137182814792916 
399	 0,143862528925931 
400	 0,140986466915067 
401	 0,142374339263009 
402	 0,147897625786104 
403	 0,144054786835257 
404	 0,140303211380172 
405	 0,143169066835152 
406	 0,150329057467929 
407	 0,155866793213846 
408	 0,149473147918502 
409	 0,142594549905088 
410	 0,139546533688522 
411	 0,141469259346431 
412	 0,143808092905099 
413	 0,142399085078258 
414	 0,141196053777064 
415	 0,140160471137944 
416	 0,136437504907627 
417	 0,137722503574141 
418	 0,144553824214568 
419	 0,139480682675055 
420	 0,132294565911753 
421	 0,136940232247018 
422	 0,142500925542804 
423	 0,14536045325484 
424	 0,141735552718951 
425	 0,139446011405457 
426	 0,142617999153322 
427	 0,143192511491402 
428	 0,142406946931284 
429	 0,144815619263727 
430	 0,143449959343174 
431	 0,138544054895361 
432	 0,139780523297932 
433	 0,142723551227594 
434	 0,143202553174246 
435	 0,144972188730353 
436	 0,146706929977442 
437	 0,143396311848286 
438	 0,140701407770749 
439	 0,140860919432297 
440	 0,141533646498733 
441	 0,142582110935483 
442	 0,1441428818879 
443	 0,142521736210152 
444	 0,139277870660582 
445	 0,142551869013653 
446	 0,146281622690835 
447	 0,14647724639947 
448	 0,143563987643528 
449	 0,140767310511818 
450	 0,144030314002606 
451	 0,146758756228166 
452	 0,147279317601209 
453	 0,148205147251878 
454	 0,149049355948193 
455	 0,149276907426345 
456	 0,149343035506038 
457	 0,148981630557031 
458	 0,146349966331821 
459	 0,148157670877562 
460	 0,15547501736092 
461	 0,156235666354975 
462	 0,152888306311509 
463	 0,150195997688887 
464	 0,150880488438614 
465	 0,153925784806444 
466	 0,152690885673998 
467	 0,151083249219889 
468	 0,151684809059102 
469	 0,152887900526147 
470	 0,154015060519511 
471	 0,154214368442036 
472	 0,15405841931593 
473	 0,153810386182878 
474	 0,153638812648659 
475	 0,153937774253164 
476	 0,154962297616516 
477	 0,153881887146039 
478	 0,151905812351826 
479	 0,154301838199671 
480	 0,155133572729954 
481	 0,15215781327077 
482	 0,150255501393819 
483	 0,150007371389602 
484	 0,151404787374402 
485	 0,151767015282328 
486	 0,150621373415239 
487	 0,149413148105954 
488	 0,148450055589504 
489	 0,14806071132874 
490	 0,149530723681849 
491	 0,151422123017318 
492	 0,149881091515599 
493	 0,149189130955006 
494	 0,150673808065016 
495	 0,153053965286407 
496	 0,154002251915605 
497	 0,15116970755841 
498	 0,150974702925067 
499	 0,153191244658916 
500	 0,152160570549201 
501	 0,151440227885821 
502	 0,152780245620033 
503	 0,152962231559192 
504	 0,153142789025964 
505	 0,156312062418954 
506	 0,156520916668974 
507	 0,153512092976587 
508	 0,154187961412909 
509	 0,156183292756354 
510	 0,157091597205208 
511	 0,157368098288087 
512	 0,157793474815036 
513	 0,160468929715368 
514	 0,162299650518681 
515	 0,162179845082291 
516	 0,162386878769695 
517	 0,163365837652336 
518	 0,165402309819329 
519	 0,166480716434667 
520	 0,166508740089151 
521	 0,167499082597828 
522	 0,167730036855911 
523	 0,166132508769277 
524	 0,165238805203728 
525	 0,165196726141223 
526	 0,165360834068383 
527	 0,165495142337204 
528	 0,165571706925527 
529	 0,166270457183084 
530	 0,166830088453649 
531	 0,166360855287294 
532	 0,165228498506748 
533	 0,164291033995088 
534	 0,165961294320041 
535	 0,167079532665032 
536	 0,166025057097204 
537	 0,166077107989357 
538	 0,16669835776829 
539	 0,166057614025629 
540	 0,165517151660465 
541	 0,165483405972061 
542	 0,165779275947646 
543	 0,166080262656667 
544	 0,16612636043442 
545	 0,16715694251362 
546	 0,168687382856974 
547	 0,168822640440888 
548	 0,168496635426376 
549	 0,168262792821038 
550	 0,168595467312274 
551	 0,169272969086194 
552	 0,169882809421237 
553	 0,170094779606422 
554	 0,169678198782153 
555	 0,168069967819569 
556	 0,167244100291009 
557	 0,168615358492927 
558	 0,168412479136472 
559	 0,16691130752618 
560	 0,166598235814157 
561	 0,166231935207711 
562	 0,165366020618595 
563	 0,164030404392512 
564	 0,163081005410564 
565	 0,163596108775698 
566	 0,164041689446862 
567	 0,164167541787321 
568	 0,164569284325786 
569	 0,165429045961324 
570	 0,166830408912483 
571	 0,168267241277217 
572	 0,169660079219355 
573	 0,171029207201352 
574	 0,172559950878599 
575	 0,174368243492005 
576	 0,176601810686532 
577	 0,178915508228159 
578	 0,180922273440256 
579	 0,183120181845087 
580	 0,185285918543823 
581	 0,186377186139761 
582	 0,187487116398214 
583	 0,189169563170948 
584	 0,190295375161777 
585	 0,191447622354737 
586	 0,19399386204375 
587	 0,19548785980417 
588	 0,195597512638329 
589	 0,196398504058132 
590	 0,197654655258263 
591	 0,199049497757562 
592	 0,200617067451077 
593	 0,201740264191084 
594	 0,200654761911066 
595	 0,200279993279444 
596	 0,201709454261102 
597	 0,202153905505445 
598	 0,201724330913325 
599	 0,201038829915337 
600	 0,200500217642659 
601	 0,200248826634704 
602	 0,200240636618604 
603	 0,199715320406167 
604	 0,198218370351365 
605	 0,197804715748973 
606	 0,198038540754853 
607	 0,196999990965467 
608	 0,195732780549027 
609	 0,194650777602601 
610	 0,19392381310368 
611	 0,193172316248062 
612	 0,191906173258283 
613	 0,190903055148594 
614	 0,190230808381566 
615	 0,189421629671564 
616	 0,188559269422114 
617	 0,187782882942353 
618	 0,187775995969174 
619	 0,188194615181399 
620	 0,188304663823304 
621	 0,187426385401307 
622	 0,185844323406883 
623	 0,186156629441209 
624	 0,186901480522259 
625	 0,186470144441279 
626	 0,186594790162336 
627	 0,18740391746088 
628	 0,188383410318369 
629	 0,188550798164439 
630	 0,187709033688511 
631	 0,188616482978102 
632	 0,190244948655146 
633	 0,190345089341361 
634	 0,191476956240231 
635	 0,193677709806146 
636	 0,19389963507557 
637	 0,194414666157203 
638	 0,19703412546843 
639	 0,198433045744253 
640	 0,198718374584416 
641	 0,199730683725784 
642	 0,200713355194209 
643	 0,201492283806315 
644	 0,202623883332198 
645	 0,203759229626151 
646	 0,204410313266435 
647	 0,204254595108406 
648	 0,203452931200271 
649	 0,202890707414164 
650	 0,202157743873627 
651	 0,200963374903677 
652	 0,199265472922907 
653	 0,197349364597308 
654	 0,195823194103563 
655	 0,193956826470661 
656	 0,19160711920345 
657	 0,189391116930683 
658	 0,187012160030579 
659	 0,18413273859847 
660	 0,180886228478296 
661	 0,177684066213575 
662	 0,175509594316446 
663	 0,173614620118714 
664	 0,171558028606942 
665	 0,169143844470519 
666	 0,166789925415065 
667	 0,165152935639984 
668	 0,164011514601593 
669	 0,163246844708613 
670	 0,162669723450554 
671	 0,162086837211262 
672	 0,161370397578569 
673	 0,16092316213326 
674	 0,160584657360925 
675	 0,159729554530968 
676	 0,15926450824561 
677	 0,159455412110195 
678	 0,15969978792201 
679	 0,159869342687565 
680	 0,159884850339442 
681	 0,160530044694811 
682	 0,161742851572087 
683	 0,162585137893017 
684	 0,16391801531099 
685	 0,166238496349568 
686	 0,169121214510186 
687	 0,17230245011779 
688	 0,175359815637701 
689	 0,179575492789492 
690	 0,18527387242331 
691	 0,191749256474495 
692	 0,199167034569064 
693	 0,207712877794947 
694	 0,217386109883496 
695	 0,228136423114758 
696	 0,239942328282943 
697	 0,252338736369508 
698	 0,265208912847495 
699	 0,279274437529873 
700	 0,29388566523725 
701	 0,308158981022926 
702	 0,32263564812052 
703	 0,337120321901992 
704	 0,35079453504929 
705	 0,363982196228076 
706	 0,37682891490352 
707	 0,388823292071214 
708	 0,40019865849304 
709	 0,411494314651842 
710	 0,422278254837202 
711	 0,432366667426294 
712	 0,441612994190682 
713	 0,450148909225208 
714	 0,45809101958464 
715	 0,465743962838773 
716	 0,472953203482894 
717	 0,478994637963511 
718	 0,484878584265409 
719	 0,490916876881715 
720	 0,496193691831414 
721	 0,500829927188739 
722	 0,505100799276765 
723	 0,508854903533795 
724	 0,512169743948729 
725	 0,515309147183375 
726	 0,518299586813242 
727	 0,521130063921301 
728	 0,523428530632374 
729	 0,525501391476477 
730	 0,528003148764771 
731	 0,530068775560885 
732	 0,531564251740155 
733	 0,533148735104176 
734	 0,534622651320709 
735	 0,535804730020252 
736	 0,536913573755042 
737	 0,537970763138786 
738	 0,538923297214509 
739	 0,539784976217959 
740	 0,540576662916048 
741	 0,541375299822225 
742	 0,54213244502703 
743	 0,542780149812193 
744	 0,543145716630471 
745	 0,543424270476975 
746	 0,544306997164196 
747	 0,545250441321506 
748	 0,545901249854816 
749	 0,546031002021239 
750	 0,546066986617979 
751	 0,54670293115237 
752	 0,547185328621381 
753	 0,547430166496564 
754	 0,547981700679937 
755	 0,548391525583242 
756	 0,548387580455769 
757	 0,548691417209329 
758	 0,549190251675004 
759	 0,549440216014498 
760	 0,549524074444319 
761	 0,549502974213933 
762	 0,549532707648513 
763	 0,549762740423831 
764	 0,550284582593277 
765	 0,550454855703819 
766	 0,550359396445335 
767	 0,550584143591913 
768	 0,550702244718001 
769	 0,550654191427652 
770	 0,551092171622386 
771	 0,551498405453148 
772	 0,55122898893944 
773	 0,551261207707824 
774	 0,551626954983139 
775	 0,551738925792362 
776	 0,551637050971681 
777	 0,551411354035017 
778	 0,5516129881867 
779	 0,551915475024347 
780	 0,551748010108026 
781	 0,551735377982244 
782	 0,552005671828429 
783	 0,552469778948363 
784	 0,552541677925847 
785	 0,551977621815365 
786	 0,552260425165234 
787	 0,552862133338262 
788	 0,552439485099425 
789	 0,552332485394796 
790	 0,552802643042173 
791	 0,553223991049829 
792	 0,553366595219491 
793	 0,553095220660291 
794	 0,552901815321146 
795	 0,55286671998149 
796	 0,552944964173178 
797	 0,553114356359874 
798	 0,553288473606897 
799	 0,553146877251077 
800	 0,553043650635672 
801	 0,553281054396863 
802	 0,553023121671991 
803	 0,552550563578341 
804	 0,552976446747487 
805	 0,553387219872667 
806	 0,55347978610818 
807	 0,553557813888147 
808	 0,55373865303732 
809	 0,554110322788602 
810	 0,554270034447677 
811	 0,554251284394586 
812	 0,554436287228501 
813	 0,554430153920124 
814	 0,554155064482313 
815	 0,554124563566827 
816	 0,554361561851092 
817	 0,554827189674359 
818	 0,555463952137519 
819	 0,555940263750754 
820	 0,555296771600797 
821	 0,5551144086475 
822	 0,55593646880405 
823	 0,555941723934834 
824	 0,555441848933662 
825	 0,555079379921955 
826	 0,554970145927914 
827	 0,555142130370486 
828	 0,555512476071241 
829	 0,555850581587572 
830	 0,555967975041373 
831	 0,555639477200773 
832	 0,555172626576283 
833	 0,555007621450326 
834	 0,555156033962769 
835	 0,555502123449826 
836	 0,555626368747557 
837	 0,555844472422624 
838	 0,556245488312169 
839	 0,556244822486331 
840	 0,556062280015868 
841	 0,556098798358153 
842	 0,555910489120476 
843	 0,555622981024548 
844	 0,555971280399167 
845	 0,556403048094356 
846	 0,556610567340912 
847	 0,556874166077191 
848	 0,556868836032875 
849	 0,556120597112289 
850	 0,556124657489562 
851	 0,556772672409669 
852	 0,556337160177213 
853	 0,555972336385211 
854	 0,556259955926511 
855	 0,556666217079422 
856	 0,556804599274057 
857	 0,556251473287154 
858	 0,5557505113194 
859	 0,55569395937741 
860	 0,556688811405942 
861	 0,557405477063507 
862	 0,55716840637141 
863	 0,556690286258292 
864	 0,556395462405662 
865	 0,55670761005324 
866	 0,556667021332378 
867	 0,556226231432053 
868	 0,55589576877302 
869	 0,556069235649878 
870	 0,556778217394114 
871	 0,556859231352676 
872	 0,556753293498449 
873	 0,557096740289185 
874	 0,556733975157011 
875	 0,555965982303926 
876	 0,556332191021498 
877	 0,556887885766963 
878	 0,557124149267483 
879	 0,556609025869352 
880	 0,555963400905773 
881	 0,555906646597475 
882	 0,556536194907758 
883	 0,557374452271452 
884	 0,557137006416229 
885	 0,556824089685665 
886	 0,556783586436344 
887	 0,556770059493096 
888	 0,556939370759028 
889	 0,557377981936737 
890	 0,557232876808316 
891	 0,55666909963809 
892	 0,556319029431007 
893	 0,556677557850402 
894	 0,557531777609694 
895	 0,557147451861177 
896	 0,556343798322243 
897	 0,555944028087172 
898	 0,5569784042545 
899	 0,558190724333689 
900	 0,557067262920497 
901	 0,556384121601654 
902	 0,556653948001364 
903	 0,556487761996512 
904	 0,556689103962424 
905	 0,557563638916648 
906	 0,557583057136632 
907	 0,557098220532319 
908	 0,556885409694964 
909	 0,556290707650825 
910	 0,555596679694519 
911	 0,556108270132129 
912	 0,556591673694759 
913	 0,556454676615697 
914	 0,556016371885094 
915	 0,555716113170371 
916	 0,555979470840557 
917	 0,556197479935785 
918	 0,556099362331258 
919	 0,5552727101897 
920	 0,554969601317392 
921	 0,555363500967253 
922	 0,554925335771015 
923	 0,554334820071158 
924	 0,554236480694373 
925	 0,554737458962022 
926	 0,554990426861904 
927	 0,553482414525752 
928	 0,551962743422556 
929	 0,551239519838628 
930	 0,55214535502166 
931	 0,553014786038266 
932	 0,552792750689056 
933	 0,551818843466548 
934	 0,550791145785674 
935	 0,550539535703935 
936	 0,550324223818992 
937	 0,549947605529504 
938	 0,549346528434346 
939	 0,548718161161808 
940	 0,548162058517099 
941	 0,547780791279441 
942	 0,547145948165633 
943	 0,545923685838152 
944	 0,544806842528555 
945	 0,543704296911473 
946	 0,542160615678804 
947	 0,541794303198771 
948	 0,54230014927741 
949	 0,540892334242099 
950	 0,538957045250792 
951	 0,537454740668226 
952	 0,5370755136798 
953	 0,53640814678392 
954	 0,533774693272184 
955	 0,53169338307549 
956	 0,530698967505689 
957	 0,530731791746879 
958	 0,530350908819691 
959	 0,529134218632704 
960	 0,527900084416567 
961	 0,527271458925108 
962	 0,527519851144449 
963	 0,526882630579603 
964	 0,525878074915026 
965	 0,52566864315867 
966	 0,526190065871186 
967	 0,526818976694397 
968	 0,525529078930679 
969	 0,525246783886498 
970	 0,526589204361161 
971	 0,525543871609838 
972	 0,524343781006116 
973	 0,525160219515728 
974	 0,526402081913447 
975	 0,526859646459516 
976	 0,524858427431957 
977	 0,524588656274955 
978	 0,5264174496054 
979	 0,527454227085421 
980	 0,526901319241036 
981	 0,524883731290343 
982	 0,524865692487417 
983	 0,525586356262487 
984	 0,525545663485949 
985	 0,526515182780917 
986	 0,527348244936515 
987	 0,525211548934067 
988	 0,525269134131783 
989	 0,527691919548073 
990	 0,527451655157826 
991	 0,526707407412881 
992	 0,526766637324824 
993	 0,528146877628286 
994	 0,529895711779945 
995	 0,530934838419939 
996	 0,531598123769917 
997	 0,532325768231092 
998	 0,534000428963828 
999	 0,532345841002796 
1000	 0,528864106844741 
1001	 0,533601487039759 
1002	 0,536788683691418 
1003	 0,534535138428908 
1004	 0,534876017114885 
1005	 0,536376266623047 
1006	 0,536972708384949 
1007	 0,536180702092576 
1008	 0,53549700780224 
1009	 0,537712783673353 
1010	 0,538810167306867 
1011	 0,538132013361873 
1012	 0,537283890678567 
1013	 0,537047459281364 
1014	 0,538019716018007 
1015	 0,540904377466325 
1016	 0,542910391398541 
1017	 0,541929652103666 
1018	 0,540815403619106 
1019	 0,540679358759125 
1020	 0,542401327050624 
1021	 0,544613763624149 
1022	 0,546131954748789 
1023	 0,545071391240303 
1024	 0,542291678271253 
1025	 0,539517548075691 
1026	 0,542418812498847 
1027	 0,544440662724595 
1028	 0,542002882623337 
1029	 0,542600657102905 
1030	 0,54525353786475 
1031	 0,547788664366613 
1032	 0,550967085518282 
1033	 0,552413198144823 
1034	 0,547253361699154 
1035	 0,5461362732434 
1036	 0,549870589451451 
1037	 0,549235893472174 
1038	 0,549107004838901 
1039	 0,550589308419662 
1040	 0,547546458297831 
1041	 0,54639746083582 
1042	 0,551305578438505 
1043	 0,548871524226101 
1044	 0,544931875691605 
1045	 0,549456938418497 
1046	 0,551677852001 
1047	 0,550242674695381 
1048	 0,547255248558573 
1049	 0,547525970343772 
1050	 0,551177857248502 
1051	 0,551942941854739 
1052	 0,552718352377867 
1053	 0,554173338260048 
1054	 0,55277869927496 
1055	 0,547324581627158 
1056	 0,539078124615865 
1057	 0,545411382447668 
1058	 0,556615342469299 
1059	 0,556463892610261 
1060	 0,553585961767635 
1061	 0,5492242927526 
1062	 0,541972371417896 
1063	 0,540077883102209 
1064	 0,545271997703892 
1065	 0,555589014642341 
1066	 0,551394737249651 
1067	 0,531984184278023 
1068	 0,542535925053498 
1069	 0,552140773044895 
1070	 0,53962155175583 
1071	 0,537588438364519 
1072	 0,541536898290653 
1073	 0,541054302508582 
1074	 0,53773234017377 
1075	 0,535552612309945 
