Wavelength	AULNE200010.asd
325	 0,282435014397529 
326	 0,255007621899273 
327	 0,203307767144053 
328	 0,125127152033239 
329	 1,93758771355927E-02 
330	-8,88645822902465E-03 
331	 0,107528702925847 
332	 5,86685787768649E-02 
333	-6,98169224215986E-02 
334	 1,71344130558403E-02 
335	 5,81269424009748E-02 
336	 1,44826785183566E-02 
337	 0,022954749164788 
338	 3,74422521204732E-02 
339	 0,011365326090189 
340	 3,52904766523934E-02 
341	 8,00343375618364E-02 
342	 6,21761524594386E-02 
343	 4,15979309115594E-02 
344	 3,34819728614685E-02 
345	 0,029949628196943 
346	 3,02913771368993E-02 
347	 3,24644945862837E-02 
348	 2,53913181736876E-02 
349	 0,014881715282473 
350	 0,01985282331759 
351	 0,022144998023937 
352	 1,70243648233462E-02 
353	 1,94853060696808E-02 
354	 2,82335421820583E-02 
355	 0,040578671381867 
356	 3,62461152389503E-02 
357	 2,42426961732942E-02 
358	 4,74393705452466E-02 
359	 0,058901240612986 
360	 4,04411048798536E-02 
361	 3,19725239586786E-02 
362	 0,035041314834324 
363	 4,46183539259749E-02 
364	 4,02468359225741E-02 
365	 1,86695750847477E-02 
366	-1,14148733361774E-02 
367	-1,16430689993276E-02 
368	 2,91246216437401E-02 
369	 3,19744600136772E-02 
370	 9,77095488605127E-03 
371	 5,72651479308798E-03 
372	-4,68569815694261E-03 
373	-0,016027279333883 
374	 2,42333387768283E-02 
375	 3,87532138852371E-02 
376	-2,11973817703068E-02 
377	-1,79248689012729E-02 
378	 2,60179501850203E-02 
379	 1,68900999154608E-02 
380	 1,51322675436125E-02 
381	 3,05608225423929E-02 
382	 1,92475692735885E-02 
383	 8,56741276264725E-03 
384	 2,53987216922023E-02 
385	 3,09906253349489E-02 
386	 2,23001680106064E-02 
387	 3,75088542551883E-03 
388	 5,83865808007638E-04 
389	 2,03604011532733E-02 
390	 2,94585669827639E-02 
391	 2,89064055491593E-02 
392	 2,39427469779196E-02 
393	 0,016695935477528 
394	 1,24384448174584E-02 
395	 2,74872216137276E-02 
396	 0,03007352201666 
397	 9,61834464598535E-03 
398	 1,37547007059203E-02 
399	 3,06168043196057E-02 
400	 3,48990780782391E-02 
401	 3,25007722085994E-02 
402	 2,52755126224962E-02 
403	 1,48185594743305E-02 
404	 8,13590541942002E-03 
405	 0,010186375115403 
406	 2,47167164175306E-02 
407	 3,84635720541528E-02 
408	 2,50258939547614E-02 
409	 0,017998336472841 
410	 2,40877313202718E-02 
411	 0,022428038647918 
412	 2,16033387769915E-02 
413	 2,97609675635006E-02 
414	 3,36554382964203E-02 
415	 3,05915040782367E-02 
416	 1,82080426444234E-02 
417	 1,21175621464336E-02 
418	 1,76072268841204E-02 
419	 2,03123003525493E-02 
420	 2,20342626583325E-02 
421	 2,67367882754781E-02 
422	 2,81655378674042E-02 
423	 2,60738688943886E-02 
424	 0,023728478716555 
425	 0,023721847444715 
426	 2,68501906652424E-02 
427	 2,57451056512802E-02 
428	 0,022675460008742 
429	 2,37208216745497E-02 
430	 2,23627283383644E-02 
431	 1,89013559332351E-02 
432	 2,29045423273187E-02 
433	 0,027105858222831 
434	 2,51721722806639E-02 
435	 2,64085841459637E-02 
436	 2,90805918587719E-02 
437	 2,42411315943152E-02 
438	 2,08842814413576E-02 
439	 2,22888925056316E-02 
440	 2,42521207996719E-02 
441	 0,024530768132968 
442	 2,09237391230491E-02 
443	 2,09844952043852E-02 
444	 2,45987089457604E-02 
445	 0,024585059574299 
446	 0,025288448809253 
447	 2,84293666381577E-02 
448	 2,46206142214775E-02 
449	 1,86191374380018E-02 
450	 2,13050279343572E-02 
451	 2,78330464939529E-02 
452	 3,40953369730864E-02 
453	 2,92726111177425E-02 
454	 2,30685899446165E-02 
455	 2,47893968060518E-02 
456	 0,028064520086891 
457	 2,98394439212538E-02 
458	 2,46157708441015E-02 
459	 2,37692480043891E-02 
460	 3,04416421142618E-02 
461	 3,10569309078322E-02 
462	 2,75313122914918E-02 
463	 2,41171097591618E-02 
464	 2,33389588771466E-02 
465	 2,55455026588936E-02 
466	 2,92550545704864E-02 
467	 3,07640249547547E-02 
468	 2,80380452918174E-02 
469	 2,67617676040978E-02 
470	 2,69336549209154E-02 
471	 2,66828045423219E-02 
472	 2,69852553588281E-02 
473	 2,78669392526952E-02 
474	 2,85297709965491E-02 
475	 2,82314243781618E-02 
476	 0,026370287499711 
477	 2,39119313819947E-02 
478	 2,29163881268211E-02 
479	 2,88614155343659E-02 
480	 3,19942867946079E-02 
481	 2,83911850621371E-02 
482	 2,52561212976359E-02 
483	 2,45417075937071E-02 
484	 2,78135577669209E-02 
485	 2,85082310424129E-02 
486	 2,61556498678705E-02 
487	 2,65603921899516E-02 
488	 0,027087096504995 
489	 2,58891692265906E-02 
490	 2,60801362914287E-02 
491	 0,027169921241142 
492	 2,68079622201381E-02 
493	 0,027002270082056 
494	 2,82073402792461E-02 
495	 2,92099175755264E-02 
496	 2,94219128573104E-02 
497	 2,83466653338341E-02 
498	 2,84103752372806E-02 
499	 2,93164691351566E-02 
500	 2,81560247773662E-02 
501	 2,74891946302912E-02 
502	 2,86314939153121E-02 
503	 2,96271755356121E-02 
504	 3,04044960560616E-02 
505	 3,15050712088451E-02 
506	 3,05787652606984E-02 
507	 2,80110453119553E-02 
508	 2,85306480694421E-02 
509	 2,94793607773395E-02 
510	 2,83950732628387E-02 
511	 2,78616766764441E-02 
512	 2,85011642548099E-02 
513	 3,08585822862913E-02 
514	 3,24371357470917E-02 
515	 3,20563194017111E-02 
516	 3,01051091497014E-02 
517	 2,86460242795777E-02 
518	 3,03951392733767E-02 
519	 3,17413781173221E-02 
520	 3,19649392018083E-02 
521	 3,22437499900562E-02 
522	 3,26008924478845E-02 
523	 3,30041764125606E-02 
524	 3,30213068106362E-02 
525	 3,26090086976557E-02 
526	 0,031727187596299 
527	 3,11203444074105E-02 
528	 3,12101957553844E-02 
529	 3,25979714441176E-02 
530	 0,033582680401357 
531	 3,22644969824357E-02 
532	 3,15924946910489E-02 
533	 3,19786494726998E-02 
534	 3,24097220240933E-02 
535	 3,25877693251671E-02 
536	 3,24161835969472E-02 
537	 3,29391435986964E-02 
538	 3,35221064660148E-02 
539	 3,27087644464178E-02 
540	 3,22128505404632E-02 
541	 3,24541810033767E-02 
542	 3,26344916284506E-02 
543	 3,28310889944104E-02 
544	 3,31552297562402E-02 
545	 3,36603850367779E-02 
546	 0,034093174789491 
547	 3,36684593230061E-02 
548	 3,36418235780787E-02 
549	 3,44835592169202E-02 
550	 3,46992266792132E-02 
551	 3,47359782923177E-02 
552	 3,55740697680262E-02 
553	 3,60690276785805E-02 
554	 3,59083373025884E-02 
555	 3,51520347291686E-02 
556	 3,48464191326303E-02 
557	 3,57526579028112E-02 
558	 0,036107073943437 
559	 0,035869950051279 
560	 3,58133696121091E-02 
561	 3,56551020639777E-02 
562	 3,53551489151837E-02 
563	 3,51149740574778E-02 
564	 3,51677548272989E-02 
565	 3,57728986541607E-02 
566	 3,67451422200092E-02 
567	 0,037696319558384 
568	 3,75243130119452E-02 
569	 3,74840850669134E-02 
570	 3,83848459178111E-02 
571	 0,039000193697906 
572	 3,91371434092259E-02 
573	 3,87946757363897E-02 
574	 3,84030437236396E-02 
575	 3,82693563649352E-02 
576	 3,88499802223339E-02 
577	 3,96267295880764E-02 
578	 3,99938698474839E-02 
579	 4,08381425611088E-02 
580	 4,18002437235479E-02 
581	 4,11592858481906E-02 
582	 4,05677489384594E-02 
583	 4,08956421187929E-02 
584	 4,07735562048553E-02 
585	 4,06293754727073E-02 
586	 4,15053228912893E-02 
587	 4,24931588892226E-02 
588	 4,32470199917818E-02 
589	 4,37964545620053E-02 
590	 4,36861699146633E-02 
591	 4,26023558221756E-02 
592	 4,25166138981388E-02 
593	 4,30614145525321E-02 
594	 4,19000046491093E-02 
595	 4,15080498925323E-02 
596	 4,27362777000013E-02 
597	 4,30013830794401E-02 
598	 4,27359597623107E-02 
599	 4,30164278156718E-02 
600	 4,31538740915796E-02 
601	 4,29956300640086E-02 
602	 0,042674674208398 
603	 4,22339187881892E-02 
604	 4,17729885443942E-02 
605	 4,20213257290178E-02 
606	 4,26008701920601E-02 
607	 4,23034557909508E-02 
608	 4,19602898082937E-02 
609	 4,18518691496617E-02 
610	 4,17452391966248E-02 
611	 4,16187758468703E-02 
612	 0,041464021980411 
613	 4,14873980565025E-02 
614	 4,16618214452478E-02 
615	 4,17815806411601E-02 
616	 4,16353412748705E-02 
617	 4,11579524594823E-02 
618	 4,10444245461405E-02 
619	 4,12284188083537E-02 
620	 4,14186390849462E-02 
621	 4,11297802647333E-02 
622	 0,040523501694481 
623	 4,13622487467984E-02 
624	 0,042016105407383 
625	 4,08268882047102E-02 
626	 4,11950774055389E-02 
627	 4,28505764646371E-02 
628	 4,29387045705491E-02 
629	 4,23936711172901E-02 
630	 4,18167666545449E-02 
631	 4,21392748296005E-02 
632	 4,28142953857369E-02 
633	 4,27228462939559E-02 
634	 4,32779746541025E-02 
635	 4,44722804339299E-02 
636	 4,45103107302707E-02 
637	 4,47233539805295E-02 
638	 4,61321862473447E-02 
639	 4,61993929981966E-02 
640	 0,045347099185705 
641	 4,58022662311147E-02 
642	 4,63370988417912E-02 
643	 4,65207336425864E-02 
644	 4,66169510109237E-02 
645	 4,69604105658719E-02 
646	 4,79507100376498E-02 
647	 4,86994095293732E-02 
648	 4,88452074896275E-02 
649	 4,79715543286596E-02 
650	 4,74903467048594E-02 
651	 4,82354356919315E-02 
652	 4,84544646359231E-02 
653	 4,81572389265275E-02 
654	 4,79703390950354E-02 
655	 4,73655013088613E-02 
656	 4,64677966978617E-02 
657	 4,66609214467998E-02 
658	 4,68827092909798E-02 
659	 4,59968495974486E-02 
660	 4,53829192233089E-02 
661	 4,51673651092602E-02 
662	 0,044857757776603 
663	 4,43886699119566E-02 
664	 4,37612177669065E-02 
665	 4,33908843295191E-02 
666	 4,29951353862365E-02 
667	 4,20182784560087E-02 
668	 4,17837987018981E-02 
669	 4,22839720217952E-02 
670	 4,19024098700251E-02 
671	 0,041369711771679 
672	 0,041337459526739 
673	 4,20794885966219E-02 
674	 4,28053060815688E-02 
675	 4,13638151427295E-02 
676	 4,06374952555791E-02 
677	 4,14577707621528E-02 
678	 4,19004987951348E-02 
679	 4,17652170687878E-02 
680	 0,041031067363307 
681	 4,13682137643075E-02 
682	 4,26229125320494E-02 
683	 4,29347489126512E-02 
684	 4,30968610399675E-02 
685	 4,35757783796398E-02 
686	 4,43153930555929E-02 
687	 0,044879325347011 
688	 4,44474042697569E-02 
689	 4,45944394520198E-02 
690	 4,57666846161912E-02 
691	 4,75279856578471E-02 
692	 4,90898259681239E-02 
693	 4,98575319835348E-02 
694	 5,14444396172655E-02 
695	 5,39705886208443E-02 
696	 0,056957285341246 
697	 0,059880062037959 
698	 6,26055901156454E-02 
699	 6,59842108545372E-02 
700	 6,98404550774996E-02 
701	 7,38425756067754E-02 
702	 7,80481291400609E-02 
703	 8,24788259835656E-02 
704	 8,72851802876653E-02 
705	 9,20441796531169E-02 
706	 9,65061117226079E-02 
707	 0,101057930918274 
708	 0,105787377181313 
709	 0,110780126142667 
710	 0,115461357870073 
711	 0,119705241329261 
712	 0,123948350715269 
713	 0,128030038130754 
714	 0,13178104642907 
715	 0,135492909219553 
716	 0,139033799226345 
717	 0,141842410119313 
718	 0,144685941879101 
719	 0,147781957892995 
720	 0,150348752937229 
721	 0,152480170847156 
722	 0,154394422678217 
723	 0,156540567310894 
724	 0,158806420041587 
725	 0,160419721348582 
726	 0,16168777362063 
727	 0,162852716614636 
728	 0,164167321009245 
729	 0,165582473137046 
730	 0,166964860819426 
731	 0,167924631987405 
732	 0,168466967984616 
733	 0,169191127932226 
734	 0,170029549130924 
735	 0,170875598650647 
736	 0,171338551277005 
737	 0,171648440763394 
738	 0,172604170479176 
739	 0,173348437023391 
740	 0,173581266983762 
741	 0,17355674734921 
742	 0,173764000905347 
743	 0,174712820690093 
744	 0,175248668361258 
745	 0,175315313284455 
746	 0,175632343794795 
747	 0,175964235691929 
748	 0,176204044013226 
749	 0,176443035511905 
750	 0,176708788898973 
751	 0,177034849125599 
752	 0,177210207816387 
753	 0,177228057802911 
754	 0,177303488143875 
755	 0,1774025306472 
756	 0,177490083155803 
757	 0,177492019787159 
758	 0,177424102420103 
759	 0,177285935530019 
760	 0,177613787498153 
761	 0,178367841389142 
762	 0,178487907110597 
763	 0,178421456824858 
764	 0,17861445623573 
765	 0,178479786124744 
766	 0,178134279182683 
767	 0,178122507812658 
768	 0,178196629385228 
769	 0,178311862676264 
770	 0,178743129067621 
771	 0,179178031801106 
772	 0,179238625178337 
773	 0,179196635698247 
774	 0,179182693571138 
775	 0,179437556541644 
776	 0,179403965037289 
777	 0,178930463632255 
778	 0,179129615876211 
779	 0,179632478955957 
780	 0,179719666086313 
781	 0,179686035891032 
782	 0,179631352568099 
783	 0,179643663739298 
784	 0,179759593898696 
785	 0,179980301649906 
786	 0,180132633422259 
787	 0,180148629933667 
788	 0,179944313549727 
789	 0,179940906069538 
790	 0,180198006956358 
791	 0,180371898865956 
792	 0,180407123037343 
793	 0,180288109212896 
794	 0,180248377462392 
795	 0,180359927276684 
796	 0,180678973131468 
797	 0,181011714200667 
798	 0,181247560317782 
799	 0,181329260533943 
800	 0,181151271291486 
801	 0,180686013416161 
802	 0,180881834565781 
803	 0,181537650648562 
804	 0,181685663650477 
805	 0,181740240753897 
806	 0,181824897036493 
807	 0,181927061033703 
808	 0,18186255476844 
809	 0,181477241321201 
810	 0,181742982750563 
811	 0,182412219372003 
812	 0,182204734859606 
813	 0,182052173417938 
814	 0,182271318305912 
815	 0,182226282449479 
816	 0,1822900326492 
817	 0,182935602596675 
818	 0,183352744585702 
819	 0,18334677083849 
820	 0,182905168468531 
821	 0,182681523530948 
822	 0,182932836659903 
823	 0,182979724403344 
824	 0,182843175196263 
825	 0,182644740109268 
826	 0,182466274036911 
827	 0,182462372749559 
828	 0,183024715135156 
829	 0,183513795151301 
830	 0,183605991910723 
831	 0,183722477392778 
832	 0,183683951276634 
833	 0,183199358210492 
834	 0,183316555330392 
835	 0,183908988769349 
836	 0,183638207712786 
837	 0,183422439561219 
838	 0,183640015600418 
839	 0,183187919616108 
840	 0,182732107804148 
841	 0,183346699720993 
842	 0,183812819344244 
843	 0,183908219792529 
844	 0,184047617176757 
845	 0,183985708736034 
846	 0,183701104243635 
847	 0,183939382293635 
848	 0,184430263396643 
849	 0,184677104546202 
850	 0,184524562891441 
851	 0,184163516948739 
852	 0,184379121307773 
853	 0,184641625273905 
854	 0,184608063506171 
855	 0,184013049899649 
856	 0,183551690728216 
857	 0,184181132665287 
858	 0,1842024083511 
859	 0,183713295910482 
860	 0,18447779099912 
861	 0,185132266079971 
862	 0,184983805772748 
863	 0,184554120545549 
864	 0,18410775089124 
865	 0,183914904551893 
866	 0,184082814233745 
867	 0,184389260632277 
868	 0,184032083314686 
869	 0,184018231989787 
870	 0,18463313056237 
871	 0,184442226426732 
872	 0,184068682183085 
873	 0,184389827104698 
874	 0,184462962061786 
875	 0,184250890639997 
876	 0,184218067348531 
877	 0,184331662091765 
878	 0,1845496982769 
879	 0,184658034622012 
880	 0,184663607564316 
881	 0,184603123777541 
882	 0,184583086527291 
883	 0,184607482992513 
884	 0,184643402988728 
885	 0,18445335867498 
886	 0,184170181643471 
887	 0,184934373167391 
888	 0,185709532740032 
889	 0,185503744529876 
890	 0,185207538910759 
891	 0,184988392609753 
892	 0,184809357983731 
893	 0,184915159845203 
894	 0,18527831957899 
895	 0,18543920751535 
896	 0,185384976588473 
897	 0,185159421047694 
898	 0,185152141194036 
899	 0,185235729858233 
900	 0,185074587126387 
901	 0,184678789013111 
902	 0,184330734724758 
903	 0,185060888594583 
904	 0,185669591632989 
905	 0,18550380093242 
906	 0,185843004361191 
907	 0,186337064638783 
908	 0,186286034114066 
909	 0,185396638522066 
910	 0,184362968025357 
911	 0,185616446906197 
912	 0,186467824214059 
913	 0,185840511675426 
914	 0,185682396771511 
915	 0,185799089360247 
916	 0,185782934534435 
917	 0,18546492709887 
918	 0,18509569067684 
919	 0,185462221970345 
920	 0,185514348771389 
921	 0,185042468533669 
922	 0,1849689359919 
923	 0,184868194180317 
924	 0,184427190153209 
925	 0,184458191289692 
926	 0,184864995724176 
927	 0,185274749037585 
928	 0,185029188917339 
929	 0,184342629980198 
930	 0,184788218686323 
931	 0,185300291381525 
932	 0,185199610795819 
933	 0,184534116650621 
934	 0,183758403926209 
935	 0,18345111479531 
936	 0,183533937386007 
937	 0,183726727170661 
938	 0,183298904618981 
939	 0,182793077828962 
940	 0,182600974879938 
941	 0,183499986136772 
942	 0,184519224318902 
943	 0,184691352196583 
944	 0,183581582445167 
945	 0,182311079594475 
946	 0,183061018672879 
947	 0,183504922077735 
948	 0,182906371397879 
949	 0,181199524504539 
950	 0,179764196208652 
951	 0,179413801266164 
952	 0,179694531859705 
953	 0,179451318479695 
954	 0,177517146732306 
955	 0,177603059209599 
956	 0,17899868136256 
957	 0,177700342890426 
958	 0,177234137833169 
959	 0,178219383396754 
960	 0,177910641729462 
961	 0,176512991878827 
962	 0,17468139193482 
963	 0,175882794952602 
964	 0,178043085736321 
965	 0,177316801735793 
966	 0,175875703915463 
967	 0,174909247262711 
968	 0,176451417850009 
969	 0,177527565926392 
970	 0,177055181475047 
971	 0,177010539899745 
972	 0,176662945932738 
973	 0,175501978167857 
974	 0,176524520150285 
975	 0,178262244494206 
976	 0,177220555048609 
977	 0,176934738596992 
978	 0,177886289336393 
979	 0,178360313877655 
980	 0,178057953121205 
981	 0,177196478731125 
982	 0,178118903846142 
983	 0,179339562501957 
984	 0,179095121417084 
985	 0,176887145343039 
986	 0,174680467280609 
987	 0,176421021602468 
988	 0,177284575838877 
989	 0,176676939477453 
990	 0,17774473141548 
991	 0,17933609613036 
992	 0,18066789368917 
993	 0,180991642952863 
994	 0,181380039190647 
995	 0,182775317547532 
996	 0,181775781726996 
997	 0,179578383329558 
998	 0,179653693354712 
999	 0,17946752258241 
1000	 0,179157500596232 
1001	 0,181810950041143 
1002	 0,183696228597413 
1003	 0,183075607000032 
1004	 0,181672539020875 
1005	 0,181009534395676 
1006	 0,182197666242824 
1007	 0,181605867369142 
1008	 0,181699148454471 
1009	 0,187896737833336 
1010	 0,189548463490338 
1011	 0,185988739239615 
1012	 0,18556374147594 
1013	 0,183187566014529 
1014	 0,178562046896737 
1015	 0,181273317320218 
1016	 0,184395339203706 
1017	 0,182240999322874 
1018	 0,182322450723126 
1019	 0,183333099917833 
1020	 0,181886580033566 
1021	 0,184153269478651 
1022	 0,188402390162273 
1023	 0,185564685472462 
1024	 0,184039227002145 
1025	 0,18641409144619 
1026	 0,190906483767724 
1027	 0,19118072353519 
1028	 0,184591355290396 
1029	 0,183014467264598 
1030	 0,185329808658423 
1031	 0,188346920670962 
1032	 0,190874034699075 
1033	 0,191483063850496 
1034	 0,188243950521303 
1035	 0,185507881066008 
1036	 0,184227597657946 
1037	 0,182191766086518 
1038	 0,183245506773288 
1039	 0,187710705855961 
1040	 0,188309721463369 
1041	 0,1871815328165 
1042	 0,186519866646662 
1043	 0,185732758130224 
1044	 0,18713387088458 
1045	 0,193274094844736 
1046	 0,193798701833204 
1047	 0,1886222917887 
1048	 0,182725310209834 
1049	 0,18346307389195 
1050	 0,19084722079172 
1051	 0,195485283804091 
1052	 0,194019346514388 
1053	 0,187297602016163 
1054	 0,191962670036508 
1055	 0,192643173136825 
1056	 0,179049496419154 
1057	 0,189490426266094 
1058	 0,205287442109282 
1059	 0,195239921239987 
1060	 0,193320020527908 
1061	 0,198234301299104 
1062	 0,18982092945303 
1063	 0,184735917607307 
1064	 0,186677696654517 
1065	 0,190571829703938 
1066	 0,192162053154501 
1067	 0,190311672819379 
1068	 0,191847848846504 
1069	 0,191087759164681 
1070	 0,185547559019467 
1071	 0,190810931223329 
1072	 0,199263912069782 
1073	 0,198759167989708 
1074	 0,194787272079132 
1075	 0,189493420769264 
