Wavelength	AULNE200300.asd
325	 0,392780825589487 
326	 0,355777990317575 
327	 0,367282065205095 
328	 0,425812459705342 
329	 0,434161272362949 
330	 0,422947654370438 
331	 0,426169570833672 
332	 0,342838066736367 
333	 0,237275219990625 
334	 0,322576773307465 
335	 0,312514350490041 
336	 0,195411114033799 
337	 0,256051891789119 
338	 0,351517494223083 
339	 0,327900975114909 
340	 0,303233266663279 
341	 0,293237720176971 
342	 0,285042492917847 
343	 0,262295641489471 
344	 0,219264313119933 
345	 0,194196680061592 
346	 0,18545088498942 
347	 0,179344498700847 
348	 0,189097131327127 
349	 0,207350827818858 
350	 0,21704277825883 
351	 0,209102654634093 
352	 0,184334707005087 
353	 0,172001884040768 
354	 0,174543834145208 
355	 0,189563224142186 
356	 0,181914676760833 
357	 0,162819672472272 
358	 0,194369608632039 
359	 0,206607633721015 
360	 0,173380481559372 
361	 0,163152999444504 
362	 0,174132107031717 
363	 0,192374668611176 
364	 0,199391249981603 
365	 0,191038537825509 
366	 0,175101655028329 
367	 0,169602728670528 
368	 0,181424518660355 
369	 0,184846483794042 
370	 0,176734928294604 
371	 0,156900131641201 
372	 0,149363334689826 
373	 0,159924999077818 
374	 0,182889963724305 
375	 0,187695372452719 
376	 0,157542442341807 
377	 0,171061050720105 
378	 0,202460109759524 
379	 0,172681467226569 
380	 0,158759043077233 
381	 0,177986681238849 
382	 0,174468709424795 
383	 0,16962890326943 
384	 0,184886644364725 
385	 0,192905010445082 
386	 0,186724516521601 
387	 0,155579781490559 
388	 0,143549254256308 
389	 0,166981257026087 
390	 0,185465950203766 
391	 0,196292913790907 
392	 0,200559829677054 
393	 0,195327782429899 
394	 0,185050554393055 
395	 0,183363400124562 
396	 0,183401972324986 
397	 0,182089994494922 
398	 0,184868176014268 
399	 0,18848630368935 
400	 0,187714751856499 
401	 0,183363411503151 
402	 0,176754518348074 
403	 0,169928186623964 
404	 0,170268495750529 
405	 0,181387859210054 
406	 0,189509430847572 
407	 0,190882251269442 
408	 0,183183010608288 
409	 0,174231612152956 
410	 0,168729388617746 
411	 0,173424761877279 
412	 0,178075267646525 
413	 0,173508195251561 
414	 0,175527334943063 
415	 0,181243945269066 
416	 0,176587486966833 
417	 0,171585850993609 
418	 0,169764654785988 
419	 0,163845994993404 
420	 0,160434540811797 
421	 0,168211664634848 
422	 0,176353913856364 
423	 0,180417843812794 
424	 0,17447535693457 
425	 0,16988232413883 
426	 0,172641422939397 
427	 0,171135265551097 
428	 0,167433462990418 
429	 0,168175923231153 
430	 0,166691346877746 
431	 0,163517468518831 
432	 0,169652995056854 
433	 0,175156081460317 
434	 0,171497276899845 
435	 0,171712071161898 
436	 0,174595552194879 
437	 0,170972872867587 
438	 0,167189452676241 
439	 0,166418664780985 
440	 0,171281496426986 
441	 0,175128162580186 
442	 0,169728520132767 
443	 0,168157676722895 
444	 0,171692579156697 
445	 0,17342376901721 
446	 0,173667197487022 
447	 0,172669112177624 
448	 0,171216867616168 
449	 0,170784226214518 
450	 0,173834522010549 
451	 0,176515430268347 
452	 0,1776012539595 
453	 0,177924796233691 
454	 0,177825022887329 
455	 0,177698524452467 
456	 0,179358444029414 
457	 0,181431899927817 
458	 0,178845107582745 
459	 0,179638392106428 
460	 0,185480768618175 
461	 0,184084219751449 
462	 0,179640618276878 
463	 0,179213790703836 
464	 0,180290783251634 
465	 0,181587662859054 
466	 0,180258751818091 
467	 0,180492882793138 
468	 0,184348449983489 
469	 0,184063516483138 
470	 0,180875267744648 
471	 0,179401389994615 
472	 0,178803311299872 
473	 0,178703585216064 
474	 0,177648726623839 
475	 0,177353763985491 
476	 0,179425018436719 
477	 0,179436977504595 
478	 0,178383560154255 
479	 0,181770015357793 
480	 0,18460360149607 
481	 0,184390638279537 
482	 0,180783698017391 
483	 0,178013405979961 
484	 0,182246994777267 
485	 0,182932680382354 
486	 0,179099276758539 
487	 0,178632295275226 
488	 0,178488325531061 
489	 0,176521730396224 
490	 0,1763649018426 
491	 0,177266804569897 
492	 0,176020524608954 
493	 0,175914501521281 
494	 0,177555099936879 
495	 0,178051486870997 
496	 0,177262946948413 
497	 0,175362970236918 
498	 0,177917217213981 
499	 0,182618068247601 
500	 0,178070602707851 
501	 0,175052385609229 
502	 0,178888496281025 
503	 0,179309143465009 
504	 0,178259294127297 
505	 0,181504962955812 
506	 0,183785087521678 
507	 0,183748980977178 
508	 0,182541871912884 
509	 0,182264178932079 
510	 0,18455264166708 
511	 0,185212774972732 
512	 0,184678886691105 
513	 0,186278195139384 
514	 0,187981185171515 
515	 0,188819953094524 
516	 0,188353072148071 
517	 0,188181427376261 
518	 0,190605843467559 
519	 0,191115321305043 
520	 0,189672795290397 
521	 0,190626789004426 
522	 0,191726358884421 
523	 0,19135054432511 
524	 0,190900072421554 
525	 0,190409329797958 
526	 0,189337375852347 
527	 0,18868940098203 
528	 0,188863029424015 
529	 0,189906430598838 
530	 0,190555315048853 
531	 0,189438951750842 
532	 0,189264290867462 
533	 0,190153608984253 
534	 0,190419052865657 
535	 0,19042188602988 
536	 0,190367445990685 
537	 0,190286682228505 
538	 0,190121915373964 
539	 0,18971286460222 
540	 0,189506416675214 
541	 0,189563344449812 
542	 0,189384403282771 
543	 0,189313483018393 
544	 0,189706731383067 
545	 0,190593117471164 
546	 0,191541236107466 
547	 0,191385258699052 
548	 0,191389588154479 
549	 0,192055603220883 
550	 0,192143089615036 
551	 0,192144941218944 
552	 0,193063362452068 
553	 0,193493826361362 
554	 0,193050544568865 
555	 0,191821672873785 
556	 0,191211055809297 
557	 0,192199960083051 
558	 0,191929021989859 
559	 0,190520487089661 
560	 0,189620893957989 
561	 0,188664985246772 
562	 0,187641271545295 
563	 0,187409902869944 
564	 0,187514326255672 
565	 0,18725565762762 
566	 0,187537220061325 
567	 0,188312161563056 
568	 0,188605081157085 
569	 0,189025356843353 
570	 0,189971466282413 
571	 0,190861259348401 
572	 0,191888227816143 
573	 0,193636735091217 
574	 0,195720765832778 
575	 0,197926123357709 
576	 0,199955422994833 
577	 0,201959207801931 
578	 0,204133678497518 
579	 0,206361107159365 
580	 0,208380979289206 
581	 0,209488885039519 
582	 0,210579758103061 
583	 0,212090557622332 
584	 0,21294476442755 
585	 0,213703235461152 
586	 0,215592308404371 
587	 0,217290698617794 
588	 0,218524972546985 
589	 0,220095958988812 
590	 0,22141876577565 
591	 0,221956513629308 
592	 0,222419998256756 
593	 0,222849358729542 
594	 0,222789181745119 
595	 0,223302120246879 
596	 0,224633215407318 
597	 0,224949096886676 
598	 0,224324546535256 
599	 0,22315274730715 
600	 0,222641962465993 
601	 0,222877057507619 
602	 0,222612732247247 
603	 0,221939248225084 
604	 0,220993382998776 
605	 0,220330552412033 
606	 0,219816821996808 
607	 0,218867795422038 
608	 0,217825762962769 
609	 0,216825382209586 
610	 0,215911385042572 
611	 0,214945817995111 
612	 0,213746700931735 
613	 0,213076913735694 
614	 0,212867054843348 
615	 0,212193753781738 
616	 0,211653565158546 
617	 0,211538372618894 
618	 0,210793374550037 
619	 0,209948667335744 
620	 0,210413891573842 
621	 0,210297791940632 
622	 0,209372975759137 
623	 0,209797982433529 
624	 0,210370965248966 
625	 0,209802729207066 
626	 0,210191565426295 
627	 0,211392507075356 
628	 0,211753121736962 
629	 0,211675119908026 
630	 0,211529381658641 
631	 0,212583859542793 
632	 0,214007938437396 
633	 0,214176978725771 
634	 0,215129593026717 
635	 0,217083389345477 
636	 0,218421869329503 
637	 0,21951948160197 
638	 0,220724503841907 
639	 0,221858165212855 
640	 0,222934312181225 
641	 0,224059525429881 
642	 0,225045126635617 
643	 0,225837628138325 
644	 0,226549886085742 
645	 0,227462719285253 
646	 0,228926283743703 
647	 0,229369950415608 
648	 0,228630673281151 
649	 0,227662089982912 
650	 0,226756552980656 
651	 0,226069850585061 
652	 0,224995662587522 
653	 0,223436438581768 
654	 0,221370346177487 
655	 0,219322719113197 
656	 0,217471537608926 
657	 0,215629573095112 
658	 0,213555839424347 
659	 0,211016284585681 
660	 0,20804336971871 
661	 0,205012815672335 
662	 0,202920150039628 
663	 0,200781777178189 
664	 0,198216793228219 
665	 0,196332918083755 
666	 0,194727051985859 
667	 0,192541769350027 
668	 0,191138905622037 
669	 0,190600045296137 
670	 0,189629978561248 
671	 0,188697579309887 
672	 0,188194171913943 
673	 0,187890543131333 
674	 0,187569337968819 
675	 0,186736853132529 
676	 0,186359538028955 
677	 0,186653680045883 
678	 0,186578688475566 
679	 0,186377095437425 
680	 0,186441429699394 
681	 0,187358627325541 
682	 0,188935889140857 
683	 0,189992571779556 
684	 0,191523638014642 
685	 0,194061238747295 
686	 0,19672506873047 
687	 0,199802476696756 
688	 0,203982363156651 
689	 0,208789328572641 
690	 0,214301719066838 
691	 0,22132362410781 
692	 0,229438960077535 
693	 0,238293843368495 
694	 0,24858697444513 
695	 0,260186791448654 
696	 0,272541801363187 
697	 0,285478162425614 
698	 0,299019093529683 
699	 0,314018379803651 
700	 0,329496712215303 
701	 0,344141675650002 
702	 0,359175601572809 
703	 0,374468227573752 
704	 0,388794218308545 
705	 0,402661119399684 
706	 0,416285961853566 
707	 0,428730734106221 
708	 0,440459562160807 
709	 0,452584993656059 
710	 0,46381131402025 
711	 0,473889734061955 
712	 0,483692745687735 
713	 0,492779302679843 
714	 0,500732897118051 
715	 0,508641861752853 
716	 0,516386349513569 
717	 0,522971076447564 
718	 0,529181585885531 
719	 0,535302681933195 
720	 0,541027247807238 
721	 0,546058990909685 
722	 0,550075815794328 
723	 0,554242835989546 
724	 0,558504921564261 
725	 0,561585491636814 
726	 0,564294674659306 
727	 0,567154655256414 
728	 0,569993191597292 
729	 0,572553434840837 
730	 0,574393877146461 
731	 0,576270060397685 
732	 0,578316224737733 
733	 0,579994626201952 
734	 0,581463203963005 
735	 0,582872581938938 
736	 0,584130991434875 
737	 0,585255849831704 
738	 0,586301551956073 
739	 0,587342899451618 
740	 0,588378674935081 
741	 0,589210491926988 
742	 0,589907669479604 
743	 0,590567840696804 
744	 0,59111750022525 
745	 0,59162002979605 
746	 0,592314404401942 
747	 0,592900290346731 
748	 0,593238675138232 
749	 0,593583906634326 
750	 0,594002243089122 
751	 0,594544836350909 
752	 0,595029698236965 
753	 0,595408860543249 
754	 0,595756856094589 
755	 0,595968245393339 
756	 0,596026054234473 
757	 0,59658723691006 
758	 0,597201361770301 
759	 0,596672448677358 
760	 0,596805105225184 
761	 0,59780235563558 
762	 0,597610308711783 
763	 0,597250030398478 
764	 0,5977375016257 
765	 0,598165518744353 
766	 0,598402676458871 
767	 0,598549751582169 
768	 0,598756346787051 
769	 0,599037762125314 
770	 0,599092700460995 
771	 0,598962640302254 
772	 0,598737518279473 
773	 0,598814173479661 
774	 0,59918699565066 
775	 0,599571411765381 
776	 0,599682438945197 
777	 0,59947214855206 
778	 0,599874100594148 
779	 0,600282990396803 
780	 0,599659448604639 
781	 0,599597498902783 
782	 0,600191118345439 
783	 0,600161923468418 
784	 0,600028733686979 
785	 0,600140815559178 
786	 0,600406521705593 
787	 0,600667980685658 
788	 0,600647649427683 
789	 0,600896141085006 
790	 0,601363297057321 
791	 0,601150649167564 
792	 0,600754067618895 
793	 0,600601461733999 
794	 0,600599389861827 
795	 0,600661148184603 
796	 0,600585508351528 
797	 0,600803359296378 
798	 0,601295373147397 
799	 0,601302520738385 
800	 0,60105290266939 
801	 0,600816484398989 
802	 0,600741248889551 
803	 0,600781474789368 
804	 0,600678995174964 
805	 0,600798271255395 
806	 0,601171774406709 
807	 0,601212196461018 
808	 0,60120946294552 
809	 0,601501818418578 
810	 0,60168445798498 
811	 0,601720646793285 
812	 0,601714406854358 
813	 0,601926120871265 
814	 0,602330311611703 
815	 0,601961742983667 
816	 0,601700710084646 
817	 0,602641717759079 
818	 0,60344932627037 
819	 0,603721982670095 
820	 0,603277264261533 
821	 0,602717586104902 
822	 0,602475219098534 
823	 0,603072261572163 
824	 0,603698907497428 
825	 0,603274929940746 
826	 0,603243657606997 
827	 0,603678172828252 
828	 0,603614298571978 
829	 0,60378872617254 
830	 0,604435699758678 
831	 0,604547298468676 
832	 0,604145419509194 
833	 0,603425857914764 
834	 0,60342937644632 
835	 0,60401072228569 
836	 0,603663938198099 
837	 0,603565987980426 
838	 0,604238872841885 
839	 0,604627006215296 
840	 0,604683127158694 
841	 0,604521542782162 
842	 0,604721027413636 
843	 0,605132596672578 
844	 0,604672730130044 
845	 0,604379009932437 
846	 0,604763350562227 
847	 0,60507185197017 
848	 0,60515211045726 
849	 0,60492116391635 
850	 0,605187035164405 
851	 0,605787236919812 
852	 0,605438320365983 
853	 0,605231501506232 
854	 0,605622187947852 
855	 0,605321242963722 
856	 0,60497512753001 
857	 0,605631726418592 
858	 0,605425955450731 
859	 0,604536457221339 
860	 0,605047787973722 
861	 0,605566466854295 
862	 0,605463551260089 
863	 0,60578271552973 
864	 0,605902558995463 
865	 0,604932007288524 
866	 0,604543789418148 
867	 0,605011181831799 
868	 0,60592384875704 
869	 0,606410678151085 
870	 0,606110084030364 
871	 0,605899741894974 
872	 0,605854594718324 
873	 0,605947921202384 
874	 0,605960814958898 
875	 0,605749259666948 
876	 0,604958324573567 
877	 0,604781217270207 
878	 0,605546473048064 
879	 0,605950005805914 
880	 0,605780539168756 
881	 0,605021835832452 
882	 0,605362421589446 
883	 0,606331933051936 
884	 0,605674660575349 
885	 0,605332249790456 
886	 0,605792523403699 
887	 0,605807052553271 
888	 0,605575293259481 
889	 0,605366980365084 
890	 0,605345940828659 
891	 0,60543360767331 
892	 0,605315487073131 
893	 0,6057282619588 
894	 0,606591920029702 
895	 0,60650980574878 
896	 0,606156778556031 
897	 0,606064914330445 
898	 0,605622988499503 
899	 0,605102912605408 
900	 0,605113487697319 
901	 0,605196185346101 
902	 0,605206518744075 
903	 0,605085721834742 
904	 0,605223780336991 
905	 0,60576068690146 
906	 0,605811626567797 
907	 0,605694479087452 
908	 0,606011475744182 
909	 0,606042745502091 
910	 0,605787003834607 
911	 0,605773081406111 
912	 0,605892830086093 
913	 0,606050541468897 
914	 0,605993797537365 
915	 0,605694583473817 
916	 0,605228758945796 
917	 0,606217444776093 
918	 0,607620526281231 
919	 0,60582081097739 
920	 0,605020098353382 
921	 0,606218870615531 
922	 0,606739464649802 
923	 0,60646048856172 
924	 0,60543594647846 
925	 0,604200685246088 
926	 0,603399637114467 
927	 0,60394512727606 
928	 0,604055818173038 
929	 0,603644122238483 
930	 0,604507099832006 
931	 0,605305290611537 
932	 0,60521303757391 
933	 0,60449573794634 
934	 0,603650721325901 
935	 0,60327402546104 
936	 0,60308202333044 
937	 0,602864850039751 
938	 0,602209906011893 
939	 0,60158198368288 
940	 0,601101804425095 
941	 0,60022899531927 
942	 0,600097665318864 
943	 0,601373769034181 
944	 0,59999385007434 
945	 0,597366070888958 
946	 0,597336502795861 
947	 0,597479630458496 
948	 0,596971039166521 
949	 0,595276714491596 
950	 0,594106993371731 
951	 0,594244826841731 
952	 0,593806498225389 
953	 0,592813814603908 
954	 0,59157868012491 
955	 0,590715592266439 
956	 0,590264897086305 
957	 0,58994400816248 
958	 0,589440302775517 
959	 0,588652636483653 
960	 0,587646402776479 
961	 0,587404988398628 
962	 0,588360342045181 
963	 0,587599285933112 
964	 0,586143335948369 
965	 0,586157859104857 
966	 0,586116237305422 
967	 0,585804737713919 
968	 0,585546252957626 
969	 0,586394419194268 
970	 0,588025097892661 
971	 0,586284616859579 
972	 0,58387348764198 
973	 0,583484216908299 
974	 0,58358195102826 
975	 0,584321917632718 
976	 0,586430408828599 
977	 0,586303239579566 
978	 0,584248269210157 
979	 0,585127205305593 
980	 0,585688741572308 
981	 0,584822791224765 
982	 0,586042431923318 
983	 0,587383505666289 
984	 0,586713874795107 
985	 0,58613184448258 
986	 0,586218114423247 
987	 0,587389538013886 
988	 0,587136571933822 
989	 0,585568678218973 
990	 0,58552353425326 
991	 0,587723773175415 
992	 0,591551674985746 
993	 0,591076707118045 
994	 0,589810777125752 
995	 0,591709458930577 
996	 0,592704518105901 
997	 0,592195462023711 
998	 0,590406053343799 
999	 0,589078096986845 
1000	 0,589142570951586 
1001	 0,591624201554664 
1002	 0,593866471532622 
1003	 0,594419640666955 
1004	 0,593402430460575 
1005	 0,593759827091002 
1006	 0,597649021473334 
1007	 0,596451553007665 
1008	 0,593172093019183 
1009	 0,595661028224124 
1010	 0,597007953073618 
1011	 0,596277126826601 
1012	 0,596557363809862 
1013	 0,597355135998224 
1014	 0,598305401125105 
1015	 0,598034275223217 
1016	 0,598989309109045 
1017	 0,602848242740504 
1018	 0,605556928935233 
1019	 0,605694051018464 
1020	 0,602372576142591 
1021	 0,602242863016907 
1022	 0,604963925174359 
1023	 0,604818056353892 
1024	 0,602968978239384 
1025	 0,600477585072462 
1026	 0,600421368159426 
1027	 0,601488495724925 
1028	 0,602438336727998 
1029	 0,60087967883472 
1030	 0,601805419406291 
1031	 0,610347318592641 
1032	 0,613174008208584 
1033	 0,610365927156495 
1034	 0,607559771918125 
1035	 0,606328956999933 
1036	 0,607291258586083 
1037	 0,609873987251158 
1038	 0,611277442024343 
1039	 0,61048781735316 
1040	 0,610166652474891 
1041	 0,609054518065158 
1042	 0,606891801864795 
1043	 0,611294006052077 
1044	 0,616110895724841 
1045	 0,612092988007048 
1046	 0,611131469818134 
1047	 0,611988861149791 
1048	 0,605223919920437 
1049	 0,60532101848136 
1050	 0,612785631414896 
1051	 0,61147831504342 
1052	 0,611482586584361 
1053	 0,616063301972897 
1054	 0,613840734465247 
1055	 0,611013512058921 
1056	 0,613138024802279 
1057	 0,614521460963431 
1058	 0,615928476876429 
1059	 0,619258415114663 
1060	 0,618539742295267 
1061	 0,61494298350945 
1062	 0,614326007882494 
1063	 0,612705268017688 
1064	 0,610567144694592 
1065	 0,613482533038835 
1066	 0,617118179694112 
1067	 0,618186255558255 
1068	 0,611523549885091 
1069	 0,608460778245382 
1070	 0,61465889543962 
1071	 0,603460844381096 
1072	 0,596518568521258 
1073	 0,62077597529412 
1074	 0,618090118645365 
1075	 0,605003338071241 
