Wavelength	AULNE200437.asd
325	 0,192899841885376 
326	 0,217847739215183 
327	 0,215032014298966 
328	 0,185954774469304 
329	 0,122943942857583 
330	 9,85624016288845E-02 
331	 0,167454811522723 
332	 0,170080484668411 
333	 0,113498252275894 
334	 4,99392975835126E-02 
335	 4,13944970051544E-02 
336	 8,71796098097558E-02 
337	 0,132445609365239 
338	 0,135698364072603 
339	 6,38467308372242E-02 
340	 5,08940408057684E-02 
341	 8,01340907079242E-02 
342	 6,69662631985578E-02 
343	 5,30696914191231E-02 
344	 4,85835913515955E-02 
345	 5,25042719795696E-02 
346	 5,40288765456725E-02 
347	 4,59377098699066E-02 
348	 4,94614436018213E-02 
349	 6,15793267234057E-02 
350	 6,51880586230321E-02 
351	 7,34866343677867E-02 
352	 8,47014102248495E-02 
353	 5,66006067941897E-02 
354	 3,10198448795223E-02 
355	 0,051880276285495 
356	 5,05126136401869E-02 
357	 2,56732890109661E-02 
358	 1,57643739214152E-02 
359	 2,41705006569092E-02 
360	 4,74743934260233E-02 
361	 4,12222310396176E-02 
362	 2,83572131401757E-02 
363	 4,50222552330971E-02 
364	 5,28399158608051E-02 
365	 0,044309653938296 
366	 0,027325769750158 
367	 2,75336160904224E-02 
368	 0,052331124868334 
369	 4,35741480629466E-02 
370	 1,83792948765607E-02 
371	 2,41910930141913E-02 
372	 2,01443939330963E-02 
373	 6,40305522407579E-03 
374	 3,35206140262352E-02 
375	 0,051042269806169 
376	 2,65362608447418E-02 
377	 3,34190047578025E-02 
378	 5,70490532309995E-02 
379	 4,22271966994238E-02 
380	 4,17249333667993E-02 
381	 6,31871919312204E-02 
382	 6,09912808912395E-02 
383	 0,047007490176529 
384	 3,63400227846354E-02 
385	 5,25913243710769E-02 
386	 7,63033380094109E-02 
387	 5,51235003079085E-02 
388	 3,95293565919388E-02 
389	 4,73803746506938E-02 
390	 4,11123057829809E-02 
391	 3,45675447394163E-02 
392	 4,67581160392314E-02 
393	 0,042754782738408 
394	 2,51634192384321E-02 
395	 2,31377381182484E-02 
396	 3,00520629057032E-02 
397	 3,94580756692581E-02 
398	 0,03084013175105 
399	 2,00014580550486E-02 
400	 3,37893972324931E-02 
401	 4,46998152148963E-02 
402	 4,45410845214085E-02 
403	 2,97184475717957E-02 
404	 2,11510632705066E-02 
405	 3,17311559976944E-02 
406	 4,37891232412438E-02 
407	 4,91829138971384E-02 
408	 3,74223937507688E-02 
409	 3,22421868096738E-02 
410	 0,037621566140032 
411	 3,45291847811874E-02 
412	 2,96965342043186E-02 
413	 3,03415100912846E-02 
414	 3,56372660447111E-02 
415	 4,11716591304703E-02 
416	 3,57447964241661E-02 
417	 0,034840867470135 
418	 4,16514345304592E-02 
419	 3,23221911684516E-02 
420	 2,27879575911701E-02 
421	 3,50778505043267E-02 
422	 4,46001735745633E-02 
423	 4,60798963033207E-02 
424	 4,08999888981633E-02 
425	 3,84779988936735E-02 
426	 0,043442506296284 
427	 4,31696461939794E-02 
428	 3,96078454389961E-02 
429	 3,93820435800459E-02 
430	 3,82480479154286E-02 
431	 3,63649090905305E-02 
432	 3,92937946077331E-02 
433	 0,04250920628468 
434	 4,20528399454002E-02 
435	 4,35971274099109E-02 
436	 4,54377492549102E-02 
437	 0,040348629930541 
438	 0,036722667695778 
439	 3,79109821336484E-02 
440	 4,11052091307712E-02 
441	 4,33770031457873E-02 
442	 4,16075182126856E-02 
443	 4,09881873743816E-02 
444	 4,17785267213587E-02 
445	 3,99222188729448E-02 
446	 3,93918186830771E-02 
447	 4,21875733543702E-02 
448	 4,31355280944807E-02 
449	 0,042689682557313 
450	 4,31413444418861E-02 
451	 0,042622332409222 
452	 4,14712084250588E-02 
453	 4,34745239120053E-02 
454	 4,57946153231138E-02 
455	 0,045684379011225 
456	 0,04517788630012 
457	 0,044428406425466 
458	 4,22015880601065E-02 
459	 4,27660689306607E-02 
460	 4,68894270114487E-02 
461	 4,70128022104854E-02 
462	 4,53332076104122E-02 
463	 4,57014806535506E-02 
464	 0,047275203065699 
465	 4,94741453588235E-02 
466	 5,14281590371612E-02 
467	 5,08450927227027E-02 
468	 0,04685298789062 
469	 4,58375433103178E-02 
470	 4,71163226545515E-02 
471	 4,74272616777693E-02 
472	 4,71441209751657E-02 
473	 4,65246816957526E-02 
474	 4,67490747758108E-02 
475	 4,73841302689835E-02 
476	 4,78725668268435E-02 
477	 4,69953265501667E-02 
478	 4,57583323481649E-02 
479	 4,77833502462343E-02 
480	 4,90686869332867E-02 
481	 4,79107109956792E-02 
482	 4,60389248167794E-02 
483	 4,58357980004088E-02 
484	 5,05444110076396E-02 
485	 5,08175648160955E-02 
486	 4,65517904771446E-02 
487	 4,75315702867809E-02 
488	 4,95695094259879E-02 
489	 4,93794007296011E-02 
490	 4,80975031870563E-02 
491	 4,68867342722531E-02 
492	 4,79546967955133E-02 
493	 4,93351588916304E-02 
494	 5,05041214027431E-02 
495	 5,30608070023977E-02 
496	 5,43190356979939E-02 
497	 0,051317299161859 
498	 5,17080113323234E-02 
499	 5,46436869717913E-02 
500	 5,14883569852144E-02 
501	 4,98017314163933E-02 
502	 0,053057840799953 
503	 5,21332772445138E-02 
504	 5,00655268192745E-02 
505	 0,054423097936901 
506	 5,55765983179275E-02 
507	 5,23334304006492E-02 
508	 5,25155156032049E-02 
509	 5,40928499873746E-02 
510	 5,49018072881347E-02 
511	 5,49847791698218E-02 
512	 5,46065923835634E-02 
513	 5,43952861600234E-02 
514	 0,055069670677809 
515	 5,65556074435926E-02 
516	 5,59434939051521E-02 
517	 5,51915679357159E-02 
518	 5,74434018439229E-02 
519	 5,81169274160617E-02 
520	 5,69636526519778E-02 
521	 5,76405352032084E-02 
522	 5,82124548137095E-02 
523	 5,74425479667408E-02 
524	 5,81309130250784E-02 
525	 5,96106606623068E-02 
526	 5,94824112972098E-02 
527	 5,89285639306046E-02 
528	 5,85129659680174E-02 
529	 5,90478061136906E-02 
530	 5,97540270917419E-02 
531	 5,96867999190941E-02 
532	 0,058870465606186 
533	 5,81485754909937E-02 
534	 6,01776244728379E-02 
535	 6,18537388186157E-02 
536	 6,14769063732113E-02 
537	 6,12423987128623E-02 
538	 6,14884923554007E-02 
539	 6,23491582349676E-02 
540	 6,24024908252302E-02 
541	 6,15637649314763E-02 
542	 6,17875767534522E-02 
543	 6,20422889751052E-02 
544	 6,13187290369442E-02 
545	 6,18816847023295E-02 
546	 6,32950464502439E-02 
547	 0,063059487233999 
548	 6,30005446172817E-02 
549	 6,38348612313174E-02 
550	 6,39663054061427E-02 
551	 6,39953153446629E-02 
552	 6,51265958316576E-02 
553	 0,066166940762106 
554	 6,65578611920082E-02 
555	 6,54285063248969E-02 
556	 6,50362367684568E-02 
557	 6,70082395731865E-02 
558	 6,69573032333595E-02 
559	 6,55289785609221E-02 
560	 6,64343629350432E-02 
561	 6,70391594983142E-02 
562	 6,65587527642492E-02 
563	 6,67793200954077E-02 
564	 6,72999737308698E-02 
565	 6,73889093176064E-02 
566	 6,79241563538675E-02 
567	 6,88432563238581E-02 
568	 6,91211028729058E-02 
569	 6,95651301535996E-02 
570	 7,06321550687139E-02 
571	 7,10052425972327E-02 
572	 7,08133496210842E-02 
573	 7,07320728524886E-02 
574	 7,09333751047853E-02 
575	 7,14463917954835E-02 
576	 7,18357765847084E-02 
577	 7,20971656406339E-02 
578	 7,22889943747845E-02 
579	 7,36533019555146E-02 
580	 0,075519924542733 
581	 7,49214662072494E-02 
582	 0,074338552759301 
583	 7,50171838510835E-02 
584	 7,45693328776765E-02 
585	 7,39922292944148E-02 
586	 7,55799600761008E-02 
587	 7,67682177142005E-02 
588	 7,69716049899316E-02 
589	 7,74672304992556E-02 
590	 7,78167820583842E-02 
591	 7,76269493699016E-02 
592	 7,81594944889899E-02 
593	 7,89483811462544E-02 
594	 7,79091430611409E-02 
595	 7,74204424591411E-02 
596	 7,83268642190187E-02 
597	 0,07822542233431 
598	 7,75755549246408E-02 
599	 7,74436841571471E-02 
600	 7,73354608956847E-02 
601	 7,72602243552851E-02 
602	 0,077679093581699 
603	 0,078156262307791 
604	 7,83341057996009E-02 
605	 7,83803623299466E-02 
606	 7,83509345553782E-02 
607	 0,07834551831731 
608	 7,81324626086187E-02 
609	 0,077726918242606 
610	 0,07774953655266 
611	 7,77726835960419E-02 
612	 7,72136881662293E-02 
613	 7,73291646669874E-02 
614	 7,79129446216395E-02 
615	 7,71251875463648E-02 
616	 7,67596015479418E-02 
617	 7,77583580174684E-02 
618	 0,077496792548728 
619	 7,67288584448455E-02 
620	 7,78075885340443E-02 
621	 7,79441209552422E-02 
622	 7,67605818406402E-02 
623	 7,70742543176666E-02 
624	 7,78547745648412E-02 
625	 7,78999568411436E-02 
626	 7,80797932764065E-02 
627	 7,84764567946437E-02 
628	 7,89485567180379E-02 
629	 7,88503591751655E-02 
630	 7,80681410874892E-02 
631	 7,84813844426157E-02 
632	 7,92886486617898E-02 
633	 7,87973398260525E-02 
634	 7,89382776954533E-02 
635	 7,98881798109521E-02 
636	 7,99862513487426E-02 
637	 7,99317886952911E-02 
638	 8,03323918047249E-02 
639	 8,06039201987035E-02 
640	 8,06997893914138E-02 
641	 8,07489111201851E-02 
642	 8,08133913715465E-02 
643	 8,09486267691367E-02 
644	 8,11552838884559E-02 
645	 0,081641526948704 
646	 0,082672017396173 
647	 8,32269750021246E-02 
648	 8,30593390615603E-02 
649	 8,23231815247838E-02 
650	 8,17528441552078E-02 
651	 8,17901468486653E-02 
652	 0,08148576032974 
653	 8,09795691891543E-02 
654	 0,080851251775301 
655	 0,080750064172642 
656	 8,05283277674181E-02 
657	 8,00861451409099E-02 
658	 0,079529404631156 
659	 7,89731590581409E-02 
660	 7,82692588350448E-02 
661	 7,75457924101069E-02 
662	 7,72022467282839E-02 
663	 7,70307285153877E-02 
664	 7,68782474123555E-02 
665	 7,65472799334278E-02 
666	 7,59639357493171E-02 
667	 7,50192321721894E-02 
668	 7,47670493698211E-02 
669	 7,52577046271572E-02 
670	 7,54318899622109E-02 
671	 7,51789282711504E-02 
672	 7,45295933845803E-02 
673	 7,47330331824162E-02 
674	 7,54506119937264E-02 
675	 7,53365169215439E-02 
676	 7,50803162689099E-02 
677	 7,50765665133771E-02 
678	 7,62066510300991E-02 
679	 7,71103377902436E-02 
680	 7,61452725548642E-02 
681	 7,60282821571229E-02 
682	 7,69339338494564E-02 
683	 7,71819155315813E-02 
684	 7,74889130633339E-02 
685	 7,82689124024564E-02 
686	 7,94057674267328E-02 
687	 8,04841284518392E-02 
688	 8,07978645103078E-02 
689	 8,13092382642208E-02 
690	 8,22983210974446E-02 
691	 8,34981756170543E-02 
692	 8,48175456865971E-02 
693	 8,61889965275897E-02 
694	 0,087694942075703 
695	 8,94521775834807E-02 
696	 0,091801243151998 
697	 9,38936704964701E-02 
698	 9,55034728773121E-02 
699	 9,77015003612816E-02 
700	 0,100055205164797 
701	 0,101889560674871 
702	 0,103838014627386 
703	 0,106023748338695 
704	 0,108335187649234 
705	 0,110596024138716 
706	 0,112671530905519 
707	 0,114563251442482 
708	 0,116247280785404 
709	 0,117660965249569 
710	 0,119122389150288 
711	 0,120695831306786 
712	 0,12212386444082 
713	 0,123449164632547 
714	 0,124717111551223 
715	 0,125929968929769 
716	 0,12708607508713 
717	 0,128154485030601 
718	 0,12920871118684 
719	 0,130265561360404 
720	 0,131277908134744 
721	 0,132053695263332 
722	 0,132365880708412 
723	 0,132801142299043 
724	 0,133440645120592 
725	 0,134010987073666 
726	 0,134443639849858 
727	 0,134722047005726 
728	 0,135094839753759 
729	 0,135566650582055 
730	 0,136076914900035 
731	 0,13656094532777 
732	 0,137042179186439 
733	 0,137804177274818 
734	 0,138327801247291 
735	 0,138197053219713 
736	 0,138115883531272 
737	 0,138281569831988 
738	 0,138837402080726 
739	 0,139356400054287 
740	 0,139620780177074 
741	 0,139512708604463 
742	 0,139459966709667 
743	 0,139950458116398 
744	 0,140216422087205 
745	 0,140288891970874 
746	 0,140834403578719 
747	 0,141396095375172 
748	 0,141730952903307 
749	 0,142041369941356 
750	 0,142215687024646 
751	 0,142042507791507 
752	 0,14209194666269 
753	 0,14245005322108 
754	 0,142764054563377 
755	 0,14301135094426 
756	 0,143173074993762 
757	 0,14325068930542 
758	 0,143269837745591 
759	 0,143251377039127 
760	 0,143406094889559 
761	 0,143747151026975 
762	 0,143962187699597 
763	 0,144151392423358 
764	 0,144401125184232 
765	 0,144231806582603 
766	 0,14400310393982 
767	 0,144973600169332 
768	 0,145404374174903 
769	 0,144852288889223 
770	 0,145170680608592 
771	 0,145702454113253 
772	 0,145515962803184 
773	 0,14556210557864 
774	 0,145935610912055 
775	 0,146309415466948 
776	 0,146402113555117 
777	 0,146149704478337 
778	 0,146298622224292 
779	 0,146627698680342 
780	 0,146686055063477 
781	 0,14669514101613 
782	 0,146762981072782 
783	 0,147071447987014 
784	 0,14741219302191 
785	 0,147611885665558 
786	 0,147449799930012 
787	 0,147302882676483 
788	 0,147899358665559 
789	 0,148317940490982 
790	 0,148371057976739 
791	 0,148596825237603 
792	 0,148685217759675 
793	 0,148432667979434 
794	 0,148488490159578 
795	 0,148774524206521 
796	 0,148874612747218 
797	 0,149051741720484 
798	 0,149284511045532 
799	 0,149078128459684 
800	 0,148935148274574 
801	 0,149304892883294 
802	 0,149311655072104 
803	 0,149180323128503 
804	 0,150002081592799 
805	 0,15032663877625 
806	 0,149837245795797 
807	 0,14999208277281 
808	 0,150385025526178 
809	 0,150481843550399 
810	 0,150596111579109 
811	 0,150754051828043 
812	 0,150922298253505 
813	 0,150816067666652 
814	 0,15042305184468 
815	 0,150382161714956 
816	 0,150721121312464 
817	 0,151380815906227 
818	 0,152007771952986 
819	 0,152257981404108 
820	 0,151320949636798 
821	 0,151053758421476 
822	 0,152100161610492 
823	 0,15226396674024 
824	 0,15187155404095 
825	 0,151637787176445 
826	 0,151783376902324 
827	 0,152171916549153 
828	 0,152097697254223 
829	 0,152127478108508 
830	 0,152460016160324 
831	 0,152341392392376 
832	 0,152119675730878 
833	 0,15236548838056 
834	 0,152560066702905 
835	 0,152549194582002 
836	 0,152233433093383 
837	 0,152101642246965 
838	 0,152402071437455 
839	 0,152802915899698 
840	 0,153026824342025 
841	 0,152759009655469 
842	 0,15267395176145 
843	 0,152801236854538 
844	 0,152613247947197 
845	 0,152341961881738 
846	 0,152209352534471 
847	 0,152754522348631 
848	 0,153524568125484 
849	 0,153810425569925 
850	 0,153907636351775 
851	 0,153815508436725 
852	 0,1532485657075 
853	 0,153061762105634 
854	 0,153545228348884 
855	 0,15311269601346 
856	 0,152562383905244 
857	 0,153198259535539 
858	 0,153340050716872 
859	 0,152965142762722 
860	 0,153387023341925 
861	 0,153800674527912 
862	 0,153797455311869 
863	 0,153645195602741 
864	 0,153429639222396 
865	 0,153234197494955 
866	 0,153522194773355 
867	 0,154097430144852 
868	 0,15399436863061 
869	 0,154096408446656 
870	 0,154614701106614 
871	 0,154108727320885 
872	 0,153452231876905 
873	 0,153810964737767 
874	 0,154127013337126 
875	 0,15418757526644 
876	 0,154041246437216 
877	 0,15411114148408 
878	 0,154493695199076 
879	 0,154564660088195 
880	 0,154510596068689 
881	 0,154571607204727 
882	 0,154378861712921 
883	 0,154028393906061 
884	 0,15391591724195 
885	 0,153963275674929 
886	 0,154167108866791 
887	 0,154628225132984 
888	 0,154926608885142 
889	 0,154708732094471 
890	 0,154653405708621 
891	 0,154735472616458 
892	 0,154606463283864 
893	 0,154479288237848 
894	 0,154499253052648 
895	 0,155023891510009 
896	 0,155298675598688 
897	 0,154842283456191 
898	 0,155032970046553 
899	 0,155608365040703 
900	 0,155742886122641 
901	 0,155411408615073 
902	 0,1547729146137 
903	 0,154379485725508 
904	 0,154584634289802 
905	 0,155478899559483 
906	 0,156119257310863 
907	 0,156181049429658 
908	 0,155425981597283 
909	 0,155180651238213 
910	 0,155567633427675 
911	 0,155725286467015 
912	 0,156173061800904 
913	 0,156929478113105 
914	 0,156753782192778 
915	 0,156265586620273 
916	 0,156254676142374 
917	 0,156086083650717 
918	 0,155816877177724 
919	 0,155868419746786 
920	 0,156021523806322 
921	 0,156157145682915 
922	 0,156128402636575 
923	 0,155941746495496 
924	 0,155684264311657 
925	 0,156114627473063 
926	 0,15664798890466 
927	 0,156004555653978 
928	 0,156048190717023 
929	 0,156855723856009 
930	 0,156561468940607 
931	 0,156684099489988 
932	 0,15777914195035 
933	 0,157137458145318 
934	 0,156200663069543 
935	 0,157112575564851 
936	 0,15718622912626 
937	 0,156368005132309 
938	 0,156090979861648 
939	 0,156570523022992 
940	 0,157687487442799 
941	 0,158297015877177 
942	 0,15806617919381 
943	 0,156951402911848 
944	 0,156884755157167 
945	 0,157468517280263 
946	 0,15732366376464 
947	 0,157116851567842 
948	 0,156901560813832 
949	 0,156122233543543 
950	 0,156073284046678 
951	 0,157207725022092 
952	 0,157481226848726 
953	 0,156631810727254 
954	 0,154756724007218 
955	 0,154369576693148 
956	 0,155463254587685 
957	 0,156665687489448 
958	 0,1566313839854 
959	 0,15533796691776 
960	 0,155428151981693 
961	 0,155793603752902 
962	 0,155692697340559 
963	 0,157002863148284 
964	 0,158477608055961 
965	 0,157929780562999 
966	 0,157122547961967 
967	 0,156925353782835 
968	 0,158546992524673 
969	 0,160125062336496 
970	 0,16058878741594 
971	 0,159280985874769 
972	 0,157749307684334 
973	 0,157473284437165 
974	 0,157971321507688 
975	 0,158711316903346 
976	 0,158899120578985 
977	 0,158561476131339 
978	 0,158348190576708 
979	 0,160707118872111 
980	 0,16159268843416 
981	 0,159516144536052 
982	 0,15871327543719 
983	 0,158617899165218 
984	 0,158303095503369 
985	 0,157736288523488 
986	 0,157758310718692 
987	 0,160110657911272 
988	 0,160478925926642 
989	 0,158554235295015 
990	 0,157842504533421 
991	 0,158770755668669 
992	 0,160989270221698 
993	 0,160612058013031 
994	 0,16041317251267 
995	 0,163195533716427 
996	 0,162788965162835 
997	 0,160590623215591 
998	 0,161514697331893 
999	 0,160658189341745 
1000	 0,158339661340329 
1001	 0,160621030018179 
1002	 0,162965657887271 
1003	 0,163013833178844 
1004	 0,161511362290912 
1005	 0,159761973696599 
1006	 0,15915354419099 
1007	 0,160583835722948 
1008	 0,163082275642085 
1009	 0,164757523409755 
1010	 0,163557748249349 
1011	 0,160544887832541 
1012	 0,161017118252716 
1013	 0,162074196862187 
1014	 0,162534320687194 
1015	 0,163041673845498 
1016	 0,163762544349097 
1017	 0,164689188729905 
1018	 0,164627492220335 
1019	 0,163986852769978 
1020	 0,163662665289889 
1021	 0,165251440727485 
1022	 0,167507209496484 
1023	 0,165905517321094 
1024	 0,163927603818053 
1025	 0,163199410014565 
1026	 0,165387160888752 
1027	 0,165050865031318 
1028	 0,159831899645452 
1029	 0,159519639122938 
1030	 0,162618653901817 
1031	 0,165760319221614 
1032	 0,166587036966377 
1033	 0,165512945317788 
1034	 0,164610926617323 
1035	 0,16410166253893 
1036	 0,163700185510733 
1037	 0,161559098768801 
1038	 0,160997758050709 
1039	 0,163217051528675 
1040	 0,166331901138859 
1041	 0,167032008243228 
1042	 0,163682446937506 
1043	 0,165416247930327 
1044	 0,169174456929136 
1045	 0,169144957465755 
1046	 0,170140530386159 
1047	 0,17128874847031 
1048	 0,16802468539905 
1049	 0,168258623243976 
1050	 0,172642543549914 
1051	 0,17376922201318 
1052	 0,173901252928396 
1053	 0,174544357805843 
1054	 0,178239544747047 
1055	 0,179062525084681 
1056	 0,173461737294175 
1057	 0,178011367611483 
1058	 0,184399148095979 
1059	 0,178499699108185 
1060	 0,16540651958839 
1061	 0,155419689401368 
1062	 0,168728995810339 
1063	 0,172047396409698 
1064	 0,162615185025337 
1065	 0,170828259559342 
1066	 0,1734828109629 
1067	 0,164112407039296 
1068	 0,165205154966668 
1069	 0,172510620016789 
1070	 0,179487675616896 
1071	 0,166812183349503 
1072	 0,155266671214321 
1073	 0,172091557022653 
1074	 0,185704165399088 
1075	 0,190038549338847 
