Wavelength	AULNE200041.asd
325	 0,150245778487067 
326	 7,73435352436168E-02 
327	 9,18595443335822E-02 
328	 0,213166503498173 
329	 0,107924559283462 
330	-5,64614898746755E-03 
331	 0,101774567988221 
332	 8,56928787491708E-02 
333	 2,88968468188853E-04 
334	 6,65601504868983E-02 
335	 0,104124443833764 
336	 8,60915727515894E-02 
337	 0,111589075698726 
338	 0,111390189203594 
339	 2,23258687973142E-02 
340	 0,012419414689276 
341	 0,045786694054291 
342	-2,14009786247747E-02 
343	-3,34709944594241E-02 
344	 4,19381438967192E-02 
345	 0,070582726180193 
346	 6,10043246955953E-02 
347	 4,05986688993445E-02 
348	 2,95867676300206E-02 
349	 2,58246258358796E-02 
350	 3,32788580025731E-03 
351	 7,53031395264158E-03 
352	 4,65372601802505E-02 
353	 5,71320998360159E-02 
354	 4,84829421316172E-02 
355	 3,80450400803297E-02 
356	 2,44336709416905E-02 
357	 0,015937454481137 
358	 4,00914583866208E-02 
359	 0,043943830628936 
360	 9,00672294271138E-03 
361	 1,21777306825131E-03 
362	 1,61092810893232E-02 
363	 3,77791391751739E-02 
364	 2,50537044193791E-02 
365	-1,46475370941795E-02 
366	-8,70817121454637E-03 
367	 2,11399525155824E-02 
368	 5,36076489637052E-02 
369	 4,51823990813913E-02 
370	 1,85589263625672E-02 
371	 2,81442512998649E-02 
372	 2,54849782171825E-02 
373	 1,17885966597379E-02 
374	 5,54222714787162E-02 
375	 6,60026650749004E-02 
376	-1,40877637433385E-02 
377	-2,02135113011214E-02 
378	 2,60831220186002E-02 
379	 2,08674222987911E-02 
380	 1,70621118754792E-02 
381	 2,70686937184439E-02 
382	 3,48024876226573E-02 
383	 3,82221258765995E-02 
384	 3,58912687934589E-02 
385	 4,74248596497579E-02 
386	 5,75941162464615E-02 
387	 0,019807048473213 
388	-2,61818425438192E-03 
389	 1,46158920218884E-02 
390	 2,70708534688349E-02 
391	 2,99996166341218E-02 
392	 2,31185565352542E-02 
393	 1,90320725143265E-02 
394	 2,02212008539139E-02 
395	 2,56714021862852E-02 
396	 2,83149090922253E-02 
397	 2,57871309516766E-02 
398	 2,89442897667322E-02 
399	 3,52353112712359E-02 
400	 0,039369920230097 
401	 3,84042170327964E-02 
402	 3,20514034841786E-02 
403	 0,021742390072661 
404	 1,45932998562996E-02 
405	 1,50120954015609E-02 
406	 1,75619731412603E-02 
407	 2,24036670064176E-02 
408	 0,033549558777765 
409	 0,034979624296155 
410	 2,56406875143408E-02 
411	 2,44403623835989E-02 
412	 2,64600979858465E-02 
413	 2,61158356671715E-02 
414	 2,38300182326563E-02 
415	 2,10024717360687E-02 
416	 2,09693595086707E-02 
417	 2,20146815945889E-02 
418	 2,25105037869374E-02 
419	 1,64797441633208E-02 
420	 1,29617469360473E-02 
421	 2,35292402213632E-02 
422	 0,030861912239991 
423	 3,15756546326239E-02 
424	 2,80198501988338E-02 
425	 2,62492424723662E-02 
426	 2,91308135176928E-02 
427	 0,027105714539661 
428	 2,34831122395781E-02 
429	 2,69531305136273E-02 
430	 2,49866661337488E-02 
431	 1,79992852633705E-02 
432	 2,45141449415075E-02 
433	 3,05079682578545E-02 
434	 2,39560809200116E-02 
435	 2,49159337058034E-02 
436	 3,10707140051935E-02 
437	 2,72180498208769E-02 
438	 2,44070559497105E-02 
439	 2,63131563402675E-02 
440	 2,66633564942333E-02 
441	 2,64894085706536E-02 
442	 2,77615300194148E-02 
443	 2,58443951051126E-02 
444	 2,17578314921488E-02 
445	 2,20869269912039E-02 
446	 2,47405985031637E-02 
447	 2,77483522087197E-02 
448	 2,62899445314619E-02 
449	 2,33237778082944E-02 
450	 2,56547461539687E-02 
451	 2,85110717114942E-02 
452	 2,98554072739394E-02 
453	 0,02741286518528 
454	 2,53910316718283E-02 
455	 2,76418033098505E-02 
456	 3,06388118229968E-02 
457	 3,18050425680252E-02 
458	 0,025280506106546 
459	 2,45652494548884E-02 
460	 3,32731372268515E-02 
461	 3,45304341041847E-02 
462	 3,04377371571914E-02 
463	 2,58998656107052E-02 
464	 0,026343815629303 
465	 3,11121797104345E-02 
466	 3,25207900784971E-02 
467	 3,15565055426911E-02 
468	 2,91694116862151E-02 
469	 0,02750447651307 
470	 2,74659101660912E-02 
471	 3,03120899134874E-02 
472	 0,03102436629011 
473	 2,87090621887211E-02 
474	 2,76786449033549E-02 
475	 2,78022809498522E-02 
476	 2,85938059172319E-02 
477	 2,72972601965265E-02 
478	 2,53763262769476E-02 
479	 2,89488191543183E-02 
480	 3,04321873823657E-02 
481	 2,70053307588986E-02 
482	 2,51475692515217E-02 
483	 2,59575118530136E-02 
484	 3,00191095962998E-02 
485	 2,97006536697027E-02 
486	 0,025422425251559 
487	 2,74784558220948E-02 
488	 2,96092347223082E-02 
489	 2,73071232985423E-02 
490	 2,62633602695667E-02 
491	 0,026673006914899 
492	 2,66779925740052E-02 
493	 0,027615110692375 
494	 2,96060013056382E-02 
495	 3,14524758251151E-02 
496	 3,16266152079487E-02 
497	 0,028666986154467 
498	 0,028820324575716 
499	 3,16305362750194E-02 
500	 3,09417368748462E-02 
501	 3,01809302221348E-02 
502	 3,10463131380402E-02 
503	 3,07404001895841E-02 
504	 3,01203713004731E-02 
505	 3,13801663123184E-02 
506	 3,12579385565643E-02 
507	 2,95420941369787E-02 
508	 2,97433535844004E-02 
509	 3,02227734056578E-02 
510	 2,94697678283701E-02 
511	 2,96009723197989E-02 
512	 3,06706074217616E-02 
513	 3,19698419540591E-02 
514	 3,25996808361403E-02 
515	 0,032165491223743 
516	 3,10305842105269E-02 
517	 3,05994519637559E-02 
518	 3,27512148930826E-02 
519	 3,31945041375876E-02 
520	 3,17517872540196E-02 
521	 3,20674290830106E-02 
522	 3,29293614472686E-02 
523	 3,33484407080453E-02 
524	 3,29424222088043E-02 
525	 3,20747913813839E-02 
526	 3,15709930136324E-02 
527	 3,17909235731639E-02 
528	 3,26692674407554E-02 
529	 3,29715767897017E-02 
530	 3,29807688791711E-02 
531	 3,31359262932975E-02 
532	 3,31366116059889E-02 
533	 3,32985158038002E-02 
534	 3,50650444770712E-02 
535	 3,54670054144437E-02 
536	 3,32012996385386E-02 
537	 3,29993153096448E-02 
538	 3,42158240925844E-02 
539	 3,44501344300836E-02 
540	 3,46474134144615E-02 
541	 3,47856113563167E-02 
542	 3,37193162212055E-02 
543	 3,26446831900184E-02 
544	 3,27653033794604E-02 
545	 3,38424967632873E-02 
546	 3,51656913893928E-02 
547	 0,034998106725017 
548	 3,48850560930557E-02 
549	 3,54317289622247E-02 
550	 3,51881633007338E-02 
551	 3,47640906631357E-02 
552	 3,53240761113318E-02 
553	 0,036067305820417 
554	 3,65608549539031E-02 
555	 3,60295568444013E-02 
556	 3,56954188168767E-02 
557	 3,64901086396363E-02 
558	 3,66082845406575E-02 
559	 3,61732400482316E-02 
560	 3,63646483250253E-02 
561	 3,62901536841886E-02 
562	 3,58503713789734E-02 
563	 3,65672420782086E-02 
564	 3,75652890608463E-02 
565	 3,75353592745988E-02 
566	 3,79207635222724E-02 
567	 3,88377794184188E-02 
568	 0,039343125396042 
569	 3,99705653540571E-02 
570	 0,040990419021461 
571	 4,13119571391286E-02 
572	 4,10612023404413E-02 
573	 4,08326760808701E-02 
574	 4,08425935278217E-02 
575	 4,11173972777536E-02 
576	 0,041018269962395 
577	 4,11642334183149E-02 
578	 4,22639705432447E-02 
579	 4,32066765279404E-02 
580	 4,34939226077849E-02 
581	 4,24561546960444E-02 
582	 4,15864341667551E-02 
583	 4,17207781187205E-02 
584	 4,17312143041163E-02 
585	 4,19182005377367E-02 
586	 4,31645187750618E-02 
587	 4,34201250022536E-02 
588	 4,24969853853053E-02 
589	 4,26623844148979E-02 
590	 4,29558691345837E-02 
591	 4,24621933967043E-02 
592	 4,28880001732576E-02 
593	 4,36583744736464E-02 
594	 4,21280519310801E-02 
595	 4,14500312704279E-02 
596	 4,27641563770437E-02 
597	 4,29966105847848E-02 
598	 4,25414975799388E-02 
599	 4,24831852897805E-02 
600	 4,26349875568582E-02 
601	 4,28007512290412E-02 
602	 4,22989468607939E-02 
603	 4,18085802085119E-02 
604	 4,18577055062016E-02 
605	 4,18955289039847E-02 
606	 4,18645023428248E-02 
607	 4,19033312170625E-02 
608	 4,17080843578398E-02 
609	 4,13100966365802E-02 
610	 0,041596472040831 
611	 4,19804624689169E-02 
612	 4,16614568596722E-02 
613	 4,17481090611513E-02 
614	 4,21249539100912E-02 
615	 4,14156440900731E-02 
616	 4,09932263941593E-02 
617	 4,16238143720251E-02 
618	 4,16707292098618E-02 
619	 4,14420247465208E-02 
620	 4,21392746081442E-02 
621	 4,18326245529349E-02 
622	 4,05001085996521E-02 
623	 4,12583827527112E-02 
624	 4,23463148455387E-02 
625	 4,18312874858956E-02 
626	 4,16530177931206E-02 
627	 4,20834931080417E-02 
628	 4,27683119093726E-02 
629	 4,30744735468904E-02 
630	 4,27852252726616E-02 
631	 4,31793462934459E-02 
632	 4,36145115325957E-02 
633	 4,27438524402433E-02 
634	 4,29697000183211E-02 
635	 4,44260013590234E-02 
636	 4,45774664196281E-02 
637	 4,44987445437421E-02 
638	 0,045127251243166 
639	 4,56670194623008E-02 
640	 4,58493217606303E-02 
641	 4,52842316591806E-02 
642	 4,49228043311071E-02 
643	 4,52096944465902E-02 
644	 4,60496317018534E-02 
645	 4,68936014209051E-02 
646	 4,70625476798122E-02 
647	 4,75153036374505E-02 
648	 4,80720625010186E-02 
649	 0,047167783547002 
650	 4,66194184299878E-02 
651	 4,74760187366178E-02 
652	 4,73313932471649E-02 
653	 4,65952012872604E-02 
654	 4,68813358828995E-02 
655	 4,68375265974427E-02 
656	 4,62557060400772E-02 
657	 4,63329891885486E-02 
658	 4,66239277965778E-02 
659	 4,65792232930543E-02 
660	 4,58048803286426E-02 
661	 4,46910764691547E-02 
662	 4,45410814586084E-02 
663	 4,47436043478617E-02 
664	 4,48867241897339E-02 
665	 4,44158250919847E-02 
666	 4,35996773145839E-02 
667	 4,29383189110444E-02 
668	 4,27708104447049E-02 
669	 4,30122040110845E-02 
670	 4,28240772373833E-02 
671	 4,26344768559619E-02 
672	 4,27873262053913E-02 
673	 4,30009944182535E-02 
674	 4,30474914253271E-02 
675	 4,24340193542292E-02 
676	 4,21158084105996E-02 
677	 4,24267543580448E-02 
678	 4,30106405345751E-02 
679	 4,32662929655686E-02 
680	 4,25537780648964E-02 
681	 4,27137252952413E-02 
682	 4,36805581101874E-02 
683	 4,38265655145163E-02 
684	 4,35428799194768E-02 
685	 4,31697046939986E-02 
686	 4,35102982327678E-02 
687	 4,43023809763167E-02 
688	 4,48871262017496E-02 
689	 4,54026008470365E-02 
690	 4,58751637227669E-02 
691	 4,63361089216914E-02 
692	 4,68574781217431E-02 
693	 4,75422631090749E-02 
694	 0,048895165725228 
695	 5,08439470143408E-02 
696	 5,30553560686656E-02 
697	 5,49464398708488E-02 
698	 5,64326869332728E-02 
699	 5,87915488997616E-02 
700	 6,14791095698302E-02 
701	 6,36456837963754E-02 
702	 6,62744590983536E-02 
703	 0,069352244012086 
704	 7,20798881880274E-02 
705	 7,46662444239432E-02 
706	 7,72340356903719E-02 
707	 7,96450931254378E-02 
708	 8,21347905338341E-02 
709	 8,52083817842663E-02 
710	 8,78181169626991E-02 
711	 8,97374157521653E-02 
712	 0,091641389042384 
713	 9,34780332183412E-02 
714	 9,51902187936751E-02 
715	 9,72191066539515E-02 
716	 0,099351865323339 
717	 0,100780508732277 
718	 0,102287198252243 
719	 0,104067211975637 
720	 0,105226398302069 
721	 0,106098178668844 
722	 0,107206598692412 
723	 0,108532000245351 
724	 0,109869563188516 
725	 0,110560225490728 
726	 0,111042162751804 
727	 0,111632203518006 
728	 0,112492488945602 
729	 0,113411031788281 
730	 0,113975186239668 
731	 0,11436918050303 
732	 0,114743802509403 
733	 0,115506242717531 
734	 0,1161944338372 
735	 0,116423905630362 
736	 0,116761417364328 
737	 0,11727342197975 
738	 0,117895765414532 
739	 0,118322428845361 
740	 0,118453791935727 
741	 0,118509305973431 
742	 0,118692418672646 
743	 0,119198420515185 
744	 0,119363920301848 
745	 0,119263003038205 
746	 0,119611304800907 
747	 0,120030222580743 
748	 0,120304413378508 
749	 0,120410275077672 
750	 0,12053278533536 
751	 0,120969209879503 
752	 0,121175522775593 
753	 0,121118858221671 
754	 0,121274627023971 
755	 0,121508115631453 
756	 0,121722883199771 
757	 0,122018796951119 
758	 0,122325544947562 
759	 0,122483237263197 
760	 0,12261042994115 
761	 0,122742463469684 
762	 0,122839652225789 
763	 0,122987182660449 
764	 0,123236541449317 
765	 0,123043781037089 
766	 0,122694978720552 
767	 0,123257406965813 
768	 0,123487049545961 
769	 0,123106460735384 
770	 0,123613729410696 
771	 0,124261799360583 
772	 0,124054864946668 
773	 0,123951250579523 
774	 0,124153224110117 
775	 0,124622979043755 
776	 0,12485930187721 
777	 0,124682886783917 
778	 0,124939148076334 
779	 0,125275140156377 
780	 0,125038056998182 
781	 0,124891702144369 
782	 0,125014359684902 
783	 0,12535480645729 
784	 0,125712144333661 
785	 0,12593978502217 
786	 0,126097504832634 
787	 0,126147173207552 
788	 0,12598237168561 
789	 0,126153229131316 
790	 0,126700406401056 
791	 0,127113878142478 
792	 0,127035666212312 
793	 0,126312402053493 
794	 0,126355716500716 
795	 0,126917072648945 
796	 0,126922455564201 
797	 0,126948833479312 
798	 0,127093301122454 
799	 0,126938810444236 
800	 0,126921786939934 
801	 0,127417433332546 
802	 0,127508442973802 
803	 0,127384805593584 
804	 0,128042912245507 
805	 0,128404181280582 
806	 0,128212222471247 
807	 0,128445641978469 
808	 0,128655091002183 
809	 0,128328210376395 
810	 0,128351925750785 
811	 0,128709330628106 
812	 0,128817861230706 
813	 0,128941126976194 
814	 0,129141808024347 
815	 0,129166613583316 
816	 0,129216844563773 
817	 0,12954157602477 
818	 0,129704981648375 
819	 0,129699009868272 
820	 0,129806413689582 
821	 0,129951764166269 
822	 0,13008987185466 
823	 0,130158307301427 
824	 0,130139619864082 
825	 0,130025883430779 
826	 0,129996055236906 
827	 0,130072027612058 
828	 0,130118653107995 
829	 0,13039003158556 
830	 0,130904105015611 
831	 0,130885986727116 
832	 0,130652733246607 
833	 0,130747637815653 
834	 0,130963748895431 
835	 0,131180763645312 
836	 0,131170823632582 
837	 0,13108112209332 
838	 0,131027013446876 
839	 0,131156519753212 
840	 0,131432265594845 
841	 0,131772715108623 
842	 0,131884767022213 
843	 0,131750584838979 
844	 0,131582288924685 
845	 0,131502057697789 
846	 0,131590833359987 
847	 0,131789047403445 
848	 0,132091946222313 
849	 0,132506923750556 
850	 0,132311191120825 
851	 0,131718897921896 
852	 0,132086441018681 
853	 0,132326693247603 
854	 0,131939474396386 
855	 0,13180060195421 
856	 0,131932340461836 
857	 0,132224851545746 
858	 0,132323324500185 
859	 0,132273604402524 
860	 0,132574674492917 
861	 0,132788492396316 
862	 0,132755789649988 
863	 0,13311532087727 
864	 0,133291478209 
865	 0,13249278911258 
866	 0,132209423776747 
867	 0,132529453385199 
868	 0,132501878821088 
869	 0,132763711794118 
870	 0,133393255071438 
871	 0,133015402026129 
872	 0,132523958901076 
873	 0,13308924134022 
874	 0,133020039941925 
875	 0,132469815178585 
876	 0,132944761104416 
877	 0,133532758757295 
878	 0,133819321930935 
879	 0,133789165969762 
880	 0,133688735024729 
881	 0,133774908490539 
882	 0,133657047993051 
883	 0,133384884501921 
884	 0,133241045913063 
885	 0,133309217835094 
886	 0,133631720722033 
887	 0,134235676379106 
888	 0,134554903171522 
889	 0,134139184864589 
890	 0,13418571644092 
891	 0,134484138971841 
892	 0,134062274535106 
893	 0,133670305369779 
894	 0,133720284116316 
895	 0,134939664786828 
896	 0,135648116485485 
897	 0,134701252872072 
898	 0,134556296774673 
899	 0,134813995603184 
900	 0,134044198722192 
901	 0,133743986728212 
902	 0,13404646204716 
903	 0,133572301217513 
904	 0,134137473575373 
905	 0,13637337719082 
906	 0,136184218654374 
907	 0,134893079847909 
908	 0,135092325280089 
909	 0,134991061822323 
910	 0,134711788846921 
911	 0,136060200313816 
912	 0,136504182778036 
913	 0,135212763160069 
914	 0,135016255606763 
915	 0,135513883857151 
916	 0,135919767239645 
917	 0,135282899822976 
918	 0,134112869197177 
919	 0,134038480467457 
920	 0,135448133345525 
921	 0,137721250576871 
922	 0,137293331498199 
923	 0,136062089563742 
924	 0,135750016255906 
925	 0,135459193992802 
926	 0,135262084958875 
927	 0,135454460144658 
928	 0,135849963429199 
929	 0,136347293882717 
930	 0,136940863101802 
931	 0,13698379536384 
932	 0,136265267932219 
933	 0,136073371070533 
934	 0,136288795005309 
935	 0,136548339560139 
936	 0,136857401266734 
937	 0,137010591684107 
938	 0,136563596314573 
939	 0,13568211042507 
940	 0,134745907163851 
941	 0,135165926034218 
942	 0,135738085971771 
943	 0,135387305556429 
944	 0,135227055688443 
945	 0,135340462006405 
946	 0,135542399511218 
947	 0,135892559773203 
948	 0,136139011492737 
949	 0,135298377991353 
950	 0,134927531726041 
951	 0,135705380624814 
952	 0,13601209113067 
953	 0,134866728743414 
954	 0,131570860073195 
955	 0,131591170668759 
956	 0,134244459401488 
957	 0,134739825981796 
958	 0,134379041929768 
959	 0,133853278455127 
960	 0,134825141753156 
961	 0,135658773667627 
962	 0,135199533543388 
963	 0,135317613959363 
964	 0,135432163038489 
965	 0,134306923160185 
966	 0,133085976301105 
967	 0,132586605853393 
968	 0,134347954615905 
969	 0,135853118292244 
970	 0,136030840016125 
971	 0,135861651261105 
972	 0,135562441689991 
973	 0,135361063362088 
974	 0,135965354429081 
975	 0,13665846081503 
976	 0,135973425566186 
977	 0,135301986571658 
978	 0,135322287532678 
979	 0,137237178246327 
980	 0,137002468858045 
981	 0,133726266343107 
982	 0,134963510537299 
983	 0,137346196170834 
984	 0,136891061965369 
985	 0,13538124099077 
986	 0,134049358981889 
987	 0,134650318805399 
988	 0,135731629795204 
989	 0,136841804749253 
990	 0,138258442887462 
991	 0,13859871637665 
992	 0,137350915098712 
993	 0,135778804315078 
994	 0,136408879586974 
995	 0,141098152327487 
996	 0,142153686038338 
997	 0,140354053837776 
998	 0,140076184196114 
999	 0,140075164468399 
1000	 0,140236060100167 
1001	 0,140914793681841 
1002	 0,141636157338407 
1003	 0,142040290252256 
1004	 0,141756878411647 
1005	 0,141023705151833 
1006	 0,140093576383294 
1007	 0,138059201923124 
1008	 0,137228776323886 
1009	 0,14177180915919 
1010	 0,144031490912116 
1011	 0,142943029031033 
1012	 0,142778381771134 
1013	 0,141614895592235 
1014	 0,139669638992188 
1015	 0,141793444143686 
1016	 0,144444285142995 
1017	 0,144526260199373 
1018	 0,144231637615632 
1019	 0,144166613524982 
1020	 0,144752472216269 
1021	 0,143843181133696 
1022	 0,142439817566016 
1023	 0,144535430613339 
1024	 0,14811622179629 
1025	 0,151722165186915 
1026	 0,153449742039445 
1027	 0,150116615019885 
1028	 0,14176709967007 
1029	 0,142765718592282 
1030	 0,147565796895126 
1031	 0,147968121339014 
1032	 0,151184486466937 
1033	 0,154736349973952 
1034	 0,151322395194789 
1035	 0,148099178407688 
1036	 0,146951257281926 
1037	 0,146257438800096 
1038	 0,148433993622758 
1039	 0,153172640053517 
1040	 0,153757129968655 
1041	 0,152800120807507 
1042	 0,152555907528349 
1043	 0,149843371828428 
1044	 0,148322697327976 
1045	 0,152900980782226 
1046	 0,152975785467651 
1047	 0,148821016932991 
1048	 0,146629649447916 
1049	 0,145944221587868 
1050	 0,147202061197673 
1051	 0,152355708746024 
1052	 0,152091803627483 
1053	 0,144989278078328 
1054	 0,151912122423852 
1055	 0,158851427429945 
1056	 0,154009623764085 
1057	 0,153797799674237 
1058	 0,158871687349499 
1059	 0,166352447340213 
1060	 0,160214064689022 
1061	 0,147792955557191 
1062	 0,154189893956721 
1063	 0,159223612434535 
1064	 0,158007142401905 
1065	 0,156134082934021 
1066	 0,151047250914447 
1067	 0,14531738075769 
1068	 0,155533750427741 
1069	 0,166062062916475 
1070	 0,164466275557688 
1071	 0,151978078689252 
1072	 0,144505322731153 
1073	 0,160315314679673 
1074	 0,177512385388002 
1075	 0,18165218374467 
