Wavelength	AULNE200277.asd
325	 0,333316939904148 
326	 0,350243878058699 
327	 0,421857960587344 
328	 0,523329114830822 
329	 0,461180255693845 
330	 0,347709317044489 
331	 0,329774260860139 
332	 0,238132858740712 
333	 0,132060730469477 
334	 0,236296700031679 
335	 0,291574838596536 
336	 0,260997372996867 
337	 0,306198563163756 
338	 0,329147161946084 
339	 0,234103578285106 
340	 0,195309384464492 
341	 0,217935334671805 
342	 0,254182333247489 
343	 0,233452538514145 
344	 0,149021631515782 
345	 0,161935018965711 
346	 0,209676789155152 
347	 0,234274902254405 
348	 0,23761594744 
349	 0,223392748848056 
350	 0,201475328781378 
351	 0,196226742392566 
352	 0,213244955832563 
353	 0,219370539862356 
354	 0,219307455361065 
355	 0,222124477231465 
356	 0,240582402452999 
357	 0,262501430592838 
358	 0,241701315181059 
359	 0,221506867246169 
360	 0,219618968337423 
361	 0,204861289404032 
362	 0,20010750189977 
363	 0,237343251053125 
364	 0,269632433381174 
365	 0,276609076975899 
366	 0,229434035696606 
367	 0,210977634165926 
368	 0,256619031956175 
369	 0,25131922631516 
370	 0,216565715434786 
371	 0,221034155620981 
372	 0,212041011820815 
373	 0,195078088434595 
374	 0,255362912918148 
375	 0,296540145711046 
376	 0,256166442106444 
377	 0,250037086551969 
378	 0,270191418985486 
379	 0,254860570903462 
380	 0,254953736666957 
381	 0,275730723660681 
382	 0,263653230656555 
383	 0,249096694571246 
384	 0,263167441427234 
385	 0,282159885348989 
386	 0,287915660483952 
387	 0,243342253796393 
388	 0,225154131528921 
389	 0,259330219399862 
390	 0,27227014908378 
391	 0,268202459230276 
392	 0,260429269022894 
393	 0,256186850280427 
394	 0,257862177591605 
395	 0,267355518330004 
396	 0,272262082449007 
397	 0,266858174540065 
398	 0,258156885665023 
399	 0,253526141516001 
400	 0,261996642910087 
401	 0,273403043188532 
402	 0,279094212919405 
403	 0,257920509847726 
404	 0,245081434767736 
405	 0,261726243949001 
406	 0,268597578324659 
407	 0,265339875675946 
408	 0,263440491625549 
409	 0,261674211339026 
410	 0,260899898553641 
411	 0,264345753559554 
412	 0,267132498639085 
413	 0,264941291322494 
414	 0,266177707199753 
415	 0,269624868681034 
416	 0,268572076768709 
417	 0,26704524987781 
418	 0,266419352516148 
419	 0,264098484344041 
420	 0,261961534578584 
421	 0,262559320683462 
422	 0,263192614531385 
423	 0,263454474522758 
424	 0,264245803271437 
425	 0,265016203092985 
426	 0,265324152612485 
427	 0,264190576422839 
428	 0,263089628423006 
429	 0,265131745655136 
430	 0,263890235744066 
431	 0,260072908902796 
432	 0,265295916924182 
433	 0,270809052070269 
434	 0,26887203044853 
435	 0,268676931624359 
436	 0,269959144283021 
437	 0,267446989741808 
438	 0,266528689796686 
439	 0,268743267878842 
440	 0,269062528795374 
441	 0,268761139839218 
442	 0,269988610592617 
443	 0,269800188953788 
444	 0,268402750437363 
445	 0,268471005512807 
446	 0,270356446511174 
447	 0,273680640951469 
448	 0,273518794242281 
449	 0,271530665359387 
450	 0,272135029649501 
451	 0,272489516396844 
452	 0,272290031388867 
453	 0,273780331286945 
454	 0,275806581352878 
455	 0,27711069045306 
456	 0,276598465970625 
457	 0,275372088096356 
458	 0,27650386601944 
459	 0,279334447199099 
460	 0,282849206436543 
461	 0,28339369622258 
462	 0,281869183235766 
463	 0,279951609365388 
464	 0,278452546544158 
465	 0,278612306815023 
466	 0,284065806566223 
467	 0,28622606615165 
468	 0,280519320210917 
469	 0,280734969304526 
470	 0,284815570911505 
471	 0,284792702780873 
472	 0,282838400946536 
473	 0,280277114341786 
474	 0,280719102108648 
475	 0,281459023312386 
476	 0,279713279130587 
477	 0,278520590584846 
478	 0,278530929096703 
479	 0,279995503600963 
480	 0,280430925136477 
481	 0,279077542093345 
482	 0,279697158158862 
483	 0,281125669982435 
484	 0,28111861819144 
485	 0,279928453765871 
486	 0,278189717731487 
487	 0,278222642472374 
488	 0,27773552855793 
489	 0,275387616171957 
490	 0,276742832545168 
491	 0,279818297448402 
492	 0,277904498957256 
493	 0,276835142425851 
494	 0,278070564649924 
495	 0,278042938518535 
496	 0,277574479841208 
497	 0,277863721792768 
498	 0,277955995130229 
499	 0,278018658112591 
500	 0,279141774336617 
501	 0,280630646980319 
502	 0,281773330478875 
503	 0,280294144951424 
504	 0,278677911738528 
505	 0,281741922477074 
506	 0,283935495534973 
507	 0,28411141332547 
508	 0,285259852059072 
509	 0,286088139010662 
510	 0,285469708173087 
511	 0,286098414746493 
512	 0,287634118135585 
513	 0,287925986061207 
514	 0,28776554434199 
515	 0,287515489245497 
516	 0,287126957289274 
517	 0,287491212875988 
518	 0,289862180435057 
519	 0,290287121582019 
520	 0,288827548760239 
521	 0,289746887781569 
522	 0,2907320837741 
523	 0,290166608598352 
524	 0,289962045085516 
525	 0,290028079744665 
526	 0,289466846134036 
527	 0,28888448008438 
528	 0,288582870186018 
529	 0,288982046071831 
530	 0,289326157984127 
531	 0,288750766518728 
532	 0,288648828426231 
533	 0,289210931500392 
534	 0,290194161748628 
535	 0,290064014130297 
536	 0,288293188167263 
537	 0,28868711698254 
538	 0,290116136892577 
539	 0,289508858308925 
540	 0,289154460299461 
541	 0,28954736601083 
542	 0,289717904031446 
543	 0,289564503535064 
544	 0,289102082922373 
545	 0,289901365421072 
546	 0,29146187766591 
547	 0,291567462575396 
548	 0,291427294855039 
549	 0,29158808145702 
550	 0,291574824190808 
551	 0,291676820924876 
552	 0,292417868288951 
553	 0,292941832157045 
554	 0,292852043425853 
555	 0,291581476732134 
556	 0,290876129328356 
557	 0,291995787868226 
558	 0,291654019859507 
559	 0,290145346862449 
560	 0,289634309987387 
561	 0,289641220258518 
562	 0,289882306148287 
563	 0,289489204582029 
564	 0,288820142097989 
565	 0,288444493079991 
566	 0,288822234982568 
567	 0,289794295907794 
568	 0,290181273983571 
569	 0,291143066128143 
570	 0,293340705127402 
571	 0,294900734662793 
572	 0,2959525121372 
573	 0,297465492393331 
574	 0,298904241228994 
575	 0,300219631530348 
576	 0,301955688413859 
577	 0,303971566781332 
578	 0,30607022341318 
579	 0,308789902878452 
580	 0,311699101305091 
581	 0,313204161649982 
582	 0,314471276301014 
583	 0,316097237685331 
584	 0,317089228787302 
585	 0,317939371128488 
586	 0,319773978644213 
587	 0,320800274743758 
588	 0,320896816324337 
589	 0,322165432218247 
590	 0,323310941161002 
591	 0,323152753031234 
592	 0,324062470027985 
593	 0,325548774469992 
594	 0,324871574975253 
595	 0,324611209271666 
596	 0,325773613581041 
597	 0,326615924734298 
598	 0,326533235531065 
599	 0,324886179318741 
600	 0,32418788360433 
601	 0,324672648389943 
602	 0,32410093293142 
603	 0,323313918236219 
604	 0,322971888090329 
605	 0,322359659973156 
606	 0,321526028525823 
607	 0,320928320837616 
608	 0,319956874058406 
609	 0,318581297455874 
610	 0,317973132977283 
611	 0,317654872685499 
612	 0,316914189638722 
613	 0,316143769360759 
614	 0,315385984395609 
615	 0,314419095261229 
616	 0,313733704736478 
617	 0,313593846426886 
618	 0,313264810466208 
619	 0,312890748066121 
620	 0,313012536884237 
621	 0,312924078203674 
622	 0,312574692267378 
623	 0,312958108290346 
624	 0,31331622024546 
625	 0,312865347688753 
626	 0,313040684467728 
627	 0,3138593422708 
628	 0,314453674941933 
629	 0,314977419871728 
630	 0,315553127978949 
631	 0,316593239637863 
632	 0,31784973682677 
633	 0,318866475958003 
634	 0,319700318288947 
635	 0,320493009684423 
636	 0,321684666290674 
637	 0,32332315232261 
638	 0,325364046708911 
639	 0,327027145567819 
640	 0,328191645622796 
641	 0,328917698833991 
642	 0,329818163847589 
643	 0,331134727456622 
644	 0,332513476761167 
645	 0,333542759917421 
646	 0,333758282549448 
647	 0,334203571675978 
648	 0,334756528683423 
649	 0,333998568608222 
650	 0,333106658319082 
651	 0,332779510560851 
652	 0,331677078652771 
653	 0,329996096848939 
654	 0,328501232058699 
655	 0,327150217839517 
656	 0,325723210649596 
657	 0,323079782337897 
658	 0,320375003910219 
659	 0,318802980088391 
660	 0,316430056017536 
661	 0,313369130910496 
662	 0,311136105575722 
663	 0,309005407999406 
664	 0,306678942576254 
665	 0,304606889902988 
666	 0,302812445000074 
667	 0,301232556096766 
668	 0,30009447010736 
669	 0,299271026411754 
670	 0,298062835558264 
671	 0,296837232043209 
672	 0,29593440167231 
673	 0,295595698513723 
674	 0,295427570513651 
675	 0,29427241741731 
676	 0,293816489670718 
677	 0,294441041744876 
678	 0,294464235959766 
679	 0,294242910983298 
680	 0,294365184605911 
681	 0,294672695012906 
682	 0,295234208525963 
683	 0,296169512346524 
684	 0,297880826571406 
685	 0,300519237257741 
686	 0,303197259851367 
687	 0,306038495166208 
688	 0,309441987771457 
689	 0,313728943594135 
690	 0,319162023782231 
691	 0,326155192329715 
692	 0,333961505613882 
693	 0,34198222525768 
694	 0,351607055016145 
695	 0,362663760489896 
696	 0,374132952239066 
697	 0,386100274690417 
698	 0,398649607018479 
699	 0,412298880627789 
700	 0,426537625467656 
701	 0,44067429716518 
702	 0,454880746354757 
703	 0,468975630504977 
704	 0,482515635716169 
705	 0,495552868148412 
706	 0,508153778016245 
707	 0,520722450163202 
708	 0,532909046812066 
709	 0,543949146070616 
710	 0,554435346407268 
711	 0,564567857758443 
712	 0,574379447294908 
713	 0,583454545760362 
714	 0,591423408229016 
715	 0,599245823976374 
716	 0,606888779647375 
717	 0,613662741981778 
718	 0,619995384939795 
719	 0,626031770188785 
720	 0,631573197493733 
721	 0,636640450446023 
722	 0,641293184555372 
723	 0,645210041368069 
724	 0,648482056733215 
725	 0,651539536257261 
726	 0,654673840652021 
727	 0,658002162539418 
728	 0,660755945607759 
729	 0,663071625245909 
730	 0,665410301861966 
731	 0,667401172215416 
732	 0,669025661523739 
733	 0,670618429283423 
734	 0,672266743666379 
735	 0,673974775593323 
736	 0,674849672488689 
737	 0,675306411179845 
738	 0,676800101312641 
739	 0,67813026439968 
740	 0,678872057586089 
741	 0,679379991276277 
742	 0,679781549860852 
743	 0,680191505114469 
744	 0,680400210647695 
745	 0,680656915507294 
746	 0,68190852110068 
747	 0,682830866813452 
748	 0,682784469561475 
749	 0,682842524702289 
750	 0,682977048902069 
751	 0,682923271936654 
752	 0,683214438047076 
753	 0,683773593583684 
754	 0,68375618255365 
755	 0,683612654240451 
756	 0,683680150259709 
757	 0,683762817279025 
758	 0,683875505548517 
759	 0,684113930157067 
760	 0,684252514364694 
761	 0,684219938439402 
762	 0,684101553864722 
763	 0,683945514677597 
764	 0,683800506018305 
765	 0,683779940946699 
766	 0,683790428383697 
767	 0,683481497320471 
768	 0,683451973768 
769	 0,683785089041206 
770	 0,683446995108999 
771	 0,683043905021864 
772	 0,683364574892376 
773	 0,683446693434268 
774	 0,683178879882544 
775	 0,682904501588821 
776	 0,682730366149999 
777	 0,682722207030881 
778	 0,68284156961558 
779	 0,682831526914573 
780	 0,682330613847087 
781	 0,682144451978896 
782	 0,682391171435089 
783	 0,682703243029042 
784	 0,682672040742204 
785	 0,682130182335229 
786	 0,682162300805419 
787	 0,68243804933428 
788	 0,682070466314294 
789	 0,681905365571826 
790	 0,6820847503973 
791	 0,682117324600048 
792	 0,682029680342774 
793	 0,681866385390814 
794	 0,681785443127713 
795	 0,681741494112721 
796	 0,681544967974433 
797	 0,681561665131682 
798	 0,681788229362512 
799	 0,681608897919647 
800	 0,68130059045365 
801	 0,681149939768996 
802	 0,680977064663892 
803	 0,680851071440964 
804	 0,681038915167415 
805	 0,681116355529944 
806	 0,680958951280851 
807	 0,680850589775435 
808	 0,680844889541233 
809	 0,680975550031931 
810	 0,681265476508389 
811	 0,681557283733063 
812	 0,681448024792616 
813	 0,681251858365651 
814	 0,681120373346649 
815	 0,68105834736281 
816	 0,681011519380065 
817	 0,680923995025345 
818	 0,681416080766498 
819	 0,682152535607194 
820	 0,681736451008391 
821	 0,681260137996046 
822	 0,681285354810562 
823	 0,681838989407306 
824	 0,682152051780512 
825	 0,681270599765352 
826	 0,681049153640752 
827	 0,681599548145049 
828	 0,681754308860538 
829	 0,681852232511178 
830	 0,682022701081443 
831	 0,68210495131254 
832	 0,682026303111879 
833	 0,681715687044232 
834	 0,681654365035399 
835	 0,681767983675666 
836	 0,681336252733781 
837	 0,681091362561134 
838	 0,681359800745462 
839	 0,681404346907476 
840	 0,681347381900798 
841	 0,681476490632831 
842	 0,68173912949073 
843	 0,681983634576887 
844	 0,681755392291675 
845	 0,681550823031663 
846	 0,681620413445697 
847	 0,681580058791433 
848	 0,681538208418109 
849	 0,681702088408076 
850	 0,681639034772965 
851	 0,681332135180935 
852	 0,681059083481004 
853	 0,681027109017238 
854	 0,681288941205038 
855	 0,681309101756598 
856	 0,681262865980932 
857	 0,681474064412221 
858	 0,680974998215037 
859	 0,680104357092395 
860	 0,680664582618715 
861	 0,681379076463338 
862	 0,681546385379202 
863	 0,68135647774348 
864	 0,681034714128819 
865	 0,680857052698689 
866	 0,680467719828958 
867	 0,680181711659615 
868	 0,681234102108173 
869	 0,681970666186319 
870	 0,681657872191876 
871	 0,681229689394171 
872	 0,680976612041578 
873	 0,681116462215282 
874	 0,680953172888438 
875	 0,680575005876716 
876	 0,680735761023616 
877	 0,680756506053849 
878	 0,680399427704923 
879	 0,679985862502673 
880	 0,679939253244429 
881	 0,680618771949854 
882	 0,680851077616156 
883	 0,680617900140967 
884	 0,680598758904844 
885	 0,68030786037813 
886	 0,679763554565027 
887	 0,679794623448693 
888	 0,680195981891817 
889	 0,680663135188718 
890	 0,680503814980126 
891	 0,679953619611546 
892	 0,679807848958239 
893	 0,679865823456745 
894	 0,679943641221406 
895	 0,679433316812011 
896	 0,679010527263962 
897	 0,679174272786154 
898	 0,6791965972508 
899	 0,67923768592567 
900	 0,679805965244928 
901	 0,679880876086329 
902	 0,679429738325526 
903	 0,679499725187129 
904	 0,679675123655151 
905	 0,679730461683703 
906	 0,680096209563763 
907	 0,680369764258555 
908	 0,679936615644543 
909	 0,679467550335059 
910	 0,679221341303166 
911	 0,679438631071237 
912	 0,679549292533681 
913	 0,679272491801025 
914	 0,678804342113169 
915	 0,678310674208287 
916	 0,677977119522018 
917	 0,678181022941556 
918	 0,678653610998387 
919	 0,678574033636209 
920	 0,67820225631336 
921	 0,677739346162102 
922	 0,677786176425846 
923	 0,677626236529984 
924	 0,676801644160637 
925	 0,677232625331624 
926	 0,678024056940139 
927	 0,677042106430417 
928	 0,67626228154688 
929	 0,676232152021729 
930	 0,676804660402547 
931	 0,677045644714813 
932	 0,676510033691445 
933	 0,676343002851596 
934	 0,676395097190032 
935	 0,676290993029589 
936	 0,675322007265821 
937	 0,673983107657779 
938	 0,674146731549628 
939	 0,674162456820231 
940	 0,673471483771393 
941	 0,672647473237669 
942	 0,672217346212106 
943	 0,672402727558341 
944	 0,67063128986895 
945	 0,668286998797747 
946	 0,668687463041767 
947	 0,669028224174235 
948	 0,668324951804813 
949	 0,666017955002341 
950	 0,664432634249832 
951	 0,664733651071678 
952	 0,664935929979664 
953	 0,664517750093875 
954	 0,663173314051601 
955	 0,66207659117658 
956	 0,661245568427779 
957	 0,659963695380492 
958	 0,658719580082311 
959	 0,657853537314592 
960	 0,65788178367636 
961	 0,658539313115479 
962	 0,659427536206883 
963	 0,659422204334751 
964	 0,658646566416749 
965	 0,657594218026961 
966	 0,656226944914246 
967	 0,655069118576656 
968	 0,655406080941712 
969	 0,656725016230566 
970	 0,658351339514578 
971	 0,658412166994865 
972	 0,657312198577359 
973	 0,655777761169422 
974	 0,65566218600404 
975	 0,656881191809497 
976	 0,658721983382617 
977	 0,65748395163591 
978	 0,654172326809057 
979	 0,656201256941257 
980	 0,657623792360463 
981	 0,65605471395944 
982	 0,656202509688763 
983	 0,656902879933579 
984	 0,656678511096872 
985	 0,656679380577656 
986	 0,657036966071859 
987	 0,657660550040368 
988	 0,657596367976199 
989	 0,656983136898386 
990	 0,657278335665091 
991	 0,658203260671969 
992	 0,659519135549309 
993	 0,660862336595413 
994	 0,661775649734563 
995	 0,661828921608712 
996	 0,661032998037553 
997	 0,660187253573565 
998	 0,66067988748598 
999	 0,662586484632303 
1000	 0,664818220844264 
1001	 0,663466969480441 
1002	 0,66240354147086 
1003	 0,663222489283346 
1004	 0,662761908358612 
1005	 0,662586823940306 
1006	 0,664129352419098 
1007	 0,663466813918239 
1008	 0,661988372711577 
1009	 0,663208373940513 
1010	 0,666564325760904 
1011	 0,669996305099195 
1012	 0,667699818030603 
1013	 0,66458568964862 
1014	 0,663538386872937 
1015	 0,666953819912361 
1016	 0,669662785571317 
1017	 0,667926582814596 
1018	 0,669950536336794 
1019	 0,673248666506312 
1020	 0,67253815131383 
1021	 0,67431233286097 
1022	 0,677502798123161 
1023	 0,674766291342199 
1024	 0,672828892239127 
1025	 0,673722773621042 
1026	 0,675871060646634 
1027	 0,673863059202712 
1028	 0,666248772223687 
1029	 0,668407473495016 
1030	 0,675106706530588 
1031	 0,678025024852277 
1032	 0,678837748384874 
1033	 0,677366122302149 
1034	 0,673013582753403 
1035	 0,670518935883635 
1036	 0,672082252105811 
1037	 0,680834263069119 
1038	 0,680665825891263 
1039	 0,669098248460626 
1040	 0,674907332925968 
1041	 0,681376290791209 
1042	 0,675159071886433 
1043	 0,675449457121601 
1044	 0,67955807199432 
1045	 0,680160916491414 
1046	 0,673485371610065 
1047	 0,664863580689838 
1048	 0,668899381772431 
1049	 0,673767582948719 
1050	 0,675532157612784 
1051	 0,674661128497043 
1052	 0,675116424828831 
1053	 0,677996690258053 
1054	 0,677230944677455 
1055	 0,674024728467977 
1056	 0,671148805247288 
1057	 0,68017667716567 
1058	 0,689824751378196 
1059	 0,68352113346579 
1060	 0,67993108981651 
1061	 0,679180490684981 
1062	 0,671411078984957 
1063	 0,670944932050712 
1064	 0,678584856550987 
1065	 0,681679546584713 
1066	 0,680763033487026 
1067	 0,674717539736032 
1068	 0,655586617965292 
1069	 0,651801940573128 
1070	 0,67823022864783 
1071	 0,681538699219924 
1072	 0,673781200048778 
1073	 0,677664837439664 
1074	 0,678093227490402 
1075	 0,674340192531335 
