Wavelength	AULNE200031.asd
325	 0,242308817779658 
326	 0,241351813693974 
327	 0,270445032693047 
328	 0,321430788700781 
329	 0,274271801068855 
330	 0,221920101471491 
331	 0,260417513527185 
332	 0,207139069520806 
333	 0,114367298187633 
334	 0,180180906974777 
335	 0,164880124819884 
336	 5,70168995897229E-02 
337	 8,84340114620963E-02 
338	 0,126901444186557 
339	 4,34373874454369E-02 
340	 6,30701790853115E-02 
341	 0,142817000746041 
342	 0,123051764099923 
343	 0,116427940278584 
344	 0,142674250959198 
345	 0,106403979043828 
346	 0,074038048272898 
347	 9,12552680746516E-02 
348	 0,07324102019551 
349	 4,07322425553465E-02 
350	 8,22803650497359E-02 
351	 0,114382547803952 
352	 0,105889151403351 
353	 7,52784668202427E-02 
354	 5,78180834091366E-02 
355	 8,45463366477225E-02 
356	 0,10288753769315 
357	 0,106273539754874 
358	 0,118801307650803 
359	 8,32553607182853E-02 
360	-6,55925049655334E-03 
361	 3,36150880157593E-02 
362	 0,114416126167938 
363	 0,100312278057587 
364	 7,43669255998243E-02 
365	 5,77535556568383E-02 
366	 0,053338551072363 
367	 6,87187471623112E-02 
368	 9,87054636014426E-02 
369	 7,89439135316467E-02 
370	 3,60330781401954E-02 
371	 0,036517318049553 
372	 4,99588702513506E-02 
373	 6,60574358748343E-02 
374	 8,11423265986903E-02 
375	 7,78876641397079E-02 
376	 4,78816638878201E-02 
377	 5,56642335505503E-02 
378	 8,12057974154713E-02 
379	 5,93634726658054E-02 
380	 5,99216451613454E-02 
381	 9,11286181535554E-02 
382	 8,10990789219568E-02 
383	 6,60541850216817E-02 
384	 8,27532528065037E-02 
385	 9,79175850033752E-02 
386	 0,100188505422252 
387	 7,41045427315658E-02 
388	 6,40785187294303E-02 
389	 8,35760996580502E-02 
390	 7,76427915515896E-02 
391	 6,82972495353235E-02 
392	 8,57046959851196E-02 
393	 8,10062368558743E-02 
394	 6,12781111968536E-02 
395	 8,06305435646329E-02 
396	 9,18566293528061E-02 
397	 0,075982616386282 
398	 8,07716694398441E-02 
399	 9,49487799371625E-02 
400	 9,40876358346842E-02 
401	 8,99524380538294E-02 
402	 8,49284839575648E-02 
403	 7,58832379286024E-02 
404	 7,22027631948319E-02 
405	 7,93018783779759E-02 
406	 8,64326948896691E-02 
407	 9,01210661442844E-02 
408	 8,78635151656911E-02 
409	 8,39367213524162E-02 
410	 8,01745826837472E-02 
411	 7,65748623807433E-02 
412	 0,075206967882417 
413	 0,077703597343672 
414	 7,90603691145902E-02 
415	 7,94224777173121E-02 
416	 8,24846658390378E-02 
417	 8,19671163411499E-02 
418	 7,63615439463581E-02 
419	 7,23802430232495E-02 
420	 7,27770351068663E-02 
421	 7,99525903213224E-02 
422	 8,44408592263511E-02 
423	 8,37383820509442E-02 
424	 7,67423787707637E-02 
425	 7,39466598537479E-02 
426	 8,02070725620175E-02 
427	 7,94134397411945E-02 
428	 7,51487730453211E-02 
429	 7,82945151570348E-02 
430	 7,61621758510905E-02 
431	 6,90423249988507E-02 
432	 7,40454111012401E-02 
433	 8,11809143690413E-02 
434	 8,12080292759722E-02 
435	 8,11835046369583E-02 
436	 8,08265241680695E-02 
437	 7,55373208079857E-02 
438	 7,37582063989348E-02 
439	 0,077670538089689 
440	 7,72312107116007E-02 
441	 7,49813033650702E-02 
442	 7,51608594956425E-02 
443	 7,62697398450918E-02 
444	 7,73951262446976E-02 
445	 7,64886045378296E-02 
446	 0,076181846457963 
447	 7,77386229773887E-02 
448	 7,70030066537962E-02 
449	 7,52468566731829E-02 
450	 7,58283068777283E-02 
451	 0,07728535127878 
452	 7,86774550801637E-02 
453	 7,78674840002839E-02 
454	 7,69501628794116E-02 
455	 7,78557141542113E-02 
456	 7,81135825729571E-02 
457	 7,74192183863157E-02 
458	 7,54728053660116E-02 
459	 7,75269126816295E-02 
460	 8,39644174984174E-02 
461	 0,082020957356881 
462	 7,81316908597257E-02 
463	 8,24269352263664E-02 
464	 8,34359808515926E-02 
465	 8,04626360663022E-02 
466	 8,14884474890915E-02 
467	 8,24844472592211E-02 
468	 8,08354334566514E-02 
469	 7,79585721022499E-02 
470	 7,60902626209495E-02 
471	 7,94073261843646E-02 
472	 8,12626481319993E-02 
473	 8,00182122137514E-02 
474	 7,91358026069339E-02 
475	 7,89097092682715E-02 
476	 7,93652510236311E-02 
477	 7,83268016865846E-02 
478	 7,66677901778934E-02 
479	 7,82929551069005E-02 
480	 7,87264630879097E-02 
481	 7,65489140124928E-02 
482	 7,73633993725288E-02 
483	 7,94722175491532E-02 
484	 7,95590976756956E-02 
485	 7,85799017383102E-02 
486	 7,76143084264589E-02 
487	 8,01051511653686E-02 
488	 8,14968382628078E-02 
489	 7,87594771695407E-02 
490	 7,84128549713571E-02 
491	 7,96855065387551E-02 
492	 7,81760052692076E-02 
493	 7,72473984853365E-02 
494	 7,77767188973376E-02 
495	 7,79409119977075E-02 
496	 7,81647499427922E-02 
497	 7,90663214042371E-02 
498	 8,10191539470255E-02 
499	 8,25514930584383E-02 
500	 7,87068932595531E-02 
501	 7,64328414496141E-02 
502	 7,91750565813691E-02 
503	 8,00272712269116E-02 
504	 7,97645291348409E-02 
505	 8,14511420949687E-02 
506	 8,18431005948266E-02 
507	 8,06632461681921E-02 
508	 8,09937290201224E-02 
509	 8,14843485924351E-02 
510	 8,08579776000215E-02 
511	 0,080386753515268 
512	 0,080286699142269 
513	 8,04285800025516E-02 
514	 8,08167109747379E-02 
515	 8,13026497553288E-02 
516	 8,09867456460535E-02 
517	 0,080735719666726 
518	 8,18728876940854E-02 
519	 8,25546423722884E-02 
520	 8,24981102755088E-02 
521	 8,25920726906337E-02 
522	 8,26062812489644E-02 
523	 8,23639935235054E-02 
524	 8,18652844006807E-02 
525	 8,12595895477779E-02 
526	 8,07233354663752E-02 
527	 8,09338729710052E-02 
528	 8,17970761527194E-02 
529	 8,14357520151997E-02 
530	 8,07817608090098E-02 
531	 8,10373661778305E-02 
532	 8,09077937864683E-02 
533	 8,04833332066089E-02 
534	 8,10372073020938E-02 
535	 8,12447981492709E-02 
536	 8,05503986917115E-02 
537	 0,081291695129807 
538	 8,25702304210022E-02 
539	 8,22561504771228E-02 
540	 8,12182346464626E-02 
541	 8,00412568791438E-02 
542	 8,00518641105987E-02 
543	 8,04576974343587E-02 
544	 8,04433377566564E-02 
545	 0,080959716957468 
546	 8,17533264693809E-02 
547	 8,17012366302553E-02 
548	 8,14923838775615E-02 
549	 8,14530613343246E-02 
550	 8,13205287196094E-02 
551	 0,081322800482867 
552	 8,18421100371687E-02 
553	 8,24002385855432E-02 
554	 8,27161742790089E-02 
555	 8,22390421828937E-02 
556	 8,21615100570813E-02 
557	 8,33530386032642E-02 
558	 8,37058882230443E-02 
559	 8,32123790083282E-02 
560	 0,082802153705825 
561	 8,25678257126554E-02 
562	 8,25852797671878E-02 
563	 8,26244977206419E-02 
564	 8,28200696155035E-02 
565	 8,33651258841327E-02 
566	 8,44858164862979E-02 
567	 8,57377018655748E-02 
568	 8,53341652924281E-02 
569	 8,53895299576955E-02 
570	 8,71755412164075E-02 
571	 8,77090394405831E-02 
572	 8,72670570212556E-02 
573	 8,74556475702671E-02 
574	 8,77438593968362E-02 
575	 8,80481441141402E-02 
576	 8,86297963129303E-02 
577	 8,91791997642965E-02 
578	 8,93523768351143E-02 
579	 9,00689517854562E-02 
580	 9,09564579605419E-02 
581	 9,02382908721881E-02 
582	 8,92614852409322E-02 
583	 8,88925849490396E-02 
584	 8,91594042140611E-02 
585	 8,99427108866226E-02 
586	 9,10623742274267E-02 
587	 9,17818202345612E-02 
588	 9,19521532548497E-02 
589	 9,23295981621391E-02 
590	 9,22356723148254E-02 
591	 9,11200617936738E-02 
592	 9,11687627029335E-02 
593	 9,18936364396425E-02 
594	 9,05634307418803E-02 
595	 8,99141683216529E-02 
596	 9,09448953380336E-02 
597	 9,12719673733385E-02 
598	 9,08190793234875E-02 
599	 8,98391982946287E-02 
600	 8,97539833412986E-02 
601	 9,04489065828566E-02 
602	 8,96143141093109E-02 
603	 8,89105221263215E-02 
604	 8,95656273891709E-02 
605	 0,089519206108635 
606	 8,88981514855054E-02 
607	 0,088863896199788 
608	 8,89561635873443E-02 
609	 8,90002831882356E-02 
610	 8,89258980824911E-02 
611	 8,86471222181145E-02 
612	 8,80761231453171E-02 
613	 8,84270457797585E-02 
614	 8,93316633830622E-02 
615	 8,85021555408372E-02 
616	 8,77223509205683E-02 
617	 8,80743654474512E-02 
618	 8,82709507799887E-02 
619	 0,088227937512857 
620	 8,81786038028752E-02 
621	 8,78209321601233E-02 
622	 8,73536089171933E-02 
623	 8,81625883434399E-02 
624	 8,90115373911865E-02 
625	 0,088607034390749 
626	 8,86739662024112E-02 
627	 8,92630266245781E-02 
628	 8,94656843263591E-02 
629	 8,93526531592325E-02 
630	 8,91107640419794E-02 
631	 8,99588638938749E-02 
632	 9,10425272238889E-02 
633	 9,07270495590514E-02 
634	 9,10691384323866E-02 
635	 0,09225133370286 
636	 9,24339477960206E-02 
637	 9,24728031853735E-02 
638	 9,31010261324235E-02 
639	 0,093492131034262 
640	 9,36962375670677E-02 
641	 9,42332131028538E-02 
642	 9,45933185697452E-02 
643	 9,47064806269625E-02 
644	 9,53824730221563E-02 
645	 9,63767024101203E-02 
646	 9,72936325546212E-02 
647	 9,69200838214048E-02 
648	 9,56549340699359E-02 
649	 9,59028052668897E-02 
650	 0,096744972741504 
651	 9,74235299799281E-02 
652	 9,70291579534089E-02 
653	 9,61411042090541E-02 
654	 9,62635860736329E-02 
655	 9,61499780879202E-02 
656	 9,55988230639392E-02 
657	 9,57569406837699E-02 
658	 9,57042336206826E-02 
659	 9,44859234084394E-02 
660	 9,37376285516324E-02 
661	 9,35641152893354E-02 
662	 9,31878504209464E-02 
663	 9,27629897541528E-02 
664	 9,23322004921169E-02 
665	 9,18094996275648E-02 
666	 9,11743721983176E-02 
667	 9,03758129201594E-02 
668	 9,01220405608252E-02 
669	 9,03601147954771E-02 
670	 9,00202892422804E-02 
671	 8,95572335075185E-02 
672	 8,93794307768468E-02 
673	 8,96404099319989E-02 
674	 8,99487131382789E-02 
675	 0,089264595176533 
676	 8,87243801268794E-02 
677	 8,87601078073751E-02 
678	 8,91948504872731E-02 
679	 8,95001564139287E-02 
680	 8,90889368679141E-02 
681	 0,089102924225786 
682	 8,94796346073445E-02 
683	 8,89898083717884E-02 
684	 8,89692987742465E-02 
685	 9,00771959466267E-02 
686	 9,08060316842607E-02 
687	 9,11893223000128E-02 
688	 9,16731280630057E-02 
689	 0,092043678149577 
690	 9,25494722662074E-02 
691	 9,43844423359138E-02 
692	 0,096398818275032 
693	 9,76043080812001E-02 
694	 9,95736598517387E-02 
695	 0,102454925719871 
696	 0,105908007163694 
697	 0,109305032152722 
698	 0,112504236499056 
699	 0,116587152211647 
700	 0,121104713573952 
701	 0,125353627110639 
702	 0,130213990173261 
703	 0,135770727146357 
704	 0,141633270961485 
705	 0,147499091355114 
706	 0,153180630189906 
707	 0,158966208252587 
708	 0,164968739041624 
709	 0,171301154951369 
710	 0,177790534908327 
711	 0,184236201019605 
712	 0,19015665602383 
713	 0,195818341024085 
714	 0,201470193846461 
715	 0,207025963638601 
716	 0,21254825547916 
717	 0,218242822433654 
718	 0,223500735972357 
719	 0,228154739178578 
720	 0,233034210514166 
721	 0,237741517399845 
722	 0,241689626851445 
723	 0,245541125968329 
724	 0,249382980270904 
725	 0,252926579044811 
726	 0,256211707980483 
727	 0,25923107295922 
728	 0,261646863980749 
729	 0,263854966214246 
730	 0,266633895763245 
731	 0,269158693518635 
732	 0,271246019991581 
733	 0,273305009792621 
734	 0,275219853495648 
735	 0,276871844842286 
736	 0,27813983302159 
737	 0,27929547743886 
738	 0,281105304745146 
739	 0,282545915755272 
740	 0,283330173996607 
741	 0,284205434308493 
742	 0,285271003598567 
743	 0,286554388477326 
744	 0,287665786304882 
745	 0,288516944745043 
746	 0,289141631665853 
747	 0,289862451344131 
748	 0,290824779759043 
749	 0,291662248612731 
750	 0,292369335991093 
751	 0,293015167144675 
752	 0,293517648439102 
753	 0,293938874604127 
754	 0,294578924838408 
755	 0,295159570042835 
756	 0,295504918292357 
757	 0,296015677960517 
758	 0,296582649836091 
759	 0,296817725910939 
760	 0,297379910291293 
761	 0,298297537250627 
762	 0,298670848489227 
763	 0,298828798587261 
764	 0,29910448403398 
765	 0,298973442445949 
766	 0,298799885615872 
767	 0,2998287012031 
768	 0,300435021528548 
769	 0,300169490115076 
770	 0,300544619515419 
771	 0,301181002256669 
772	 0,301488653894926 
773	 0,301600082473852 
774	 0,301636661158029 
775	 0,301926726033296 
776	 0,302045571344379 
777	 0,301910894566324 
778	 0,302605284031149 
779	 0,303413128568669 
780	 0,303125547769428 
781	 0,303094837814993 
782	 0,303543805495515 
783	 0,303925019587872 
784	 0,304136745405288 
785	 0,30415153534009 
786	 0,304406156781664 
787	 0,304757948304316 
788	 0,304824314823901 
789	 0,305072093473304 
790	 0,305519572734599 
791	 0,305698357809847 
792	 0,30558671896677 
793	 0,305253389129935 
794	 0,305496874985707 
795	 0,30606503551465 
796	 0,306102222639464 
797	 0,306263725635713 
798	 0,306655191463528 
799	 0,306779563481747 
800	 0,306700531524546 
801	 0,306532731416964 
802	 0,306652547075031 
803	 0,307060436379567 
804	 0,307612084923947 
805	 0,307858593501319 
806	 0,307750691174816 
807	 0,308171079010021 
808	 0,308560049582985 
809	 0,308304848667323 
810	 0,308630981635154 
811	 0,309369107628034 
812	 0,309297683783492 
813	 0,309399123167731 
814	 0,309934587476334 
815	 0,309807901862787 
816	 0,30973508132654 
817	 0,310636199999195 
818	 0,311537069183939 
819	 0,311987075244061 
820	 0,311326194499624 
821	 0,310930347626711 
822	 0,311430165646058 
823	 0,312084365336007 
824	 0,312494728503373 
825	 0,312267488900001 
826	 0,312031244236716 
827	 0,312072421564739 
828	 0,312743935825881 
829	 0,313315030424456 
830	 0,313411395036448 
831	 0,313452363693826 
832	 0,313458142904312 
833	 0,313395869354209 
834	 0,313731983174593 
835	 0,314340242044366 
836	 0,314465883296194 
837	 0,314311035994805 
838	 0,314087594643153 
839	 0,314457556167948 
840	 0,314992550643909 
841	 0,314986688449461 
842	 0,315229744068627 
843	 0,315632346096988 
844	 0,315198562055553 
845	 0,314981942748897 
846	 0,315499551176751 
847	 0,315909255587408 
848	 0,316220557745863 
849	 0,316587643074904 
850	 0,316735141570981 
851	 0,316643726058116 
852	 0,316439660648809 
853	 0,316421858500484 
854	 0,316718934106619 
855	 0,316916407342168 
856	 0,317085135732139 
857	 0,317388419867407 
858	 0,317170305315843 
859	 0,316691638326996 
860	 0,317303695500667 
861	 0,317878988131473 
862	 0,317862164699259 
863	 0,317832229628124 
864	 0,317769508756694 
865	 0,317584248065976 
866	 0,317873236118952 
867	 0,318533478284177 
868	 0,318858815623205 
869	 0,318920879139386 
870	 0,318810666271914 
871	 0,319022997926454 
872	 0,319092821891988 
873	 0,318448226190297 
874	 0,318299345215119 
875	 0,318781456841501 
876	 0,319534307840594 
877	 0,319878016972407 
878	 0,319576004856779 
879	 0,319284195364887 
880	 0,319240445287406 
881	 0,319623419694573 
882	 0,320235251100185 
883	 0,320772159000645 
884	 0,320576724014595 
885	 0,320427726543367 
886	 0,320621982241243 
887	 0,3210529614963 
888	 0,321360242294706 
889	 0,321244111569247 
890	 0,321335117235246 
891	 0,321378742243567 
892	 0,320485659462996 
893	 0,320234440501031 
894	 0,32095457064453 
895	 0,321635223340929 
896	 0,321791597649784 
897	 0,321178634700243 
898	 0,320931523079089 
899	 0,321208516286794 
900	 0,321972928202149 
901	 0,321862697492012 
902	 0,320978091826584 
903	 0,321302077274459 
904	 0,321911689168051 
905	 0,322200104266097 
906	 0,3223217457781 
907	 0,322441247148289 
908	 0,322775338218832 
909	 0,322878651654507 
910	 0,322830365739217 
911	 0,323261710485104 
912	 0,32351593772736 
913	 0,323360643854258 
914	 0,323528102564755 
915	 0,32336158224066 
916	 0,322162756694455 
917	 0,321642066667585 
918	 0,321828320554483 
919	 0,321763932360975 
920	 0,322378572362888 
921	 0,323434541800781 
922	 0,32244148560042 
923	 0,321247459011575 
924	 0,321448503420271 
925	 0,32198447152606 
926	 0,322281018707216 
927	 0,321660805740497 
928	 0,320401442573831 
929	 0,319034360521123 
930	 0,318961329014305 
931	 0,319497793587179 
932	 0,320033040217127 
933	 0,319602657688083 
934	 0,318704368725455 
935	 0,318144895514999 
936	 0,317851108811753 
937	 0,317680806539786 
938	 0,317332447014078 
939	 0,316333258414141 
940	 0,314844929903559 
941	 0,314594702230467 
942	 0,314966370513012 
943	 0,315136952377052 
944	 0,313352463066881 
945	 0,311058616797663 
946	 0,311468233663289 
947	 0,311607739946757 
948	 0,310535200832405 
949	 0,308112429891958 
950	 0,306052820123507 
951	 0,305299925664308 
952	 0,304858275219516 
953	 0,30387509890354 
954	 0,301571838188546 
955	 0,300388145075115 
956	 0,300171061228174 
957	 0,299055137741859 
958	 0,298256868710039 
959	 0,298128471952577 
960	 0,298447582260024 
961	 0,298393330071886 
962	 0,297448731174189 
963	 0,296730424459139 
964	 0,296536765427753 
965	 0,297030186117734 
966	 0,29648581665334 
967	 0,295012175343401 
968	 0,294209979576643 
969	 0,294740355919796 
970	 0,296254500144286 
971	 0,29506703473632 
972	 0,293835860717441 
973	 0,294982208820364 
974	 0,295015398257234 
975	 0,294681621840931 
976	 0,296331192400197 
977	 0,297340055900167 
978	 0,297077019761378 
979	 0,296017645174968 
980	 0,295326978574091 
981	 0,295539538247325 
982	 0,295729084221151 
983	 0,295750732564841 
984	 0,295527812044451 
985	 0,294801716265427 
986	 0,294610517368182 
987	 0,297038577702372 
988	 0,298224427608699 
989	 0,297526639742627 
990	 0,296741921756792 
991	 0,297891766145588 
992	 0,301437208457119 
993	 0,303398238289992 
994	 0,303289415460145 
995	 0,301253835561388 
996	 0,299885183347703 
997	 0,300225194371994 
998	 0,303215504051763 
999	 0,303869659494552 
1000	 0,30194858096828 
1001	 0,30213614472234 
1002	 0,303925577200103 
1003	 0,306426557957237 
1004	 0,305985973715261 
1005	 0,304349204178399 
1006	 0,303768306269575 
1007	 0,305929540595294 
1008	 0,309382598296384 
1009	 0,311048165166857 
1010	 0,312255551395819 
1011	 0,313063211760672 
1012	 0,312870178790954 
1013	 0,311890306247093 
1014	 0,310814252229398 
1015	 0,312311934790798 
1016	 0,314103678446838 
1017	 0,314316900174902 
1018	 0,315357996536684 
1019	 0,316455738370503 
1020	 0,316071980250102 
1021	 0,317767807376037 
1022	 0,32100922013482 
1023	 0,322110115994137 
1024	 0,32156704376626 
1025	 0,320168814847035 
1026	 0,321047993399579 
1027	 0,320861482077144 
1028	 0,318085093111395 
1029	 0,317986355736805 
1030	 0,321054481761731 
1031	 0,32653725773487 
1032	 0,327631518171729 
1033	 0,324823408180408 
1034	 0,322082972896248 
1035	 0,31984510247337 
1036	 0,319336537124138 
1037	 0,323539907518312 
1038	 0,326887293808361 
1039	 0,327608979225315 
1040	 0,331577096420864 
1041	 0,334761946462691 
1042	 0,333853743509027 
1043	 0,331924619953647 
1044	 0,331192787677834 
1045	 0,333891867654396 
1046	 0,339469981983084 
1047	 0,341651446767583 
1048	 0,32548400119549 
1049	 0,322628270878306 
1050	 0,336103509532069 
1051	 0,336001767551731 
1052	 0,337098631619128 
1053	 0,343718122416238 
1054	 0,338343592368219 
1055	 0,330594440809165 
1056	 0,329695152341308 
1057	 0,331039584136814 
1058	 0,335402515302707 
1059	 0,344081692313758 
1060	 0,345452517308663 
1061	 0,34145780748126 
1062	 0,343299566145206 
1063	 0,341962586024841 
1064	 0,33704903910356 
1065	 0,335725694645785 
1066	 0,338873019353701 
1067	 0,345500080401529 
1068	 0,349839881928395 
1069	 0,34781414664432 
1070	 0,338145121812001 
1071	 0,331365634244134 
1072	 0,330500794215383 
1073	 0,336892121046885 
1074	 0,34279575821291 
1075	 0,346457337295947 
