Wavelength	AULNE200337.asd
325	 0,333951365613635 
326	 0,37113083541014 
327	 0,406280685083373 
328	 0,410671219465603 
329	 0,319578820975824 
330	 0,237667182753955 
331	 0,279170392852949 
332	 0,325710654504157 
333	 0,359853503689164 
334	 0,370951778472582 
335	 0,325744824331923 
336	 0,247197920260719 
337	 0,261068256511937 
338	 0,274836483888491 
339	 0,201342559090113 
340	 0,204777148030616 
341	 0,246832837611713 
342	 0,189302086015967 
343	 0,166942873792937 
344	 0,203469393650519 
345	 0,18356015510572 
346	 0,149503266656659 
347	 0,136310720711186 
348	 0,14704420979708 
349	 0,170637773762559 
350	 0,176493286982658 
351	 0,195815164872391 
352	 0,229468456169854 
353	 0,2073140398083 
354	 0,175807694814487 
355	 0,18738526139272 
356	 0,189571721380419 
357	 0,17891319162661 
358	 0,178758951514484 
359	 0,17378641482724 
360	 0,161892817502045 
361	 0,186356623705204 
362	 0,215523649590163 
363	 0,206871201565727 
364	 0,198883231520692 
365	 0,195114033980655 
366	 0,168832883731026 
367	 0,165489929201897 
368	 0,200851864469166 
369	 0,189734920258574 
370	 0,15521457729468 
371	 0,161870628813489 
372	 0,168103227452826 
373	 0,166311287360936 
374	 0,173945812148046 
375	 0,181318165018073 
376	 0,18205145532033 
377	 0,18182776826535 
378	 0,181973301554306 
379	 0,182622393627285 
380	 0,187737442138819 
381	 0,194981388499831 
382	 0,189854492718736 
383	 0,189876874989728 
384	 0,210895520643249 
385	 0,226992959241111 
386	 0,226395380495298 
387	 0,18814902570508 
388	 0,168218003366524 
389	 0,187929843196334 
390	 0,200259822525841 
391	 0,20216088505578 
392	 0,195643631630435 
393	 0,194798062156106 
394	 0,197912673566003 
395	 0,189240920902863 
396	 0,181989290610915 
397	 0,183371755237596 
398	 0,194309459371411 
399	 0,204767369668692 
400	 0,200251702577486 
401	 0,196777933733276 
402	 0,196579555887839 
403	 0,190791501057978 
404	 0,188481679458372 
405	 0,195049235465821 
406	 0,200302086736491 
407	 0,202444426645475 
408	 0,201857744224858 
409	 0,199213919609541 
410	 0,195133367288413 
411	 0,18914445355243 
412	 0,187581201233896 
413	 0,195438479786577 
414	 0,196737302976305 
415	 0,193009485638626 
416	 0,196640052003455 
417	 0,195047536942222 
418	 0,185179499209168 
419	 0,180429330876226 
420	 0,18074883856133 
421	 0,18433772522071 
422	 0,18868853609375 
423	 0,192289334563009 
424	 0,193117836578095 
425	 0,192832154132704 
426	 0,19258274502613 
427	 0,192652853364706 
428	 0,192526441827978 
429	 0,191227128003866 
430	 0,188731703609448 
431	 0,186386477734 
432	 0,189521225481084 
433	 0,193662426732756 
434	 0,19462560828105 
435	 0,193877247527496 
436	 0,191643576123641 
437	 0,187071200653574 
438	 0,185614763543981 
439	 0,188928876753675 
440	 0,19130689441899 
441	 0,192638190713912 
442	 0,193588760132928 
443	 0,193337891911359 
444	 0,192055814755426 
445	 0,190032809937332 
446	 0,191632703160887 
447	 0,198213378973159 
448	 0,196755022219794 
449	 0,192021119763478 
450	 0,196598828390917 
451	 0,198209639905779 
452	 0,195000138351274 
453	 0,196012603071305 
454	 0,198222156832751 
455	 0,198586797672792 
456	 0,200512859338945 
457	 0,203006149057048 
458	 0,201767245500892 
459	 0,201645304525013 
460	 0,204170211730827 
461	 0,205486156964072 
462	 0,204172188552722 
463	 0,198818803830391 
464	 0,197539071448326 
465	 0,201122910249378 
466	 0,204820522499917 
467	 0,205513114000655 
468	 0,201776838522004 
469	 0,200893815471967 
470	 0,202718152753032 
471	 0,205037099080901 
472	 0,204150981411094 
473	 0,200474602714736 
474	 0,202397795108541 
475	 0,205804158584306 
476	 0,206100343970193 
477	 0,203853320479395 
478	 0,200863442885997 
479	 0,20189477002741 
480	 0,202311228322329 
481	 0,200450705617003 
482	 0,200667595083603 
483	 0,202139511914517 
484	 0,203001053010415 
485	 0,203280601862053 
486	 0,203213276071157 
487	 0,204056423593023 
488	 0,204216221636566 
489	 0,202687534107185 
490	 0,202487371028105 
491	 0,202608585851232 
492	 0,199157312344025 
493	 0,197779879821768 
494	 0,19976742355612 
495	 0,20045329023204 
496	 0,200406578469622 
497	 0,2006913946304 
498	 0,202110485017627 
499	 0,203955714917733 
500	 0,203438467363146 
501	 0,203123971003099 
502	 0,204230869511526 
503	 0,203743882421894 
504	 0,203260293446981 
505	 0,206250523753645 
506	 0,208482017062198 
507	 0,208983089434325 
508	 0,209743603874882 
509	 0,210104506489522 
510	 0,209511762130014 
511	 0,209726990952473 
512	 0,210988087317994 
513	 0,213048839561762 
514	 0,214840910501125 
515	 0,215839794902186 
516	 0,216319894435868 
517	 0,216859695653225 
518	 0,218212992678998 
519	 0,218988900486414 
520	 0,219064849654121 
521	 0,219321893563005 
522	 0,219911945888726 
523	 0,220777346075558 
524	 0,220096317124953 
525	 0,218657525087919 
526	 0,218826836106117 
527	 0,219092726816197 
528	 0,219060863603277 
529	 0,219469852133747 
530	 0,219742856911195 
531	 0,21919730150953 
532	 0,218793544185764 
533	 0,218821291980626 
534	 0,219509295066317 
535	 0,219682418080702 
536	 0,218856833889351 
537	 0,219194052729748 
538	 0,220335329719866 
539	 0,221209278895861 
540	 0,22091180234644 
541	 0,219688962329159 
542	 0,220116428541254 
543	 0,221286810298524 
544	 0,222173156851167 
545	 0,222939027949341 
546	 0,223379785179439 
547	 0,222842041614159 
548	 0,22286143055751 
549	 0,224007726789437 
550	 0,224432929754181 
551	 0,224267825323784 
552	 0,224018387251022 
553	 0,224454725613826 
554	 0,225300676375612 
555	 0,224417301450452 
556	 0,223450455745667 
557	 0,22368096825411 
558	 0,222718481420779 
559	 0,220953684213506 
560	 0,220343924274046 
561	 0,220038980603942 
562	 0,219650944785871 
563	 0,218706553451686 
564	 0,217941590888998 
565	 0,218351875890771 
566	 0,21901521172953 
567	 0,219707583854798 
568	 0,22050743800182 
569	 0,221711933212915 
570	 0,223419985321709 
571	 0,224438182127502 
572	 0,225256954195144 
573	 0,227271114560729 
574	 0,229934295560414 
575	 0,232906151969606 
576	 0,235420452235563 
577	 0,237790238222811 
578	 0,240431472386007 
579	 0,242814725178414 
580	 0,244837484339192 
581	 0,246506478432481 
582	 0,248388825340519 
583	 0,250678755046254 
584	 0,251974944046532 
585	 0,253083871114647 
586	 0,255778811677143 
587	 0,258042949819249 
588	 0,259310398626186 
589	 0,260125529440689 
590	 0,260665147749538 
591	 0,261140072056887 
592	 0,262683090006355 
593	 0,264521208769343 
594	 0,263757312683522 
595	 0,263797456277863 
596	 0,265853297724301 
597	 0,266659703719336 
598	 0,266258552851321 
599	 0,265232461713768 
600	 0,264611914822834 
601	 0,264582170811292 
602	 0,264472212299682 
603	 0,263742264637686 
604	 0,262107943194762 
605	 0,261378942713228 
606	 0,261205705164513 
607	 0,259892377153966 
608	 0,258754164724426 
609	 0,258123394036041 
610	 0,257028103357152 
611	 0,255722324488286 
612	 0,254606217242498 
613	 0,25317863694235 
614	 0,251600844520846 
615	 0,250629328872241 
616	 0,250232720577505 
617	 0,250300130027651 
618	 0,250039597559576 
619	 0,249560144250273 
620	 0,24943937510524 
621	 0,248503642062828 
622	 0,246961682278707 
623	 0,247648260761898 
624	 0,248855045527882 
625	 0,248689318946795 
626	 0,248334152029402 
627	 0,24822147566022 
628	 0,24888698196788 
629	 0,249565121725274 
630	 0,249888352104112 
631	 0,250363908673256 
632	 0,250923082747483 
633	 0,251302057186503 
634	 0,252684919786294 
635	 0,254979126652512 
636	 0,256403638455273 
637	 0,257360967950677 
638	 0,258288702817575 
639	 0,259721006039289 
640	 0,26150270345634 
641	 0,263047593121909 
642	 0,264018718446089 
643	 0,264445835767019 
644	 0,265587273671304 
645	 0,266877242269304 
646	 0,267443561958965 
647	 0,267666403735362 
648	 0,267430105689198 
649	 0,266060412829226 
650	 0,264568395500017 
651	 0,263545730080182 
652	 0,261649147912574 
653	 0,259219322498097 
654	 0,257338688666691 
655	 0,255388569147705 
656	 0,253107375256605 
657	 0,250307198310073 
658	 0,247105345365523 
659	 0,243647592299562 
660	 0,240068265986384 
661	 0,236576669087949 
662	 0,233572249224462 
663	 0,230686426797361 
664	 0,227793091497083 
665	 0,225387949232433 
666	 0,223321053904018 
667	 0,221263421627119 
668	 0,219501652291612 
669	 0,218145859541885 
670	 0,217335324744435 
671	 0,216527506672318 
672	 0,215351180134937 
673	 0,214884733651833 
674	 0,21479431177088 
675	 0,213757431732817 
676	 0,213215516773949 
677	 0,213522083477436 
678	 0,213429395711954 
679	 0,213281963239535 
680	 0,213605113732957 
681	 0,214642159529017 
682	 0,216198545350948 
683	 0,217373455117781 
684	 0,218992090769316 
685	 0,221584696650922 
686	 0,225119322443174 
687	 0,229216098420428 
688	 0,233176080852815 
689	 0,238083181397489 
690	 0,244440463559799 
691	 0,25270100444381 
692	 0,261757957012711 
693	 0,270702145321879 
694	 0,281250451102188 
695	 0,293306433351966 
696	 0,305867143789007 
697	 0,319021492812945 
698	 0,332764971723193 
699	 0,347115295189252 
700	 0,361970044509028 
701	 0,377217872123554 
702	 0,391979603880302 
703	 0,406081295094796 
704	 0,420049400810251 
705	 0,433432437896019 
706	 0,445895117578167 
707	 0,457292843131332 
708	 0,467985111791606 
709	 0,478660680784748 
710	 0,488530420976656 
711	 0,497491088750642 
712	 0,506282539062534 
713	 0,514261951034478 
714	 0,520861145450623 
715	 0,5275914726059 
716	 0,534402381562972 
717	 0,54030802306669 
718	 0,545652173122234 
719	 0,550535364003868 
720	 0,554789869519848 
721	 0,558696654098085 
722	 0,562621745066632 
723	 0,566278671376234 
724	 0,569455572696464 
725	 0,571651841172979 
726	 0,573735836391525 
727	 0,576211915387741 
728	 0,578318731832013 
729	 0,58009179986808 
730	 0,581775202328247 
731	 0,583328885139934 
732	 0,584812643985679 
733	 0,58650603363538 
734	 0,587979901895683 
735	 0,588870937837843 
736	 0,589532095747408 
737	 0,590214225276982 
738	 0,591388739881366 
739	 0,592280377251836 
740	 0,592684216046802 
741	 0,593246161517321 
742	 0,59403756568417 
743	 0,595056915673037 
744	 0,595439528443875 
745	 0,595368518697193 
746	 0,596032960791675 
747	 0,596825910752222 
748	 0,597412413483956 
749	 0,597853921354566 
750	 0,59821182790876 
751	 0,59858001790828 
752	 0,598886466880188 
753	 0,599125356449825 
754	 0,599339798670303 
755	 0,59951892286236 
756	 0,599664992994743 
757	 0,599852471047321 
758	 0,600095232497899 
759	 0,600412663049384 
760	 0,600582085205887 
761	 0,600600017313511 
762	 0,600850762678609 
763	 0,601085431188881 
764	 0,601065550916808 
765	 0,601036513637023 
766	 0,601142273638621 
767	 0,601679298701386 
768	 0,601926783168596 
769	 0,601687314944384 
770	 0,601709349825551 
771	 0,601852982531946 
772	 0,601880836585809 
773	 0,601963057163418 
774	 0,602110690191767 
775	 0,602298019095721 
776	 0,602237763950545 
777	 0,601894811533131 
778	 0,602147102920588 
779	 0,602635281265471 
780	 0,602689583408919 
781	 0,602804265495192 
782	 0,60299232769998 
783	 0,602862263285225 
784	 0,602653967893583 
785	 0,602580183348012 
786	 0,602971088990496 
787	 0,60349970571527 
788	 0,603519962624218 
789	 0,603386163550235 
790	 0,603262071775193 
791	 0,603368988524008 
792	 0,603460238529928 
793	 0,603363864988957 
794	 0,603533793147609 
795	 0,603806669188562 
796	 0,603680190108791 
797	 0,603503107895196 
798	 0,603442351639123 
799	 0,603710446046898 
800	 0,603896190828832 
801	 0,603636476368189 
802	 0,603525486772823 
803	 0,603650789505723 
804	 0,603946256033395 
805	 0,60419302785474 
806	 0,604284042109216 
807	 0,604205299011757 
808	 0,604241559678987 
809	 0,604673008965396 
810	 0,604977994419727 
811	 0,605078359860362 
812	 0,60514436478351 
813	 0,604909121965724 
814	 0,604454335303955 
815	 0,604868512592982 
816	 0,605521040237271 
817	 0,605568435838128 
818	 0,605780114667259 
819	 0,606106306025444 
820	 0,605919965036014 
821	 0,605600912491291 
822	 0,605415024758094 
823	 0,605837444283342 
824	 0,606092669013457 
825	 0,605164154396214 
826	 0,605252026224006 
827	 0,60622215463708 
828	 0,605819070094952 
829	 0,605747722274695 
830	 0,606665043892527 
831	 0,606783536071681 
832	 0,606369041067714 
833	 0,606050184095391 
834	 0,606037723082326 
835	 0,606258755505568 
836	 0,606186467788455 
837	 0,606164555804319 
838	 0,606386758681277 
839	 0,606933840305338 
840	 0,607150884254108 
841	 0,606143617109397 
842	 0,605813745102797 
843	 0,606378333160715 
844	 0,606843633363454 
845	 0,606983123050296 
846	 0,606737345388307 
847	 0,606848325228795 
848	 0,6071418384813 
849	 0,607250938702355 
850	 0,606871207920146 
851	 0,606375180619341 
852	 0,607306543362298 
853	 0,607897455834596 
854	 0,607343226696734 
855	 0,607320366520542 
856	 0,607609860800328 
857	 0,60765930932723 
858	 0,607307853394556 
859	 0,606804174833341 
860	 0,607069823044471 
861	 0,607480803063844 
862	 0,607648094859983 
863	 0,607373873128664 
864	 0,606987669905173 
865	 0,606943936110572 
866	 0,606974748550855 
867	 0,607116018499493 
868	 0,607717938698129 
869	 0,608023615036211 
870	 0,607744376019447 
871	 0,607575062998186 
872	 0,607653585997049 
873	 0,6080457688323 
874	 0,608502187262145 
875	 0,608758157362429 
876	 0,608242518968006 
877	 0,607917879630895 
878	 0,608143290117947 
879	 0,608361805768146 
880	 0,608277679618685 
881	 0,60768673539712 
882	 0,607825065737965 
883	 0,608494141139517 
884	 0,608536754403634 
885	 0,608222843026098 
886	 0,607774968264428 
887	 0,6078740801986 
888	 0,608288920018015 
889	 0,60871943990313 
890	 0,608785458580603 
891	 0,608614589533348 
892	 0,60869266565124 
893	 0,608509839562451 
894	 0,608083895828257 
895	 0,608242170709606 
896	 0,608230482192393 
897	 0,607624496110948 
898	 0,608531614257303 
899	 0,609812466712397 
900	 0,608887037448312 
901	 0,608318161326623 
902	 0,608536645167919 
903	 0,608140218616347 
904	 0,608122359614197 
905	 0,608933543060553 
906	 0,609080485712452 
907	 0,608842038022814 
908	 0,608883111502815 
909	 0,608488872813886 
910	 0,607905084487294 
911	 0,608338473658753 
912	 0,609065414678856 
913	 0,609622916278103 
914	 0,609642549251854 
915	 0,609097328950143 
916	 0,608107927196045 
917	 0,608475931963873 
918	 0,6094837348185 
919	 0,608216637729465 
920	 0,607714298718569 
921	 0,608619564468213 
922	 0,608665240908703 
923	 0,608441102370577 
924	 0,608476723672602 
925	 0,608260541001465 
926	 0,607666364767387 
927	 0,606592416287454 
928	 0,605673752234882 
929	 0,605243682729599 
930	 0,605733070664661 
931	 0,605856495547347 
932	 0,605041496597337 
933	 0,605104082556361 
934	 0,605348898863954 
935	 0,604661465118881 
936	 0,603985019135843 
937	 0,603527057370068 
938	 0,603252877548032 
939	 0,603059832707556 
940	 0,602793021200634 
941	 0,60205390023013 
942	 0,60101037299654 
943	 0,599886770122014 
944	 0,599021988582793 
945	 0,598713284466586 
946	 0,599402800976078 
947	 0,599273025767679 
948	 0,597961474872059 
949	 0,596207602419703 
950	 0,595455384935212 
951	 0,596123946090398 
952	 0,595122902722247 
953	 0,593050932893022 
954	 0,591113783067654 
955	 0,59030297907121 
956	 0,590478393613475 
957	 0,59078305768266 
958	 0,589851082032464 
959	 0,587809790064974 
960	 0,587757794484029 
961	 0,588338527988017 
962	 0,588374034720311 
963	 0,587857804795869 
964	 0,587376541271721 
965	 0,587837716702414 
966	 0,586271406203073 
967	 0,583499093337763 
968	 0,584111385431464 
969	 0,586405188289946 
970	 0,588953497518323 
971	 0,588563584844215 
972	 0,586987797473603 
973	 0,586232106948131 
974	 0,58758596767788 
975	 0,589189031893633 
976	 0,587311423849885 
977	 0,586377078492488 
978	 0,586883437848443 
979	 0,586065856863555 
980	 0,58509622118286 
981	 0,584710225519278 
982	 0,585345672585305 
983	 0,587108685140327 
984	 0,589733356535537 
985	 0,58945144339033 
986	 0,587312526286708 
987	 0,586739391097068 
988	 0,587175876161305 
989	 0,588456516532428 
990	 0,590433915356175 
991	 0,591259788806304 
992	 0,590302812815717 
993	 0,590349210336701 
994	 0,590791449894209 
995	 0,590833746205981 
996	 0,591770205705098 
997	 0,593602237385883 
998	 0,595979739256777 
999	 0,596320087302957 
1000	 0,594601955640353 
1001	 0,593604284088891 
1002	 0,593571865985006 
1003	 0,594434859346362 
1004	 0,594581426349246 
1005	 0,594946092722637 
1006	 0,596396934176933 
1007	 0,596629815090965 
1008	 0,596949418427613 
1009	 0,600393642665913 
1010	 0,599473707903328 
1011	 0,595178386104393 
1012	 0,59746118922881 
1013	 0,600261313480265 
1014	 0,600951522636767 
1015	 0,60013182439698 
1016	 0,60113629439454 
1017	 0,605746550971375 
1018	 0,60407447869466 
1019	 0,600244229662904 
1020	 0,602393311308598 
1021	 0,607046677340385 
1022	 0,611227491970207 
1023	 0,609310354053125 
1024	 0,605174382308797 
1025	 0,601724579977796 
1026	 0,604568399620268 
1027	 0,607529732479519 
1028	 0,606480829224112 
1029	 0,6031177370297 
1030	 0,603297080950053 
1031	 0,612433733204211 
1032	 0,614352844222581 
1033	 0,609927271220778 
1034	 0,607393942933574 
1035	 0,610335318299517 
1036	 0,616398724293538 
1037	 0,61203036854925 
1038	 0,608939119829684 
1039	 0,611584172139807 
1040	 0,61281605746651 
1041	 0,615704792054102 
1042	 0,621744133708142 
1043	 0,620482398789681 
1044	 0,615443707834419 
1045	 0,613476440385745 
1046	 0,611935030216801 
1047	 0,610528607919597 
1048	 0,60924479867185 
1049	 0,612240956428402 
1050	 0,618232693352084 
1051	 0,618403364315714 
1052	 0,615225645023453 
1053	 0,611243490261842 
1054	 0,612245791822026 
1055	 0,616006166680268 
1056	 0,619624756066343 
1057	 0,618156502063531 
1058	 0,620036102380916 
1059	 0,636260848284322 
1060	 0,628609399332133 
1061	 0,606823903137777 
1062	 0,612433569967304 
1063	 0,622902751672916 
1064	 0,62885452521078 
1065	 0,620719579759727 
1066	 0,61577913856517 
1067	 0,618814413884261 
1068	 0,609891944306074 
1069	 0,598607409375386 
1070	 0,593606151839805 
1071	 0,598131216855763 
1072	 0,607140326835894 
1073	 0,612932513318496 
1074	 0,618009864583936 
1075	 0,620890672782875 
