Wavelength	AULNE200152.asd
325	 0,393137382674277 
326	 0,336667582960568 
327	 0,313330618339781 
328	 0,344205926598056 
329	 0,278551324779417 
330	 0,206257750937815 
331	 0,228155515207357 
332	 0,15780276211188 
333	 0,089379017464398 
334	 0,339927629339436 
335	 0,35066902662547 
336	 0,101652039941379 
337	 0,131744506613793 
338	 0,207563716366596 
339	 9,14364357914424E-02 
340	 9,22310140469031E-02 
341	 0,165956920690629 
342	 0,123631212979655 
343	 6,42355383131519E-02 
344	 0,026496440267131 
345	 0,10669973147557 
346	 0,164847401789515 
347	 0,110786583755587 
348	 9,94263789949282E-02 
349	 0,126913468657921 
350	 0,110770086682775 
351	 8,75228188232483E-02 
352	 7,30425177516968E-02 
353	 7,79155190675964E-02 
354	 9,25976304029335E-02 
355	 0,10618058631217 
356	 0,116890159309012 
357	 0,122235704475935 
358	 0,118803174656518 
359	 0,105964783850215 
360	 0,083926033025665 
361	 6,01295145712645E-02 
362	 5,15893228759959E-02 
363	 7,49971537156209E-02 
364	 8,66896437820339E-02 
365	 7,81591433026013E-02 
366	 6,55072166249141E-02 
367	 6,08038273215993E-02 
368	 6,80125968650761E-02 
369	 0,063134752134374 
370	 5,34942565327231E-02 
371	 6,03073589147078E-02 
372	 4,96597008692828E-02 
373	 2,69128564591766E-02 
374	 5,81282695374069E-02 
375	 7,50999850548184E-02 
376	 3,35589968203008E-02 
377	 0,040797888121937 
378	 7,42675363015577E-02 
379	 4,96453593867491E-02 
380	 4,63529741201942E-02 
381	 7,64935653959964E-02 
382	 6,93965064564357E-02 
383	 5,59020258927991E-02 
384	 6,75529369440306E-02 
385	 0,073338813186002 
386	 7,00370145750959E-02 
387	 6,10101343299043E-02 
388	 5,81899489996734E-02 
389	 6,56969715159254E-02 
390	 7,02669065650001E-02 
391	 6,92340226086935E-02 
392	 6,14862442936726E-02 
393	 5,85065447999268E-02 
394	 6,11242754000148E-02 
395	 6,54540622382578E-02 
396	 6,40391579651695E-02 
397	 5,45975426693714E-02 
398	 4,95026757677455E-02 
399	 4,95552932101669E-02 
400	 5,36917245087242E-02 
401	 5,46935132951759E-02 
402	 5,12378335166646E-02 
403	 4,55676404911603E-02 
404	 4,46535173599503E-02 
405	 5,19365271325661E-02 
406	 5,33120549079368E-02 
407	 5,00145794496245E-02 
408	 4,81568746853574E-02 
409	 5,13236413249352E-02 
410	 5,74455716779265E-02 
411	 5,14162316326049E-02 
412	 4,43298131010706E-02 
413	 0,046971092690062 
414	 5,10056043826198E-02 
415	 5,37725287112465E-02 
416	 5,25230422418737E-02 
417	 5,19134948968128E-02 
418	 5,31683230405125E-02 
419	 5,00521220443179E-02 
420	 4,80621946273562E-02 
421	 5,45635200644905E-02 
422	 5,64366360088175E-02 
423	 5,31278820521276E-02 
424	 5,27990350486229E-02 
425	 5,43091324795856E-02 
426	 5,62261284168881E-02 
427	 5,23475716046933E-02 
428	 4,67174637941857E-02 
429	 0,048069923799781 
430	 4,85672973661847E-02 
431	 4,67098488048505E-02 
432	 4,60063487306897E-02 
433	 4,70240776199704E-02 
434	 4,99983316967894E-02 
435	 5,38034615172576E-02 
436	 5,58415144630051E-02 
437	 4,99490497124782E-02 
438	 4,56681854182981E-02 
439	 4,69526835352731E-02 
440	 5,11129607337094E-02 
441	 5,32618151323724E-02 
442	 4,79193097604479E-02 
443	 0,044865562022925 
444	 0,045900933578088 
445	 0,048222779915863 
446	 4,96587583430693E-02 
447	 4,88969630885732E-02 
448	 4,75735423572409E-02 
449	 0,047527987523628 
450	 5,21227643376216E-02 
451	 5,22136929678692E-02 
452	 0,047175084794606 
453	 4,78826544543921E-02 
454	 5,02840973740083E-02 
455	 5,01757119396419E-02 
456	 4,90526107257567E-02 
457	 4,78188241527984E-02 
458	 0,047401983166265 
459	 0,051177133309722 
460	 5,85292650958919E-02 
461	 5,70628377792134E-02 
462	 5,20101156478808E-02 
463	 5,18516035739253E-02 
464	 0,052854577167227 
465	 0,053774311972222 
466	 5,32920492522233E-02 
467	 5,26316512843518E-02 
468	 5,24044198047361E-02 
469	 4,98006152026436E-02 
470	 4,73959477612618E-02 
471	 5,11176982234794E-02 
472	 5,42896742738731E-02 
473	 5,47106059783972E-02 
474	 5,33416998311243E-02 
475	 5,16505307665225E-02 
476	 5,10207240329987E-02 
477	 4,94598690509096E-02 
478	 0,047937376567748 
479	 5,03485183757807E-02 
480	 5,19345460991834E-02 
481	 5,07261584956347E-02 
482	 4,98333331190456E-02 
483	 4,95277336097378E-02 
484	 4,96395190790124E-02 
485	 5,00628181334837E-02 
486	 5,07368729742298E-02 
487	 5,21157395561935E-02 
488	 5,15177078818649E-02 
489	 4,75674344805854E-02 
490	 4,82358534778624E-02 
491	 5,15215544172553E-02 
492	 0,049628688311917 
493	 4,85398225647662E-02 
494	 0,049772323557509 
495	 5,02570308302741E-02 
496	 4,96254564320862E-02 
497	 4,77839208944286E-02 
498	 0,048908746326098 
499	 5,18617595980297E-02 
500	 5,00163248268442E-02 
501	 4,84670515450197E-02 
502	 4,97879647909388E-02 
503	 4,97208276424605E-02 
504	 4,91476452005012E-02 
505	 5,05987093181918E-02 
506	 5,12051857643327E-02 
507	 5,06339959506492E-02 
508	 5,14195020085811E-02 
509	 0,052095338225877 
510	 5,13519987827537E-02 
511	 5,12436134704176E-02 
512	 0,051929364448592 
513	 5,27960124089387E-02 
514	 5,35899932881497E-02 
515	 5,40836417152319E-02 
516	 0,053802182445982 
517	 5,36672646954938E-02 
518	 5,50140137106093E-02 
519	 5,56362022101569E-02 
520	 5,52483642676562E-02 
521	 0,055052927624292 
522	 5,49305647931724E-02 
523	 5,47845256984284E-02 
524	 5,45390518619776E-02 
525	 5,43534523938174E-02 
526	 5,46703484154554E-02 
527	 5,46958806649989E-02 
528	 5,42829233263455E-02 
529	 0,054349516143359 
530	 5,43014098179623E-02 
531	 5,34111737620727E-02 
532	 5,33663724671963E-02 
533	 5,42469529117466E-02 
534	 5,52677146100282E-02 
535	 5,50258355677671E-02 
536	 5,31179249845814E-02 
537	 5,37802116755599E-02 
538	 5,55015199734373E-02 
539	 5,44002814484259E-02 
540	 5,36102919985737E-02 
541	 5,38307297989981E-02 
542	 5,36642502083751E-02 
543	 5,32934145035284E-02 
544	 5,30127064139935E-02 
545	 5,40948876873332E-02 
546	 5,59265678859956E-02 
547	 5,62940172129085E-02 
548	 5,59248270382602E-02 
549	 5,53025851295443E-02 
550	 0,055347672121523 
551	 5,57126772674554E-02 
552	 5,56650039647192E-02 
553	 5,57477027364562E-02 
554	 0,055889091517222 
555	 5,51903465456026E-02 
556	 5,46830540981161E-02 
557	 5,51268554678773E-02 
558	 5,45935850495362E-02 
559	 5,34510842901177E-02 
560	 5,35414382946626E-02 
561	 5,33615937300623E-02 
562	 5,25138148363266E-02 
563	 5,22800829743173E-02 
564	 5,25381162078918E-02 
565	 5,29621844706675E-02 
566	 5,38831513151346E-02 
567	 5,48923404543575E-02 
568	 5,43493223047412E-02 
569	 5,40008585627584E-02 
570	 5,49722794651763E-02 
571	 5,54266814139742E-02 
572	 0,055481575564181 
573	 5,59704808055873E-02 
574	 5,68245536246721E-02 
575	 5,79248290535161E-02 
576	 5,86247849407723E-02 
577	 5,92553358070446E-02 
578	 6,02550389339024E-02 
579	 6,23587583936522E-02 
580	 6,47848297787938E-02 
581	 6,46961042794293E-02 
582	 6,41814875909466E-02 
583	 6,45340871033147E-02 
584	 0,065602988510633 
585	 6,70324651145347E-02 
586	 6,82758912399285E-02 
587	 6,89400900964286E-02 
588	 6,91220940529193E-02 
589	 6,99606409034283E-02 
590	 7,07666831204047E-02 
591	 7,09024627100949E-02 
592	 7,16285423521446E-02 
593	 7,23771078445798E-02 
594	 7,06429109185125E-02 
595	 7,02104083983314E-02 
596	 7,23842391144408E-02 
597	 7,30059389762611E-02 
598	 7,23797570265511E-02 
599	 0,071638172639433 
600	 7,13051762801056E-02 
601	 7,14356109798799E-02 
602	 7,14079212104329E-02 
603	 7,09739854022596E-02 
604	 7,00367447374873E-02 
605	 6,97063416255257E-02 
606	 0,069913508573194 
607	 7,01795710937657E-02 
608	 6,94234063452091E-02 
609	 6,76389633082681E-02 
610	 6,75765774355432E-02 
611	 6,81036814568231E-02 
612	 6,75416856824622E-02 
613	 6,69613421104449E-02 
614	 6,65053802669512E-02 
615	 6,57716007295921E-02 
616	 6,52292479482054E-02 
617	 6,51339711774827E-02 
618	 6,48047101223697E-02 
619	 6,44869335435091E-02 
620	 6,49431338827407E-02 
621	 0,064809144853853 
622	 6,39747611911893E-02 
623	 6,42902547748968E-02 
624	 6,47361826932375E-02 
625	 6,42095435056737E-02 
626	 0,064323725849884 
627	 0,06501852288239 
628	 6,51761946584133E-02 
629	 6,49622021686453E-02 
630	 0,064586476904582 
631	 6,50132384577197E-02 
632	 6,58415818156782E-02 
633	 6,61920904733795E-02 
634	 6,72881500245281E-02 
635	 6,89671468058346E-02 
636	 6,91645244086003E-02 
637	 6,91865264230835E-02 
638	 7,01191708125339E-02 
639	 7,03816347851206E-02 
640	 7,02622555595316E-02 
641	 7,11810376117236E-02 
642	 7,21516704797539E-02 
643	 7,28023427523161E-02 
644	 7,34007414605743E-02 
645	 7,40453024800309E-02 
646	 7,48463304936362E-02 
647	 7,49864844501546E-02 
648	 7,44275899455394E-02 
649	 7,37817479083295E-02 
650	 7,32952095915374E-02 
651	 7,30454062996378E-02 
652	 7,20011239937752E-02 
653	 7,06056557245617E-02 
654	 7,00906139464806E-02 
655	 6,94190432260836E-02 
656	 6,82850157555532E-02 
657	 6,70215939656503E-02 
658	 0,065602126559106 
659	 6,39918588159754E-02 
660	 6,24326587813713E-02 
661	 6,09843287295161E-02 
662	 5,95855546095667E-02 
663	 5,83604981363513E-02 
664	 5,74052325960723E-02 
665	 5,69561515786592E-02 
666	 5,64837067868584E-02 
667	 5,51055916998803E-02 
668	 5,45397843501842E-02 
669	 5,48128115321831E-02 
670	 5,38879139941914E-02 
671	 5,31736064024841E-02 
672	 5,37299166306807E-02 
673	 5,37311851994707E-02 
674	 5,32481679090018E-02 
675	 0,053192669534237 
676	 5,33717340955391E-02 
677	 5,36849549302885E-02 
678	 5,39074197621444E-02 
679	 5,38046909130044E-02 
680	 5,31518441701706E-02 
681	 5,37310502135314E-02 
682	 5,52169284777776E-02 
683	 0,05507372634869 
684	 5,51830852995465E-02 
685	 5,65743584314188E-02 
686	 5,79936064120631E-02 
687	 5,92453649357118E-02 
688	 6,02158721234651E-02 
689	 6,20757228653023E-02 
690	 6,50539640902879E-02 
691	 6,82148312736305E-02 
692	 0,071834435074635 
693	 7,62051188314876E-02 
694	 8,12308385670441E-02 
695	 8,71506857991197E-02 
696	 9,46650918062675E-02 
697	 0,10249860294533 
698	 0,110404548164227 
699	 0,120365541296718 
700	 0,131409923704177 
701	 0,142078465877556 
702	 0,153316723359392 
703	 0,165165335667607 
704	 0,177184405426056 
705	 0,189297081828073 
706	 0,201377619881049 
707	 0,213015847884834 
708	 0,224421061451719 
709	 0,236091950084989 
710	 0,247572148041154 
711	 0,258616914672466 
712	 0,268942668613086 
713	 0,278665360693484 
714	 0,287895836533003 
715	 0,297035253945304 
716	 0,305945953128532 
717	 0,313984866369568 
718	 0,321548620677822 
719	 0,328751232166894 
720	 0,335364107863976 
721	 0,341302159098879 
722	 0,346496519738103 
723	 0,351764793755895 
724	 0,357044787670598 
725	 0,361368348339223 
726	 0,365218913413637 
727	 0,36889639628651 
728	 0,372163011257932 
729	 0,375120029399566 
730	 0,378009785303658 
731	 0,380364063056979 
732	 0,382254926444605 
733	 0,38455343613092 
734	 0,386945498017601 
735	 0,389097440082334 
736	 0,390722607939712 
737	 0,391991599785639 
738	 0,393436004069571 
739	 0,394948169528619 
740	 0,396460502165868 
741	 0,397773387917555 
742	 0,39880888696706 
743	 0,399508804920365 
744	 0,400198497504051 
745	 0,400994708204637 
746	 0,401952078898412 
747	 0,402915733146215 
748	 0,403768552782329 
749	 0,404402396682776 
750	 0,404920460701747 
751	 0,405507092390123 
752	 0,405857520830432 
753	 0,406114100081912 
754	 0,407146914477249 
755	 0,407986641465152 
756	 0,408001777703916 
757	 0,408388420213612 
758	 0,409041863117705 
759	 0,409357600737133 
760	 0,409675604577578 
761	 0,410083645088636 
762	 0,410502144723886 
763	 0,410864280642206 
764	 0,411123467450275 
765	 0,411514393728597 
766	 0,411966655621066 
767	 0,412204990657657 
768	 0,412257461535794 
769	 0,412215732041358 
770	 0,412528814197156 
771	 0,412947361976981 
772	 0,413139370923555 
773	 0,413456893464715 
774	 0,4139322109931 
775	 0,41445037490242 
776	 0,414860756272595 
777	 0,415096245171018 
778	 0,415398086128776 
779	 0,415547964232789 
780	 0,415177480573173 
781	 0,415434572049044 
782	 0,416313293949175 
783	 0,416673568587508 
784	 0,416619191298 
785	 0,416330797243858 
786	 0,416779752759599 
787	 0,417416138872998 
788	 0,416989885961393 
789	 0,416798214000241 
790	 0,417110102478899 
791	 0,417304278261404 
792	 0,417419010754268 
793	 0,417508214666287 
794	 0,417706784928581 
795	 0,418001832658788 
796	 0,418335782070635 
797	 0,418529491078908 
798	 0,418503392967878 
799	 0,418212009130206 
800	 0,418077154379573 
801	 0,418449937406996 
802	 0,418507781896816 
803	 0,41835831985007 
804	 0,418680477724947 
805	 0,419061984491065 
806	 0,419365033024163 
807	 0,419661386846708 
808	 0,420070484387903 
809	 0,420688423115988 
810	 0,420895105263557 
811	 0,420769446760052 
812	 0,420898469548585 
813	 0,421093699586889 
814	 0,421269237611463 
815	 0,421259379508017 
816	 0,421449415652797 
817	 0,422279779294797 
818	 0,422793876359441 
819	 0,422817298466387 
820	 0,422508211575302 
821	 0,422421911521029 
822	 0,422811805213072 
823	 0,423292243765535 
824	 0,423541634288871 
825	 0,42322377732736 
826	 0,423377034944481 
827	 0,423977124286083 
828	 0,424054096606375 
829	 0,424280969185611 
830	 0,424885723324036 
831	 0,42504735962644 
832	 0,424788508762592 
833	 0,424273323353624 
834	 0,424261102096204 
835	 0,42468557629667 
836	 0,424575109704109 
837	 0,424584577170654 
838	 0,425012589923581 
839	 0,425344926910607 
840	 0,42555026558474 
841	 0,425671878658885 
842	 0,425943891028804 
843	 0,426261274047901 
844	 0,426043099045299 
845	 0,425892470461621 
846	 0,426143950290657 
847	 0,426596177796246 
848	 0,426930652559888 
849	 0,426750820523611 
850	 0,426549778183716 
851	 0,426538752874995 
852	 0,427001848822537 
853	 0,427106335174712 
854	 0,426543517747758 
855	 0,426567146078958 
856	 0,427003798658432 
857	 0,427414247785769 
858	 0,427287127322716 
859	 0,426804035704293 
860	 0,426964740185056 
861	 0,42740109357289 
862	 0,427869504386932 
863	 0,428226909808448 
864	 0,428004890730842 
865	 0,426689013083351 
866	 0,426773387767774 
867	 0,428129961460444 
868	 0,428430515365491 
869	 0,428621684930509 
870	 0,429031681651244 
871	 0,429047511884222 
872	 0,428913538815526 
873	 0,428971224155793 
874	 0,428755776436721 
875	 0,428417316387462 
876	 0,428648256031027 
877	 0,428905275726906 
878	 0,428977963493369 
879	 0,42911761451627 
880	 0,429139356062364 
881	 0,428873864256728 
882	 0,429184576096043 
883	 0,429909799489625 
884	 0,430210486042239 
885	 0,430160278530815 
886	 0,429902487673929 
887	 0,430065668276772 
888	 0,430678202500487 
889	 0,431591259771202 
890	 0,431087923594867 
891	 0,429845653832208 
892	 0,430002174375896 
893	 0,430374697007211 
894	 0,430684886684841 
895	 0,431451924995332 
896	 0,431786243107347 
897	 0,431085022763374 
898	 0,43049047676608 
899	 0,430441259559561 
900	 0,431386175144464 
901	 0,43149511579206 
902	 0,430698150811924 
903	 0,43087420164153 
904	 0,431551224730745 
905	 0,432261364332331 
906	 0,432010110320983 
907	 0,431303300380228 
908	 0,431045553486594 
909	 0,431537626589101 
910	 0,432300573706738 
911	 0,431490263979878 
912	 0,431053414539111 
913	 0,431681425817626 
914	 0,431481241878523 
915	 0,431217215958003 
916	 0,431824127651523 
917	 0,431389696038386 
918	 0,430393906302307 
919	 0,431001619904818 
920	 0,431867819002331 
921	 0,432288476800595 
922	 0,431301686280126 
923	 0,43031243433934 
924	 0,430461459022198 
925	 0,430473010246473 
926	 0,43019860525709 
927	 0,42974702598008 
928	 0,429197257661023 
929	 0,428676034560569 
930	 0,428575851590948 
931	 0,428048676872985 
932	 0,426762077875313 
933	 0,426026860444414 
934	 0,425837760273363 
935	 0,425954729690457 
936	 0,425548255440859 
937	 0,424603149933444 
938	 0,423757614784757 
939	 0,422491867259442 
940	 0,42102508710349 
941	 0,421326265607684 
942	 0,421747698661274 
943	 0,420724477590534 
944	 0,41873648478045 
945	 0,416651878645145 
946	 0,415878283364534 
947	 0,415572043411448 
948	 0,415010566068611 
949	 0,412434298093428 
950	 0,410630196026751 
951	 0,410866947740489 
952	 0,410148365681253 
953	 0,408531716207131 
954	 0,406517867459135 
955	 0,404559380733407 
956	 0,402876439806432 
957	 0,401507840351769 
958	 0,401045451113381 
959	 0,401196681421656 
960	 0,399705999279545 
961	 0,398209969316614 
962	 0,397948977426709 
963	 0,397757018481314 
964	 0,397509465869361 
965	 0,397261950889265 
966	 0,39688788029737 
967	 0,396268294736745 
968	 0,394827247088977 
969	 0,395295840075852 
970	 0,397987692910718 
971	 0,398081878250918 
972	 0,396203123688796 
973	 0,393653744823294 
974	 0,3945159706133 
975	 0,396888896786147 
976	 0,396076517258644 
977	 0,39548549284094 
978	 0,395833005525859 
979	 0,39650489488495 
980	 0,396294489421842 
981	 0,394986912304429 
982	 0,395236360039065 
983	 0,395851282669725 
984	 0,395488658325179 
985	 0,395651294665335 
986	 0,396271677142703 
987	 0,396767884102579 
988	 0,396009978889245 
989	 0,394839445242806 
990	 0,397535570178836 
991	 0,399703891021255 
992	 0,399368941993178 
993	 0,400015446151914 
994	 0,401027901858469 
995	 0,401556045220815 
996	 0,402965979869459 
997	 0,404850291631459 
998	 0,406023070474647 
999	 0,405989906202755 
1000	 0,405166420224183 
1001	 0,405577878861852 
1002	 0,406017099883748 
1003	 0,406255588108845 
1004	 0,408753669370808 
1005	 0,410426864411553 
1006	 0,408466671139287 
1007	 0,407488801939113 
1008	 0,408235620167656 
1009	 0,410505708416999 
1010	 0,411687946851108 
1011	 0,411805439727944 
1012	 0,413888166038456 
1013	 0,41494614179574 
1014	 0,414138996970493 
1015	 0,414080658402897 
1016	 0,415661190053513 
1017	 0,419074167514163 
1018	 0,420824513469789 
1019	 0,420272992797795 
1020	 0,417522258991965 
1021	 0,417588777619421 
1022	 0,420133653674382 
1023	 0,420434797481064 
1024	 0,420271089223974 
1025	 0,420406706689561 
1026	 0,421805501453994 
1027	 0,423162337092075 
1028	 0,423541784315568 
1029	 0,422762565290932 
1030	 0,422925660898407 
1031	 0,426075351247891 
1032	 0,425962452877139 
1033	 0,424469259123247 
1034	 0,427821354694507 
1035	 0,430333363159727 
1036	 0,430348470161488 
1037	 0,427830623810155 
1038	 0,426604997958472 
1039	 0,427999110527242 
1040	 0,428229467251181 
1041	 0,429202686541984 
1042	 0,432260099401646 
1043	 0,434416507706242 
1044	 0,434059700116209 
1045	 0,43022539676525 
1046	 0,436431294808149 
1047	 0,446079238825594 
1048	 0,436316862339844 
1049	 0,431226908233483 
1050	 0,435269095898102 
1051	 0,434659290529679 
1052	 0,433728972007156 
1053	 0,434054497048708 
1054	 0,433056289373727 
1055	 0,429164532643504 
1056	 0,423271808154635 
1057	 0,43335090003259 
1058	 0,447594924239646 
1059	 0,447182700468707 
1060	 0,443297797320121 
1061	 0,439755630362409 
1062	 0,439317476234277 
1063	 0,444876574273809 
1064	 0,451650627130947 
1065	 0,438218784648825 
1066	 0,434991079418426 
1067	 0,448899867594078 
1068	 0,438984267685117 
1069	 0,429784471834934 
1070	 0,437799789482239 
1071	 0,433273331406596 
1072	 0,427832277935087 
1073	 0,438619897882433 
1074	 0,440508944061853 
1075	 0,436307985527846 
