Wavelength	AULNE200019.asd
325	 4,52950448401272E-02 
326	 0,289007426524209 
327	 0,354795357361026 
328	 0,155817951718045 
329	 0,113258569951483 
330	 0,132290374843697 
331	 9,24862018192822E-02 
332	 7,07702612477807E-02 
333	 7,03841568221174E-02 
334	 9,89892113014716E-02 
335	 0,086321700472052 
336	 4,42918193960967E-02 
337	 0,117471208952386 
338	 0,169244496816523 
339	 6,45241234374535E-02 
340	-1,61363086962078E-03 
341	-5,90089033195318E-03 
342	 1,79114087046098E-02 
343	 2,91869397640926E-02 
344	 1,51278798908576E-02 
345	-9,15893641792166E-03 
346	 3,37256337437304E-03 
347	 7,96969070553874E-02 
348	 8,28878093469655E-02 
349	 3,10227762946476E-02 
350	 3,40938677513109E-02 
351	 4,76268014698963E-02 
352	 0,052735567654666 
353	 3,13535532540151E-02 
354	 2,30222422475183E-02 
355	 6,76919748056839E-02 
356	 6,06731892610065E-02 
357	 1,33272728218574E-02 
358	 3,12194472293946E-02 
359	 3,98211801094687E-02 
360	 1,24320890290922E-02 
361	 3,06654747622804E-02 
362	 6,18373222535003E-02 
363	 5,59698781790286E-02 
364	 3,15391160587797E-02 
365	 2,37916388123911E-03 
366	 3,26429451998405E-03 
367	 2,21025985832217E-02 
368	 4,52480803192093E-02 
369	 4,10390585044784E-02 
370	 1,93952107251973E-02 
371	 6,64432606814455E-03 
372	 5,83887771366929E-03 
373	 1,86045976868328E-02 
374	 4,89134722831302E-02 
375	 5,41879173128742E-02 
376	 9,18053676558809E-03 
377	 2,9427955574779E-03 
378	 0,026066617463343 
379	 2,54331443820375E-02 
380	 2,45497029892311E-02 
381	 2,84277428236333E-02 
382	 2,84957167530632E-02 
383	 3,34757126858751E-02 
384	 5,02800564298716E-02 
385	 5,87472858048392E-02 
386	 5,25022261321628E-02 
387	 1,97061443251138E-02 
388	 4,49539824639271E-03 
389	 2,14271593371354E-02 
390	 1,66642372760801E-02 
391	 9,51056543993708E-03 
392	 2,69532787225545E-02 
393	 3,14741423051844E-02 
394	 0,023336862562042 
395	 2,65959560165797E-02 
396	 2,99021076725112E-02 
397	 2,76437161385034E-02 
398	 2,19378432232523E-02 
399	 1,89133256824638E-02 
400	 2,74610950102588E-02 
401	 0,027983706126072 
402	 1,98492431638056E-02 
403	 1,97886868454484E-02 
404	 2,12143520260361E-02 
405	 2,01418500140048E-02 
406	 2,63153253931936E-02 
407	 3,43429362261195E-02 
408	 3,18935891205734E-02 
409	 2,71700282095308E-02 
410	 2,33137354709002E-02 
411	 2,11260175468498E-02 
412	 2,27955724913809E-02 
413	 2,94590743805586E-02 
414	 2,74745625036759E-02 
415	 2,01147427426302E-02 
416	 0,021569208229507 
417	 2,33473568226478E-02 
418	 2,23911240968137E-02 
419	 2,23413933165007E-02 
420	 2,27757731465284E-02 
421	 2,27251920680441E-02 
422	 2,65134742094171E-02 
423	 3,18925077886904E-02 
424	 2,80175552455031E-02 
425	 2,53234706751606E-02 
426	 2,88664301683464E-02 
427	 2,39058098176236E-02 
428	 1,72369057968663E-02 
429	 2,49976307156045E-02 
430	 2,62597718893269E-02 
431	 1,89426030605529E-02 
432	 2,15793706380747E-02 
433	 2,79871824187872E-02 
434	 3,16756173832826E-02 
435	 2,98372889246518E-02 
436	 2,44918134056833E-02 
437	 2,14707656829126E-02 
438	 2,11769603660591E-02 
439	 2,34108835439775E-02 
440	 2,42705360960767E-02 
441	 2,45331309501644E-02 
442	 2,57018730659576E-02 
443	 2,46079752064227E-02 
444	 2,25713075504178E-02 
445	 2,64424156650639E-02 
446	 3,03331058388954E-02 
447	 3,03670178613187E-02 
448	 2,71567669188148E-02 
449	 2,38451833287558E-02 
450	 2,62011554886021E-02 
451	 2,74906944687514E-02 
452	 2,63079701806684E-02 
453	 2,63732180947342E-02 
454	 2,70943624824748E-02 
455	 2,77302893802754E-02 
456	 2,78342151812708E-02 
457	 0,027202373363502 
458	 0,024952984518311 
459	 2,59353677588939E-02 
460	 3,09140792283469E-02 
461	 3,06302442585445E-02 
462	 2,82021404327323E-02 
463	 0,02892539182437 
464	 0,030049924345745 
465	 0,030495974424093 
466	 2,87166775844649E-02 
467	 2,74371458164282E-02 
468	 2,82058161055852E-02 
469	 2,71653973514216E-02 
470	 2,56706111393534E-02 
471	 2,75928098006914E-02 
472	 2,89530419670798E-02 
473	 2,87397229982689E-02 
474	 2,87789800672317E-02 
475	 2,84943796637993E-02 
476	 0,027304947053156 
477	 2,66179016536529E-02 
478	 2,70621252046845E-02 
479	 0,030076620044127 
480	 3,01184959040588E-02 
481	 2,56829953582912E-02 
482	 2,58387390476771E-02 
483	 2,88097873964614E-02 
484	 0,030615095354165 
485	 2,88772338915356E-02 
486	 2,48564964775581E-02 
487	 2,60345765822208E-02 
488	 2,83967896051665E-02 
489	 2,88504656341525E-02 
490	 2,93826757569146E-02 
491	 2,98187423497196E-02 
492	 2,88997047781112E-02 
493	 2,91383912651709E-02 
494	 3,10455213987305E-02 
495	 3,24271928022114E-02 
496	 3,22785385103525E-02 
497	 2,97802075837682E-02 
498	 3,04440277560476E-02 
499	 3,30312381648847E-02 
500	 2,93568857546092E-02 
501	 0,026716385734616 
502	 2,87783735950376E-02 
503	 0,02901644261114 
504	 2,87566243863593E-02 
505	 3,20437255650617E-02 
506	 3,24968611357455E-02 
507	 2,96921723101048E-02 
508	 3,05521047022843E-02 
509	 3,19250814393801E-02 
510	 3,08555345188796E-02 
511	 0,030772348639135 
512	 3,16058902586588E-02 
513	 0,031477318332002 
514	 3,15868215825585E-02 
515	 3,21942441879553E-02 
516	 3,14872208438906E-02 
517	 3,08423228921007E-02 
518	 3,23889062917312E-02 
519	 3,36621329115343E-02 
520	 3,39478490462202E-02 
521	 3,30946574671577E-02 
522	 3,28722603523505E-02 
523	 3,43284449004995E-02 
524	 3,42105519443151E-02 
525	 3,29666399895171E-02 
526	 0,032748854501807 
527	 3,25367463358636E-02 
528	 3,23485873632514E-02 
529	 3,39986325069536E-02 
530	 3,54154819083934E-02 
531	 0,034184855931283 
532	 3,29337897208456E-02 
533	 3,26852013777477E-02 
534	 0,034683261352143 
535	 3,58776609209308E-02 
536	 0,03468965847044 
537	 3,42147588141713E-02 
538	 3,45027549739037E-02 
539	 3,48722757721645E-02 
540	 0,03484509196326 
541	 3,43084467817205E-02 
542	 3,36511039689506E-02 
543	 3,32108118880198E-02 
544	 3,33134157977293E-02 
545	 3,46197684931238E-02 
546	 3,62734410224021E-02 
547	 3,56726256723256E-02 
548	 3,49518711042983E-02 
549	 3,51581591880081E-02 
550	 3,56908988002396E-02 
551	 3,62054815793998E-02 
552	 3,62632224212992E-02 
553	 3,64997360223821E-02 
554	 3,69180727568395E-02 
555	 3,67383362961733E-02 
556	 3,66535092685961E-02 
557	 3,71768142104338E-02 
558	 3,69655407936715E-02 
559	 3,64134042119584E-02 
560	 3,71806800015363E-02 
561	 3,76161541032858E-02 
562	 3,71588011036486E-02 
563	 3,67193104340146E-02 
564	 3,65490338246215E-02 
565	 3,68426284253336E-02 
566	 3,76049907842584E-02 
567	 3,85564376000039E-02 
568	 3,88296542075886E-02 
569	 3,90011481324578E-02 
570	 3,94261099318316E-02 
571	 3,93317632909103E-02 
572	 3,90928949813766E-02 
573	 3,97737862221721E-02 
574	 4,03645044233799E-02 
575	 4,05545121593705E-02 
576	 4,07222630823309E-02 
577	 0,040953949458135 
578	 4,13203445008472E-02 
579	 4,20798288960458E-02 
580	 4,28115109433015E-02 
581	 4,19518460925699E-02 
582	 0,041578863097569 
583	 0,04269320022991 
584	 4,28734347900745E-02 
585	 4,27061344350595E-02 
586	 4,38401916825505E-02 
587	 0,044411800240005 
588	 4,40935676092557E-02 
589	 4,41910464171846E-02 
590	 0,04410603661783 
591	 4,33175191883164E-02 
592	 4,35733224713061E-02 
593	 0,044459637201771 
594	 4,38004074907211E-02 
595	 4,35179637685182E-02 
596	 4,43334158395029E-02 
597	 4,47882758791407E-02 
598	 0,044707096774464 
599	 4,40610378612398E-02 
600	 4,37492960310045E-02 
601	 0,043858476860494 
602	 4,35679498539219E-02 
603	 4,31001460438065E-02 
604	 4,26851022293583E-02 
605	 4,26349448640682E-02 
606	 4,30219865094485E-02 
607	 4,40775223491757E-02 
608	 4,41516214674084E-02 
609	 0,042961218950086 
610	 4,31087303730637E-02 
611	 4,35214552559875E-02 
612	 4,26196916184155E-02 
613	 4,24849921187046E-02 
614	 4,31532429828051E-02 
615	 4,30538919001438E-02 
616	 4,26705632337599E-02 
617	 4,23329063024699E-02 
618	 4,20383771324436E-02 
619	 4,19885616553759E-02 
620	 4,26367313540178E-02 
621	 4,26224969589593E-02 
622	 4,18540034671231E-02 
623	 4,23297531941362E-02 
624	 4,29736009474855E-02 
625	 4,26129902939537E-02 
626	 4,27913338468619E-02 
627	 4,35625251901127E-02 
628	 4,42665089785673E-02 
629	 4,42190713907649E-02 
630	 0,043303570512305 
631	 4,36076835546972E-02 
632	 4,45504110075112E-02 
633	 4,47549133329897E-02 
634	 4,53771149462896E-02 
635	 4,63228909816458E-02 
636	 4,58873584733479E-02 
637	 4,54988273452613E-02 
638	 4,63393958196203E-02 
639	 4,68943611877751E-02 
640	 4,70128359116853E-02 
641	 4,70279592577469E-02 
642	 4,69962581753136E-02 
643	 4,70750153248761E-02 
644	 4,77709003748379E-02 
645	 4,88394149628427E-02 
646	 4,99142412237821E-02 
647	 5,03339630770176E-02 
648	 5,00561562646586E-02 
649	 4,95598985171282E-02 
650	 4,94395808186942E-02 
651	 4,99809886886553E-02 
652	 4,98078361560555E-02 
653	 4,91360917644213E-02 
654	 4,88375468830803E-02 
655	 4,85369506289788E-02 
656	 4,81758559568415E-02 
657	 4,79437887378189E-02 
658	 4,78274395801561E-02 
659	 4,77800285323982E-02 
660	 4,72746285583395E-02 
661	 4,63791859656642E-02 
662	 4,55309378989577E-02 
663	 4,51631530438425E-02 
664	 4,53770125489385E-02 
665	 4,51085413961841E-02 
666	 4,44404337798214E-02 
667	 4,36885699148141E-02 
668	 4,33591239328908E-02 
669	 4,34751072509707E-02 
670	 4,34256705538304E-02 
671	 0,043283984302158 
672	 4,31258209995138E-02 
673	 4,30109863410711E-02 
674	 4,29268742418166E-02 
675	 4,27810043833544E-02 
676	 4,27818282868186E-02 
677	 4,29661915006475E-02 
678	 4,30998667906395E-02 
679	 4,30765707743386E-02 
680	 0,042806225184077 
681	 4,29526803632027E-02 
682	 4,34496712067522E-02 
683	 4,35142072132352E-02 
684	 4,36534286147534E-02 
685	 4,41917395354835E-02 
686	 4,52713538710539E-02 
687	 4,62181910348533E-02 
688	 0,045775082784618 
689	 4,59237306018562E-02 
690	 4,71541739753221E-02 
691	 4,85752247036901E-02 
692	 5,00904643209097E-02 
693	 5,16448435712104E-02 
694	 5,32578010142443E-02 
695	 5,51178589815254E-02 
696	 5,76703966713926E-02 
697	 6,04506851980148E-02 
698	 6,33652926316338E-02 
699	 6,70248948179952E-02 
700	 7,11855158583709E-02 
701	 7,54680478989668E-02 
702	 7,98884048457361E-02 
703	 8,43762526103394E-02 
704	 8,87683217713788E-02 
705	 9,33865440816387E-02 
706	 9,83547651565034E-02 
707	 0,102828932273896 
708	 0,107247303462876 
709	 0,112714002941571 
710	 0,11758717055419 
711	 0,121469502507337 
712	 0,125122901336558 
713	 0,128914828109472 
714	 0,133087254235971 
715	 0,136721890669702 
716	 0,139885411530662 
717	 0,143296464127251 
718	 0,146131240259234 
719	 0,148265448484631 
720	 0,151171497835824 
721	 0,154032855121288 
722	 0,155653923986683 
723	 0,157583041939963 
724	 0,159861070377263 
725	 0,161288508320312 
726	 0,162525523153957 
727	 0,163981556150169 
728	 0,165450896998957 
729	 0,166728645833213 
730	 0,16747756936045 
731	 0,168352317191851 
732	 0,169479804225132 
733	 0,170447241850375 
734	 0,171233879366689 
735	 0,171841143228309 
736	 0,172342248643193 
737	 0,172857600900669 
738	 0,173652353262269 
739	 0,174319432518711 
740	 0,174705894048915 
741	 0,174944470448612 
742	 0,175173234536311 
743	 0,1755352583066 
744	 0,175926554702934 
745	 0,176338147064079 
746	 0,176847815034157 
747	 0,177209908807368 
748	 0,177345880965483 
749	 0,177775333396535 
750	 0,178192455375675 
751	 0,178025035801189 
752	 0,178170205930437 
753	 0,178642167083529 
754	 0,178463350789634 
755	 0,178330910278781 
756	 0,178733532629842 
757	 0,179146205734642 
758	 0,179443575561273 
759	 0,17955488615436 
760	 0,179591513530194 
761	 0,179634163116276 
762	 0,179853467425466 
763	 0,180008073446183 
764	 0,179879285779692 
765	 0,179743943815262 
766	 0,179787010914603 
767	 0,180407581252128 
768	 0,180631992700202 
769	 0,180218626470868 
770	 0,180308690095067 
771	 0,180610867406063 
772	 0,180668133166736 
773	 0,180442636343506 
774	 0,180161800583582 
775	 0,180572447927033 
776	 0,180891929644544 
777	 0,180795324452661 
778	 0,181148191044948 
779	 0,181507074923524 
780	 0,181088707174539 
781	 0,181117046241295 
782	 0,181611808460364 
783	 0,18136447230373 
784	 0,18124724133967 
785	 0,181759036153913 
786	 0,182001037280731 
787	 0,181864873315045 
788	 0,181344620022197 
789	 0,181430987432373 
790	 0,182222554251068 
791	 0,182798793525223 
792	 0,182773094950813 
793	 0,181960538170112 
794	 0,181593974542511 
795	 0,181707565019906 
796	 0,181876195451281 
797	 0,18201761971635 
798	 0,182075235410075 
799	 0,182077151057937 
800	 0,182100912978342 
801	 0,18223383210903 
802	 0,182702288667514 
803	 0,183277686180225 
804	 0,183306576567492 
805	 0,183225341125168 
806	 0,183246138629408 
807	 0,183609700721487 
808	 0,183889169655636 
809	 0,183638346893999 
810	 0,18355163802613 
811	 0,183640034694036 
812	 0,183456681763251 
813	 0,183512295263461 
814	 0,183926673558625 
815	 0,18405844230465 
816	 0,184006371298608 
817	 0,18396690499336 
818	 0,184309890266775 
819	 0,184837326756241 
820	 0,184703859001554 
821	 0,184495565840973 
822	 0,184459472875572 
823	 0,184223566762051 
824	 0,184089375719332 
825	 0,184466147041963 
826	 0,1846506581075 
827	 0,184550642241043 
828	 0,184387349393702 
829	 0,184643724196366 
830	 0,185398443988441 
831	 0,18535140333768 
832	 0,184821635743941 
833	 0,184443968527859 
834	 0,184735661691019 
835	 0,185385272487266 
836	 0,184807238294427 
837	 0,184575591454843 
838	 0,185363422842153 
839	 0,185447747582054 
840	 0,18515649772018 
841	 0,185223111696588 
842	 0,1852438948829 
843	 0,185226912372534 
844	 0,185543963383491 
845	 0,1855653227702 
846	 0,185072676585812 
847	 0,18517511928624 
848	 0,185485757914356 
849	 0,185287674459547 
850	 0,185311867986691 
851	 0,1855608166419 
852	 0,185424640977981 
853	 0,185358288368639 
854	 0,185583396731454 
855	 0,185864762869043 
856	 0,185916370384824 
857	 0,185405123705153 
858	 0,184958669131339 
859	 0,184874765820905 
860	 0,185558237879336 
861	 0,185997116931529 
862	 0,185709422028095 
863	 0,185438056527763 
864	 0,185348740960297 
865	 0,185540216394599 
866	 0,185800297181685 
867	 0,185927593040081 
868	 0,185434627122918 
869	 0,185385045433527 
870	 0,186104315561921 
871	 0,186148687757746 
872	 0,185900433230465 
873	 0,185975623489137 
874	 0,186028299047564 
875	 0,186046321365951 
876	 0,186175276799045 
877	 0,186345595573549 
878	 0,186507130771794 
879	 0,186616235367436 
880	 0,186501345404542 
881	 0,186032900369599 
882	 0,186148456550938 
883	 0,186512241066922 
884	 0,185651346978544 
885	 0,185087835570701 
886	 0,18537854490244 
887	 0,186312857844448 
888	 0,18692409260641 
889	 0,186399732199417 
890	 0,186099348310281 
891	 0,186149853187919 
892	 0,186265936623731 
893	 0,186118109964075 
894	 0,185836803078493 
895	 0,186657466399131 
896	 0,187060036486508 
897	 0,186051311963036 
898	 0,186364276090709 
899	 0,187186292147754 
900	 0,186301738374655 
901	 0,185923540619064 
902	 0,1862776479187 
903	 0,185656228173335 
904	 0,185378256109887 
905	 0,186149264834392 
906	 0,186741639293085 
907	 0,186809551330798 
908	 0,186116749830102 
909	 0,185540923505618 
910	 0,185420727128526 
911	 0,185972119177541 
912	 0,186567924014769 
913	 0,186805049659321 
914	 0,186414878876523 
915	 0,186003623113256 
916	 0,186234614028364 
917	 0,186298676407991 
918	 0,186123533248871 
919	 0,185876688745349 
920	 0,186166251906196 
921	 0,18688121125892 
922	 0,186419119068807 
923	 0,185635588858158 
924	 0,185349730549489 
925	 0,185589409364553 
926	 0,186133016014234 
927	 0,186612855821216 
928	 0,185930576723303 
929	 0,184663204437718 
930	 0,186250681501961 
931	 0,187367802986338 
932	 0,186208783526244 
933	 0,184828139548613 
934	 0,184274375381534 
935	 0,185491983572145 
936	 0,186026381535657 
937	 0,185554659999488 
938	 0,184900337188327 
939	 0,184214799228231 
940	 0,183824485323285 
941	 0,184768975608281 
942	 0,185328211360098 
943	 0,184079023248366 
944	 0,183038656613704 
945	 0,18267072194216 
946	 0,183168939810006 
947	 0,183430204734474 
948	 0,182904013001657 
949	 0,18087686687045 
950	 0,179707027153445 
951	 0,180515096823035 
952	 0,181028599842092 
953	 0,180586243212922 
954	 0,178791083523842 
955	 0,17720566777623 
956	 0,176679459522035 
957	 0,178490770152336 
958	 0,179264144464977 
959	 0,178106986616966 
960	 0,177276206982881 
961	 0,176433775697177 
962	 0,175503114167153 
963	 0,176349974688743 
964	 0,177877969222768 
965	 0,178072860909987 
966	 0,177654064527071 
967	 0,176933405312625 
968	 0,176228625028995 
969	 0,176336427022336 
970	 0,177447898959955 
971	 0,178662470591458 
972	 0,1787425461914 
973	 0,177003240006475 
974	 0,17781263870874 
975	 0,179743109073962 
976	 0,178937704672999 
977	 0,177688770440255 
978	 0,177113100773599 
979	 0,179069455846928 
980	 0,179385582539531 
981	 0,176642890147676 
982	 0,17582189464762 
983	 0,176235909650143 
984	 0,176669876632603 
985	 0,176089793278261 
986	 0,175284651582984 
987	 0,176225405595994 
988	 0,177002047343116 
989	 0,177280435346093 
990	 0,177919986793659 
991	 0,178828951104372 
992	 0,179841529043423 
993	 0,180242080240213 
994	 0,180921692528263 
995	 0,182570754273505 
996	 0,181064785627013 
997	 0,17885939796561 
998	 0,182185047803413 
999	 0,182394436061906 
1000	 0,179323920820415 
1001	 0,181669695191281 
1002	 0,184017290724529 
1003	 0,183808356376617 
1004	 0,182801980541618 
1005	 0,182665214119128 
1006	 0,184601418172963 
1007	 0,184635839253375 
1008	 0,184087477646355 
1009	 0,186531341212375 
1010	 0,186013599488068 
1011	 0,183301712395408 
1012	 0,18639501291449 
1013	 0,188427528639222 
1014	 0,186993882672076 
1015	 0,186760762416696 
1016	 0,185427868616585 
1017	 0,181827142031744 
1018	 0,184820261406326 
1019	 0,190009304440392 
1020	 0,189136582120999 
1021	 0,18809624187136 
1022	 0,187807328712936 
1023	 0,186804911390024 
1024	 0,187134265291953 
1025	 0,188858077227031 
1026	 0,189433056708894 
1027	 0,187384371442412 
1028	 0,182885650673624 
1029	 0,183200146493566 
1030	 0,187169856858906 
1031	 0,191999171353062 
1032	 0,194257095061066 
1033	 0,193919947541249 
1034	 0,192814204995072 
1035	 0,188616001478969 
1036	 0,183097736369033 
1037	 0,184238072515945 
1038	 0,186501503694472 
1039	 0,188257301915911 
1040	 0,19606861330089 
1041	 0,199818857693308 
1042	 0,192454571447174 
1043	 0,188687981526616 
1044	 0,190860356322705 
1045	 0,198453231276406 
1046	 0,199394717708415 
1047	 0,194948225559306 
1048	 0,195230377280493 
1049	 0,191560695479023 
1050	 0,185054810318331 
1051	 0,189864564779921 
1052	 0,188218128621437 
1053	 0,176560837036265 
1054	 0,189302107150881 
1055	 0,19854901444427 
1056	 0,182644869214081 
1057	 0,186763486250337 
1058	 0,19977142109354 
1059	 0,198261856959974 
1060	 0,192022530780823 
1061	 0,186539541938156 
1062	 0,189978919192395 
1063	 0,187092523479831 
1064	 0,179153109092083 
1065	 0,188182323762131 
1066	 0,196834108156188 
1067	 0,196997886751311 
1068	 0,191016544415788 
1069	 0,193390529272054 
1070	 0,209997755509161 
1071	 0,201557673280533 
1072	 0,185484782169542 
1073	 0,189113192772801 
1074	 0,190134136264997 
1075	 0,186090203299307 
