Wavelength	AULNE200418.asd
325	 0,223197358034952 
326	 0,250952453433717 
327	 0,210380325346727 
328	 9,87607153943504E-02 
329	 5,35864102031234E-02 
330	 5,93731465148702E-02 
331	 7,56122236976414E-02 
332	 1,72605157115776E-03 
333	-8,70672697188872E-02 
334	 3,76315628953774E-02 
335	 0,104692135660267 
336	 7,03141813759484E-02 
337	 6,86486541543309E-02 
338	 0,04624598340403 
339	-4,28145166886406E-02 
340	-3,65838449066696E-02 
341	 0,033549371484931 
342	 6,90896214267319E-02 
343	 1,08586691746527E-02 
344	-0,126741459135947 
345	-3,77072614263717E-02 
346	 6,66101830849495E-02 
347	 2,60285665397021E-02 
348	 8,68523339967689E-03 
349	 1,82203211956818E-02 
350	-1,63146124208843E-02 
351	-3,81506995590475E-02 
352	-2,76154379817576E-02 
353	-4,43263684811774E-03 
354	 1,07860306557057E-02 
355	 1,48893945182415E-03 
356	 1,78915057403096E-02 
357	 0,046837609505379 
358	 1,39365753265237E-02 
359	-1,42514144151569E-02 
360	-8,54485531798886E-03 
361	 8,18656260065446E-04 
362	 1,04295605942626E-02 
363	 2,26125095553833E-02 
364	 2,60304952798435E-02 
365	 0,017352409998771 
366	-7,00438696377841E-03 
367	-3,34400899489956E-03 
368	 4,14855647052835E-02 
369	 3,28777846795353E-02 
370	-4,35805944105667E-03 
371	 7,06008673120436E-05 
372	-4,17000553874171E-03 
373	-1,89174208995608E-02 
374	 7,74964082107477E-03 
375	 2,64556562142871E-02 
376	 4,54177072975867E-03 
377	 1,83243312803171E-03 
378	 1,00284216905404E-02 
379	-1,47593142374556E-02 
380	-1,29428909503491E-02 
381	 2,08320928996577E-02 
382	 0,01601551637129 
383	 5,20657658003126E-03 
384	 2,10114914961119E-02 
385	 2,93473793598368E-02 
386	 2,23755165982892E-02 
387	-1,13894300055413E-02 
388	-0,019772382778806 
389	 1,25192391632701E-02 
390	 1,87345883873429E-02 
391	 1,14144098576971E-02 
392	 1,22511713795703E-02 
393	 1,27330627945951E-02 
394	 1,15404666037229E-02 
395	 8,8329252840238E-03 
396	 4,26079697069745E-03 
397	-2,43166031760993E-04 
398	 1,07473186405174E-02 
399	 2,40402705397626E-02 
400	 1,79679631113678E-02 
401	 1,30666196402347E-02 
402	 1,29167524387692E-02 
403	 9,08761595130777E-03 
404	 1,04748714519955E-02 
405	 2,11623347272795E-02 
406	 1,77483229877353E-02 
407	 7,91530622340952E-03 
408	 1,34378030903368E-02 
409	 1,80369442598863E-02 
410	 1,73937299354879E-02 
411	 1,47997250169911E-02 
412	 1,36670658682635E-02 
413	 1,65833716349356E-02 
414	 0,014603080741366 
415	 9,58174749439578E-03 
416	 9,84470030921779E-03 
417	 1,17069892683623E-02 
418	 1,28568906932615E-02 
419	 8,53557526360212E-03 
420	 5,56959667747601E-03 
421	 1,28334209072309E-02 
422	 1,42629372332763E-02 
423	 0,010319571012581 
424	 1,53884270667178E-02 
425	 1,93143464953422E-02 
426	 1,64093992439938E-02 
427	 1,33148832412036E-02 
428	 1,08329149918622E-02 
429	 8,35223159704555E-03 
430	 8,75137351926924E-03 
431	 1,18633946401801E-02 
432	 1,33804254197692E-02 
433	 1,41463812737664E-02 
434	 1,50386048375671E-02 
435	 1,56546373678635E-02 
436	 1,51856439037122E-02 
437	 1,10773798849569E-02 
438	 9,6744164824641E-03 
439	 1,28619286994462E-02 
440	 1,44483117330381E-02 
441	 1,42564288542915E-02 
442	 1,28633424934576E-02 
443	 1,25660296646716E-02 
444	 1,31256045552563E-02 
445	 1,10443722142904E-02 
446	 1,11012144604205E-02 
447	 1,52305192550795E-02 
448	 1,28965363024482E-02 
449	 8,39802413687255E-03 
450	 1,26793833103658E-02 
451	 1,48852632171319E-02 
452	 1,30691337326726E-02 
453	 1,46462628111046E-02 
454	 1,53440327868972E-02 
455	 1,13247059817611E-02 
456	 1,02458750254739E-02 
457	 1,20702615316148E-02 
458	 1,25329900286165E-02 
459	 1,40433750038752E-02 
460	 1,67761220309062E-02 
461	 1,63964241173236E-02 
462	 1,47789243876428E-02 
463	 1,49308011416934E-02 
464	 1,48086052503216E-02 
465	 1,47921184852179E-02 
466	 1,81061321016577E-02 
467	 2,01057520401633E-02 
468	 0,017980380594176 
469	 1,62368431034973E-02 
470	 1,53065746378799E-02 
471	 1,46301290679214E-02 
472	 0,013997283352773 
473	 1,34462749931666E-02 
474	 1,38396775948971E-02 
475	 1,37825567397285E-02 
476	 1,19490675281482E-02 
477	 1,01180673902902E-02 
478	 9,65758512290549E-03 
479	 1,35839080920093E-02 
480	 1,56483427833476E-02 
481	 1,33310761216472E-02 
482	 1,14429652672024E-02 
483	 1,08170393966857E-02 
484	 1,17891557352972E-02 
485	 1,20792775888355E-02 
486	 1,14208334929309E-02 
487	 1,17236298818354E-02 
488	 1,12375680735881E-02 
489	 8,99549764406203E-03 
490	 9,63935980533917E-03 
491	 1,19274807616581E-02 
492	 1,10866139549401E-02 
493	 1,13843611481635E-02 
494	 1,35890928284043E-02 
495	 1,38989991297671E-02 
496	 1,30116149081109E-02 
497	 1,20572343773773E-02 
498	 1,23491496742937E-02 
499	 1,32066025869216E-02 
500	 1,12642354378558E-02 
501	 1,01841735172511E-02 
502	 1,16655764720728E-02 
503	 1,10839115894912E-02 
504	 1,04291338286325E-02 
505	 1,45032319261373E-02 
506	 1,51801293441422E-02 
507	 1,16864407590484E-02 
508	 1,19249576190829E-02 
509	 1,30240412404155E-02 
510	 1,21828216229278E-02 
511	 0,011657381311012 
512	 1,18569808405853E-02 
513	 1,28397500152231E-02 
514	 1,36066341330005E-02 
515	 1,36726526848166E-02 
516	 1,31440207744851E-02 
517	 1,29194588614325E-02 
518	 1,42202394480729E-02 
519	 1,46970365887294E-02 
520	 1,41924825580602E-02 
521	 1,46420989749897E-02 
522	 1,46833124620569E-02 
523	 1,34828587923389E-02 
524	 1,32662917508486E-02 
525	 1,38119288797285E-02 
526	 1,39375502122724E-02 
527	 1,33166050693694E-02 
528	 1,21834937915167E-02 
529	 1,25562582141402E-02 
530	 1,35616103184106E-02 
531	 1,40359553370259E-02 
532	 1,37304878245507E-02 
533	 1,32198389586296E-02 
534	 0,014797713760086 
535	 1,52809221667562E-02 
536	 1,31607849875987E-02 
537	 1,25104539846416E-02 
538	 1,31066929207747E-02 
539	 1,35175990115226E-02 
540	 1,35021931712445E-02 
541	 1,30974337995866E-02 
542	 1,32629160712693E-02 
543	 0,013215652770686 
544	 1,22624624638424E-02 
545	 1,31942841281625E-02 
546	 1,52599890215215E-02 
547	 1,49859739984302E-02 
548	 1,38635547542312E-02 
549	 1,28301658315326E-02 
550	 1,31005523152251E-02 
551	 1,39957530592085E-02 
552	 1,42478151142769E-02 
553	 1,42574122489272E-02 
554	 1,40673622490686E-02 
555	 0,013379334592234 
556	 1,33163832972943E-02 
557	 1,46675871395931E-02 
558	 1,52210126587379E-02 
559	 1,48621238632043E-02 
560	 0,014362360112421 
561	 1,39185876166484E-02 
562	 1,36515976241442E-02 
563	 1,32004147556033E-02 
564	 1,32728358495605E-02 
565	 1,48121580384998E-02 
566	 1,58151254998327E-02 
567	 1,59130690764061E-02 
568	 1,58650389384695E-02 
569	 1,59860429684953E-02 
570	 1,64603737406202E-02 
571	 1,66776629988945E-02 
572	 1,66847192277036E-02 
573	 1,67849445622414E-02 
574	 1,69624621874203E-02 
575	 1,72159608287754E-02 
576	 1,74521164162869E-02 
577	 1,77686154744957E-02 
578	 1,82789625403078E-02 
579	 0,019031829746195 
580	 1,96217576063722E-02 
581	 1,87895482390937E-02 
582	 1,79555505226964E-02 
583	 0,017986273285179 
584	 1,85623093300461E-02 
585	 1,92986530241214E-02 
586	 1,96551514519362E-02 
587	 1,95082963996167E-02 
588	 1,90880666271091E-02 
589	 1,96864378772594E-02 
590	 2,01172679106842E-02 
591	 1,93001113902687E-02 
592	 1,89875750627285E-02 
593	 0,019090925412438 
594	 1,81843978646292E-02 
595	 1,82114491980607E-02 
596	 0,019678010476707 
597	 1,95622982572108E-02 
598	 1,85042085263414E-02 
599	 0,017949463083729 
600	 1,75348097648519E-02 
601	 1,72201053547329E-02 
602	 1,69800389125377E-02 
603	 1,69453380526081E-02 
604	 1,71775763732916E-02 
605	 1,71492770069051E-02 
606	 1,69781422171876E-02 
607	 0,01724293212068 
608	 1,72524502956985E-02 
609	 1,68644419510617E-02 
610	 1,68946881170861E-02 
611	 1,69524011648883E-02 
612	 1,64795858586612E-02 
613	 1,66918771774425E-02 
614	 1,72517872503784E-02 
615	 1,59174138042076E-02 
616	 1,50389087831303E-02 
617	 1,59613074030959E-02 
618	 1,61566608675086E-02 
619	 1,59460194796532E-02 
620	 1,68117429697837E-02 
621	 1,68357208151484E-02 
622	 1,58278111706505E-02 
623	 0,016113911773496 
624	 1,65404163218162E-02 
625	 1,58415132601293E-02 
626	 1,57337242087104E-02 
627	 1,62557840170436E-02 
628	 1,64862368939537E-02 
629	 1,64229731958204E-02 
630	 1,61592195553191E-02 
631	 1,65278640496762E-02 
632	 1,72401918282495E-02 
633	 1,76667242562043E-02 
634	 1,81489884853886E-02 
635	 1,86503520938721E-02 
636	 1,86933478694117E-02 
637	 1,87232757638119E-02 
638	 1,90946448774137E-02 
639	 1,91271722942084E-02 
640	 1,89649655501797E-02 
641	 1,93049317181616E-02 
642	 1,94959375392875E-02 
643	 0,01937937301042 
644	 1,96127253017926E-02 
645	 0,020137380428013 
646	 2,08033218263368E-02 
647	 2,08437296240142E-02 
648	 2,03013958512138E-02 
649	 2,00704115322381E-02 
650	 1,99744751786437E-02 
651	 0,019862502106248 
652	 1,93443874761003E-02 
653	 1,88977709828523E-02 
654	 1,97004227752446E-02 
655	 1,98601731336619E-02 
656	 1,89888353210943E-02 
657	 1,86608009616763E-02 
658	 1,84387385484154E-02 
659	 1,77878098629367E-02 
660	 1,71309034758108E-02 
661	 1,65937225683263E-02 
662	 1,62343810277025E-02 
663	 1,60559698018543E-02 
664	 1,59844373548365E-02 
665	 1,55714252416862E-02 
666	 1,49258959608753E-02 
667	 1,42655853793944E-02 
668	 1,42711183102278E-02 
669	 1,48218149880746E-02 
670	 1,45542857808907E-02 
671	 1,43487412975714E-02 
672	 0,014868260498272 
673	 1,50039916400058E-02 
674	 1,46984925312836E-02 
675	 1,42259380063548E-02 
676	 1,39722906451638E-02 
677	 1,41037064827675E-02 
678	 0,014513372829344 
679	 1,46883452470382E-02 
680	 1,40632945345468E-02 
681	 1,41448521290919E-02 
682	 1,48732522866888E-02 
683	 1,48024776408043E-02 
684	 1,48404320763089E-02 
685	 1,54664361387813E-02 
686	 1,60704857564668E-02 
687	 1,63515064270833E-02 
688	 1,58772454790541E-02 
689	 1,59620948046773E-02 
690	 1,68969715064627E-02 
691	 1,78799260088009E-02 
692	 1,88602899772996E-02 
693	 1,98635356151019E-02 
694	 2,14521645687408E-02 
695	 2,37417351343497E-02 
696	 2,68013494687933E-02 
697	 2,97312658243045E-02 
698	 3,23410639289574E-02 
699	 3,60222635299714E-02 
700	 4,04313289956065E-02 
701	 4,49513432310123E-02 
702	 5,01005384151234E-02 
703	 5,58357010867896E-02 
704	 6,17027793050221E-02 
705	 6,77210964768813E-02 
706	 7,38769310565357E-02 
707	 8,00482177941168E-02 
708	 8,63427587054264E-02 
709	 9,29894052615612E-02 
710	 9,97272862635311E-02 
711	 0,106368962235894 
712	 0,11253834314999 
713	 0,118683723683136 
714	 0,125177662887375 
715	 0,131381748546467 
716	 0,137244709195907 
717	 0,142956697853296 
718	 0,14838547769329 
719	 0,153489465289614 
720	 0,158397235495595 
721	 0,163079141990308 
722	 0,167490452694007 
723	 0,171759432322735 
724	 0,175826025563229 
725	 0,17937943427945 
726	 0,182671832385487 
727	 0,1858725049655 
728	 0,188901759747622 
729	 0,19175107245476 
730	 0,194416314968412 
731	 0,196947404370333 
732	 0,199394070255424 
733	 0,20189977240987 
734	 0,204235748749426 
735	 0,206195293961407 
736	 0,207805554602671 
737	 0,209244572216371 
738	 0,210916914203776 
739	 0,212517138343441 
740	 0,213933378692249 
741	 0,215228412911288 
742	 0,216399970296766 
743	 0,217442813395221 
744	 0,218488978944551 
745	 0,21961212461524 
746	 0,220931109059692 
747	 0,22217818062274 
748	 0,223178109909087 
749	 0,223882529643903 
750	 0,224488626469595 
751	 0,225305413455977 
752	 0,225926829508984 
753	 0,226422541427026 
754	 0,22750956870965 
755	 0,228435160217477 
756	 0,228697132337418 
757	 0,229078732181301 
758	 0,229670691464121 
759	 0,230388579617004 
760	 0,231149517772234 
761	 0,231864395067428 
762	 0,232359872136482 
763	 0,23277701775574 
764	 0,233242373427585 
765	 0,23337585477999 
766	 0,233478385670199 
767	 0,234586538792954 
768	 0,235224569561369 
769	 0,235004949945627 
770	 0,235433580149887 
771	 0,236074693914701 
772	 0,236280251426563 
773	 0,236595971755625 
774	 0,237097762864575 
775	 0,237706619497177 
776	 0,237991321746289 
777	 0,237875554028458 
778	 0,238576163481162 
779	 0,239493193495256 
780	 0,239558339930244 
781	 0,239607923974741 
782	 0,239861650613655 
783	 0,240327875749565 
784	 0,240515371031739 
785	 0,240225510771859 
786	 0,240718079949639 
787	 0,241563448032746 
788	 0,241681876657684 
789	 0,241774192191299 
790	 0,242038390439731 
791	 0,242464926561423 
792	 0,242680548123772 
793	 0,242448616839585 
794	 0,242563626571655 
795	 0,242965243754637 
796	 0,243222449977509 
797	 0,243503174994126 
798	 0,243802960072177 
799	 0,243901813480432 
800	 0,243994116719319 
801	 0,244268016156081 
802	 0,244574109756582 
803	 0,24490961354577 
804	 0,245406278623776 
805	 0,245553285985667 
806	 0,245327302417756 
807	 0,245734296268379 
808	 0,246301714769437 
809	 0,24645579180247 
810	 0,246462949516961 
811	 0,246463881877863 
812	 0,246652919465868 
813	 0,247133625189 
814	 0,247766937407631 
815	 0,247395085264879 
816	 0,247164027748597 
817	 0,248481376392145 
818	 0,249155501029296 
819	 0,248961380030902 
820	 0,248763055604886 
821	 0,248867416972237 
822	 0,249375463191285 
823	 0,249635593850774 
824	 0,249745283325202 
825	 0,249919619868131 
826	 0,250065947514689 
827	 0,250227212103831 
828	 0,25061975872121 
829	 0,250819930212178 
830	 0,250677584166928 
831	 0,250790928346186 
832	 0,2510715207197 
833	 0,251305838536914 
834	 0,251711290393802 
835	 0,252094313981429 
836	 0,251641828435002 
837	 0,251432093779559 
838	 0,251965400770623 
839	 0,252203967818475 
840	 0,252328354388169 
841	 0,252754968146825 
842	 0,252987215334867 
843	 0,252998126595268 
844	 0,253116449927317 
845	 0,253270939119415 
846	 0,253430661382948 
847	 0,253626165590398 
848	 0,253826933061666 
849	 0,253989667384385 
850	 0,254022988974426 
851	 0,253964988916871 
852	 0,254007412626727 
853	 0,2540772552146 
854	 0,254163672112684 
855	 0,254411882775641 
856	 0,254859571276162 
857	 0,255530958886422 
858	 0,255356598095606 
859	 0,254599932702764 
860	 0,254929029414517 
861	 0,25559818444042 
862	 0,256129691491969 
863	 0,256118505929145 
864	 0,255869174727385 
865	 0,255847263172168 
866	 0,256185911148954 
867	 0,256651289293818 
868	 0,256359338654977 
869	 0,256381590003196 
870	 0,257033301351751 
871	 0,25680968481922 
872	 0,256544451138269 
873	 0,257343287826009 
874	 0,257414225731879 
875	 0,256891692335383 
876	 0,257305262254961 
877	 0,257855535791706 
878	 0,25816049217998 
879	 0,258062400473544 
880	 0,2578106378016 
881	 0,25770640357478 
882	 0,257889153898711 
883	 0,258275351360699 
884	 0,258613917555648 
885	 0,258580852139577 
886	 0,25826888523611 
887	 0,258901610520186 
888	 0,25946633417084 
889	 0,259009978669519 
890	 0,25867170510666 
891	 0,258522989655809 
892	 0,258192699268944 
893	 0,258346335947406 
894	 0,258950210015893 
895	 0,258851954342853 
896	 0,258721982481805 
897	 0,259077128408054 
898	 0,259322961019276 
899	 0,259458072109792 
900	 0,259646848188863 
901	 0,259804457846545 
902	 0,259788595000023 
903	 0,25903576829625 
904	 0,258952151070301 
905	 0,260158908701439 
906	 0,26029303417808 
907	 0,259785885931559 
908	 0,259679974779771 
909	 0,259022501275688 
910	 0,258300888700143 
911	 0,259738258244233 
912	 0,260756226312604 
913	 0,260267837137769 
914	 0,259868036423668 
915	 0,259708630349472 
916	 0,259810031479073 
917	 0,260322125390916 
918	 0,260865576921214 
919	 0,260488809125916 
920	 0,259807113487185 
921	 0,25919524872909 
922	 0,259368551839657 
923	 0,259181610458564 
924	 0,257838682922383 
925	 0,257621080606805 
926	 0,257897189218081 
927	 0,256854791880899 
928	 0,256340558373123 
929	 0,25665503643125 
930	 0,256972455484912 
931	 0,256893437505453 
932	 0,256204244087717 
933	 0,255308953373004 
934	 0,254461261088764 
935	 0,253913595999239 
936	 0,25372582619124 
937	 0,253358772579901 
938	 0,251113253076489 
939	 0,249969856623772 
940	 0,250592217173541 
941	 0,249800537557165 
942	 0,249173054786461 
943	 0,249939212622253 
944	 0,248287895343857 
945	 0,245475872693266 
946	 0,244939874784932 
947	 0,244830893924741 
948	 0,244356425872296 
949	 0,242558496039068 
950	 0,240850259766535 
951	 0,239933192602595 
952	 0,238588153802996 
953	 0,23681768105627 
954	 0,234837434111169 
955	 0,233862050640289 
956	 0,233348142600139 
957	 0,231041333261704 
958	 0,229926527295693 
959	 0,230357200176024 
960	 0,228852874042346 
961	 0,227321538853226 
962	 0,227233232187231 
963	 0,227342574627253 
964	 0,227444045015173 
965	 0,227495544321147 
966	 0,226665667068249 
967	 0,225502153611192 
968	 0,226364689247522 
969	 0,22702919347994 
970	 0,226702765492451 
971	 0,226823451353021 
972	 0,226521181650796 
973	 0,225188493363814 
974	 0,225794594764796 
975	 0,227296875557288 
976	 0,226960830043409 
977	 0,226537022592321 
978	 0,226584022872153 
979	 0,227493214706852 
980	 0,227660582099678 
981	 0,226465932923768 
982	 0,225168168347441 
983	 0,225551481885617 
984	 0,228785467850077 
985	 0,228057510499669 
986	 0,224969523817951 
987	 0,225102781488033 
988	 0,22656424757498 
989	 0,228463706547027 
990	 0,229358772876379 
991	 0,230315235403477 
992	 0,231584201084981 
993	 0,231081646491899 
994	 0,231081274183863 
995	 0,233729239210905 
996	 0,233592804337427 
997	 0,232298054087339 
998	 0,234971450420643 
999	 0,235104381290174 
1000	 0,232697018840925 
1001	 0,234565937048212 
1002	 0,236478920830723 
1003	 0,236700025611435 
1004	 0,238329818766765 
1005	 0,239384819166977 
1006	 0,238029127326533 
1007	 0,237796515175057 
1008	 0,23915214751512 
1009	 0,241771272327984 
1010	 0,243071845481187 
1011	 0,243271631964714 
1012	 0,246441549002096 
1013	 0,245760924707093 
1014	 0,240221022294447 
1015	 0,240963645644807 
1016	 0,244012839924402 
1017	 0,245522145155935 
1018	 0,247530999186259 
1019	 0,248950208122778 
1020	 0,248037882730807 
1021	 0,250010598430492 
1022	 0,253497927383691 
1023	 0,250965698683827 
1024	 0,249127335109101 
1025	 0,250059670957955 
1026	 0,251697896317564 
1027	 0,253316961768971 
1028	 0,254319568654424 
1029	 0,253954779677161 
1030	 0,254665836508368 
1031	 0,259049865719261 
1032	 0,262812333578643 
1033	 0,265028043049019 
1034	 0,265945648880104 
1035	 0,260374361968116 
1036	 0,251047382027103 
1037	 0,252300893726474 
1038	 0,257326419501441 
1039	 0,26243775953634 
1040	 0,266455867512295 
1041	 0,268408836876078 
1042	 0,267680027478412 
1043	 0,264549206472948 
1044	 0,263437211211632 
1045	 0,269457948883121 
1046	 0,268519967225002 
1047	 0,26213674794749 
1048	 0,2607156702246 
1049	 0,268219684047588 
1050	 0,279956993677254 
1051	 0,274476257623947 
1052	 0,265338384135754 
1053	 0,260419686648286 
1054	 0,260401314951695 
1055	 0,261213279990681 
1056	 0,260117218815045 
1057	 0,266971874882444 
1058	 0,27521342539764 
1059	 0,274489767074774 
1060	 0,266481892453498 
1061	 0,257440007230291 
1062	 0,260229734478115 
1063	 0,262675950693705 
1064	 0,262286937377586 
1065	 0,264800703914757 
1066	 0,263501118972435 
1067	 0,257347160115368 
1068	 0,25596263688007 
1069	 0,260433948630114 
1070	 0,26916379171899 
1071	 0,266687704004655 
1072	 0,263763524772909 
1073	 0,274449015367158 
1074	 0,272784621295482 
1075	 0,263383512081664 
