Wavelength	AULNE200090.asd
325	 0,202352293153858 
326	 0,257751959998092 
327	 0,354817982307292 
328	 0,451632082905513 
329	 0,472068923935828 
330	 0,40485378810637 
331	 0,29034443511016 
332	 0,229021710894949 
333	 0,228768844490013 
334	 0,326978436376587 
335	 0,315247949348872 
336	 0,197469331702701 
337	 0,236595866040144 
338	 0,27746738617729 
339	 0,168261017542816 
340	 0,15651141628443 
341	 0,223211011623349 
342	 0,249336852948751 
343	 0,256785404128317 
344	 0,243868619464425 
345	 0,185907396627483 
346	 0,149391190617693 
347	 0,16783954787284 
348	 0,190959672389627 
349	 0,204071170003635 
350	 0,201323521554506 
351	 0,193020038015689 
352	 0,184037380070144 
353	 0,175989971943518 
354	 0,172792565325444 
355	 0,177145928913622 
356	 0,182418681420897 
357	 0,18601153317935 
358	 0,187576819505978 
359	 0,175748052300637 
360	 0,149727260778128 
361	 0,150297820495465 
362	 0,167049012146942 
363	 0,180768876286927 
364	 0,190370106711131 
365	 0,190518285172303 
366	 0,1654381457353 
367	 0,15451362141635 
368	 0,174170161445057 
369	 0,166351352145739 
370	 0,147886610618317 
371	 0,165273198390889 
372	 0,168735397972608 
373	 0,158325432910439 
374	 0,199576416577828 
375	 0,212931251269669 
376	 0,148421206024006 
377	 0,152708122580438 
378	 0,203001797726942 
379	 0,205010569562257 
380	 0,200476719785408 
381	 0,199597999588409 
382	 0,191480155934654 
383	 0,18598661613217 
384	 0,19273682237676 
385	 0,19392786895486 
386	 0,187923396272288 
387	 0,175341909180233 
388	 0,172435035298256 
389	 0,18485647045928 
390	 0,195577212039868 
391	 0,199909538019383 
392	 0,194713018583609 
393	 0,190552106958858 
394	 0,188965717150216 
395	 0,186927657152675 
396	 0,186056697039496 
397	 0,187325083403442 
398	 0,192190191023463 
399	 0,197116108215905 
400	 0,196605317556232 
401	 0,200732818876375 
402	 0,207858113788323 
403	 0,202763962338591 
404	 0,19709749225101 
405	 0,198246967856051 
406	 0,195334090731831 
407	 0,191005099055625 
408	 0,19337524759729 
409	 0,195651503175612 
410	 0,195249257226172 
411	 0,190340665712583 
412	 0,186507276356378 
413	 0,188837644834707 
414	 0,193213303003858 
415	 0,19601327120338 
416	 0,190093649952738 
417	 0,185390641179183 
418	 0,185779300862367 
419	 0,186262748192713 
420	 0,185411782009842 
421	 0,182026399233863 
422	 0,184707895464881 
423	 0,19193076684578 
424	 0,192011573449647 
425	 0,191985670614234 
426	 0,195002431350295 
427	 0,188944222280377 
428	 0,180597495199143 
429	 0,184822330555837 
430	 0,187319689763194 
431	 0,185731008821439 
432	 0,189623862482438 
433	 0,191783443854945 
434	 0,186192881610049 
435	 0,184595581769458 
436	 0,186758328590457 
437	 0,18674464309114 
438	 0,185375646775434 
439	 0,183677664814431 
440	 0,186483117467809 
441	 0,190485596738934 
442	 0,191214908018664 
443	 0,190400848179016 
444	 0,188849469196718 
445	 0,187329826198464 
446	 0,188398619095909 
447	 0,192750398110744 
448	 0,191809638290897 
449	 0,188902468516245 
450	 0,192697546968865 
451	 0,194219222794114 
452	 0,192420239877181 
453	 0,195532577991247 
454	 0,198982917893176 
455	 0,198300970741754 
456	 0,196637895511119 
457	 0,195545251306094 
458	 0,197239800291023 
459	 0,199473782975609 
460	 0,200979972535285 
461	 0,201151800794871 
462	 0,200777268194636 
463	 0,200991343359404 
464	 0,200191323516409 
465	 0,199282133439885 
466	 0,203043401023682 
467	 0,204922560655139 
468	 0,201196105935099 
469	 0,199969955420223 
470	 0,201392833450668 
471	 0,203587784668716 
472	 0,203451661360575 
473	 0,200988260851316 
474	 0,201906987179025 
475	 0,203423636598711 
476	 0,202526601906069 
477	 0,201408423379654 
478	 0,200944658816664 
479	 0,202593049979212 
480	 0,202786861273193 
481	 0,200320371143548 
482	 0,19935743984683 
483	 0,199921266323332 
484	 0,20129951300491 
485	 0,202513014581485 
486	 0,202907281966418 
487	 0,201362056284901 
488	 0,200299466583036 
489	 0,201386418155789 
490	 0,20207272996105 
491	 0,201616132348273 
492	 0,198933101759262 
493	 0,198180233475336 
494	 0,200429232405137 
495	 0,202677947761299 
496	 0,203354497998546 
497	 0,201101534643968 
498	 0,201366825706033 
499	 0,203641035905963 
500	 0,201927721444458 
501	 0,201453034708207 
502	 0,204521696669936 
503	 0,204225116030329 
504	 0,202858683737643 
505	 0,205996574874038 
506	 0,208260604567972 
507	 0,208515375438306 
508	 0,20918983618488 
509	 0,210138166446479 
510	 0,211147117703935 
511	 0,212345217495104 
512	 0,213525336774378 
513	 0,214121508510128 
514	 0,214880669346048 
515	 0,21594060126894 
516	 0,215765798557272 
517	 0,215790159721022 
518	 0,218212644401024 
519	 0,219216757741348 
520	 0,218776461990831 
521	 0,220692404902058 
522	 0,222381109231916 
523	 0,222015751263098 
524	 0,221421330537991 
525	 0,220883405194579 
526	 0,220221407691332 
527	 0,220029744734418 
528	 0,22045502446458 
529	 0,221095934361628 
530	 0,221346483706338 
531	 0,220596983696437 
532	 0,22025048107244 
533	 0,220708699883667 
534	 0,222247557835279 
535	 0,222928534589373 
536	 0,221894035803048 
537	 0,22236049505604 
538	 0,223627123838853 
539	 0,223623686039649 
540	 0,223319437138908 
541	 0,222993469097244 
542	 0,222574148344298 
543	 0,222312166526364 
544	 0,222463763596959 
545	 0,223461761760554 
546	 0,224891681254969 
547	 0,22560588613979 
548	 0,225584895610814 
549	 0,225033762070957 
550	 0,225579804328495 
551	 0,226691592557792 
552	 0,227263401749919 
553	 0,227672070924222 
554	 0,227724871887721 
555	 0,226189732201777 
556	 0,225462201539464 
557	 0,227245641158545 
558	 0,226687070248061 
559	 0,224227588648601 
560	 0,223165342564172 
561	 0,222263255411906 
562	 0,22125725673675 
563	 0,220949811788407 
564	 0,220976362168667 
565	 0,220768416278077 
566	 0,221368143877136 
567	 0,222594254007097 
568	 0,222855822812337 
569	 0,223333666034477 
570	 0,224822241550815 
571	 0,226510043708997 
572	 0,228167210465176 
573	 0,229504395545646 
574	 0,231535220695358 
575	 0,234319081656874 
576	 0,236056359137694 
577	 0,237690368722773 
578	 0,240404567192362 
579	 0,243557577326155 
580	 0,246339437837653 
581	 0,246735427301896 
582	 0,247225948886505 
583	 0,249164992125129 
584	 0,25088224475542 
585	 0,252279096670265 
586	 0,253571570144417 
587	 0,254901183711143 
588	 0,256281471544954 
589	 0,257619345625522 
590	 0,258392645825744 
591	 0,258205022628058 
592	 0,258588439302288 
593	 0,2594323757576 
594	 0,259493528789371 
595	 0,259585262098532 
596	 0,260051353521595 
597	 0,260614736120904 
598	 0,260957165813517 
599	 0,260639443064435 
600	 0,260714878294601 
601	 0,261141991797495 
602	 0,260639730940939 
603	 0,259495259697761 
604	 0,258072281117028 
605	 0,257598200477127 
606	 0,257567349776016 
607	 0,25618547238903 
608	 0,254739281287556 
609	 0,253745396913708 
610	 0,253337568753932 
611	 0,252695054407751 
612	 0,250813032396059 
613	 0,249580594249474 
614	 0,249149470248028 
615	 0,248285819268516 
616	 0,247565152610185 
617	 0,247274480924834 
618	 0,246521875669341 
619	 0,245670070231722 
620	 0,245778118659859 
621	 0,245132044008593 
622	 0,243682976202753 
623	 0,244081740984255 
624	 0,244781701057812 
625	 0,244118716361305 
626	 0,244677482908538 
627	 0,246048217959283 
628	 0,245338390475351 
629	 0,245179106409 
630	 0,246702083951008 
631	 0,247615700155634 
632	 0,247977068056104 
633	 0,248301949194553 
634	 0,249250888020162 
635	 0,250797160230334 
636	 0,251839119321714 
637	 0,252833292849534 
638	 0,254183565263326 
639	 0,255664494543431 
640	 0,257083900155768 
641	 0,258110112971281 
642	 0,258849622201608 
643	 0,259430027541863 
644	 0,260311870683626 
645	 0,261276584743439 
646	 0,261994817734688 
647	 0,262046247104959 
648	 0,261394387080933 
649	 0,260389042236089 
650	 0,259145974168601 
651	 0,257741166272678 
652	 0,255995709585308 
653	 0,254020171155407 
654	 0,252091787173733 
655	 0,249956458156614 
656	 0,247563926120684 
657	 0,245151571835659 
658	 0,242467932991919 
659	 0,239247255424158 
660	 0,2356591380341 
661	 0,232040524430224 
662	 0,229081881361787 
663	 0,226527086214248 
664	 0,224254479522628 
665	 0,222422807715311 
666	 0,220486541114688 
667	 0,217563937669278 
668	 0,215373261430001 
669	 0,214290555318998 
670	 0,213600303534781 
671	 0,212960770821306 
672	 0,212133727608978 
673	 0,211667512051068 
674	 0,211381540572903 
675	 0,210572804246232 
676	 0,210040705195238 
677	 0,210099682718899 
678	 0,21071843952695 
679	 0,211199864319657 
680	 0,210757615253552 
681	 0,21113777306643 
682	 0,212530247359584 
683	 0,21400769105604 
684	 0,215934433833293 
685	 0,218527301948179 
686	 0,221786257720463 
687	 0,225455554436145 
688	 0,229060131832621 
689	 0,23346446760672 
690	 0,239048142046495 
691	 0,245996117185794 
692	 0,253867012270247 
693	 0,262258179402654 
694	 0,271203086760414 
695	 0,280860701663412 
696	 0,291727593049488 
697	 0,303042952882421 
698	 0,314523187036293 
699	 0,326722559911797 
700	 0,339011177850646 
701	 0,350558478845579 
702	 0,36213827720422 
703	 0,37384209540513 
704	 0,385446391825599 
705	 0,396601619267402 
706	 0,407077799797997 
707	 0,417107880502731 
708	 0,426785239092937 
709	 0,436239729145169 
710	 0,444899293547166 
711	 0,452689389938091 
712	 0,460181940016193 
713	 0,467195522263747 
714	 0,473531609931907 
715	 0,479504383671209 
716	 0,485301107331747 
717	 0,491224578468611 
718	 0,496526942869411 
719	 0,500944671334932 
720	 0,50514060414413 
721	 0,508917065488149 
722	 0,511951522524069 
723	 0,515120801545189 
724	 0,51841237949123 
725	 0,520966446399623 
726	 0,523291623600869 
727	 0,525663834316211 
728	 0,527531623086641 
729	 0,529165904895447 
730	 0,531212130788656 
731	 0,532606193076488 
732	 0,533329231957676 
733	 0,534795626747636 
734	 0,536160244989736 
735	 0,536702288857047 
736	 0,537470277536046 
737	 0,538517866664325 
738	 0,539513613998389 
739	 0,540369393169387 
740	 0,541010071042071 
741	 0,541362254377694 
742	 0,541662904591053 
743	 0,542184933616444 
744	 0,542783762995156 
745	 0,543360963009053 
746	 0,543740312052462 
747	 0,544012696799003 
748	 0,544281037046498 
749	 0,544902787948936 
750	 0,54557184481218 
751	 0,545761022835911 
752	 0,545905459058976 
753	 0,546120938881175 
754	 0,546377393954205 
755	 0,546529471119759 
756	 0,546492486142154 
757	 0,546458929314318 
758	 0,546639435614124 
759	 0,54743009076999 
760	 0,547911795130347 
761	 0,54783920651179 
762	 0,547719740915318 
763	 0,547644799523663 
764	 0,547667138421401 
765	 0,547527270046373 
766	 0,547423411014716 
767	 0,548056530115644 
768	 0,548408905329589 
769	 0,548163062804387 
770	 0,548078029186145 
771	 0,548225851363422 
772	 0,54860008387513 
773	 0,548699739387817 
774	 0,548531252963898 
775	 0,54851296084112 
776	 0,548493627862487 
777	 0,548459775367483 
778	 0,548838369019343 
779	 0,549235868122069 
780	 0,549020582798259 
781	 0,548942032634922 
782	 0,549124564418315 
783	 0,54929607015641 
784	 0,549196113818529 
785	 0,548748560105011 
786	 0,548858630489772 
787	 0,549259121768853 
788	 0,549220015267739 
789	 0,549477409963792 
790	 0,550002831219787 
791	 0,54979012869486 
792	 0,549504411049514 
793	 0,549652138648922 
794	 0,549422163932327 
795	 0,549084852744581 
796	 0,549524641630991 
797	 0,549707813080427 
798	 0,549400330907246 
799	 0,549255614802057 
800	 0,549325938188796 
801	 0,549601294376078 
802	 0,549663438229358 
803	 0,549528440533473 
804	 0,549397546851885 
805	 0,549647711602883 
806	 0,550251176489412 
807	 0,550188139444285 
808	 0,549899813941053 
809	 0,549929942979602 
810	 0,549949318260077 
811	 0,549993425373934 
812	 0,550382666292637 
813	 0,55047390696468 
814	 0,550101966880424 
815	 0,550054164224032 
816	 0,550294783732888 
817	 0,550693283138524 
818	 0,55145423258779 
819	 0,552187395005777 
820	 0,551721812687653 
821	 0,550944775588805 
822	 0,550444583137234 
823	 0,550892571249654 
824	 0,551539222555763 
825	 0,551342132255584 
826	 0,551011015635242 
827	 0,550781356889169 
828	 0,550810778346651 
829	 0,550998192353878 
830	 0,551269146586498 
831	 0,55162120414978 
832	 0,551653227625304 
833	 0,550854716139504 
834	 0,550863125547525 
835	 0,551624990853558 
836	 0,551545478413628 
837	 0,551258658836635 
838	 0,551101211973887 
839	 0,550927316448115 
840	 0,550878198779227 
841	 0,551154056838637 
842	 0,551201279901137 
843	 0,55099125455678 
844	 0,550911562487722 
845	 0,55102256934943 
846	 0,551297489851948 
847	 0,551251069362762 
848	 0,551101323928528 
849	 0,551231539231939 
850	 0,551404496672756 
851	 0,551472727166798 
852	 0,551174739115413 
853	 0,55076888444517 
854	 0,550483691965878 
855	 0,55078659011702 
856	 0,551121858631115 
857	 0,550680993141012 
858	 0,549986104615591 
859	 0,549516243144674 
860	 0,55030559290455 
861	 0,551189840685553 
862	 0,551474755464319 
863	 0,551198965147257 
864	 0,550582342854878 
865	 0,549928731889152 
866	 0,5498965638289 
867	 0,550474451555083 
868	 0,551122353413751 
869	 0,551554119881246 
870	 0,551582775312723 
871	 0,551234681091654 
872	 0,550862872734403 
873	 0,550873016170928 
874	 0,551134357284157 
875	 0,551369824244567 
876	 0,550837998507298 
877	 0,550592825523421 
878	 0,550962189061683 
879	 0,55100006372821 
880	 0,550874227783813 
881	 0,550865587792591 
882	 0,551377790785699 
883	 0,552072017631882 
884	 0,55184810587285 
885	 0,55158025119589 
886	 0,551528552142182 
887	 0,551234777040762 
888	 0,551184944606774 
889	 0,551755233891399 
890	 0,551558314832712 
891	 0,550879407996908 
892	 0,550876139877235 
893	 0,551135922712085 
894	 0,551412609901153 
895	 0,55116146292866 
896	 0,550927536860437 
897	 0,551100611287384 
898	 0,550940280986445 
899	 0,550737153552207 
900	 0,551240400651843 
901	 0,550904873546008 
902	 0,549877756035139 
903	 0,550476259888671 
904	 0,550950218446752 
905	 0,550328946090843 
906	 0,550147427114355 
907	 0,550383269961977 
908	 0,550732886211755 
909	 0,550862793864957 
910	 0,550893965657594 
911	 0,551655668135547 
912	 0,551747428793755 
913	 0,550812812510468 
914	 0,551037362329896 
915	 0,551520750328736 
916	 0,551080439903776 
917	 0,550432811237945 
918	 0,549905531055135 
919	 0,549938060469035 
920	 0,550173988907737 
921	 0,55032325816021 
922	 0,549657591018839 
923	 0,549317747948012 
924	 0,550092289532872 
925	 0,549759526663991 
926	 0,548659204802205 
927	 0,548034835073931 
928	 0,547583301630787 
929	 0,547339786449409 
930	 0,547649978338477 
931	 0,547668568498175 
932	 0,546990007489116 
933	 0,546652020530004 
934	 0,546185399370994 
935	 0,544912042493849 
936	 0,545101705044587 
937	 0,546212294369163 
938	 0,545313248575861 
939	 0,544130026335922 
940	 0,543325528101581 
941	 0,542839264694391 
942	 0,542231387933923 
943	 0,541133349172036 
944	 0,539871570496121 
945	 0,538991370510624 
946	 0,539376790167858 
947	 0,539473723087767 
948	 0,538695612775287 
949	 0,536743223271739 
950	 0,535285511171168 
951	 0,535099276507202 
952	 0,534400777649195 
953	 0,533006596392145 
954	 0,531006548891446 
955	 0,529683814941997 
956	 0,529278015117905 
957	 0,529727335665855 
958	 0,529229169399227 
959	 0,527413735083223 
960	 0,525878783596263 
961	 0,525248603861287 
962	 0,525754035134326 
963	 0,52554503847475 
964	 0,524707721106877 
965	 0,523828833805476 
966	 0,522947547456105 
967	 0,522455116758717 
968	 0,523245846709662 
969	 0,524972467800996 
970	 0,526740034775057 
971	 0,525012098210074 
972	 0,52305620961492 
973	 0,523894468753986 
974	 0,524338273607529 
975	 0,524446690870903 
976	 0,52532526217481 
977	 0,52415284761027 
978	 0,521552921171414 
979	 0,522180523335102 
980	 0,523876375892053 
981	 0,525230633217929 
982	 0,525014188028592 
983	 0,524129923432914 
984	 0,523634136144339 
985	 0,523001460986703 
986	 0,522862056356261 
987	 0,52448929228432 
988	 0,526368869548564 
989	 0,527628548312705 
990	 0,527260651024465 
991	 0,525835576135306 
992	 0,524292336444235 
993	 0,526028633091938 
994	 0,527125859480938 
995	 0,523814654654077 
996	 0,524633960283371 
997	 0,528477797263579 
998	 0,530209383152583 
999	 0,530973091303409 
1000	 0,53076556165037 
1001	 0,528637014979881 
1002	 0,528374215211463 
1003	 0,531108332367147 
1004	 0,53126247790212 
1005	 0,530909052552555 
1006	 0,532197217219872 
1007	 0,53056442567911 
1008	 0,529299173147737 
1009	 0,535400718772249 
1010	 0,537491701896213 
1011	 0,534642127428905 
1012	 0,534785648740028 
1013	 0,534479083158853 
1014	 0,532751045085944 
1015	 0,531392805965764 
1016	 0,532991657326197 
1017	 0,538564806705377 
1018	 0,53842436774417 
1019	 0,535960785108218 
1020	 0,538302861452909 
1021	 0,540608518772617 
1022	 0,54165116609732 
1023	 0,54100432663118 
1024	 0,541648517854626 
1025	 0,543679218868726 
1026	 0,542622087490095 
1027	 0,539945389447221 
1028	 0,537358748545589 
1029	 0,538713350558626 
1030	 0,541295536645747 
1031	 0,541659208606518 
1032	 0,545821887134439 
1033	 0,550248318626175 
1034	 0,545797858106112 
1035	 0,541641619722946 
1036	 0,540786084256099 
1037	 0,543847551110926 
1038	 0,546090874104366 
1039	 0,545478984243049 
1040	 0,544197497600173 
1041	 0,544780258361656 
1042	 0,548510555881107 
1043	 0,548898276545382 
1044	 0,547559849839964 
1045	 0,547957914148399 
1046	 0,549068970474373 
1047	 0,549018922492748 
1048	 0,543168537650669 
1049	 0,547085633877328 
1050	 0,55863167810851 
1051	 0,550866865670395 
1052	 0,543259089653383 
1053	 0,545593590217312 
1054	 0,552946434292565 
1055	 0,553769790509434 
1056	 0,541987878575323 
1057	 0,552549099158802 
1058	 0,569880145272357 
1059	 0,566715786294657 
1060	 0,554912058494939 
1061	 0,542974747852471 
1062	 0,543629746494236 
1063	 0,549525915392405 
1064	 0,555918017647695 
1065	 0,5554620604706 
1066	 0,549682443456037 
1067	 0,541987959158304 
1068	 0,543900994950861 
1069	 0,547990039936351 
1070	 0,547944065740363 
1071	 0,543223006149629 
1072	 0,539437251453779 
1073	 0,543607108558423 
1074	 0,550627381459285 
1075	 0,556339912564069 
