Wavelength	AULNE200366.asd
325	 0,264110439253738 
326	 0,305312157099725 
327	 0,303518179144325 
328	 0,25884094653645 
329	 0,177115323927618 
330	 0,142011302568369 
331	 0,21770638555414 
332	 0,2191849344036 
333	 0,166383762968798 
334	 0,145125015495349 
335	 0,185481552727542 
336	 0,261289452018761 
337	 0,237037238232338 
338	 0,174220222698642 
339	 0,142708446920507 
340	 0,109956318026936 
341	 9,75459321088518E-02 
342	 0,167199330414628 
343	 0,168754337463167 
344	 7,34977822247083E-02 
345	 6,06891031659594E-02 
346	 0,079586326311958 
347	 0,071796155059676 
348	 9,29917160457723E-02 
349	 0,123437317182745 
350	 9,42756802278296E-02 
351	 7,70165457436093E-02 
352	 9,33158986786535E-02 
353	 9,62826484532645E-02 
354	 8,90497524703375E-02 
355	 7,98584087551263E-02 
356	 8,85616670152039E-02 
357	 0,110256440268847 
358	 0,119670087643472 
359	 0,107748861923023 
360	 7,51718463995015E-02 
361	 6,61851201785056E-02 
362	 7,62860632175186E-02 
363	 9,12692259732937E-02 
364	 0,100578933913448 
365	 9,63586172081281E-02 
366	 6,44417500382242E-02 
367	 4,55208644735137E-02 
368	 5,95742243941405E-02 
369	 7,28376543342928E-02 
370	 8,26314815156706E-02 
371	 9,18791842658123E-02 
372	 7,81209069617054E-02 
373	 4,96761345590127E-02 
374	 6,69118685928076E-02 
375	 8,48420956545318E-02 
376	 7,13738350794787E-02 
377	 5,53045386790396E-02 
378	 0,05044638474065 
379	 6,90902388816252E-02 
380	 0,101156967502122 
381	 0,126306451387321 
382	 0,100544496876312 
383	 6,84755209511295E-02 
384	 7,58424413423853E-02 
385	 8,79168538831357E-02 
386	 9,18663376333377E-02 
387	 7,07116826554485E-02 
388	 6,52599844235456E-02 
389	 0,086291276527862 
390	 7,87259701641067E-02 
391	 0,064508728993714 
392	 7,42043302305102E-02 
393	 7,51903320258424E-02 
394	 6,66312074691313E-02 
395	 6,58545948499882E-02 
396	 6,78232007117186E-02 
397	 7,01534001630466E-02 
398	 7,56980189691171E-02 
399	 8,00705040167065E-02 
400	 7,66258826158521E-02 
401	 7,43083746649312E-02 
402	 7,39526015994234E-02 
403	 6,84722428234553E-02 
404	 6,71784902098508E-02 
405	 7,52067452267742E-02 
406	 7,75569880556112E-02 
407	 7,58785754333395E-02 
408	 7,87614792051883E-02 
409	 7,68912040638007E-02 
410	 7,03262650813999E-02 
411	 7,10789596215647E-02 
412	 7,48964616222101E-02 
413	 7,69924465827546E-02 
414	 7,55478937069518E-02 
415	 0,072256999205057 
416	 7,19469340126649E-02 
417	 7,28716259806373E-02 
418	 7,38811637893994E-02 
419	 7,29185600368566E-02 
420	 7,02912996102718E-02 
421	 6,66606953245954E-02 
422	 6,68124951101497E-02 
423	 7,01575804528919E-02 
424	 7,08035176662161E-02 
425	 7,22599060503448E-02 
426	 7,58264827846113E-02 
427	 7,32952056560335E-02 
428	 6,92161500753705E-02 
429	 7,42994983838456E-02 
430	 0,071809831547731 
431	 6,17121898796689E-02 
432	 6,54335620167393E-02 
433	 7,22108402799111E-02 
434	 7,19834046385457E-02 
435	 7,19949035120497E-02 
436	 7,30325863550523E-02 
437	 7,46868239181993E-02 
438	 7,24989997834133E-02 
439	 6,64416713699094E-02 
440	 6,82198091007158E-02 
441	 7,22285538222079E-02 
442	 7,03525633523246E-02 
443	 6,82993158887243E-02 
444	 6,75571624477231E-02 
445	 6,84199614859056E-02 
446	 6,92057359445068E-02 
447	 6,88922328334971E-02 
448	 6,85446743322932E-02 
449	 6,85395192820331E-02 
450	 6,91611757579204E-02 
451	 7,12776174376905E-02 
452	 7,41800877116399E-02 
453	 0,073612682924803 
454	 7,29835329273913E-02 
455	 7,53935167150731E-02 
456	 7,60237211658767E-02 
457	 7,45385363500081E-02 
458	 7,18170569129926E-02 
459	 7,22908706847879E-02 
460	 7,69331145577468E-02 
461	 7,86309388326047E-02 
462	 7,75137443486342E-02 
463	 7,46941925310197E-02 
464	 7,33789173492811E-02 
465	 7,42798657148418E-02 
466	 7,66253455760711E-02 
467	 7,70250998915871E-02 
468	 7,38226895030561E-02 
469	 7,38943637747717E-02 
470	 7,60130195930014E-02 
471	 7,55837463756615E-02 
472	 7,60444094919729E-02 
473	 7,76376742010018E-02 
474	 7,67441666965156E-02 
475	 0,074879118987694 
476	 7,37546644923922E-02 
477	 7,23310350990319E-02 
478	 7,16413995957294E-02 
479	 7,53196661656222E-02 
480	 7,72999382341012E-02 
481	 7,52362364567299E-02 
482	 7,42869315275367E-02 
483	 0,074700395974769 
484	 7,59877173678794E-02 
485	 7,55686281315501E-02 
486	 7,38491337273098E-02 
487	 7,53634165562998E-02 
488	 7,69332074605691E-02 
489	 7,61544228894138E-02 
490	 7,46848145966769E-02 
491	 7,30558297765495E-02 
492	 7,14712763098913E-02 
493	 7,15410651822166E-02 
494	 7,35833980236404E-02 
495	 7,62710250976443E-02 
496	 7,70298417602653E-02 
497	 7,32999218675924E-02 
498	 7,30574929444229E-02 
499	 7,59599735689533E-02 
500	 7,48318451908417E-02 
501	 0,073813629731186 
502	 7,49595625884042E-02 
503	 0,074955440597867 
504	 7,43861127268942E-02 
505	 7,50048968577838E-02 
506	 7,52628749990548E-02 
507	 7,49961851808874E-02 
508	 7,54941071031476E-02 
509	 7,62036328187651E-02 
510	 0,076551365229721 
511	 7,59086082718942E-02 
512	 7,53635645173533E-02 
513	 7,82727471792972E-02 
514	 7,99673613104858E-02 
515	 7,87664173375165E-02 
516	 7,81178763625294E-02 
517	 7,83487244680858E-02 
518	 7,94102390142181E-02 
519	 7,96134028405165E-02 
520	 0,078946946313111 
521	 7,91626357280252E-02 
522	 7,95351465960449E-02 
523	 7,95483712063111E-02 
524	 7,97152805936797E-02 
525	 8,00153084725966E-02 
526	 8,02913688416967E-02 
527	 8,02886759226368E-02 
528	 0,079986847212449 
529	 7,98390962896639E-02 
530	 7,97870010640765E-02 
531	 7,97184175686288E-02 
532	 7,93667835524823E-02 
533	 0,078931751305895 
534	 7,92583223754525E-02 
535	 7,94877877610367E-02 
536	 7,91577914707701E-02 
537	 7,88769875457087E-02 
538	 7,89068213879164E-02 
539	 7,96653860026075E-02 
540	 0,079515106430625 
541	 7,83860175052299E-02 
542	 7,85405159655898E-02 
543	 7,89782515622818E-02 
544	 7,86818256563022E-02 
545	 7,94057412283041E-02 
546	 8,09201990225757E-02 
547	 8,18994805763846E-02 
548	 8,17848553482616E-02 
549	 8,05449742701103E-02 
550	 8,02416085747873E-02 
551	 8,08015656864347E-02 
552	 8,17508982059416E-02 
553	 8,19173868909849E-02 
554	 8,11794694488993E-02 
555	 8,05669681173996E-02 
556	 8,07089686601083E-02 
557	 8,19561092294539E-02 
558	 8,22292932409102E-02 
559	 8,15843900104445E-02 
560	 8,10589801421623E-02 
561	 0,081118213845582 
562	 8,18402610094497E-02 
563	 8,19783558118267E-02 
564	 8,20891420312778E-02 
565	 0,083042152266988 
566	 8,44093002302017E-02 
567	 8,57228515640395E-02 
568	 8,56805772235339E-02 
569	 8,62291110803047E-02 
570	 8,84708251891675E-02 
571	 8,89946651656692E-02 
572	 8,83804027230713E-02 
573	 8,89945530593958E-02 
574	 8,99737958323276E-02 
575	 0,091052842141081 
576	 9,21878877132165E-02 
577	 0,093098476706827 
578	 9,35077853508798E-02 
579	 9,42524514635079E-02 
580	 9,51017845472421E-02 
581	 9,47004576128348E-02 
582	 9,41794131463989E-02 
583	 0,094231543836782 
584	 9,47019827707287E-02 
585	 9,52646028053031E-02 
586	 9,53654654507018E-02 
587	 9,57128480303801E-02 
588	 0,096383967352026 
589	 9,68289082265194E-02 
590	 9,67864960435586E-02 
591	 9,61134085004143E-02 
592	 9,62885030043228E-02 
593	 9,68496228292644E-02 
594	 9,55416577664641E-02 
595	 9,48383372701919E-02 
596	 9,56422553508141E-02 
597	 9,57021535383905E-02 
598	 9,50594134106696E-02 
599	 9,41243183816096E-02 
600	 9,38512396227917E-02 
601	 9,42072673579659E-02 
602	 9,38489704009652E-02 
603	 9,31857740300994E-02 
604	 0,092618929630737 
605	 9,26833619991671E-02 
606	 9,30079295607847E-02 
607	 9,24553540079036E-02 
608	 9,18802261300975E-02 
609	 9,15738878576631E-02 
610	 0,091287220534996 
611	 9,09474506527999E-02 
612	 9,04858521472909E-02 
613	 9,03909465763986E-02 
614	 9,05131820632748E-02 
615	 8,98730479077101E-02 
616	 8,95142672133832E-02 
617	 9,00173525968786E-02 
618	 9,01819368365573E-02 
619	 9,00222712450449E-02 
620	 8,99451065999168E-02 
621	 8,96485708627836E-02 
622	 0,089299856794411 
623	 9,00960202526981E-02 
624	 9,09416850798442E-02 
625	 9,06824829786271E-02 
626	 9,05174740560321E-02 
627	 9,06783331938394E-02 
628	 9,10289195350154E-02 
629	 9,14564801721387E-02 
630	 9,19238618724978E-02 
631	 9,27016510099071E-02 
632	 9,34972378966481E-02 
633	 9,37757400479218E-02 
634	 9,46119431500961E-02 
635	 9,59240116235174E-02 
636	 9,59646415071694E-02 
637	 9,61404841018791E-02 
638	 9,75921322199767E-02 
639	 9,85308897699205E-02 
640	 9,89132639725901E-02 
641	 9,94694773376889E-02 
642	 0,100057390907043 
643	 0,100641397448007 
644	 0,101095481154874 
645	 0,101787794317062 
646	 0,103208994556044 
647	 0,103627153114575 
648	 0,103004876702466 
649	 0,102825001347145 
650	 0,102934323980984 
651	 0,10315349383354 
652	 0,102802901827775 
653	 0,101936149457846 
654	 0,10079179756191 
655	 0,100328257722542 
656	 0,100558052255262 
657	 9,97418849522951E-02 
658	 9,84478145412146E-02 
659	 9,73702527316112E-02 
660	 9,61422157392967E-02 
661	 9,48406968663374E-02 
662	 9,37211878445377E-02 
663	 9,31773567730119E-02 
664	 9,32168223180525E-02 
665	 9,24697332319013E-02 
666	 0,091057826814752 
667	 8,93896682628184E-02 
668	 0,088565573160535 
669	 8,86622573253811E-02 
670	 8,85062728645854E-02 
671	 8,80953421939492E-02 
672	 0,087508651712928 
673	 8,75474917176528E-02 
674	 8,78205840620691E-02 
675	 8,69856382708401E-02 
676	 8,64212832787241E-02 
677	 8,65561937937172E-02 
678	 8,67686190808088E-02 
679	 8,65990124489679E-02 
680	 8,55957238221527E-02 
681	 8,57372961625784E-02 
682	 8,69181461622855E-02 
683	 8,72198954234716E-02 
684	 8,73258395010972E-02 
685	 8,76810150065374E-02 
686	 8,85159987470661E-02 
687	 8,96203315854378E-02 
688	 9,05342934745362E-02 
689	 9,16997264332472E-02 
690	 9,34209483391358E-02 
691	 9,63487562200653E-02 
692	 9,94443515327067E-02 
693	 0,101839990391956 
694	 0,105063052981883 
695	 0,109273297582907 
696	 0,114079773264001 
697	 0,119374654999805 
698	 0,125104758764209 
699	 0,131359134471122 
700	 0,13815294211035 
701	 0,145498348311489 
702	 0,15302381094468 
703	 0,160706850197656 
704	 0,168897022106263 
705	 0,177340787467912 
706	 0,18582689642424 
707	 0,194179520042997 
708	 0,202362512064223 
709	 0,210365109673383 
710	 0,218320362821909 
711	 0,22623361518033 
712	 0,233912287859938 
713	 0,241406236713433 
714	 0,248718203533277 
715	 0,255513950841357 
716	 0,261871441843468 
717	 0,268153135228257 
718	 0,273933349363574 
719	 0,279136119258561 
720	 0,284491832781109 
721	 0,289572456293444 
722	 0,293765489296168 
723	 0,297752889991523 
724	 0,301610312335381 
725	 0,304951709425087 
726	 0,308087281518945 
727	 0,311209704755751 
728	 0,314154326726035 
729	 0,316819141948584 
730	 0,31906378834325 
731	 0,321117047890205 
732	 0,323129202007741 
733	 0,325426698789633 
734	 0,327330754402485 
735	 0,328314935517052 
736	 0,329590529615039 
737	 0,331160790354949 
738	 0,332451609853822 
739	 0,33361171243685 
740	 0,334679346684165 
741	 0,335638381615601 
742	 0,336592190743746 
743	 0,337645723763443 
744	 0,338202120147303 
745	 0,338473128001497 
746	 0,339497216476811 
747	 0,340674703920924 
748	 0,341597036341895 
749	 0,341855195075387 
750	 0,341883434120635 
751	 0,342422537249265 
752	 0,342848136034044 
753	 0,343096837178538 
754	 0,343578481460403 
755	 0,344036752839046 
756	 0,34430731813812 
757	 0,344758811458914 
758	 0,345223001858938 
759	 0,345198601570661 
760	 0,345580547683829 
761	 0,346409870914537 
762	 0,346412684885835 
763	 0,346268543612187 
764	 0,346643728669279 
765	 0,346765532408293 
766	 0,346763837317227 
767	 0,347440182911762 
768	 0,34760557219898 
769	 0,347015503201606 
770	 0,347202043027977 
771	 0,347729494198747 
772	 0,347935858109473 
773	 0,348106636917839 
774	 0,348354941243305 
775	 0,348955629358895 
776	 0,349094124090922 
777	 0,34854457780246 
778	 0,348979347404 
779	 0,349696035636765 
780	 0,349397448164893 
781	 0,349146700521681 
782	 0,349265975739765 
783	 0,349866756215418 
784	 0,350356901766459 
785	 0,350374558097376 
786	 0,350522197485776 
787	 0,350671682905587 
788	 0,350400135464856 
789	 0,35068769965587 
790	 0,351542710836097 
791	 0,351704782160386 
792	 0,351673492190759 
793	 0,351848509174586 
794	 0,351751946130379 
795	 0,351540693564026 
796	 0,351705985650841 
797	 0,351766749541558 
798	 0,351635925750172 
799	 0,351651768057249 
800	 0,351908860233859 
801	 0,352448065521884 
802	 0,352786047833727 
803	 0,353002084465385 
804	 0,353636161694049 
805	 0,353877689641036 
806	 0,353603857839651 
807	 0,353923007437798 
808	 0,354312082120775 
809	 0,354166592024013 
810	 0,354437656365004 
811	 0,354988267181559 
812	 0,354858089632194 
813	 0,354887738898835 
814	 0,355357823199889 
815	 0,355625118397213 
816	 0,355948392867961 
817	 0,356677751166267 
818	 0,357240158537539 
819	 0,357469420679399 
820	 0,357257958158607 
821	 0,357279742642692 
822	 0,35776707052743 
823	 0,357849372305214 
824	 0,357731606671844 
825	 0,357788351468965 
826	 0,357881050921911 
827	 0,357984340903171 
828	 0,358001530093475 
829	 0,358492646094616 
830	 0,359582725801924 
831	 0,360119000247642 
832	 0,360038792489052 
833	 0,359463734574632 
834	 0,35927878728541 
835	 0,359581126877086 
836	 0,359799797894519 
837	 0,35997757238381 
838	 0,360125138221409 
839	 0,360252959067812 
840	 0,360460033527078 
841	 0,36087875111912 
842	 0,360824244606844 
843	 0,360478566987039 
844	 0,361059796487644 
845	 0,361541962071548 
846	 0,361435548551759 
847	 0,361550418877951 
848	 0,361983939724334 
849	 0,362739603755912 
850	 0,362622365931628 
851	 0,361823014422222 
852	 0,361979144092993 
853	 0,362484884331245 
854	 0,362929922552004 
855	 0,362865700451608 
856	 0,362649355191035 
857	 0,362842115859089 
858	 0,362822151719492 
859	 0,362686800071385 
860	 0,363237034334725 
861	 0,363740779599276 
862	 0,363788089975626 
863	 0,363430847941162 
864	 0,36315336163094 
865	 0,363553387042012 
866	 0,36385554066839 
867	 0,364099386366527 
868	 0,365082180571307 
869	 0,365683738059489 
870	 0,365486883224509 
871	 0,365619104772859 
872	 0,365772603028773 
873	 0,365461972230147 
874	 0,364838160554821 
875	 0,364307337556958 
876	 0,364867918039987 
877	 0,36558261512935 
878	 0,365961998736865 
879	 0,365840584860758 
880	 0,365520906182371 
881	 0,365373154203855 
882	 0,365747315404864 
883	 0,366332013489355 
884	 0,366104554221819 
885	 0,365884466713263 
886	 0,365947700682757 
887	 0,366050184737358 
888	 0,366266918976911 
889	 0,366660523774783 
890	 0,367094441447564 
891	 0,367300222687437 
892	 0,366764308858782 
893	 0,366255271058311 
894	 0,366180905999329 
895	 0,367011095195828 
896	 0,36771038542141 
897	 0,367498499722387 
898	 0,367207522338436 
899	 0,367032168546746 
900	 0,367056467876925 
901	 0,367370952956542 
902	 0,367834746475124 
903	 0,367895133575068 
904	 0,367737084629543 
905	 0,367595710450958 
906	 0,368303275880201 
907	 0,368968699619772 
908	 0,368219670502468 
909	 0,367307251544725 
910	 0,366825882083094 
911	 0,367509982654869 
912	 0,368373566601717 
913	 0,368856169497403 
914	 0,368891705293091 
915	 0,368808772783742 
916	 0,368944393565378 
917	 0,368173161515192 
918	 0,367162683569266 
919	 0,368252543269545 
920	 0,368623647210444 
921	 0,367629186492778 
922	 0,367287387279958 
923	 0,367131866434932 
924	 0,366705051426871 
925	 0,366101260484799 
926	 0,365588333260421 
927	 0,365639864362047 
928	 0,3650931627913 
929	 0,364152043162606 
930	 0,364858659029586 
931	 0,365552384572027 
932	 0,365244832797348 
933	 0,364503053267032 
934	 0,363765203373917 
935	 0,363503654830002 
936	 0,363246736794415 
937	 0,362750183697541 
938	 0,361580995480131 
939	 0,360764574384175 
940	 0,360648481758413 
941	 0,360713460522148 
942	 0,360602051226121 
943	 0,360000071968143 
944	 0,358714877752904 
945	 0,357514492991003 
946	 0,357903216642811 
947	 0,356875571404128 
948	 0,354234604729618 
949	 0,352502822680583 
950	 0,351836509495075 
951	 0,352008972241068 
952	 0,350917760520742 
953	 0,349031986718296 
954	 0,347275690579639 
955	 0,346672695272544 
956	 0,346572633550895 
957	 0,34459000883784 
958	 0,343177396480046 
959	 0,343046594703735 
960	 0,343372827678234 
961	 0,342853265916874 
962	 0,340865400787836 
963	 0,340872110707672 
964	 0,341601080714391 
965	 0,340392967008144 
966	 0,339877576855212 
967	 0,340217189439346 
968	 0,339595067185905 
969	 0,340634691446474 
970	 0,343500746286311 
971	 0,343108524748829 
972	 0,341072459904927 
973	 0,339484694878421 
974	 0,340839814448969 
975	 0,343141019227805 
976	 0,342028408063476 
977	 0,341307284149105 
978	 0,341909987227948 
979	 0,343628001575886 
980	 0,343290167223191 
981	 0,340178937312285 
982	 0,340255350992606 
983	 0,341117789005092 
984	 0,340135401082294 
985	 0,342191487557601 
986	 0,34535040477526 
987	 0,344261255494599 
988	 0,343262374587609 
989	 0,343635566478491 
990	 0,345379811921097 
991	 0,346229300986406 
992	 0,345328186840851 
993	 0,345623349829031 
994	 0,346259771219525 
995	 0,346183067076026 
996	 0,346703687921889 
997	 0,348371127197069 
998	 0,351832169094679 
999	 0,353517331303588 
1000	 0,352781683758645 
1001	 0,351334082179083 
1002	 0,351043469092727 
1003	 0,352569193428014 
1004	 0,35333606537298 
1005	 0,353801308456707 
1006	 0,354518834928069 
1007	 0,354085822824037 
1008	 0,353903210715652 
1009	 0,356778299224793 
1010	 0,35830223503193 
1011	 0,357737226531009 
1012	 0,357104847054556 
1013	 0,355637753886374 
1014	 0,353963458939052 
1015	 0,356139775346638 
1016	 0,360014818448405 
1017	 0,363369119919268 
1018	 0,365988384473823 
1019	 0,365795718652106 
1020	 0,360284016109415 
1021	 0,362388517870593 
1022	 0,369966422522066 
1023	 0,36796337421041 
1024	 0,364407143372419 
1025	 0,362535039702734 
1026	 0,364265301410189 
1027	 0,365092468446359 
1028	 0,362834535258076 
1029	 0,364499600456562 
1030	 0,368044968462438 
1031	 0,369940226173548 
1032	 0,367344069863332 
1033	 0,363909526650879 
1034	 0,368073420495677 
1035	 0,371570769556424 
1036	 0,371758855844006 
1037	 0,367635962566608 
1038	 0,36715986708215 
1039	 0,372945479878514 
1040	 0,378068011092188 
1041	 0,379128940178449 
1042	 0,374549300253553 
1043	 0,372607150301793 
1044	 0,373018515176634 
1045	 0,373615379271581 
1046	 0,375152004357555 
1047	 0,376770510169946 
1048	 0,376203943595119 
1049	 0,377186285456097 
1050	 0,380091989608833 
1051	 0,382861133360495 
1052	 0,378832472615395 
1053	 0,367943980722648 
1054	 0,369169687329923 
1055	 0,373512713104012 
1056	 0,373028222636321 
1057	 0,378868526439875 
1058	 0,387077598188625 
1059	 0,390395228279814 
1060	 0,384033157985984 
1061	 0,373533739747796 
1062	 0,373782078137558 
1063	 0,375055008940641 
1064	 0,374602041431748 
1065	 0,372464870155315 
1066	 0,375113541305917 
1067	 0,382290907556489 
1068	 0,377460567410969 
1069	 0,371801865203747 
1070	 0,373751260107465 
1071	 0,376233067408233 
1072	 0,380831214679407 
1073	 0,388982091218885 
1074	 0,389012232478685 
1075	 0,38144624628505 
