Wavelength	AULNE200214.asd
325	 0,335262020277033 
326	 0,413070591736544 
327	 0,41401841670626 
328	 0,322956613099644 
329	 0,311966502720884 
330	 0,307092477193307 
331	 0,242064352366241 
332	 0,267456413977583 
333	 0,34228208031611 
334	 0,340964587961442 
335	 0,289537295002685 
336	 0,223021975957285 
337	 0,265334288508026 
338	 0,277208553071855 
339	 0,132051904794948 
340	 0,119029912220328 
341	 0,194556569166162 
342	 0,168963430337368 
343	 0,150515818388442 
344	 0,157163978812302 
345	 0,112357757163781 
346	 0,090969755921008 
347	 0,141583493481484 
348	 0,17419964206655 
349	 0,168767511381002 
350	 0,118102630166216 
351	 0,107491283639098 
352	 0,153862692503205 
353	 0,136255007790947 
354	 0,101846341746791 
355	 0,109650721310699 
356	 0,123946224549909 
357	 0,137328458913374 
358	 0,150187540724062 
359	 0,149597734026926 
360	 0,134500842193403 
361	 0,143122470509703 
362	 0,162543645053892 
363	 0,172576998769321 
364	 0,166015745301783 
365	 0,142982403446012 
366	 0,112834675725004 
367	 0,1090677484489 
368	 0,141109753662175 
369	 0,136805189512028 
370	 0,114996085530534 
371	 0,129361871119097 
372	 0,12901643353365 
373	 0,115451885825755 
374	 0,159639206375128 
375	 0,177648541233935 
376	 0,115533361558508 
377	 0,107334290136586 
378	 0,142329359826389 
379	 0,149606248112578 
380	 0,157233010454711 
381	 0,167197805381451 
382	 0,163073333419868 
383	 0,158497723052073 
384	 0,167030006557842 
385	 0,18573080436713 
386	 0,197297765227866 
387	 0,161006145096142 
388	 0,141240254247934 
389	 0,160852127742172 
390	 0,16517931613665 
391	 0,15624107283086 
392	 0,14300011168526 
393	 0,1414711928227 
394	 0,15239007416944 
395	 0,170431190000644 
396	 0,16990910385977 
397	 0,144323301522871 
398	 0,146426685519735 
399	 0,161466191936485 
400	 0,158486219804116 
401	 0,153828094703619 
402	 0,149973415910294 
403	 0,140668852247283 
404	 0,136122270769486 
405	 0,142314076318082 
406	 0,147874330026851 
407	 0,150204103569758 
408	 0,148413697011491 
409	 0,145529549414817 
410	 0,143354922165246 
411	 0,144216083500088 
412	 0,145718454001089 
413	 0,145565089526133 
414	 0,145861912929396 
415	 0,146360260005163 
416	 0,145348762085187 
417	 0,145433997096835 
418	 0,146883702349736 
419	 0,144124088707805 
420	 0,14117844032146 
421	 0,143556132090947 
422	 0,146383365878564 
423	 0,147833347665523 
424	 0,14486548656979 
425	 0,146286132387314 
426	 0,155342487652014 
427	 0,151880706053526 
428	 0,142611600499662 
429	 0,144232960140235 
430	 0,14632599566633 
431	 0,146406157819678 
432	 0,146930874882668 
433	 0,147236035819627 
434	 0,146726551847738 
435	 0,146472662208667 
436	 0,146143587947585 
437	 0,144376987564519 
438	 0,142153466488192 
439	 0,140699985264028 
440	 0,144253956832209 
441	 0,148567599457389 
442	 0,148147432300573 
443	 0,146550533546385 
444	 0,144893855720608 
445	 0,143524457644232 
446	 0,143415835412273 
447	 0,145070875369722 
448	 0,147303016873282 
449	 0,149267066154256 
450	 0,149850057655713 
451	 0,149264493531117 
452	 0,148530675729094 
453	 0,151536000842518 
454	 0,15507143414321 
455	 0,15596921047397 
456	 0,155528290306276 
457	 0,154335158681597 
458	 0,152482515536 
459	 0,154424222681714 
460	 0,160270453885979 
461	 0,158198850707773 
462	 0,153036856660843 
463	 0,152639014484585 
464	 0,1546356124286 
465	 0,157560864060354 
466	 0,158496619183497 
467	 0,158134704657356 
468	 0,157090691099487 
469	 0,156357844738923 
470	 0,156199835464332 
471	 0,156739038362521 
472	 0,157394323645838 
473	 0,157745309510379 
474	 0,156998163097799 
475	 0,156256465804553 
476	 0,156571870562277 
477	 0,155322370252414 
478	 0,153486161173039 
479	 0,155372840971628 
480	 0,156562996074322 
481	 0,155096769748064 
482	 0,152686442731081 
483	 0,151079478955813 
484	 0,152447884697316 
485	 0,153273221805071 
486	 0,15294964971431 
487	 0,153340581623628 
488	 0,153207088738616 
489	 0,151810945212509 
490	 0,152023241865323 
491	 0,152743479930744 
492	 0,150031335311251 
493	 0,148901371865974 
494	 0,150745147455317 
495	 0,153016381358766 
496	 0,153929903010699 
497	 0,151841624213255 
498	 0,152371387843612 
499	 0,154810096511989 
500	 0,152429993141335 
501	 0,151475596163425 
502	 0,154835550032382 
503	 0,155142726297493 
504	 0,154487198455285 
505	 0,158359732215109 
506	 0,159861883098578 
507	 0,158201008584202 
508	 0,159402727492388 
509	 0,1609062276117 
510	 0,160283241890915 
511	 0,159792803986051 
512	 0,160087408411211 
513	 0,161650647509636 
514	 0,163591303936865 
515	 0,165182175414022 
516	 0,164716128879485 
517	 0,164191842542862 
518	 0,166599291463289 
519	 0,16803259196886 
520	 0,167992258550401 
521	 0,168782837312237 
522	 0,16882643295978 
523	 0,167186074671466 
524	 0,166677585971821 
525	 0,167066562881592 
526	 0,166668832770089 
527	 0,166806446763896 
528	 0,167648441163469 
529	 0,167842135774327 
530	 0,16750266814055 
531	 0,166892827702564 
532	 0,166251194721436 
533	 0,166031504953657 
534	 0,167516135831217 
535	 0,168205009809808 
536	 0,166865233036345 
537	 0,166499670183138 
538	 0,166852062550967 
539	 0,166626415535775 
540	 0,166740122491363 
541	 0,167240932464917 
542	 0,167100236639015 
543	 0,166939748048697 
544	 0,167414791404158 
545	 0,168561734885813 
546	 0,169819101847659 
547	 0,169652680675206 
548	 0,169676082087645 
549	 0,170498786880917 
550	 0,170410772574499 
551	 0,169994180862541 
552	 0,170439334893071 
553	 0,170806440346849 
554	 0,170725833601149 
555	 0,169769176308 
556	 0,169166752045957 
557	 0,169789691298999 
558	 0,169082843865847 
559	 0,167397149413098 
560	 0,166705646266198 
561	 0,166345426078073 
562	 0,166064016840943 
563	 0,165678292427057 
564	 0,165271551940049 
565	 0,16498056468398 
566	 0,164926952748119 
567	 0,16509919830076 
568	 0,165219551860191 
569	 0,165785877913767 
570	 0,167132106551087 
571	 0,168997764787657 
572	 0,170815351979937 
573	 0,171410905690665 
574	 0,172588169434596 
575	 0,174891167540131 
576	 0,177508143980493 
577	 0,179622006247195 
578	 0,180457765708087 
579	 0,182870593350439 
580	 0,186317234451208 
581	 0,186888617343703 
582	 0,187647032152243 
583	 0,190104194952841 
584	 0,191400416096112 
585	 0,192081005514882 
586	 0,193753445008638 
587	 0,195312324794789 
588	 0,196559037337957 
589	 0,198159310029661 
590	 0,199466335759721 
591	 0,199903336165883 
592	 0,200449517551239 
593	 0,201038370842541 
594	 0,2007986830842 
595	 0,201015291587506 
596	 0,202065597134461 
597	 0,202104135204039 
598	 0,201696898697622 
599	 0,202003475823356 
600	 0,201807092329596 
601	 0,200909405022262 
602	 0,199814510627612 
603	 0,19896131582191 
604	 0,19866299538279 
605	 0,198414619420419 
606	 0,197935868389887 
607	 0,196766761419752 
608	 0,195721977047013 
609	 0,195082458261927 
610	 0,194457370272903 
611	 0,193643674281552 
612	 0,192436187090824 
613	 0,191537783951944 
614	 0,190903491474041 
615	 0,189681307342276 
616	 0,188643240764513 
617	 0,188279303861645 
618	 0,188142775094868 
619	 0,188141749660662 
620	 0,18833280048966 
621	 0,1878801662606 
622	 0,186788617066488 
623	 0,186537925400179 
624	 0,186603202274909 
625	 0,18637778316038 
626	 0,186671649273629 
627	 0,187456004094249 
628	 0,188285507473235 
629	 0,188668008347196 
630	 0,188469927976262 
631	 0,188827754765389 
632	 0,189668393101116 
633	 0,190613056513659 
634	 0,191952797523096 
635	 0,193544201408007 
636	 0,194530618261514 
637	 0,195705333692415 
638	 0,197655217165687 
639	 0,198719139386555 
640	 0,199089455956031 
641	 0,200007259198766 
642	 0,200983169165576 
643	 0,201886281062519 
644	 0,202985957000475 
645	 0,20395411394422 
646	 0,204362297838491 
647	 0,204355872461773 
648	 0,204003984863858 
649	 0,203415117553183 
650	 0,202697217434469 
651	 0,201838943943136 
652	 0,200001054155944 
653	 0,197655324525949 
654	 0,195985165927792 
655	 0,194262422889676 
656	 0,192229083087453 
657	 0,189833914831228 
658	 0,187260228596748 
659	 0,18469409809577 
660	 0,181836848129999 
661	 0,178888186765735 
662	 0,176525316035464 
663	 0,174369807771479 
664	 0,17220199439896 
665	 0,169866853165303 
666	 0,167684392224148 
667	 0,166151327874553 
668	 0,165129626390081 
669	 0,164417985055831 
670	 0,16342351622858 
671	 0,162486305072353 
672	 0,16190875726462 
673	 0,161787774163369 
674	 0,161788299793985 
675	 0,161093136616053 
676	 0,160341085136213 
677	 0,159906424821067 
678	 0,160384802354617 
679	 0,161055044630412 
680	 0,161022935485212 
681	 0,161423141138713 
682	 0,162371340758775 
683	 0,163188903294745 
684	 0,1647942037947 
685	 0,167573965710961 
686	 0,169911832385225 
687	 0,172276250851341 
688	 0,175823259919358 
689	 0,180383761445959 
690	 0,185978577864504 
691	 0,192665033203 
692	 0,200215082481752 
693	 0,208454073771687 
694	 0,217699278902742 
695	 0,22807291489153 
696	 0,239789403576497 
697	 0,252233241005847 
698	 0,265154688374191 
699	 0,278914134579783 
700	 0,29315014435977 
701	 0,307389938575332 
702	 0,321734598476259 
703	 0,335936598952609 
704	 0,349373952155898 
705	 0,362330641720556 
706	 0,374981168243784 
707	 0,387284384502029 
708	 0,399076123659098 
709	 0,410045021477189 
710	 0,42052404035741 
711	 0,430538808426427 
712	 0,439744192342244 
713	 0,448140735617241 
714	 0,455750686766182 
715	 0,463133878856862 
716	 0,470375067020648 
717	 0,477396874186843 
718	 0,483448534015091 
719	 0,488354500354666 
720	 0,493266431258634 
721	 0,498057340597443 
722	 0,50242178461857 
723	 0,506388396092967 
724	 0,509953462983877 
725	 0,513073755508384 
726	 0,516001234743979 
727	 0,518861988026111 
728	 0,521209551388282 
729	 0,523204550385143 
730	 0,525233959542969 
731	 0,52706790592953 
732	 0,528721119543154 
733	 0,530553465934796 
734	 0,532125699005449 
735	 0,533077608155302 
736	 0,533955601815575 
737	 0,53491635974052 
738	 0,536079604970517 
739	 0,537132928149525 
740	 0,537921870589472 
741	 0,5383165333281 
742	 0,538868874584775 
743	 0,54019321017823 
744	 0,540964341242165 
745	 0,54114558934157 
746	 0,541610996756125 
747	 0,542168124846332 
748	 0,542702242299963 
749	 0,543049792816668 
750	 0,543325182841885 
751	 0,543735472577892 
752	 0,544131569165588 
753	 0,544501912016575 
754	 0,544984170147813 
755	 0,545331773232664 
756	 0,545396169965157 
757	 0,545577818826429 
758	 0,54583719705182 
759	 0,545918798554233 
760	 0,546334395292031 
761	 0,54704089742135 
762	 0,54706889901791 
763	 0,546855088185875 
764	 0,54686053188031 
765	 0,546979631432511 
766	 0,54714545109565 
767	 0,547177994403778 
768	 0,547399317485778 
769	 0,547829031979534 
770	 0,547792439055293 
771	 0,547682225172667 
772	 0,548014135801422 
773	 0,548305588327896 
774	 0,548409317452049 
775	 0,548212631972892 
776	 0,548084294675677 
777	 0,548253823494086 
778	 0,548836192335286 
779	 0,54926193561025 
780	 0,548697057333455 
781	 0,548504295714538 
782	 0,548877127553429 
783	 0,549132847070983 
784	 0,549028758312699 
785	 0,548558953869456 
786	 0,549200302727041 
787	 0,550157007528478 
788	 0,549630936506996 
789	 0,549348115697334 
790	 0,549681434301573 
791	 0,549911675346634 
792	 0,549958765647708 
793	 0,549777523843971 
794	 0,549445604398117 
795	 0,549230496782747 
796	 0,54964708809522 
797	 0,550108035062199 
798	 0,550340447951527 
799	 0,550135977439722 
800	 0,55000324708992 
801	 0,550368176772091 
802	 0,550085186356653 
803	 0,549436982095729 
804	 0,549668873774912 
805	 0,54998455529419 
806	 0,55014770747829 
807	 0,550504034977907 
808	 0,550863743399953 
809	 0,55100393236029 
810	 0,550892556575348 
811	 0,550733531498706 
812	 0,551144767398217 
813	 0,551290638898203 
814	 0,550921723081214 
815	 0,550806848795804 
816	 0,551059971153214 
817	 0,551711345403747 
818	 0,552268335086523 
819	 0,552477429204271 
820	 0,551918743442679 
821	 0,551885379011927 
822	 0,55275061164057 
823	 0,552497086676468 
824	 0,551820505190965 
825	 0,551865545736878 
826	 0,552157904908761 
827	 0,552469964241379 
828	 0,552386056167228 
829	 0,552456623668239 
830	 0,552850995292768 
831	 0,552679527434742 
832	 0,552201591033342 
833	 0,551897031618114 
834	 0,552158694448511 
835	 0,552835345452271 
836	 0,553151609273435 
837	 0,552987694374295 
838	 0,552417035288517 
839	 0,552512680633477 
840	 0,55288878236137 
841	 0,552822132703726 
842	 0,553022088313706 
843	 0,553397732417738 
844	 0,553090441205359 
845	 0,552758143874027 
846	 0,552780810510659 
847	 0,553010809120799 
848	 0,553308757768359 
849	 0,553502508339788 
850	 0,553576379827766 
851	 0,553570697378362 
852	 0,553674508992939 
853	 0,553662149867221 
854	 0,553395788728152 
855	 0,552741706752996 
856	 0,552396947557903 
857	 0,553286380689331 
858	 0,553418999047222 
859	 0,552834642720897 
860	 0,553383879453186 
861	 0,553876296710047 
862	 0,553717087047205 
863	 0,553324569489641 
864	 0,552990915817611 
865	 0,553030075357441 
866	 0,553242263693027 
867	 0,553464740686274 
868	 0,55330912651329 
869	 0,553556561528297 
870	 0,554342406565265 
871	 0,554032346940571 
872	 0,553493114017789 
873	 0,553904596027087 
874	 0,55391125182075 
875	 0,553478116973621 
876	 0,55333194708833 
877	 0,553347983685732 
878	 0,553488022742651 
879	 0,553784312069615 
880	 0,553810576637909 
881	 0,553190251628017 
882	 0,553454699768549 
883	 0,554234175446076 
884	 0,553705675390107 
885	 0,55313441590305 
886	 0,553055890804952 
887	 0,553727280827723 
888	 0,554370921961519 
889	 0,554252482760917 
890	 0,553855679546553 
891	 0,553324298414849 
892	 0,55269225017089 
893	 0,552673412085192 
894	 0,553225152432305 
895	 0,55295808769874 
896	 0,5527174997901 
897	 0,553178445285986 
898	 0,553953202578161 
899	 0,554390289763597 
900	 0,553445989300877 
901	 0,553046994783766 
902	 0,553519271813601 
903	 0,553810691374549 
904	 0,55370720966853 
905	 0,553199818953425 
906	 0,553331189852073 
907	 0,553708532319392 
908	 0,553591514261725 
909	 0,553198718528941 
910	 0,552831612588111 
911	 0,553294982218593 
912	 0,553585116044178 
913	 0,553331830190653 
914	 0,553528456850293 
915	 0,553574462881344 
916	 0,55278915879525 
917	 0,552593288604367 
918	 0,552938063570967 
919	 0,552905016200404 
920	 0,553136768717288 
921	 0,553549871834437 
922	 0,552774370180335 
923	 0,552073069643405 
924	 0,552430016551209 
925	 0,552193865003442 
926	 0,551586299519026 
927	 0,5514886601898 
928	 0,551002612662802 
929	 0,550210555834061 
930	 0,550314439650395 
931	 0,550572294252099 
932	 0,550411633221028 
933	 0,549198824404257 
934	 0,547916324565945 
935	 0,547877818323298 
936	 0,548046086413783 
937	 0,54788105361207 
938	 0,546598536513299 
939	 0,545063812127372 
940	 0,543971136788975 
941	 0,54481221207546 
942	 0,545527974083241 
943	 0,544296349047549 
944	 0,542716733991029 
945	 0,54107529908737 
946	 0,539301745375497 
947	 0,539369235203302 
948	 0,540517020318763 
949	 0,537788487135002 
950	 0,535264722423819 
951	 0,535059979693207 
952	 0,534506331219983 
953	 0,532977437771365 
954	 0,530196096540375 
955	 0,529265487428401 
956	 0,529777037098583 
957	 0,528911309769529 
958	 0,527725604776539 
959	 0,526712640107686 
960	 0,526573553333616 
961	 0,526742341585701 
962	 0,526666215275592 
963	 0,525911137007898 
964	 0,524619275702898 
965	 0,523121796622939 
966	 0,522671937937897 
967	 0,523256117086315 
968	 0,523762620935914 
969	 0,523978515772465 
970	 0,523831385527462 
971	 0,523830582448921 
972	 0,523686204530533 
973	 0,523205555820538 
974	 0,523428953700609 
975	 0,524359649356607 
976	 0,525734216203673 
977	 0,525329762994323 
978	 0,523461870174254 
979	 0,523650818071145 
980	 0,523281915992329 
981	 0,521609067034072 
982	 0,522156683051816 
983	 0,523226103079729 
984	 0,522889920534909 
985	 0,522431098381359 
986	 0,523015981860894 
987	 0,526590985711453 
988	 0,526620119082414 
989	 0,523307313008796 
990	 0,524594992493497 
991	 0,526466335965249 
992	 0,526965861766579 
993	 0,527983759474559 
994	 0,528665165178778 
995	 0,528192343701283 
996	 0,529473353794147 
997	 0,531225611666524 
998	 0,529963710540786 
999	 0,528854600818026 
1000	 0,528914953493918 
1001	 0,53029145213274 
1002	 0,531555876590413 
1003	 0,53184974237379 
1004	 0,53081266101342 
1005	 0,530697260230411 
1006	 0,533270223597582 
1007	 0,532494470007163 
1008	 0,531624565158809 
1009	 0,538240332173256 
1010	 0,538118739383413 
1011	 0,531211197750164 
1012	 0,529958359092259 
1013	 0,532330304582215 
1014	 0,536649079130338 
1015	 0,537792185237038 
1016	 0,538006580742878 
1017	 0,539303632166359 
1018	 0,539268968474705 
1019	 0,538994280141839 
1020	 0,540491743507388 
1021	 0,542722219874932 
1022	 0,544015516367653 
1023	 0,54017293855665 
1024	 0,539150449923128 
1025	 0,542489371426051 
1026	 0,543616773448043 
1027	 0,542267248520914 
1028	 0,539412513712421 
1029	 0,542404728790461 
1030	 0,546692294306274 
1031	 0,546304480683684 
1032	 0,548234694438293 
1033	 0,550598493535542 
1034	 0,546960384393884 
1035	 0,546619342560595 
1036	 0,550670839833284 
1037	 0,553485368240643 
1038	 0,551511636708268 
1039	 0,545201760144008 
1040	 0,54566945142502 
1041	 0,549979738999702 
1042	 0,554172316632083 
1043	 0,551017036022179 
1044	 0,547963038063546 
1045	 0,555822107702898 
1046	 0,557829321386179 
1047	 0,553478024822698 
1048	 0,550079807659461 
1049	 0,550468973236965 
1050	 0,553635858071602 
1051	 0,550879098894728 
1052	 0,549672313281754 
1053	 0,552560312783247 
1054	 0,55125026664839 
1055	 0,548699034395197 
1056	 0,548265038786118 
1057	 0,551472245259716 
1058	 0,557131963873172 
1059	 0,563087417812647 
1060	 0,563238801663198 
1061	 0,557088023863119 
1062	 0,546547398236705 
1063	 0,548760672981146 
1064	 0,562574079214875 
1065	 0,564392561627684 
1066	 0,556251510797955 
1067	 0,541501216286955 
1068	 0,53095712454273 
1069	 0,527848750611199 
1070	 0,532872358127862 
1071	 0,535810884445594 
1072	 0,542192181949727 
1073	 0,558051443248656 
1074	 0,560758590184102 
1075	 0,551463636559418 
