Wavelength	AULNE200446.asd
325	 0,312553022497523 
326	 0,250143691543667 
327	 0,191513382655716 
328	 0,172633061916474 
329	 0,110444039069896 
330	 9,83852373359626E-02 
331	 0,198264726339846 
332	 0,109187789687915 
333	-0,0611200417827 
334	 3,46564558052958E-02 
335	 0,128215187745088 
336	 0,147590433472598 
337	 0,102749748757368 
338	 5,51689141440372E-02 
339	 6,64423010200541E-02 
340	 6,99881595215769E-02 
341	 5,77050875509479E-02 
342	 3,73731650785475E-02 
343	 1,47268330482775E-02 
344	 2,04313697684007E-03 
345	 7,40625117362076E-02 
346	 0,109627845857402 
347	 3,32478440580668E-02 
348	 1,66786387929068E-02 
349	 5,68215006935333E-02 
350	 6,62710632527285E-02 
351	 5,14169149360091E-02 
352	 1,60972163165349E-02 
353	-2,25842960816942E-02 
354	-2,90999668449107E-02 
355	 2,57839414972564E-02 
356	 4,88600852717832E-02 
357	 3,79458247497763E-02 
358	 5,23819570078371E-02 
359	 5,35084040742913E-02 
360	 0,028623622307902 
361	 2,61970003220943E-02 
362	 3,33724968419937E-02 
363	 2,52289225864864E-02 
364	 2,65723089602574E-02 
365	 3,74306352758855E-02 
366	 3,26643293761915E-02 
367	 3,45139479099816E-02 
368	 0,051075647757664 
369	 3,88870491459565E-02 
370	 1,15303454962145E-02 
371	 5,88634731214163E-03 
372	 3,19420104375799E-03 
373	 4,28083955426764E-03 
374	 3,81601231575451E-02 
375	 4,77024244306289E-02 
376	-1,93760765444664E-03 
377	 1,87979667633002E-03 
378	 3,99346758166792E-02 
379	 3,50050230297912E-02 
380	 3,04920526782193E-02 
381	 3,63586594924645E-02 
382	 3,35626883348339E-02 
383	 3,16025816105249E-02 
384	 3,98746203974905E-02 
385	 5,11745127225569E-02 
386	 5,36612548520304E-02 
387	 1,75891685933995E-02 
388	 7,59662007687734E-03 
389	 4,12049213110882E-02 
390	 3,17027497618187E-02 
391	 1,36722493807404E-02 
392	 3,49405290606802E-02 
393	 3,06963716845161E-02 
394	 5,10078331073551E-03 
395	 1,22460429955115E-02 
396	 1,76401648369974E-02 
397	 7,10295499372782E-03 
398	 1,29030548388948E-02 
399	 2,68576091659925E-02 
400	 3,24426708249163E-02 
401	 2,59431571636871E-02 
402	 1,13023425571495E-02 
403	 4,93985617143993E-03 
404	 6,00039526351613E-03 
405	 1,27313667294841E-02 
406	 1,75192490301172E-02 
407	 0,019294954917131 
408	 1,83668963347872E-02 
409	 2,25400014635421E-02 
410	 3,02119017259533E-02 
411	 2,25578950754054E-02 
412	 1,39883142805298E-02 
413	 1,82660594859625E-02 
414	 2,13876052908085E-02 
415	 2,09817674318739E-02 
416	 1,74854411199032E-02 
417	 1,40492304348711E-02 
418	 1,26674857568881E-02 
419	 1,51188796527417E-02 
420	 1,78012560421791E-02 
421	 0,016111479401734 
422	 1,65459428155698E-02 
423	 1,94310962231656E-02 
424	 2,07436050408267E-02 
425	 2,20258201584189E-02 
426	 2,39028226629696E-02 
427	 2,40055583523627E-02 
428	 2,12891500291055E-02 
429	 1,40731292231234E-02 
430	 9,47015736583084E-03 
431	 9,95145012885923E-03 
432	 1,55517437728121E-02 
433	 2,05269159196545E-02 
434	 1,99871009657856E-02 
435	 1,86338864639521E-02 
436	 1,72670207853333E-02 
437	 0,015306149864129 
438	 1,39110696752256E-02 
439	 1,39520127896483E-02 
440	 1,72699061967404E-02 
441	 2,00859714412361E-02 
442	 1,77482813899223E-02 
443	 1,60775655100186E-02 
444	 1,60674950610382E-02 
445	 1,54625624776553E-02 
446	 1,65326120345843E-02 
447	 1,98617985400499E-02 
448	 0,017922360741793 
449	 1,43153646380277E-02 
450	 1,77752673703652E-02 
451	 2,08113668788021E-02 
452	 2,08405487152627E-02 
453	 1,69385688850651E-02 
454	 1,47159774669182E-02 
455	 1,90956445572575E-02 
456	 2,35799185853006E-02 
457	 2,47893637522234E-02 
458	 1,63289191397541E-02 
459	 1,46186074454583E-02 
460	 0,024032552231899 
461	 2,28155956501897E-02 
462	 1,70339072194667E-02 
463	 1,74676441925994E-02 
464	 1,81210653512105E-02 
465	 1,78977259365256E-02 
466	 0,017643698579946 
467	 0,01838148140818 
468	 2,03949655282048E-02 
469	 1,97494618270036E-02 
470	 1,79999775487393E-02 
471	 1,95804271614783E-02 
472	 1,95022976252242E-02 
473	 1,69947390350496E-02 
474	 1,59116846076565E-02 
475	 1,64541341839056E-02 
476	 1,83915759696504E-02 
477	 0,016946289473661 
478	 1,37633672521502E-02 
479	 1,62279862215453E-02 
480	 1,87866600618482E-02 
481	 1,88339118134758E-02 
482	 1,71925042883568E-02 
483	 0,015892037632979 
484	 1,77650165117439E-02 
485	 1,79625065057569E-02 
486	 1,61605357210637E-02 
487	 1,63920048016009E-02 
488	 1,67918916718039E-02 
489	 0,016062481457396 
490	 0,016645187401534 
491	 0,017724059583773 
492	 1,63689261097667E-02 
493	 1,60604071406908E-02 
494	 0,01759378293997 
495	 1,84487781886094E-02 
496	 1,81514079096895E-02 
497	 1,64554347594397E-02 
498	 1,64143932109641E-02 
499	 1,74174157737848E-02 
500	 1,47258121531411E-02 
501	 1,43156970396649E-02 
502	 1,86976686372855E-02 
503	 1,89367540812948E-02 
504	 1,72659405116673E-02 
505	 1,97958182235448E-02 
506	 1,99582459655963E-02 
507	 1,71833681737124E-02 
508	 1,76551355756152E-02 
509	 1,84925146160982E-02 
510	 1,70068623305787E-02 
511	 1,62577442508704E-02 
512	 1,66441276014342E-02 
513	 1,79339982816744E-02 
514	 1,79231747662721E-02 
515	 1,61869718188331E-02 
516	 0,016924172777818 
517	 1,87227182776445E-02 
518	 0,019046974141057 
519	 1,91423240465421E-02 
520	 1,92134401922368E-02 
521	 0,01878854153691 
522	 1,90714214436277E-02 
523	 2,06468005139812E-02 
524	 0,020006409927242 
525	 1,79963520346591E-02 
526	 1,76619370368458E-02 
527	 1,77646689323723E-02 
528	 1,80280025707159E-02 
529	 1,90664522017334E-02 
530	 1,97651861434435E-02 
531	 1,88732552522439E-02 
532	 0,017665475527883 
533	 1,71487769827934E-02 
534	 0,019602463816587 
535	 2,09329784495779E-02 
536	 1,90637683959018E-02 
537	 1,84493767986187E-02 
538	 1,87785475677673E-02 
539	 1,82608513919206E-02 
540	 1,81607856011206E-02 
541	 1,85916381968367E-02 
542	 0,018390368543976 
543	 1,79320660147364E-02 
544	 1,76845233035167E-02 
545	 1,87276614265465E-02 
546	 2,02746478218808E-02 
547	 1,95534840010635E-02 
548	 1,89413062863223E-02 
549	 1,94364237362065E-02 
550	 1,92375295705764E-02 
551	 1,88551705523902E-02 
552	 0,019400816257788 
553	 1,95164851614835E-02 
554	 1,89562136106999E-02 
555	 1,82308820287497E-02 
556	 1,82340506991216E-02 
557	 1,95355037429587E-02 
558	 1,98226480109027E-02 
559	 1,90941493055392E-02 
560	 0,018330953155301 
561	 1,82194967253204E-02 
562	 1,89415454530199E-02 
563	 1,93592194104694E-02 
564	 1,93356408848311E-02 
565	 1,88462103030394E-02 
566	 1,92410893211599E-02 
567	 0,020267905722518 
568	 1,96030789560214E-02 
569	 1,92768344468466E-02 
570	 2,05327081696623E-02 
571	 2,06887099286745E-02 
572	 2,01966088528985E-02 
573	 2,10493436917613E-02 
574	 2,12759352496843E-02 
575	 2,05172797613358E-02 
576	 2,06348699481111E-02 
577	 2,11177491738303E-02 
578	 2,12586769964311E-02 
579	 2,20869391829083E-02 
580	 2,32016113151654E-02 
581	 2,27190441812058E-02 
582	 2,20840843796087E-02 
583	 2,21113875613244E-02 
584	 2,20348935082057E-02 
585	 2,21894089673974E-02 
586	 2,33992073241354E-02 
587	 0,023711490031964 
588	 2,29584473180172E-02 
589	 2,34150766176815E-02 
590	 2,37833619297864E-02 
591	 2,28694158941296E-02 
592	 2,29628177913776E-02 
593	 2,37936214711587E-02 
594	 2,32710026158918E-02 
595	 2,31953385427495E-02 
596	 2,41669767216988E-02 
597	 2,44455042995457E-02 
598	 2,39330361536166E-02 
599	 2,27340319519529E-02 
600	 2,25169250341719E-02 
601	 2,33253791802833E-02 
602	 2,31990702724564E-02 
603	 2,29443810278346E-02 
604	 2,31908124448454E-02 
605	 2,32587892645807E-02 
606	 2,30948586581535E-02 
607	 2,28040207572499E-02 
608	 2,27053771333588E-02 
609	 2,28392691638262E-02 
610	 2,25714982887707E-02 
611	 2,22413673022235E-02 
612	 2,23234263643527E-02 
613	 2,25661419628751E-02 
614	 2,26904588748253E-02 
615	 2,19187732420336E-02 
616	 2,15125180371433E-02 
617	 2,21830596902377E-02 
618	 2,24794954145145E-02 
619	 2,24118746386508E-02 
620	 2,25034440152075E-02 
621	 2,20267346326767E-02 
622	 2,11004635121492E-02 
623	 2,14898550616597E-02 
624	 2,17098429347077E-02 
625	 2,02621532882276E-02 
626	 2,09662414552143E-02 
627	 2,31709142025586E-02 
628	 2,25981348312922E-02 
629	 2,17868690025549E-02 
630	 2,20095623029311E-02 
631	 2,25938540013294E-02 
632	 2,31555464950507E-02 
633	 2,31949034462202E-02 
634	 2,32995515711623E-02 
635	 2,35380139843141E-02 
636	 2,33799442371137E-02 
637	 2,34406928845803E-02 
638	 2,41709880364837E-02 
639	 2,42490577602775E-02 
640	 2,38161321153431E-02 
641	 2,38344675831405E-02 
642	 2,39640243210911E-02 
643	 2,41201917495475E-02 
644	 2,44245803116239E-02 
645	 2,49202599079959E-02 
646	 2,56550279894593E-02 
647	 2,60534317712905E-02 
648	 2,59328971155424E-02 
649	 0,025218559338442 
650	 0,024719303919007 
651	 2,48943417014535E-02 
652	 2,45080276171288E-02 
653	 2,38042297827153E-02 
654	 2,36807037305068E-02 
655	 2,33563768495511E-02 
656	 2,27813333746318E-02 
657	 2,29900945554159E-02 
658	 2,33082143734073E-02 
659	 2,29803425661895E-02 
660	 2,21178680072637E-02 
661	 2,11504647476903E-02 
662	 2,12178070782195E-02 
663	 2,13124573869738E-02 
664	 2,09649700229269E-02 
665	 2,07889795704481E-02 
666	 2,06403806099719E-02 
667	 2,01859599336153E-02 
668	 0,019852253420292 
669	 1,97924375658548E-02 
670	 2,01143842206929E-02 
671	 2,02457329814622E-02 
672	 1,97969277406078E-02 
673	 1,99173741960694E-02 
674	 2,03579217617124E-02 
675	 2,00242796959868E-02 
676	 1,96704467114385E-02 
677	 1,96328313545376E-02 
678	 2,01889007700017E-02 
679	 2,06426009371459E-02 
680	 2,01681438161837E-02 
681	 1,99947924766852E-02 
682	 2,03135051284613E-02 
683	 2,07436634298236E-02 
684	 2,10521685162771E-02 
685	 2,11549388444127E-02 
686	 2,17556131794493E-02 
687	 2,23560202949028E-02 
688	 2,18658398380573E-02 
689	 2,18779838794622E-02 
690	 2,28084252580022E-02 
691	 2,41034176352332E-02 
692	 2,52681369563013E-02 
693	 2,59466844987427E-02 
694	 2,72827471040628E-02 
695	 2,92975059103009E-02 
696	 3,14624492508781E-02 
697	 3,36704671374268E-02 
698	 3,60475425115799E-02 
699	 3,97681808051969E-02 
700	 4,38236477057976E-02 
701	 4,68049650050164E-02 
702	 5,03372968510672E-02 
703	 5,46638740225108E-02 
704	 5,91882974582178E-02 
705	 6,38668232465336E-02 
706	 6,86328132033572E-02 
707	 7,33831663743849E-02 
708	 7,80367664590717E-02 
709	 8,24367443087295E-02 
710	 8,73030485201943E-02 
711	 9,24575013575719E-02 
712	 9,59878855940373E-02 
713	 9,95188132962323E-02 
714	 0,104499308561939 
715	 0,108593210693081 
716	 0,111856773231028 
717	 0,115620122963032 
718	 0,119186718715233 
719	 0,122340048034912 
720	 0,125578519207884 
721	 0,128514323579522 
722	 0,130618048883441 
723	 0,132707289149955 
724	 0,134966261781367 
725	 0,137254343246658 
726	 0,13930251425734 
727	 0,140951545223629 
728	 0,142381618377226 
729	 0,143745335712288 
730	 0,145272629592068 
731	 0,146482769569684 
732	 0,147433659297583 
733	 0,149097300895038 
734	 0,150527953469915 
735	 0,150927270076127 
736	 0,151279696510398 
737	 0,151907295415305 
738	 0,153210655857889 
739	 0,154010215594874 
740	 0,15401727444151 
741	 0,154434913155249 
742	 0,155239559140775 
743	 0,15626582866599 
744	 0,156829533596887 
745	 0,157013874803639 
746	 0,157620216301876 
747	 0,158295573524577 
748	 0,158850124303821 
749	 0,159364132757208 
750	 0,15971030356678 
751	 0,159681784407676 
752	 0,159817550742483 
753	 0,160194465007687 
754	 0,160421528926998 
755	 0,160712850785185 
756	 0,161204605411234 
757	 0,161637150890539 
758	 0,161944576862965 
759	 0,162062119287663 
760	 0,162372706212676 
761	 0,162868695891209 
762	 0,162812110858229 
763	 0,162867010230764 
764	 0,16361501786567 
765	 0,163618764827375 
766	 0,163160769703558 
767	 0,163757352239661 
768	 0,164033557291302 
769	 0,163683290148511 
770	 0,164225018667592 
771	 0,165033844644267 
772	 0,165240274369578 
773	 0,165180540755144 
774	 0,165067536051545 
775	 0,165306325705197 
776	 0,165622945612332 
777	 0,165883225124891 
778	 0,166257359368796 
779	 0,166501499862191 
780	 0,166242871620987 
781	 0,166192342139514 
782	 0,166505008097984 
783	 0,167015819422842 
784	 0,167272090347016 
785	 0,167040838283148 
786	 0,167114016641552 
787	 0,167367508961599 
788	 0,167362065034308 
789	 0,167438935804415 
790	 0,167681004158797 
791	 0,168031440142567 
792	 0,168253676139172 
793	 0,168177732887626 
794	 0,168057791610829 
795	 0,168084567998435 
796	 0,16858580093292 
797	 0,168856135612954 
798	 0,168750253633927 
799	 0,168893678202889 
800	 0,168987044169935 
801	 0,168769737463684 
802	 0,169009879955778 
803	 0,169601996608049 
804	 0,169959997425304 
805	 0,170058284220859 
806	 0,169939106908202 
807	 0,170005377243972 
808	 0,170244550223333 
809	 0,170608488556077 
810	 0,171230156486474 
811	 0,171797571479928 
812	 0,171361611630712 
813	 0,171260683625505 
814	 0,17185151011003 
815	 0,171410627045723 
816	 0,171077600818743 
817	 0,172301554118843 
818	 0,172758871390108 
819	 0,172334851657316 
820	 0,172326317241867 
821	 0,172505371496697 
822	 0,172776336365554 
823	 0,1730089181112 
824	 0,173235079103253 
825	 0,173514756832448 
826	 0,173446246161782 
827	 0,173142968825448 
828	 0,173198488232846 
829	 0,173602456832207 
830	 0,174254963644969 
831	 0,174526210152992 
832	 0,174502508881676 
833	 0,174413045096537 
834	 0,174447817945475 
835	 0,174598279406697 
836	 0,174637775478671 
837	 0,174556623107226 
838	 0,174397442901105 
839	 0,174478980624509 
840	 0,17473283444363 
841	 0,175004625196499 
842	 0,17533842182594 
843	 0,175588922880865 
844	 0,175268318076455 
845	 0,175054242141157 
846	 0,175294957473579 
847	 0,175431057777415 
848	 0,175773878911735 
849	 0,176836496060222 
850	 0,176743255806367 
851	 0,175713846939833 
852	 0,176127816833242 
853	 0,176560145020741 
854	 0,176293077426202 
855	 0,175969609357954 
856	 0,175909540908857 
857	 0,176439053800306 
858	 0,176228404932853 
859	 0,175540076208366 
860	 0,176345735736562 
861	 0,177087293313016 
862	 0,176993893678003 
863	 0,176812256910156 
864	 0,176606910619032 
865	 0,176373525578347 
866	 0,176749058839221 
867	 0,177514122266205 
868	 0,177547990211756 
869	 0,177542732484596 
870	 0,177790761281333 
871	 0,177957094554234 
872	 0,178135459359992 
873	 0,178456451479708 
874	 0,178502666810925 
875	 0,178307582804619 
876	 0,178200682227841 
877	 0,17831338034889 
878	 0,178618773950825 
879	 0,178571428571429 
880	 0,178340540553297 
881	 0,178178738126129 
882	 0,178407286591608 
883	 0,178893083085821 
884	 0,179158010235327 
885	 0,179056706748974 
886	 0,178716825735307 
887	 0,17919321683379 
888	 0,179570541657928 
889	 0,179045568456682 
890	 0,179410087723256 
891	 0,180234557793547 
892	 0,179886034365052 
893	 0,179423874060209 
894	 0,179337143985615 
895	 0,180221465580757 
896	 0,180811847050248 
897	 0,180248312215738 
898	 0,180430363771192 
899	 0,180976285762923 
900	 0,180693600526572 
901	 0,180229952960019 
902	 0,179815968541152 
903	 0,179486420193824 
904	 0,17970357775095 
905	 0,180588027921803 
906	 0,180817253959439 
907	 0,180750965779468 
908	 0,181140749052585 
909	 0,181194450590891 
910	 0,181011444447882 
911	 0,181580766070725 
912	 0,181629815664276 
913	 0,180815206094813 
914	 0,180901618410078 
915	 0,181486868782568 
916	 0,181890174813615 
917	 0,181098929129511 
918	 0,17978859058416 
919	 0,180185566414877 
920	 0,180879268960923 
921	 0,18121744072761 
922	 0,180502483560413 
923	 0,180085883088233 
924	 0,180974371890259 
925	 0,181207586034325 
926	 0,180920524978448 
927	 0,180978250336858 
928	 0,180235749165526 
929	 0,178843782634219 
930	 0,178325569878421 
931	 0,178771213538431 
932	 0,179882606672017 
933	 0,179379263816248 
934	 0,178246730404993 
935	 0,178078295248266 
936	 0,177780444297899 
937	 0,177364183916662 
938	 0,17763581866906 
939	 0,177013703129418 
940	 0,175359995299216 
941	 0,175284091147783 
942	 0,175494723265624 
943	 0,174812268100866 
944	 0,174838163840083 
945	 0,174827435613421 
946	 0,172934219522655 
947	 0,171934657198709 
948	 0,172190045735652 
949	 0,171926720458238 
950	 0,17120317659484 
951	 0,170083058833989 
952	 0,168891411158651 
953	 0,167747596627146 
954	 0,166768837829449 
955	 0,166576198169408 
956	 0,166652345562709 
957	 0,165270766904793 
958	 0,164620042999329 
959	 0,165023038492402 
960	 0,164345909990049 
961	 0,162984610702675 
962	 0,161512650306759 
963	 0,161475528901524 
964	 0,162264176913804 
965	 0,162590707492107 
966	 0,162191682810674 
967	 0,161444736283561 
968	 0,161741689740177 
969	 0,162679497748312 
970	 0,163751032305689 
971	 0,163386037904681 
972	 0,162337410714726 
973	 0,161572648141005 
974	 0,162671675078489 
975	 0,164170178263854 
976	 0,163009533201841 
977	 0,161706026209765 
978	 0,161381502405872 
979	 0,163523483079836 
980	 0,164157933213518 
981	 0,161940839343864 
982	 0,161884960461457 
983	 0,162414292522678 
984	 0,161634627224886 
985	 0,161468858171733 
986	 0,16183722217705 
987	 0,161927119859979 
988	 0,162091612830184 
989	 0,16259212652901 
990	 0,164188606769009 
991	 0,165038490143906 
992	 0,164311900451131 
993	 0,163327949811888 
994	 0,16349467636633 
995	 0,165801769529168 
996	 0,165617179265017 
997	 0,164616814663811 
998	 0,167746369356938 
999	 0,169140418608788 
1000	 0,168273408061054 
1001	 0,169615738449986 
1002	 0,17045699298935 
1003	 0,169914452999612 
1004	 0,171046980194584 
1005	 0,172103241170765 
1006	 0,171245626648509 
1007	 0,169714959036254 
1008	 0,169066014425859 
1009	 0,17155598735673 
1010	 0,173040180202049 
1011	 0,173034115864676 
1012	 0,174222710139705 
1013	 0,174639864541655 
1014	 0,173871632685111 
1015	 0,174425199554744 
1016	 0,174659467549697 
1017	 0,173555943937108 
1018	 0,175553980964091 
1019	 0,179248623267791 
1020	 0,181574578408152 
1021	 0,179043579107433 
1022	 0,174082926526937 
1023	 0,175925547096353 
1024	 0,177760955566534 
1025	 0,177846475515651 
1026	 0,179655988740085 
1027	 0,179837641458693 
1028	 0,176896763660649 
1029	 0,176241018813559 
1030	 0,17841235723274 
1031	 0,182950553596057 
1032	 0,1869089502992 
1033	 0,188512857024222 
1034	 0,185899461869626 
1035	 0,179562245777627 
1036	 0,173801586275451 
1037	 0,182988294571628 
1038	 0,188569896473754 
1039	 0,184448796807059 
1040	 0,187801726756809 
1041	 0,18886447149129 
1042	 0,181090002179778 
1043	 0,184446225780375 
1044	 0,19298028604178 
1045	 0,19479901227083 
1046	 0,193199563881496 
1047	 0,189896799308121 
1048	 0,18757448472853 
1049	 0,187160736575201 
1050	 0,188289121043068 
1051	 0,188014364192338 
1052	 0,187185205603027 
1053	 0,186516433437236 
1054	 0,187528885219122 
1055	 0,18817903866074 
1056	 0,187262824966222 
1057	 0,191259342489814 
1058	 0,195394519714661 
1059	 0,192528175598827 
1060	 0,193907327591586 
1061	 0,197609544142369 
1062	 0,193513155730749 
1063	 0,192017667687405 
1064	 0,193033057027575 
1065	 0,183221007445049 
1066	 0,182793029714099 
1067	 0,195913777628759 
1068	 0,193406804942849 
1069	 0,193360617049119 
1070	 0,205957671998622 
1071	 0,194081074158386 
1072	 0,18153701417683 
1073	 0,201088590197683 
1074	 0,213061468478684 
1075	 0,210809159236766 
