Wavelength	AULNE200059.asd
325	 7,03253521923343E-02 
326	 5,72335345393579E-02 
327	 6,61462929025544E-02 
328	 0,095238663769431 
329	 7,81988028622522E-02 
330	 5,73396085439406E-02 
331	 7,65878070151667E-02 
332	 4,17859052002671E-02 
333	 1,88257605757108E-02 
334	 0,207909219880484 
335	 0,23494667493496 
336	 8,14644261415849E-02 
337	 8,32818399109107E-02 
338	 0,103190969449179 
339	 4,95653122119016E-03 
340	-8,69944123411967E-04 
341	 4,56180971876638E-02 
342	-0,017249549317538 
343	-2,45451431157428E-02 
344	 5,10561022303808E-02 
345	 0,028409837758666 
346	-4,9159224063651E-03 
347	 2,56477716575853E-02 
348	 2,04387382041432E-02 
349	-1,34017607618238E-02 
350	-1,57701418083039E-02 
351	-1,68444032412343E-02 
352	-2,31163699258601E-02 
353	-4,38500660397115E-03 
354	 1,40101505581107E-02 
355	 5,35801826351253E-03 
356	 0,012239264997602 
357	 3,32333218885906E-02 
358	 3,90110844129294E-02 
359	 2,73265735520122E-02 
360	 1,1866164271527E-03 
361	-3,32947442618206E-03 
362	 4,44024787245021E-03 
363	 5,14554000791538E-03 
364	 2,68557527367314E-02 
365	 5,53639205887232E-02 
366	 8,48577578049571E-03 
367	-1,87810360255114E-02 
368	 1,97719290001997E-02 
369	 3,21297495576452E-02 
370	 1,69083125967079E-02 
371	-8,42601740017209E-03 
372	-2,39345171870152E-02 
373	-1,99823611781123E-02 
374	 0,016838748387594 
375	 0,027151009873664 
376	-0,024551304770744 
377	-1,50986949108314E-02 
378	 2,75782654474173E-02 
379	 5,06889035604239E-03 
380	-1,27883668078727E-02 
381	-5,29233941462187E-03 
382	 1,07105757003273E-03 
383	 8,48406684264525E-03 
384	 1,84566105799599E-02 
385	 2,00500852855308E-02 
386	 1,52354844294655E-02 
387	 0,01047157101054 
388	 1,31559069097487E-02 
389	 2,34693324964556E-02 
390	 1,98436025321373E-02 
391	 1,32694060425882E-02 
392	 1,84467796344559E-02 
393	 1,38184949502826E-02 
394	 4,76362420446307E-03 
395	 2,26177437020811E-02 
396	 3,41629046432087E-02 
397	 0,025194257070115 
398	 2,42603590575929E-02 
399	 2,65688201982955E-02 
400	 1,96634722062948E-02 
401	 2,18988985482478E-02 
402	 2,91498858546964E-02 
403	 7,40151012924793E-03 
404	-2,98117217764183E-03 
405	 2,12978590177938E-02 
406	 2,37882396702644E-02 
407	 1,22264957197842E-02 
408	 1,89459396060893E-02 
409	 0,024152482343399 
410	 2,23332476440755E-02 
411	 1,49404028134357E-02 
412	 8,64975503538378E-03 
413	 9,56732978938592E-03 
414	 1,51329457900367E-02 
415	 2,02950746760799E-02 
416	 1,38487029451727E-02 
417	 9,07067286846958E-03 
418	 1,02890660745682E-02 
419	 5,74872180640564E-03 
420	 1,71855064290352E-03 
421	 7,11947145290564E-03 
422	 1,05203365346226E-02 
423	 1,11355196628438E-02 
424	 1,57996062051331E-02 
425	 1,87852015614691E-02 
426	 1,67405113593518E-02 
427	 1,12178668797934E-02 
428	 6,82788522689529E-03 
429	 1,11799137109984E-02 
430	 1,52600693623136E-02 
431	 1,63219287829502E-02 
432	 1,54290034261283E-02 
433	 1,46483672751322E-02 
434	 1,57637706755679E-02 
435	 1,83837706497764E-02 
436	 0,02047653251737 
437	 1,73498929589017E-02 
438	 1,31459668652883E-02 
439	 1,04714965296296E-02 
440	 1,30358997270619E-02 
441	 1,66987717266104E-02 
442	 1,60865514706915E-02 
443	 1,47513253293924E-02 
444	 1,30991393976189E-02 
445	 8,83196675024282E-03 
446	 8,01178858183566E-03 
447	 1,33220271385521E-02 
448	 0,013318279827746 
449	 1,03566080545099E-02 
450	 1,17890703762102E-02 
451	 1,44664756602923E-02 
452	 1,68149254458423E-02 
453	 1,62008769956808E-02 
454	 1,44582326175255E-02 
455	 1,34954554485026E-02 
456	 1,36267127356279E-02 
457	 1,45268155098044E-02 
458	 1,50697753362651E-02 
459	 1,59048217830432E-02 
460	 1,69146039654137E-02 
461	 1,59458025103628E-02 
462	 1,49732443040691E-02 
463	 1,68675209758113E-02 
464	 1,71426255135862E-02 
465	 1,57040799117189E-02 
466	 1,65460157438351E-02 
467	 1,67424237426414E-02 
468	 1,46459900004683E-02 
469	 1,35468941146246E-02 
470	 1,41219499026845E-02 
471	 1,71722181267659E-02 
472	 1,65908046486879E-02 
473	 0,012040996420005 
474	 1,19206358403029E-02 
475	 1,39456282263674E-02 
476	 1,52473873832221E-02 
477	 1,37496250961816E-02 
478	 0,011340723612175 
479	 1,50285826919385E-02 
480	 1,64920372854346E-02 
481	 1,26694208859067E-02 
482	 1,09162766170627E-02 
483	 1,17443421193062E-02 
484	 1,46592848064218E-02 
485	 1,54913268553612E-02 
486	 1,41380802080656E-02 
487	 1,54337598728136E-02 
488	 1,59821507888864E-02 
489	 1,35206401284613E-02 
490	 1,28786253226603E-02 
491	 1,37501605689301E-02 
492	 1,34252709586311E-02 
493	 1,39994012729145E-02 
494	 1,56224776567653E-02 
495	 1,55674448701428E-02 
496	 1,44965575346835E-02 
497	 0,013416466313025 
498	 1,45646121025725E-02 
499	 1,67543649895538E-02 
500	 1,46022918266334E-02 
501	 1,28880422500026E-02 
502	 1,39748364573295E-02 
503	 1,30265005125753E-02 
504	 1,21564643913845E-02 
505	 1,63562372977802E-02 
506	 1,76060741140047E-02 
507	 1,48566965040311E-02 
508	 1,48325989874787E-02 
509	 1,53920192123948E-02 
510	 1,44578176217296E-02 
511	 1,44944151182721E-02 
512	 1,53825910976367E-02 
513	 0,015687291420168 
514	 0,015938929771198 
515	 1,62011773089288E-02 
516	 1,55167009988616E-02 
517	 1,48528800338465E-02 
518	 1,56749965470727E-02 
519	 1,55890470635359E-02 
520	 1,47620016481205E-02 
521	 1,62280278553341E-02 
522	 1,74012603184754E-02 
523	 1,64895162509871E-02 
524	 1,55780930997664E-02 
525	 0,015148179123573 
526	 1,55325433668156E-02 
527	 1,56225987761159E-02 
528	 1,51935838597155E-02 
529	 1,54953691786289E-02 
530	 0,015741969624295 
531	 1,49668385459217E-02 
532	 1,46420188903183E-02 
533	 1,52164135980353E-02 
534	 1,72596893035598E-02 
535	 1,78246900896509E-02 
536	 0,015600582477477 
537	 1,53463277501908E-02 
538	 1,63357633529134E-02 
539	 1,59832285447737E-02 
540	 1,56253067810436E-02 
541	 1,55940945806863E-02 
542	 1,57827460720539E-02 
543	 1,54583564096217E-02 
544	 1,40370869873888E-02 
545	 1,43210345386479E-02 
546	 1,59234403334432E-02 
547	 1,62554155102834E-02 
548	 1,60043645111476E-02 
549	 1,55659887342947E-02 
550	 1,55805164685651E-02 
551	 1,58546065171257E-02 
552	 1,59171310558803E-02 
553	 1,66677393995402E-02 
554	 1,77689375897325E-02 
555	 1,67716949127823E-02 
556	 1,61900704783577E-02 
557	 1,79638781401085E-02 
558	 1,86820946454851E-02 
559	 1,81271535314614E-02 
560	 1,71729727583838E-02 
561	 0,017103191164373 
562	 1,81557097361237E-02 
563	 1,76944123396751E-02 
564	 1,71444739837505E-02 
565	 1,86565901043803E-02 
566	 2,02110302306793E-02 
567	 2,11989482331054E-02 
568	 2,14410873244437E-02 
569	 2,18823347206838E-02 
570	 2,30961700230766E-02 
571	 2,37642762530694E-02 
572	 0,023919913962941 
573	 2,40706151894454E-02 
574	 2,43060489285223E-02 
575	 2,46462759255304E-02 
576	 2,47784083053379E-02 
577	 2,49962484551705E-02 
578	 2,56370469362676E-02 
579	 2,62424862065006E-02 
580	 2,63829028216566E-02 
581	 0,025079530956816 
582	 2,39002887063171E-02 
583	 2,37466820317167E-02 
584	 2,36986819574847E-02 
585	 2,38241698433491E-02 
586	 2,45326276228294E-02 
587	 2,44440539391298E-02 
588	 2,35745218106021E-02 
589	 2,41071550631119E-02 
590	 2,46826682861743E-02 
591	 2,40037533514364E-02 
592	 2,35215575003411E-02 
593	 2,32396866455734E-02 
594	 2,21864575577096E-02 
595	 2,19238494899321E-02 
596	 2,29468313426749E-02 
597	 2,33391902156937E-02 
598	 2,30031050019279E-02 
599	 2,21171358436839E-02 
600	 2,15769370457898E-02 
601	 2,15537060160046E-02 
602	 2,14806013593175E-02 
603	 2,12832572334016E-02 
604	 0,020958622016737 
605	 2,12203930444457E-02 
606	 2,16172056021832E-02 
607	 2,06924553642744E-02 
608	 2,00477668393315E-02 
609	 2,02153835085111E-02 
610	 2,04940621350142E-02 
611	 2,04421335823352E-02 
612	 1,96109403526844E-02 
613	 1,93456798598328E-02 
614	 1,97261066618808E-02 
615	 1,97950119226613E-02 
616	 1,98239025724664E-02 
617	 1,99454271477706E-02 
618	 1,97954147298614E-02 
619	 1,95681237768453E-02 
620	 1,97869712645389E-02 
621	 1,95759249311709E-02 
622	 1,89387687123154E-02 
623	 1,93762645153145E-02 
624	 1,99085740053648E-02 
625	 0,01947800743653 
626	 1,91131143954752E-02 
627	 1,92456109067763E-02 
628	 2,05933760687766E-02 
629	 2,12333557102475E-02 
630	 2,04500485401297E-02 
631	 2,11064238350315E-02 
632	 2,22825243770676E-02 
633	 2,19202953704767E-02 
634	 2,20014292313578E-02 
635	 2,28247338579139E-02 
636	 2,31718029549606E-02 
637	 2,33693189836375E-02 
638	 0,023724381995594 
639	 2,42081155944151E-02 
640	 2,46431930889951E-02 
641	 2,45973980309423E-02 
642	 2,44134917666009E-02 
643	 2,43338139720407E-02 
644	 2,47528742496846E-02 
645	 2,55504023270498E-02 
646	 2,65215207564475E-02 
647	 2,70635829847619E-02 
648	 2,70175933734272E-02 
649	 2,64276499545788E-02 
650	 0,026173003394995 
651	 2,67400846835058E-02 
652	 2,67071396664387E-02 
653	 2,62252211865877E-02 
654	 2,60416371382815E-02 
655	 2,58977872056908E-02 
656	 2,57706858201405E-02 
657	 2,58549319495888E-02 
658	 2,59728195870038E-02 
659	 2,59130120086494E-02 
660	 2,52138023996503E-02 
661	 2,41106032407781E-02 
662	 2,34823426924599E-02 
663	 2,31975536132252E-02 
664	 2,31188955504607E-02 
665	 2,26761789732293E-02 
666	 2,20124759253942E-02 
667	 2,14559355480552E-02 
668	 2,10663927391395E-02 
669	 2,08597742661686E-02 
670	 2,07391988321628E-02 
671	 2,07073760338786E-02 
672	 2,07407049474457E-02 
673	 2,05498145783199E-02 
674	 0,020199638056293 
675	 1,99108492152895E-02 
676	 1,99185024670989E-02 
677	 2,02575465970776E-02 
678	 2,05689990758634E-02 
679	 2,05753668887066E-02 
680	 2,00101058183068E-02 
681	 1,99382171233459E-02 
682	 2,02604796761696E-02 
683	 1,96992553386997E-02 
684	 1,94245032302666E-02 
685	 2,00376546382594E-02 
686	 2,04496305220866E-02 
687	 2,05466888285822E-02 
688	 0,020350782627193 
689	 2,06839404796203E-02 
690	 2,17159656577612E-02 
691	 2,29023481623039E-02 
692	 2,39159991063623E-02 
693	 2,45635823010945E-02 
694	 2,60876472813945E-02 
695	 2,83741270465275E-02 
696	 3,04746633358644E-02 
697	 3,28071480629646E-02 
698	 3,55376441359795E-02 
699	 0,038719963111889 
700	 4,19964371037219E-02 
701	 4,49085250741792E-02 
702	 4,87792166457799E-02 
703	 5,34722424514513E-02 
704	 5,74160497790121E-02 
705	 6,13687582904277E-02 
706	 6,57686212874561E-02 
707	 7,00832574663249E-02 
708	 7,42839332165123E-02 
709	 0,07843618314822 
710	 8,27418028243806E-02 
711	 8,71345478098868E-02 
712	 9,10213624868635E-02 
713	 9,47551477826022E-02 
714	 9,86556080923624E-02 
715	 0,102351985726151 
716	 0,105833656036684 
717	 0,109198613512283 
718	 0,11259226634257 
719	 0,116022034653345 
720	 0,119243971099388 
721	 0,121878037082645 
722	 0,123496830503328 
723	 0,125760826543544 
724	 0,128584045789919 
725	 0,130164211031376 
726	 0,131513251165561 
727	 0,133230160826672 
728	 0,134737178761764 
729	 0,136060514644567 
730	 0,137381109709745 
731	 0,138552981877946 
732	 0,139568320320026 
733	 0,140541640507699 
734	 0,141620273281686 
735	 0,142868838763954 
736	 0,143408801008894 
737	 0,143583242749739 
738	 0,14467330602772 
739	 0,145598905878301 
740	 0,146006931625735 
741	 0,146331127612545 
742	 0,146730245095098 
743	 0,147340461774393 
744	 0,147899254166905 
745	 0,148377099489984 
746	 0,148936235836607 
747	 0,149283373989243 
748	 0,149326176115776 
749	 0,149605160859555 
750	 0,150028544309475 
751	 0,150355223328718 
752	 0,150573323450368 
753	 0,150677720079021 
754	 0,150692552616286 
755	 0,150718242063368 
756	 0,150842217490984 
757	 0,151154539600843 
758	 0,151491939521378 
759	 0,151474113600575 
760	 0,151698445744487 
761	 0,152221971149789 
762	 0,152362058397707 
763	 0,152326000088275 
764	 0,152333404829888 
765	 0,152094139358785 
766	 0,151918042366454 
767	 0,152781814559274 
768	 0,153361062791589 
769	 0,153196089278194 
770	 0,153057326602019 
771	 0,153046347290868 
772	 0,153200162563445 
773	 0,153385214842872 
774	 0,153563988458141 
775	 0,153812347596628 
776	 0,153705343179872 
777	 0,153177832519698 
778	 0,153399305724853 
779	 0,153993672798925 
780	 0,154220630379068 
781	 0,154162312390052 
782	 0,153986273239489 
783	 0,154264566559004 
784	 0,154556936927128 
785	 0,154606894693715 
786	 0,154945557189895 
787	 0,155225062681645 
788	 0,154664945227267 
789	 0,154668392459985 
790	 0,15539691562526 
791	 0,155640261673223 
792	 0,155562646223771 
793	 0,155351345601798 
794	 0,155225823160552 
795	 0,155371645366752 
796	 0,156131495177303 
797	 0,156468111291211 
798	 0,156121318935957 
799	 0,155755803797553 
800	 0,155640711907731 
801	 0,155979196683752 
802	 0,156443468126179 
803	 0,156872758776403 
804	 0,157106221880876 
805	 0,157095114335796 
806	 0,15694406097288 
807	 0,157345138853026 
808	 0,157689376693321 
809	 0,157323475890711 
810	 0,157450930296049 
811	 0,157945459026025 
812	 0,157730834213398 
813	 0,157523217708722 
814	 0,157634650873189 
815	 0,157989144620111 
816	 0,158385127793324 
817	 0,158593994094642 
818	 0,158870102343941 
819	 0,159094718086232 
820	 0,15868020160993 
821	 0,158626872292674 
822	 0,159295256304097 
823	 0,159653879529384 
824	 0,159641067836563 
825	 0,159332445232851 
826	 0,15946045159145 
827	 0,159973579129727 
828	 0,160077014050086 
829	 0,160126405863529 
830	 0,160273314001526 
831	 0,16033662294711 
832	 0,160198834060166 
833	 0,15973224821444 
834	 0,160025130756016 
835	 0,160880460130953 
836	 0,160676903289957 
837	 0,160625208532823 
838	 0,161254897663173 
839	 0,161425604163595 
840	 0,161244952680398 
841	 0,161048244055033 
842	 0,160968265279068 
843	 0,161034582553398 
844	 0,161111597847012 
845	 0,161433244481197 
846	 0,161983869176258 
847	 0,161724078986927 
848	 0,161357505742374 
849	 0,162018883633979 
850	 0,162212943632568 
851	 0,161814250655703 
852	 0,161684607964178 
853	 0,161692214219303 
854	 0,161775314804966 
855	 0,161902742521385 
856	 0,162037933367629 
857	 0,162143145960231 
858	 0,162105992830767 
859	 0,162050956701151 
860	 0,162500192438857 
861	 0,162756210322528 
862	 0,162493384854375 
863	 0,162175708062483 
864	 0,162035497434926 
865	 0,162290292152744 
866	 0,162455363611352 
867	 0,162454831302548 
868	 0,162438898518738 
869	 0,162537211411341 
870	 0,162784688094879 
871	 0,162952829847943 
872	 0,163015800926482 
873	 0,16298096593895 
874	 0,163145105318834 
875	 0,163390522271922 
876	 0,163147454440598 
877	 0,163092442380625 
878	 0,16338725351965 
879	 0,163146880425939 
880	 0,162961068032118 
881	 0,163487188180731 
882	 0,163780527107926 
883	 0,163706624121975 
884	 0,163436328316724 
885	 0,163142417426897 
886	 0,162979848837487 
887	 0,163172043010753 
888	 0,163582244254922 
889	 0,164042845775271 
890	 0,164387929975551 
891	 0,164468400554324 
892	 0,164055220204585 
893	 0,163657978065615 
894	 0,163477177534648 
895	 0,163476761522021 
896	 0,163468217204262 
897	 0,163334253099639 
898	 0,163469812609304 
899	 0,163694885198557 
900	 0,163580218870486 
901	 0,163651865316619 
902	 0,163907002349139 
903	 0,163730953254496 
904	 0,163697688969614 
905	 0,164034186731915 
906	 0,16347135785721 
907	 0,163043406844106 
908	 0,16438445804609 
909	 0,164360965182031 
910	 0,163243347717407 
911	 0,164516945168909 
912	 0,165345588993782 
913	 0,16462154396927 
914	 0,164307331543391 
915	 0,164331943755704 
916	 0,164405779650972 
917	 0,164085336325829 
918	 0,163600305540635 
919	 0,163724239540917 
920	 0,164326164244053 
921	 0,165081923091279 
922	 0,164802127325238 
923	 0,163994538580129 
924	 0,163248229526006 
925	 0,163534200910774 
926	 0,16390234272975 
927	 0,162334224773088 
928	 0,161563182389952 
929	 0,162107340012693 
930	 0,162810884192198 
931	 0,163151502462064 
932	 0,162861359418186 
933	 0,162667219228276 
934	 0,162315543730187 
935	 0,161419846199408 
936	 0,161385778658755 
937	 0,161895119179961 
938	 0,161191487356335 
939	 0,16011274034504 
940	 0,159176831861592 
941	 0,159247151106664 
942	 0,159630554386378 
943	 0,15962591901819 
944	 0,159127355865448 
945	 0,158547356733852 
946	 0,15872796599055 
947	 0,158340308891973 
948	 0,157017938596615 
949	 0,154742608248653 
950	 0,153615849934942 
951	 0,154467077054206 
952	 0,154221554048651 
953	 0,152873572454553 
954	 0,150926340510011 
955	 0,150058049592796 
956	 0,150138468886194 
957	 0,149746179694133 
958	 0,149502982676881 
959	 0,149535399031866 
960	 0,149832697518203 
961	 0,149088015075195 
962	 0,146715396777068 
963	 0,146370442130602 
964	 0,147346532851719 
965	 0,147730937280311 
966	 0,147797039309227 
967	 0,147499325194136 
968	 0,146745864112614 
969	 0,145671427080323 
970	 0,144789721867996 
971	 0,146251411457842 
972	 0,147760556271319 
973	 0,147185534656151 
974	 0,145995615153267 
975	 0,146090683609375 
976	 0,150425736822796 
977	 0,151180832690833 
978	 0,148073191373533 
979	 0,148309130338512 
980	 0,148695672412281 
981	 0,14794559155597 
982	 0,147961399432821 
983	 0,148079416174521 
984	 0,147605576787375 
985	 0,148381058648824 
986	 0,149244964126509 
987	 0,147290235260129 
988	 0,146623520229111 
989	 0,147890714636945 
990	 0,148770010105855 
991	 0,149900172116474 
992	 0,151239984595533 
993	 0,150780921795793 
994	 0,150551229100372 
995	 0,152545124830387 
996	 0,152766341226952 
997	 0,151643747114994 
998	 0,151389233668413 
999	 0,151618592869436 
1000	 0,152495492487479 
1001	 0,155162577030075 
1002	 0,15501174986271 
1003	 0,15110406512954 
1004	 0,152287105045053 
1005	 0,154899219901744 
1006	 0,154815718338995 
1007	 0,154932906192023 
1008	 0,155916084050799 
1009	 0,15818503184863 
1010	 0,158254654488327 
1011	 0,156253648569761 
1012	 0,156018922361456 
1013	 0,155503658810975 
1014	 0,154177027022441 
1015	 0,153522245178418 
1016	 0,15437799639626 
1017	 0,157173482806491 
1018	 0,160348701729639 
1019	 0,162476971747977 
1020	 0,162034258947433 
1021	 0,160880612367695 
1022	 0,160047540750517 
1023	 0,160651064204309 
1024	 0,162675526026386 
1025	 0,1657231382467 
1026	 0,16933036325985 
1027	 0,166674207622895 
1028	 0,156172897518831 
1029	 0,158538972652371 
1030	 0,167027266677568 
1031	 0,170539568960968 
1032	 0,166978460911554 
1033	 0,161012691590947 
1034	 0,163305454212961 
1035	 0,163147250801469 
1036	 0,159988134007345 
1037	 0,162769400147317 
1038	 0,1666127589622 
1039	 0,168860884868352 
1040	 0,168113015618823 
1041	 0,167985872692883 
1042	 0,170789725980216 
1043	 0,168869476039485 
1044	 0,166480049061797 
1045	 0,170256721168602 
1046	 0,16656164684901 
1047	 0,159486597248392 
1048	 0,165490977191232 
1049	 0,171715612176957 
1050	 0,173509826136423 
1051	 0,169515938772414 
1052	 0,170338521725589 
1053	 0,1779366853945 
1054	 0,170364109897258 
1055	 0,161952123451091 
1056	 0,16536737771254 
1057	 0,167238609800249 
1058	 0,169874788515977 
1059	 0,178211266966542 
1060	 0,173456408625945 
1061	 0,160317106683698 
1062	 0,158842196166615 
1063	 0,162789687781927 
1064	 0,169014602614603 
1065	 0,172625385914325 
1066	 0,171877802060274 
1067	 0,168630858905011 
1068	 0,175890181746332 
1069	 0,185764090070178 
1070	 0,18966818298792 
1071	 0,172581521581098 
1072	 0,154445722996743 
1073	 0,162250420475485 
1074	 0,175357257220133 
1075	 0,18312712667442 
