Wavelength	AULNE200309.asd
325	 0,404753766595273 
326	 0,405273763627979 
327	 0,356243353922034 
328	 0,279493302132334 
329	 0,261979715878624 
330	 0,288192385016523 
331	 0,317152651689656 
332	 0,272832077079796 
333	 0,2200655423296 
334	 0,346363856384182 
335	 0,383772330266472 
336	 0,305726456893577 
337	 0,308054023956325 
338	 0,293996945088216 
339	 0,175148943763197 
340	 0,164113034226527 
341	 0,22346390692329 
342	 0,203315735256245 
343	 0,194267785653157 
344	 0,212656944696116 
345	 0,19877262740827 
346	 0,167461138404654 
347	 0,129912377614009 
348	 0,129675635824009 
349	 0,15928401282925 
350	 0,182323023728572 
351	 0,186015855962596 
352	 0,165917221623661 
353	 0,134128279588021 
354	 0,119318648745916 
355	 0,145568511838151 
356	 0,158588628625749 
357	 0,15683459225503 
358	 0,178026462939003 
359	 0,169429846462629 
360	 0,116631007321728 
361	 0,11256961203979 
362	 0,144919514298912 
363	 0,184547115494088 
364	 0,187166646952789 
365	 0,15645882095538 
366	 0,158496307487349 
367	 0,181238655621659 
368	 0,208121395092039 
369	 0,178507535216925 
370	 0,128892576878534 
371	 0,145665278346371 
372	 0,154860511671472 
373	 0,148211614124663 
374	 0,184813841645673 
375	 0,20472885234429 
376	 0,169587788336935 
377	 0,168133447244156 
378	 0,18502410511455 
379	 0,152618768046781 
380	 0,137975119051888 
381	 0,157654891038308 
382	 0,168021123788374 
383	 0,174076366775264 
384	 0,180289367132428 
385	 0,170543378499528 
386	 0,153839713795925 
387	 0,152283467576078 
388	 0,156834462486706 
389	 0,162327646783643 
390	 0,159816051010185 
391	 0,155978590870698 
392	 0,159403226476073 
393	 0,155846812242273 
394	 0,149208761018176 
395	 0,161451152202392 
396	 0,169095208904445 
397	 0,162020524215827 
398	 0,15890841512667 
399	 0,160707297800689 
400	 0,165426588143062 
401	 0,170028671445895 
402	 0,171091665224853 
403	 0,159102196579153 
404	 0,153243432238516 
405	 0,164670683513649 
406	 0,168909500696948 
407	 0,165885344276558 
408	 0,162748798728861 
409	 0,161839966361148 
410	 0,163555763926457 
411	 0,164500138423345 
412	 0,164942696425331 
413	 0,16530837793706 
414	 0,166684417145797 
415	 0,166364835400782 
416	 0,15566881889936 
417	 0,151098167999242 
418	 0,157570739434085 
419	 0,158198277925448 
420	 0,156475901779451 
421	 0,158725458695411 
422	 0,15960673101508 
423	 0,158820154424741 
424	 0,158696692178579 
425	 0,160886674793329 
426	 0,165466814735809 
427	 0,164379047259248 
428	 0,160319442555099 
429	 0,160183789255346 
430	 0,158276186632193 
431	 0,154870709077363 
432	 0,157832934760954 
433	 0,161694233551297 
434	 0,16155441571992 
435	 0,162922813994057 
436	 0,164814466356381 
437	 0,162151448341538 
438	 0,160075959072561 
439	 0,160689548333359 
440	 0,162889961938743 
441	 0,163956425330318 
442	 0,160789273224727 
443	 0,158032493348099 
444	 0,157292978597155 
445	 0,159273720868102 
446	 0,162182005832598 
447	 0,16450945393506 
448	 0,16442735968949 
449	 0,163494330803593 
450	 0,165168263771062 
451	 0,166133555631276 
452	 0,165408304058183 
453	 0,162806938408836 
454	 0,162484945108744 
455	 0,167852938085076 
456	 0,170893661438023 
457	 0,170357649139753 
458	 0,166854460682103 
459	 0,16621986385598 
460	 0,170088249654374 
461	 0,170115755439047 
462	 0,168993573103921 
463	 0,171350512088424 
464	 0,171734141156299 
465	 0,17029909557526 
466	 0,172716033619417 
467	 0,173715758131516 
468	 0,170468783599664 
469	 0,171030386837974 
470	 0,173454538067983 
471	 0,171426213792926 
472	 0,170284613673736 
473	 0,171161742680564 
474	 0,171135247771755 
475	 0,170976030100061 
476	 0,171504149539179 
477	 0,170117071892663 
478	 0,168132552138306 
479	 0,171028385677916 
480	 0,171639120721384 
481	 0,167608972063569 
482	 0,167369346775664 
483	 0,169540875485924 
484	 0,170767945452567 
485	 0,170351874455589 
486	 0,168701630010058 
487	 0,168402931381447 
488	 0,168923237691568 
489	 0,16963641637105 
490	 0,168662159244791 
491	 0,16683026901484 
492	 0,16664251560054 
493	 0,167072927091726 
494	 0,167780908977266 
495	 0,168831857396187 
496	 0,169373373454903 
497	 0,168523554752589 
498	 0,169271029424561 
499	 0,170987170877172 
500	 0,16931772575438 
501	 0,168776733296515 
502	 0,17134738075581 
503	 0,170785232013051 
504	 0,169353246789653 
505	 0,172591917650262 
506	 0,173003086463922 
507	 0,170178191304715 
508	 0,172423006797312 
509	 0,175493124274687 
510	 0,175401793999166 
511	 0,17592380290443 
512	 0,177095937721856 
513	 0,177130554808825 
514	 0,17751678578781 
515	 0,178674339455233 
516	 0,178739144151685 
517	 0,179045357301067 
518	 0,181733959610104 
519	 0,182542557556372 
520	 0,181224340014258 
521	 0,181067603438557 
522	 0,181401021265017 
523	 0,181651393468315 
524	 0,181372963918484 
525	 0,18078880659519 
526	 0,180618481810033 
527	 0,180159707893608 
528	 0,179477171543194 
529	 0,180192368023249 
530	 0,180995836063212 
531	 0,180307404647263 
532	 0,17961127355472 
533	 0,179480398269452 
534	 0,180662680054426 
535	 0,181286394585365 
536	 0,180441788281614 
537	 0,180484635345114 
538	 0,181209789636467 
539	 0,181780592493865 
540	 0,181019076683625 
541	 0,179171047815063 
542	 0,179166412414395 
543	 0,179991137644552 
544	 0,180509425025987 
545	 0,181202303337827 
546	 0,181906868150267 
547	 0,182095718719098 
548	 0,182027124843572 
549	 0,181919722619086 
550	 0,18228383009915 
551	 0,182902660237894 
552	 0,18336343696599 
553	 0,18362785336278 
554	 0,183557852342257 
555	 0,182629356016526 
556	 0,18223532569653 
557	 0,183319421978749 
558	 0,182415205750565 
559	 0,18026166940438 
560	 0,180393431742214 
561	 0,179938590324049 
562	 0,178172174033026 
563	 0,177763065642381 
564	 0,178165643717188 
565	 0,178343206553568 
566	 0,178814710502234 
567	 0,179315220610939 
568	 0,178417946265848 
569	 0,178371129969369 
570	 0,180553722224513 
571	 0,181943839336184 
572	 0,18273229242574 
573	 0,184500080420572 
574	 0,185784153440467 
575	 0,186464013541257 
576	 0,188486837436741 
577	 0,191287879871815 
578	 0,194050063674672 
579	 0,196172771686375 
580	 0,197608655325245 
581	 0,198791850263565 
582	 0,199990687442855 
583	 0,20137606582306 
584	 0,202745113187206 
585	 0,204088496949224 
586	 0,205489256555786 
587	 0,206371002902663 
588	 0,206804739497631 
589	 0,207903091007054 
590	 0,209121222196596 
591	 0,209919562847599 
592	 0,210719456922819 
593	 0,211419928013172 
594	 0,211524887719775 
595	 0,211688158797628 
596	 0,212065187231198 
597	 0,211389312003464 
598	 0,210627041237197 
599	 0,211413130111386 
600	 0,211705915136707 
601	 0,211148852241468 
602	 0,21078521346452 
603	 0,210383127395934 
604	 0,209738532238224 
605	 0,208738654290045 
606	 0,207690953092014 
607	 0,207404795530042 
608	 0,206946252423876 
609	 0,206037658005699 
610	 0,205361254886574 
611	 0,204628758665902 
612	 0,203418552667216 
613	 0,202996472937139 
614	 0,203187263174727 
615	 0,202336462949107 
616	 0,201370822889475 
617	 0,200899521887431 
618	 0,200669700456454 
619	 0,200558569296271 
620	 0,200469009873377 
621	 0,199707381518054 
622	 0,198522540621167 
623	 0,199301591388551 
624	 0,200297126630632 
625	 0,199645834572644 
626	 0,199622728591098 
627	 0,200331946961167 
628	 0,200650404827562 
629	 0,200882953790037 
630	 0,201204318588192 
631	 0,201833894956412 
632	 0,202555513944043 
633	 0,202937533735917 
634	 0,204072409466246 
635	 0,205871192938971 
636	 0,206524399226536 
637	 0,207426379316969 
638	 0,209679702333023 
639	 0,211238369210616 
640	 0,211947573368998 
641	 0,212377251485867 
642	 0,212780990976664 
643	 0,213438504671546 
644	 0,214960488525161 
645	 0,216544394934911 
646	 0,217115472942568 
647	 0,217180535787105 
648	 0,216753563190916 
649	 0,215367580680685 
650	 0,214257289350125 
651	 0,214105524961594 
652	 0,212961506178013 
653	 0,211123735318193 
654	 0,209848235802367 
655	 0,208146950355349 
656	 0,205931539026109 
657	 0,204345956109311 
658	 0,202775076929538 
659	 0,200509057492629 
660	 0,197485056203042 
661	 0,194212066843626 
662	 0,192040827218258 
663	 0,190387750749296 
664	 0,188860588636929 
665	 0,186892354481637 
666	 0,184768946670592 
667	 0,183024788442017 
668	 0,181799206617006 
669	 0,181062516913306 
670	 0,180488826849323 
671	 0,179828097935108 
672	 0,178945534469393 
673	 0,178707009283552 
674	 0,178774018829261 
675	 0,177946682646575 
676	 0,177255555813755 
677	 0,177124085706771 
678	 0,177632123884323 
679	 0,178103098819858 
680	 0,177755752760683 
681	 0,178269980327134 
682	 0,17973348745443 
683	 0,181054826585613 
684	 0,182490583134646 
685	 0,184249784864656 
686	 0,186747676427132 
687	 0,189880964564055 
688	 0,193332097865452 
689	 0,197406958021658 
690	 0,202391303188795 
691	 0,208861628700752 
692	 0,216566588789312 
693	 0,225234679483349 
694	 0,234412753783151 
695	 0,244431405116507 
696	 0,256472532198556 
697	 0,269209126532497 
698	 0,28209461064385 
699	 0,295560218612811 
700	 0,309558772019998 
701	 0,324001949205909 
702	 0,338554700191628 
703	 0,352966135150172 
704	 0,367011281120646 
705	 0,380554093898799 
706	 0,393490695784653 
707	 0,40587610645918 
708	 0,417766203725947 
709	 0,429252669460667 
710	 0,43996676618368 
711	 0,44988818996161 
712	 0,459508719112671 
713	 0,468483491904667 
714	 0,476468891289526 
715	 0,484005814132341 
716	 0,49125299403801 
717	 0,498252630591092 
718	 0,504737651530943 
719	 0,510600614883539 
720	 0,516061288753749 
721	 0,520993114395408 
722	 0,525221185784188 
723	 0,529362725151533 
724	 0,533401448435499 
725	 0,536657412959649 
726	 0,539742534656038 
727	 0,542953520504047 
728	 0,545300582185544 
729	 0,547223629209502 
730	 0,549748702140068 
731	 0,551904116957628 
732	 0,553549318319407 
733	 0,555403300472096 
734	 0,55716780633272 
735	 0,558560157030093 
736	 0,559641667148124 
737	 0,56056246362164 
738	 0,561608728874395 
739	 0,562841283150741 
740	 0,564143676581026 
741	 0,564696540660309 
742	 0,565060324395384 
743	 0,565947898186575 
744	 0,566695671780177 
745	 0,567284650204362 
746	 0,568144064489352 
747	 0,568863338131007 
748	 0,569273004369137 
749	 0,569873518685698 
750	 0,570522473545532 
751	 0,570910232882289 
752	 0,571292215958869 
753	 0,57171589799074 
754	 0,572079213225457 
755	 0,572421308410154 
756	 0,57277528566269 
757	 0,573152541102603 
758	 0,573545881384931 
759	 0,573954715837579 
760	 0,574220264432062 
761	 0,574329312968189 
762	 0,574494102835186 
763	 0,574697930004314 
764	 0,574901487730143 
765	 0,574849853404516 
766	 0,574768245106376 
767	 0,575411556326392 
768	 0,575824195173444 
769	 0,575695588664219 
770	 0,575654543091976 
771	 0,575764971665037 
772	 0,57602996380143 
773	 0,57613278290218 
774	 0,576096302990983 
775	 0,576248034198746 
776	 0,576350393109417 
777	 0,576365575489153 
778	 0,576980717191277 
779	 0,577504695692615 
780	 0,576830604448948 
781	 0,576628714862891 
782	 0,577149397722417 
783	 0,577625077674144 
784	 0,577672831967673 
785	 0,57715872454885 
786	 0,577285183500244 
787	 0,577802625024245 
788	 0,57796779244817 
789	 0,577816413360221 
790	 0,577546153104036 
791	 0,578028319014324 
792	 0,578416194935018 
793	 0,578075686876839 
794	 0,578021533212281 
795	 0,578185885864655 
796	 0,578024718519999 
797	 0,578105989238951 
798	 0,578464308052344 
799	 0,578335916563892 
800	 0,578161388472091 
801	 0,578356697451402 
802	 0,578228551048614 
803	 0,578009098862517 
804	 0,578718851018364 
805	 0,57882392896534 
806	 0,578051915333446 
807	 0,578235389846831 
808	 0,578895339908963 
809	 0,579351297071047 
810	 0,579105888861537 
811	 0,578539233651591 
812	 0,579052429563487 
813	 0,579532609177005 
814	 0,57949840897054 
815	 0,579076790151452 
816	 0,578852328430583 
817	 0,579475122247302 
818	 0,580107712022909 
819	 0,580420769450328 
820	 0,580022808992999 
821	 0,579961954647626 
822	 0,580603132071968 
823	 0,580724990704459 
824	 0,580455921574698 
825	 0,580130113667447 
826	 0,579981228702182 
827	 0,580078471641848 
828	 0,580324925958013 
829	 0,580853442816181 
830	 0,581572459595274 
831	 0,581589942709586 
832	 0,581061975963091 
833	 0,580348943785043 
834	 0,580642024250982 
835	 0,581686986028957 
836	 0,58157289682591 
837	 0,58137023708788 
838	 0,581586287380307 
839	 0,581505617174829 
840	 0,581312313048415 
841	 0,581359961109052 
842	 0,58174006781193 
843	 0,582183759439316 
844	 0,58169037048678 
845	 0,581430436085145 
846	 0,581941949434861 
847	 0,582009805511086 
848	 0,58199415787813 
849	 0,582586191859381 
850	 0,582507788034969 
851	 0,581855343530211 
852	 0,582033027838009 
853	 0,582235092066598 
854	 0,582089147819869 
855	 0,582181412988324 
856	 0,582435364944051 
857	 0,582663907044978 
858	 0,582261785967694 
859	 0,581522751979454 
860	 0,581805066097774 
861	 0,58247713563628 
862	 0,583058387346975 
863	 0,582767650205224 
864	 0,582216925135168 
865	 0,582308407025347 
866	 0,582718357080496 
867	 0,583177614532304 
868	 0,583085780121445 
869	 0,583079521394708 
870	 0,583362332177246 
871	 0,583148344173374 
872	 0,582898478082736 
873	 0,583222755664329 
874	 0,583424809822293 
875	 0,583335354866611 
876	 0,582893430309213 
877	 0,582704384753635 
878	 0,582924571943947 
879	 0,582768722898406 
880	 0,582392900606445 
881	 0,582075364736857 
882	 0,582589642180915 
883	 0,583577695508173 
884	 0,583743019295702 
885	 0,583539849242451 
886	 0,583202010180064 
887	 0,583142223935248 
888	 0,583236687285419 
889	 0,583310468710026 
890	 0,58300664620955 
891	 0,582561271114258 
892	 0,582579036085589 
893	 0,58312626607022 
894	 0,583866002996123 
895	 0,583233069996929 
896	 0,582579554989149 
897	 0,582886186269621 
898	 0,582426248188546 
899	 0,581787556289423 
900	 0,582458387729304 
901	 0,583038140744458 
902	 0,583230159582666 
903	 0,58364248800078 
904	 0,583615164377442 
905	 0,582949655010673 
906	 0,583440371796568 
907	 0,5840543878327 
908	 0,583048943099128 
909	 0,582348309460427 
910	 0,582390431200347 
911	 0,582968319791959 
912	 0,58347034745449 
913	 0,583535418586983 
914	 0,583164247424195 
915	 0,582771427118886 
916	 0,58280629148845 
917	 0,582973137252434 
918	 0,583181244745745 
919	 0,583415065223268 
920	 0,583312181847829 
921	 0,582812312532034 
922	 0,582312690954703 
923	 0,581917711775757 
924	 0,581716556916824 
925	 0,581832064949101 
926	 0,582030986618686 
927	 0,581884434086329 
928	 0,581671661044618 
929	 0,581454788098609 
930	 0,581203508978917 
931	 0,58078971903417 
932	 0,580170889749105 
933	 0,579487986433574 
934	 0,5792142317243 
935	 0,579864213585838 
936	 0,579789763725816 
937	 0,578975006073463 
938	 0,578375902856888 
939	 0,578631261761373 
940	 0,579565423872024 
941	 0,578879036194788 
942	 0,577559501764396 
943	 0,576608074602862 
944	 0,575690123435938 
945	 0,574747492707739 
946	 0,573684207265929 
947	 0,573405424899937 
948	 0,573650673081746 
949	 0,572624863455695 
950	 0,57090823624184 
951	 0,569105557619915 
952	 0,568688167117086 
953	 0,568572222631747 
954	 0,567286639821102 
955	 0,565786681342613 
956	 0,564450945312411 
957	 0,563662642514212 
958	 0,563215909465275 
959	 0,562888561000233 
960	 0,561951192714259 
961	 0,561561174018878 
962	 0,562340108368359 
963	 0,561533114060117 
964	 0,560339831564573 
965	 0,561127454265003 
966	 0,561561299217244 
967	 0,561120569928344 
968	 0,559744741914227 
969	 0,560479478008915 
970	 0,563569915721104 
971	 0,562818106835565 
972	 0,560555222355502 
973	 0,55948656144063 
974	 0,560770044904812 
975	 0,562637636003976 
976	 0,561513088096798 
977	 0,561639717010046 
978	 0,563132491913746 
979	 0,562272521016594 
980	 0,561168379000257 
981	 0,560907356878538 
982	 0,561233477285567 
983	 0,561444274630355 
984	 0,560901914403038 
985	 0,560433486085359 
986	 0,560876316661833 
987	 0,563594949196259 
988	 0,563983563316566 
989	 0,562267916747668 
990	 0,564683489190822 
991	 0,565741357925248 
992	 0,563535967097125 
993	 0,565125389654643 
994	 0,567752460855762 
995	 0,56795152051558 
996	 0,566865573804283 
997	 0,566174186784287 
998	 0,568752003314287 
999	 0,570294640007952 
1000	 0,569887336036251 
1001	 0,568939185265625 
1002	 0,569146798380838 
1003	 0,570737272928793 
1004	 0,569194790003797 
1005	 0,568202271851969 
1006	 0,571234216182893 
1007	 0,572118617459885 
1008	 0,572085401047756 
1009	 0,575235271868099 
1010	 0,574378646535823 
1011	 0,570697293803686 
1012	 0,574553140684116 
1013	 0,577577710901152 
1014	 0,576441977945285 
1015	 0,574299723748311 
1016	 0,573272337377257 
1017	 0,574931960606433 
1018	 0,578262168679003 
1019	 0,580203310792648 
1020	 0,576828660730936 
1021	 0,577083222153719 
1022	 0,580469647199507 
1023	 0,579171120398273 
1024	 0,577969579395003 
1025	 0,57869958774628 
1026	 0,58269116615807 
1027	 0,582297827840374 
1028	 0,574723235723904 
1029	 0,577324722736669 
1030	 0,5836625546431 
1031	 0,584237808835002 
1032	 0,587568054183006 
1033	 0,590232557006057 
1034	 0,582442329667447 
1035	 0,578950988666102 
1036	 0,582085106352582 
1037	 0,583937674648557 
1038	 0,584207743306934 
1039	 0,582490037327102 
1040	 0,577925884467458 
1041	 0,578209299925553 
1042	 0,587836556290641 
1043	 0,590181947244426 
1044	 0,587121129492208 
1045	 0,584781897526256 
1046	 0,584927545399737 
1047	 0,587194955858945 
1048	 0,589377455999294 
1049	 0,589306848246686 
1050	 0,587174357987076 
1051	 0,586764665733858 
1052	 0,586856158359597 
1053	 0,587209805426335 
1054	 0,590407957842383 
1055	 0,590253701351573 
1056	 0,582917672616318 
1057	 0,582760423386749 
1058	 0,590456740776852 
1059	 0,602952979795989 
1060	 0,596255864670936 
1061	 0,577437031444466 
1062	 0,575031471515623 
1063	 0,582379394845553 
1064	 0,593440650438498 
1065	 0,5933796254808 
1066	 0,587270759906963 
1067	 0,579563185907722 
1068	 0,579157742618616 
1069	 0,578534423551424 
1070	 0,573244411508046 
1071	 0,576587667922586 
1072	 0,582177390659416 
1073	 0,580399412439258 
1074	 0,580327516558066 
1075	 0,584607722789335 
