Wavelength	AULNE200109.asd
325	 0,314453840611606 
326	 0,359853605010689 
327	 0,332177198579153 
328	 0,226020201055422 
329	 0,198961933277402 
330	 0,223047277190226 
331	 0,239510221041887 
332	 0,133477027842242 
333	 0,018842884633085 
334	 0,237099506706781 
335	 0,289043728542063 
336	 0,126184969716017 
337	 0,110281934975691 
338	 0,117379110465542 
339	 2,36806539977729E-02 
340	-2,35577789171736E-03 
341	 0,045029413128357 
342	 0,135664434715426 
343	 0,144325492084801 
344	 5,44950326560518E-02 
345	 7,65353306793856E-02 
346	 0,102135202775373 
347	 3,69865574461225E-02 
348	 2,04093993967563E-02 
349	 4,65636384909644E-02 
350	 3,16310287187046E-02 
351	 3,03503645693124E-02 
352	 0,0578005160061 
353	 7,70460781030159E-02 
354	 8,04358052294361E-02 
355	 6,61895118347696E-02 
356	 5,81788939472603E-02 
357	 6,30124123436752E-02 
358	 0,084378078614632 
359	 9,75613155636572E-02 
360	 9,10743320870818E-02 
361	 7,11659112233514E-02 
362	 5,74715751842791E-02 
363	 7,08128446037159E-02 
364	 7,70961621167581E-02 
365	 6,72503710382402E-02 
366	 3,87005477556772E-02 
367	 4,40312372782267E-02 
368	 9,81014640869916E-02 
369	 7,85632826935927E-02 
370	 2,20807014409938E-02 
371	 2,92464092840141E-02 
372	 2,37411928690392E-02 
373	 2,66881794503414E-03 
374	 4,86263126315384E-02 
375	 6,90489763445518E-02 
376	 5,35129079606484E-03 
377	 2,03220900014656E-02 
378	 7,78316738496748E-02 
379	 5,11648150824149E-02 
380	 3,41011731882685E-02 
381	 4,82552342971087E-02 
382	 3,54723411084325E-02 
383	 2,21833187641013E-02 
384	 3,58090600791089E-02 
385	 4,74447347630638E-02 
386	 4,81259801595448E-02 
387	 2,70151580826066E-02 
388	 1,73973922000486E-02 
389	 3,24568517519301E-02 
390	 4,93458666497407E-02 
391	 5,64534080608241E-02 
392	 4,37221481227228E-02 
393	 2,78282542340895E-02 
394	 1,93065315953134E-02 
395	 4,05598329145459E-02 
396	 5,46635948250966E-02 
397	 4,55961378214931E-02 
398	 0,045448180157016 
399	 4,89857110605234E-02 
400	 4,29950435311103E-02 
401	 3,62455206996591E-02 
402	 3,14045871130942E-02 
403	 2,85643076320758E-02 
404	 0,03040849979635 
405	 3,76101582524114E-02 
406	 3,92007355092087E-02 
407	 3,56783824017754E-02 
408	 3,12419553985451E-02 
409	 2,80139072033569E-02 
410	 2,70780640516084E-02 
411	 2,79428788027718E-02 
412	 0,030817927780802 
413	 3,55481298256906E-02 
414	 3,84735011839835E-02 
415	 3,77707854599551E-02 
416	 2,96726326848473E-02 
417	 0,025128674479679 
418	 2,81369103885879E-02 
419	 3,09826973709074E-02 
420	 3,21632350048651E-02 
421	 3,08369131008294E-02 
422	 3,00639088314125E-02 
423	 3,02058786171357E-02 
424	 2,90539179204204E-02 
425	 3,16286044289227E-02 
426	 3,91062215261212E-02 
427	 3,45287195380432E-02 
428	 2,51679868303573E-02 
429	 2,83040427049229E-02 
430	 2,77379636467043E-02 
431	 2,23667553600041E-02 
432	 2,81634518197807E-02 
433	 3,50001270363347E-02 
434	 0,033771729272726 
435	 3,42232088434575E-02 
436	 3,59190389149943E-02 
437	 3,34548120778726E-02 
438	 2,97294055457945E-02 
439	 2,69844617360822E-02 
440	 0,030841842219527 
441	 3,49068435692149E-02 
442	 3,08933160965164E-02 
443	 2,80918230887539E-02 
444	 2,83185047657591E-02 
445	 2,89076396499408E-02 
446	 3,22325558678784E-02 
447	 3,83291056863879E-02 
448	 3,50919197254297E-02 
449	 2,85652853732814E-02 
450	 3,33467774814372E-02 
451	 3,62326682741216E-02 
452	 3,39609736518435E-02 
453	 3,06686423158296E-02 
454	 2,92211834139364E-02 
455	 3,19290259515018E-02 
456	 3,47506042660872E-02 
457	 3,61350707160519E-02 
458	 3,41826279760171E-02 
459	 3,37999114105637E-02 
460	 3,64987643195012E-02 
461	 3,70379086002215E-02 
462	 3,60625760603598E-02 
463	 3,50679904035008E-02 
464	 3,55457406914512E-02 
465	 3,73625338674936E-02 
466	 3,88003930407363E-02 
467	 3,86552954086154E-02 
468	 3,63513933616001E-02 
469	 3,40948326771229E-02 
470	 0,033122077661049 
471	 3,51567680351759E-02 
472	 3,69946784309279E-02 
473	 3,73283839245222E-02 
474	 0,035810206998777 
475	 0,034174837164776 
476	 0,034118124577156 
477	 3,34187867451059E-02 
478	 3,28436933387071E-02 
479	 3,61142077763409E-02 
480	 3,77677059905816E-02 
481	 3,54606810563602E-02 
482	 3,17641929963542E-02 
483	 0,030218220266166 
484	 3,54128540529699E-02 
485	 3,83230056360145E-02 
486	 3,73948453988834E-02 
487	 3,71690658160245E-02 
488	 0,03671893717713 
489	 3,54401356334934E-02 
490	 3,49321780319081E-02 
491	 3,49536720213371E-02 
492	 3,39834975592553E-02 
493	 3,49777445395557E-02 
494	 3,81162619857121E-02 
495	 3,89119562931158E-02 
496	 3,78060321384278E-02 
497	 0,03576821503097 
498	 3,67413703946342E-02 
499	 3,94060648675206E-02 
500	 3,64435322560813E-02 
501	 3,44403501108893E-02 
502	 3,67460738165097E-02 
503	 0,038041721723988 
504	 3,83599243216501E-02 
505	 3,90996582515429E-02 
506	 3,86631334823623E-02 
507	 0,037242784901363 
508	 3,74611448094086E-02 
509	 3,83807363948226E-02 
510	 3,90127851484807E-02 
511	 3,88538941542353E-02 
512	 3,85918098078701E-02 
513	 4,05501823110856E-02 
514	 4,13179060441696E-02 
515	 3,98912522381539E-02 
516	 0,040204472081623 
517	 0,041113026229654 
518	 4,04409437974877E-02 
519	 4,07729263089366E-02 
520	 4,21502844874362E-02 
521	 4,23715564428586E-02 
522	 4,22516430564655E-02 
523	 4,23645153272412E-02 
524	 4,19745099150242E-02 
525	 4,14330458361459E-02 
526	 4,17230423583804E-02 
527	 4,21074841346021E-02 
528	 4,23178802160793E-02 
529	 4,23917586054419E-02 
530	 4,24520517694784E-02 
531	 4,26357273566785E-02 
532	 4,24981026090794E-02 
533	 4,23499456352314E-02 
534	 4,37116377698772E-02 
535	 4,39623298383559E-02 
536	 4,19694840087553E-02 
537	 4,20408397322005E-02 
538	 4,33968714638551E-02 
539	 4,35339540109878E-02 
540	 4,34001039914797E-02 
541	 4,33258138417189E-02 
542	 4,37771113946816E-02 
543	 4,39289881892275E-02 
544	 4,30533696958279E-02 
545	 4,34543040525837E-02 
546	 4,47982328046295E-02 
547	 4,49240681024617E-02 
548	 4,45373719155446E-02 
549	 4,41296238235686E-02 
550	 4,47071384498393E-02 
551	 4,58172614518918E-02 
552	 4,66348334873092E-02 
553	 4,64349490518931E-02 
554	 4,54548554162723E-02 
555	 4,54906114595312E-02 
556	 4,62755156759374E-02 
557	 4,74193990413974E-02 
558	 4,74567710304304E-02 
559	 4,66853718839839E-02 
560	 0,046517064872272 
561	 4,66662466334454E-02 
562	 4,69072806500694E-02 
563	 4,62400740204211E-02 
564	 4,56425993650627E-02 
565	 4,64883868009514E-02 
566	 4,72745608304809E-02 
567	 4,75825079897478E-02 
568	 0,047396482588301 
569	 0,047417708053549 
570	 4,81068644014326E-02 
571	 4,88081429643136E-02 
572	 4,92942012599081E-02 
573	 4,93114608376894E-02 
574	 4,93401879601208E-02 
575	 4,95853281472744E-02 
576	 4,99292645134648E-02 
577	 5,06643267633892E-02 
578	 5,20901418341165E-02 
579	 5,33033695732285E-02 
580	 5,38722078099984E-02 
581	 5,31549558769146E-02 
582	 5,28159490978695E-02 
583	 5,37126169916182E-02 
584	 5,40939845087919E-02 
585	 5,43912556624421E-02 
586	 5,58427318816075E-02 
587	 5,65991022237623E-02 
588	 5,63677910776145E-02 
589	 5,66612204536888E-02 
590	 5,68006119497248E-02 
591	 5,61701858066007E-02 
592	 5,63416676917385E-02 
593	 5,69782800818985E-02 
594	 5,61355984203195E-02 
595	 5,60181801180868E-02 
596	 0,057349657468017 
597	 5,76884469337404E-02 
598	 5,71989994236877E-02 
599	 5,65187230690152E-02 
600	 5,61684584484325E-02 
601	 5,62703936601991E-02 
602	 5,64942916904964E-02 
603	 5,65561280919142E-02 
604	 5,62930568042036E-02 
605	 5,66108289250906E-02 
606	 5,71013207352865E-02 
607	 0,056371917427655 
608	 5,56803021539828E-02 
609	 5,54930265280233E-02 
610	 5,55277988016816E-02 
611	 5,54873439672043E-02 
612	 5,50396866291009E-02 
613	 5,50028838536112E-02 
614	 0,055299081835116 
615	 5,49265731631588E-02 
616	 5,47028651170429E-02 
617	 5,50812016140862E-02 
618	 5,51459280199576E-02 
619	 5,49406751409366E-02 
620	 5,48526734098373E-02 
621	 5,44377515773334E-02 
622	 5,38094472671392E-02 
623	 5,41952781998205E-02 
624	 5,45652894345924E-02 
625	 5,38520821041029E-02 
626	 5,38577814319732E-02 
627	 5,46008666952182E-02 
628	 5,50758102643799E-02 
629	 5,50311034434754E-02 
630	 5,45048375001843E-02 
631	 5,50800557199091E-02 
632	 5,58920317025291E-02 
633	 5,51824406939579E-02 
634	 5,54960106585494E-02 
635	 5,70027111412298E-02 
636	 5,72279739677621E-02 
637	 5,70800479790332E-02 
638	 5,73749994401285E-02 
639	 5,75331009204328E-02 
640	 5,76336352523572E-02 
641	 5,81842135111837E-02 
642	 5,82372775381091E-02 
643	 0,057701026913509 
644	 5,84580188215252E-02 
645	 5,97370592234681E-02 
646	 6,03282751712714E-02 
647	 6,07038892110561E-02 
648	 6,06813058284156E-02 
649	 5,92024957741362E-02 
650	 5,82383114504081E-02 
651	 5,89599611956861E-02 
652	 5,90652689437314E-02 
653	 0,058450716127948 
654	 5,76222069563802E-02 
655	 5,69553914357429E-02 
656	 5,65564596989466E-02 
657	 0,05605674797647 
658	 5,54418890063502E-02 
659	 5,47167930034725E-02 
660	 5,37295372052088E-02 
661	 5,26534023134122E-02 
662	 5,19915424110726E-02 
663	 5,16142888256799E-02 
664	 5,13980262132642E-02 
665	 5,10364171565521E-02 
666	 5,03360045949009E-02 
667	 4,90249763063564E-02 
668	 4,85148446810101E-02 
669	 4,89277287365999E-02 
670	 4,89889944526125E-02 
671	 4,87510549700228E-02 
672	 0,048342269863245 
673	 4,85775920842981E-02 
674	 4,90693996548562E-02 
675	 4,84669581160337E-02 
676	 4,81481750439585E-02 
677	 4,85730990825489E-02 
678	 4,92994902372919E-02 
679	 4,96598833082169E-02 
680	 4,89450186815968E-02 
681	 4,89998318603403E-02 
682	 4,98670567499377E-02 
683	 5,01346383496417E-02 
684	 5,04449260166886E-02 
685	 5,11786376190297E-02 
686	 0,052316304366262 
687	 5,33472934982497E-02 
688	 5,33159314302382E-02 
689	 5,40766019086388E-02 
690	 5,60148323496638E-02 
691	 5,79845603703007E-02 
692	 6,00497981170699E-02 
693	 6,23107482630968E-02 
694	 6,47178265591202E-02 
695	 6,74570651984182E-02 
696	 7,10019226192068E-02 
697	 0,07489909895431 
698	 7,88719480579766E-02 
699	 8,25641364222987E-02 
700	 8,63546148692844E-02 
701	 9,07722827856167E-02 
702	 9,51716363973928E-02 
703	 9,93571262678674E-02 
704	 0,10329133373342 
705	 0,107299690464639 
706	 0,111513321224876 
707	 0,115146376412611 
708	 0,118491133300867 
709	 0,12231429261553 
710	 0,125868655711249 
711	 0,12892640613037 
712	 0,131611774024772 
713	 0,134102869496686 
714	 0,136554933064662 
715	 0,139004475959024 
716	 0,141292232805912 
717	 0,142860353044916 
718	 0,144796695442282 
719	 0,147364974768164 
720	 0,149185928355028 
721	 0,150398986482135 
722	 0,151359357487555 
723	 0,152755048628725 
724	 0,154463449694312 
725	 0,155405537979929 
726	 0,156181148416856 
727	 0,157121888416405 
728	 0,157719761331003 
729	 0,158074367622299 
730	 0,158420589933721 
731	 0,159276742653264 
732	 0,160584294227059 
733	 0,161379967222562 
734	 0,161791032656187 
735	 0,161983804687939 
736	 0,162141570104392 
737	 0,162456189788924 
738	 0,163323942678422 
739	 0,1639105343759 
740	 0,163967425804829 
741	 0,164116528489021 
742	 0,164462591348855 
743	 0,165051672657546 
744	 0,165335887869382 
745	 0,165362194042983 
746	 0,165658259832454 
747	 0,166192231083952 
748	 0,166861099924742 
749	 0,16703337890673 
750	 0,166984924998769 
751	 0,167256134727527 
752	 0,167556170073256 
753	 0,16780893960831 
754	 0,168049516739843 
755	 0,16809689845378 
756	 0,167896294280116 
757	 0,168258687764661 
758	 0,168849041797815 
759	 0,168699720355466 
760	 0,168782842123106 
761	 0,169269352459484 
762	 0,169397674472256 
763	 0,169467590679416 
764	 0,169767460339683 
765	 0,169720919427507 
766	 0,169549793584218 
767	 0,170173466773663 
768	 0,170432060603789 
769	 0,170031766969031 
770	 0,170134838723127 
771	 0,170576213530753 
772	 0,171033947383862 
773	 0,171061803275427 
774	 0,170806994631918 
775	 0,171089523327761 
776	 0,171345509180356 
777	 0,171343610366204 
778	 0,171666310416043 
779	 0,171922610317555 
780	 0,171449522487123 
781	 0,17150630296258 
782	 0,172207093453708 
783	 0,172720614943525 
784	 0,172889653145085 
785	 0,172687185795183 
786	 0,172890674761881 
787	 0,173302195344044 
788	 0,173360213010662 
789	 0,173380385975639 
790	 0,173470679764051 
791	 0,173743511487288 
792	 0,173787572273507 
793	 0,17334380791307 
794	 0,173294134395053 
795	 0,173637232607187 
796	 0,174061133384285 
797	 0,174298928973816 
798	 0,174283165114204 
799	 0,174316242337211 
800	 0,174316323162132 
801	 0,174227035453622 
802	 0,174590239085554 
803	 0,175157798596596 
804	 0,175043103068178 
805	 0,174945807705595 
806	 0,175103965407346 
807	 0,175353122372497 
808	 0,175463149538388 
809	 0,175233048777007 
810	 0,175441394648152 
811	 0,175922907277783 
812	 0,175739134966836 
813	 0,175619159987094 
814	 0,175777324082635 
815	 0,175475312592649 
816	 0,175347018585425 
817	 0,176170706702401 
818	 0,176689413033014 
819	 0,176732365183468 
820	 0,176738314663551 
821	 0,176693299435265 
822	 0,176637141380604 
823	 0,17670625624531 
824	 0,176823100520216 
825	 0,176868904906568 
826	 0,176736783662174 
827	 0,176556964283364 
828	 0,17682637368127 
829	 0,177054841075098 
830	 0,177032973270232 
831	 0,177269992673974 
832	 0,177418693649399 
833	 0,176953152942531 
834	 0,176907546161599 
835	 0,177367401666895 
836	 0,177773590153799 
837	 0,17778967706957 
838	 0,177319315835231 
839	 0,177146207665988 
840	 0,177349295415389 
841	 0,177890027352037 
842	 0,177879391760035 
843	 0,177420473957426 
844	 0,177725435115703 
845	 0,177908212347958 
846	 0,177557453115435 
847	 0,177350066033276 
848	 0,177560806958593 
849	 0,178448667303654 
850	 0,178457642875783 
851	 0,177678822071004 
852	 0,177776938467108 
853	 0,178216194564014 
854	 0,178618078781006 
855	 0,178482454927759 
856	 0,178052019742549 
857	 0,177748628223658 
858	 0,177556302355366 
859	 0,177609985807119 
860	 0,178313909549759 
861	 0,178866235240129 
862	 0,178878251067302 
863	 0,179014731008381 
864	 0,178902306780495 
865	 0,178006149378962 
866	 0,178019649499737 
867	 0,178808966546349 
868	 0,178667869457819 
869	 0,178455375412845 
870	 0,178561555155525 
871	 0,178813624463207 
872	 0,17907239806353 
873	 0,179178099803306 
874	 0,178775844253895 
875	 0,178213640964084 
876	 0,178717269108832 
877	 0,179074485080179 
878	 0,178865103789173 
879	 0,178904217869155 
880	 0,178944654922713 
881	 0,178691936086733 
882	 0,178890290419353 
883	 0,179304972942863 
884	 0,178912451967445 
885	 0,178533343697834 
886	 0,178537734684861 
887	 0,179224818008318 
888	 0,179596313357124 
889	 0,178813497798463 
890	 0,178621128366089 
891	 0,178984399586267 
892	 0,179112611660344 
893	 0,179079960533498 
894	 0,179019181480794 
895	 0,179613868105969 
896	 0,1798050763064 
897	 0,178930211169965 
898	 0,179128618210924 
899	 0,179704140236252 
900	 0,178791902820225 
901	 0,178612381400491 
902	 0,17935343800935 
903	 0,179240071766898 
904	 0,17897635159032 
905	 0,179004975793236 
906	 0,179112312491845 
907	 0,179229140684411 
908	 0,179286506318433 
909	 0,179043765433788 
910	 0,178884363983629 
911	 0,180290567507057 
912	 0,181026194138759 
913	 0,180336874976654 
914	 0,180798512234336 
915	 0,181263622088625 
916	 0,180308439257747 
917	 0,17976560937906 
918	 0,179788994240099 
919	 0,179787267504747 
920	 0,179784619787867 
921	 0,179793865701477 
922	 0,179964515789304 
923	 0,180244312503534 
924	 0,180543412922437 
925	 0,18052581235598 
926	 0,180321021733427 
927	 0,180287776744978 
928	 0,179741955012614 
929	 0,178867895489527 
930	 0,178932430700973 
931	 0,17956172152544 
932	 0,180252388951351 
933	 0,179245113447902 
934	 0,178133171245489 
935	 0,179137003834141 
936	 0,179999912935389 
937	 0,180173276777393 
938	 0,179717236653764 
939	 0,178576834848313 
940	 0,177283171777188 
941	 0,178349544908036 
942	 0,179431612608257 
943	 0,17846023901477 
944	 0,177527543654728 
945	 0,177353121662294 
946	 0,178655234489312 
947	 0,178584545516651 
948	 0,17699337317874 
949	 0,17666441770165 
950	 0,17672156813976 
951	 0,176542976740225 
952	 0,175400120681491 
953	 0,17447751215953 
954	 0,175224031280986 
955	 0,175986350463875 
956	 0,176033689811762 
957	 0,174371712569848 
958	 0,173590735561902 
959	 0,174290310890218 
960	 0,17445744637577 
961	 0,174363900968191 
962	 0,174247053810704 
963	 0,173877935846475 
964	 0,173675264739205 
965	 0,174278138567186 
966	 0,174141933047519 
967	 0,173383061334662 
968	 0,173442021190488 
969	 0,174717039052528 
970	 0,176708607769231 
971	 0,175879182252306 
972	 0,174243481619698 
973	 0,173885167240093 
974	 0,174193800677889 
975	 0,174587605417124 
976	 0,174154249097688 
977	 0,174109836774907 
978	 0,174605020571516 
979	 0,175022510709992 
980	 0,174956018141071 
981	 0,174427973688012 
982	 0,174985055942236 
983	 0,175467180399383 
984	 0,174605089393619 
985	 0,17288192571104 
986	 0,171759925334689 
987	 0,173865067773102 
988	 0,174659687634741 
989	 0,173485864243884 
990	 0,172707310354096 
991	 0,174628018381205 
992	 0,17926194429718 
993	 0,178948974231236 
994	 0,177341865652666 
995	 0,178728218143687 
996	 0,178974132802433 
997	 0,178602465699791 
998	 0,180045090740161 
999	 0,179128562236426 
1000	 0,176373479608872 
1001	 0,178243406720733 
1002	 0,178727054684719 
1003	 0,17586145234661 
1004	 0,176765891080418 
1005	 0,17897272202185 
1006	 0,179510765721482 
1007	 0,179047285333877 
1008	 0,178580583781209 
1009	 0,179692559005019 
1010	 0,181194744600748 
1011	 0,182711049490822 
1012	 0,184763227257722 
1013	 0,183521144857065 
1014	 0,178925563099927 
1015	 0,179942879027984 
1016	 0,182490741029949 
1017	 0,182842308084466 
1018	 0,183866686386459 
1019	 0,18485535422751 
1020	 0,184336739095947 
1021	 0,185678944719798 
1022	 0,187803901695644 
1023	 0,185335301061078 
1024	 0,183372172552056 
1025	 0,18402795194209 
1026	 0,188717636393126 
1027	 0,188461770387191 
1028	 0,179678836172016 
1029	 0,180515996940307 
1030	 0,186874462750873 
1031	 0,191228554660034 
1032	 0,192980129210067 
1033	 0,192308918006395 
1034	 0,190391972038859 
1035	 0,187963631246445 
1036	 0,185534816147016 
1037	 0,183333453433996 
1038	 0,182878991240087 
1039	 0,185061263581336 
1040	 0,190759397258686 
1041	 0,19538821478637 
1042	 0,195177052694951 
1043	 0,192484510891341 
1044	 0,18940823421158 
1045	 0,188426896042136 
1046	 0,192442410100465 
1047	 0,196896078020162 
1048	 0,189241725582528 
1049	 0,188004088047994 
1050	 0,195603585656505 
1051	 0,198391718882892 
1052	 0,196485509791861 
1053	 0,19118954904766 
1054	 0,19057179959072 
1055	 0,190059315413713 
1056	 0,186689642118315 
1057	 0,194948876686342 
1058	 0,204185172642146 
1059	 0,198108249642761 
1060	 0,19129602867917 
1061	 0,187044715128694 
1062	 0,184691623651044 
1063	 0,186386497491925 
1064	 0,190228579958928 
1065	 0,186888621216195 
1066	 0,187580898531162 
1067	 0,194806403383023 
1068	 0,193879952051341 
1069	 0,192862708078373 
1070	 0,196517749859236 
1071	 0,188453839099258 
1072	 0,184096255059156 
1073	 0,202448329506875 
1074	 0,209323388939711 
1075	 0,203481554464401 
