Wavelength	AULNE200199.asd
325	 0,173195759675607 
326	 0,261745789780975 
327	 0,313511617909907 
328	 0,271756727715561 
329	 0,144644309490639 
330	 6,61567416148654E-02 
331	 0,156298835623244 
332	 0,168749449874732 
333	 0,131887349388564 
334	 0,18100929327433 
335	 0,174301278029784 
336	 0,107450918767871 
337	 0,11550200994106 
338	 0,135543404779217 
339	 0,103852546500524 
340	 9,70857641727755E-02 
341	 0,114655704123739 
342	 0,134249291784703 
343	 0,128186652812067 
344	 8,98533825997211E-02 
345	 6,76345908288579E-02 
346	 5,55568122695501E-02 
347	 3,73327346116832E-02 
348	 5,69825888374356E-02 
349	 9,71705806119706E-02 
350	 0,101731196045888 
351	 9,87188729158263E-02 
352	 9,44476592697267E-02 
353	 5,85957847989966E-02 
354	 4,04449583010992E-02 
355	 8,87670269557544E-02 
356	 9,07274357311597E-02 
357	 5,04166926774455E-02 
358	 5,48096867724512E-02 
359	 6,51897522167655E-02 
360	 6,35235327335748E-02 
361	 5,77902466121752E-02 
362	 5,16985907207318E-02 
363	 0,048026847238562 
364	 4,39517731316013E-02 
365	 4,24975874936553E-02 
366	 5,78832231513647E-02 
367	 6,68694668256963E-02 
368	 5,76481805615923E-02 
369	 4,71693214483763E-02 
370	 3,86282541366387E-02 
371	 3,58956381901664E-02 
372	 2,52950370747711E-02 
373	 0,013544813961209 
374	 4,85290636760472E-02 
375	 6,62286326411716E-02 
376	 2,65744153964189E-02 
377	 4,20445324592227E-02 
378	 7,90762865935614E-02 
379	 2,74220218971218E-02 
380	 1,72857877060251E-02 
381	 0,068551859451705 
382	 5,30914938047403E-02 
383	 2,78711886849892E-02 
384	 5,16553554263597E-02 
385	 0,074351024313652 
386	 7,96334107023794E-02 
387	 4,93733047851697E-02 
388	 2,69931580842636E-02 
389	 3,26512822955331E-02 
390	 4,65055528851751E-02 
391	 6,00323140335408E-02 
392	 0,065209281220562 
393	 5,67684972669259E-02 
394	 0,041890071665783 
395	 4,57887700534759E-02 
396	 4,92882168021736E-02 
397	 0,043060693238781 
398	 3,43240270620624E-02 
399	 3,18469794743476E-02 
400	 4,72353995880202E-02 
401	 5,88628947718917E-02 
402	 0,059168227403208 
403	 4,20737386243354E-02 
404	 3,36022523031477E-02 
405	 4,88156986512788E-02 
406	 5,39020112511674E-02 
407	 0,050076526841805 
408	 5,06163803040599E-02 
409	 4,88383659956827E-02 
410	 4,43220834249309E-02 
411	 0,041515129927067 
412	 0,043369842133914 
413	 5,14947863241005E-02 
414	 5,10612402127302E-02 
415	 4,51431792098113E-02 
416	 4,87281418008582E-02 
417	 4,95454724521622E-02 
418	 4,38633265127427E-02 
419	 4,10683241941667E-02 
420	 4,07941733985723E-02 
421	 4,14721163495172E-02 
422	 4,16771521189083E-02 
423	 4,14824191368656E-02 
424	 4,24524292033194E-02 
425	 4,44933363070302E-02 
426	 4,68652037334112E-02 
427	 4,35545924879193E-02 
428	 3,90406676246514E-02 
429	 4,28864000387151E-02 
430	 4,44772895100148E-02 
431	 4,19483284821906E-02 
432	 4,08994707872871E-02 
433	 4,26955262422421E-02 
434	 4,79860492192379E-02 
435	 0,05247878499066 
436	 5,40647310894147E-02 
437	 4,97674298307826E-02 
438	 4,48449860897805E-02 
439	 4,25339910456229E-02 
440	 0,046479589701699 
441	 0,050802324958114 
442	 0,048060088988523 
443	 4,74963821834449E-02 
444	 4,96807345574823E-02 
445	 4,86585105269867E-02 
446	 4,77050052632188E-02 
447	 4,85728459599359E-02 
448	 4,76361493582972E-02 
449	 4,66787314005525E-02 
450	 5,01040802000189E-02 
451	 5,16127216924163E-02 
452	 5,01826758314313E-02 
453	 5,07764274331951E-02 
454	 5,14315974010849E-02 
455	 5,03777067807347E-02 
456	 5,24174084892615E-02 
457	 5,61919023354947E-02 
458	 5,59738058374961E-02 
459	 5,55099012551892E-02 
460	 5,60238483150785E-02 
461	 5,47669805291421E-02 
462	 5,34105038059288E-02 
463	 5,44568497270488E-02 
464	 5,53796835026688E-02 
465	 5,56500845385499E-02 
466	 5,61239410660952E-02 
467	 5,54645151217281E-02 
468	 5,31661253776066E-02 
469	 5,27494669996715E-02 
470	 5,39348239901343E-02 
471	 5,52176160851376E-02 
472	 5,56361827727752E-02 
473	 5,49789264519352E-02 
474	 5,41753224370658E-02 
475	 5,40330634979457E-02 
476	 5,51822682864324E-02 
477	 5,48377608318911E-02 
478	 5,38593674812381E-02 
479	 5,66258254825871E-02 
480	 5,75684169996658E-02 
481	 5,48016761561183E-02 
482	 5,45139283663027E-02 
483	 5,56865974570063E-02 
484	 5,57848803920997E-02 
485	 5,58538839872572E-02 
486	 5,62478432658506E-02 
487	 5,75777911611054E-02 
488	 5,82840559744584E-02 
489	 5,74082341364546E-02 
490	 5,81402753924829E-02 
491	 5,93050220784301E-02 
492	 5,67342399954242E-02 
493	 5,52541359684434E-02 
494	 5,64972089283427E-02 
495	 5,93586369117253E-02 
496	 6,15425517473678E-02 
497	 6,06835960899985E-02 
498	 6,01357523635469E-02 
499	 6,00711002548708E-02 
500	 5,80910989685983E-02 
501	 5,75449094633962E-02 
502	 5,98455828784265E-02 
503	 5,98260722027619E-02 
504	 5,90317280106193E-02 
505	 6,14357294102095E-02 
506	 0,062756662419438 
507	 6,20377291743382E-02 
508	 6,08482934039794E-02 
509	 6,05745175937642E-02 
510	 6,22132934022069E-02 
511	 6,20206400972457E-02 
512	 6,08882940485705E-02 
513	 0,063146415047888 
514	 6,51739363732025E-02 
515	 6,53429657780273E-02 
516	 6,38856210025552E-02 
517	 6,30468150344163E-02 
518	 0,065886978423881 
519	 6,70340353246966E-02 
520	 6,59506447977701E-02 
521	 6,61205507164534E-02 
522	 6,66715872754892E-02 
523	 6,69055127888779E-02 
524	 6,66446509865445E-02 
525	 6,62031403164122E-02 
526	 6,63084373376491E-02 
527	 6,66681782567839E-02 
528	 6,71762118273868E-02 
529	 6,78358945244135E-02 
530	 6,82984361906219E-02 
531	 6,81944824120217E-02 
532	 6,79127982056737E-02 
533	 6,79081539549419E-02 
534	 6,94091691882365E-02 
535	 7,00811222352533E-02 
536	 6,88525198057799E-02 
537	 6,91238547866542E-02 
538	 0,070286124433917 
539	 7,03601765082507E-02 
540	 0,070393609260871 
541	 7,06172183577029E-02 
542	 7,07074225793451E-02 
543	 7,07227964205312E-02 
544	 7,07566376924236E-02 
545	 7,13283797386519E-02 
546	 7,22311145975631E-02 
547	 0,072634337650653 
548	 7,29878978845752E-02 
549	 7,34597736971251E-02 
550	 7,36931174238882E-02 
551	 7,38755652759695E-02 
552	 7,43622495727309E-02 
553	 7,46592976013327E-02 
554	 7,46294408932964E-02 
555	 7,42019044538059E-02 
556	 0,074357288665285 
557	 7,57384188717802E-02 
558	 7,57074370100115E-02 
559	 7,48192967740901E-02 
560	 0,075801975530149 
561	 0,076252629156413 
562	 0,0755020223769 
563	 7,56262218095801E-02 
564	 7,60727638749137E-02 
565	 7,58661262143768E-02 
566	 7,64844411409582E-02 
567	 7,78538338509425E-02 
568	 7,84075239587562E-02 
569	 7,88359206879994E-02 
570	 7,95778061012397E-02 
571	 8,00376742996471E-02 
572	 8,01449685022971E-02 
573	 7,98745553072961E-02 
574	 7,98974031510055E-02 
575	 8,04003441797244E-02 
576	 8,07502190651207E-02 
577	 8,12510351802762E-02 
578	 8,22791987112955E-02 
579	 8,36195588022723E-02 
580	 8,45977419898001E-02 
581	 8,32592535400749E-02 
582	 8,23779912967648E-02 
583	 8,34147409438983E-02 
584	 8,40313530590464E-02 
585	 8,43162101664555E-02 
586	 8,50230761599091E-02 
587	 8,53370030328228E-02 
588	 0,085217014565093 
589	 8,56127076398083E-02 
590	 8,60352625520825E-02 
591	 8,60145583468574E-02 
592	 0,086166056620024 
593	 8,63098023597087E-02 
594	 8,54840935333008E-02 
595	 8,52769263923889E-02 
596	 8,62645358003204E-02 
597	 8,68807740629705E-02 
598	 8,69658355465131E-02 
599	 8,65529757701337E-02 
600	 8,62191969811302E-02 
601	 8,61734841546682E-02 
602	 8,64395896583024E-02 
603	 8,65161704400529E-02 
604	 8,60527249609715E-02 
605	 8,58005172750996E-02 
606	 8,58373410226044E-02 
607	 8,60451989465735E-02 
608	 8,60674812336514E-02 
609	 8,59023306156733E-02 
610	 8,65361602891822E-02 
611	 8,71411301376381E-02 
612	 8,66257380868016E-02 
613	 8,64097783863627E-02 
614	 8,66541565960923E-02 
615	 8,66375004074934E-02 
616	 8,66397265823837E-02 
617	 8,67960520665464E-02 
618	 8,65841877400082E-02 
619	 8,64696595275313E-02 
620	 8,76597597976913E-02 
621	 8,76114521768797E-02 
622	 8,61282140359913E-02 
623	 0,086687509635142 
624	 8,76253382517202E-02 
625	 8,70909242019857E-02 
626	 8,72180154542591E-02 
627	 8,79582717575023E-02 
628	 0,087893474299683 
629	 8,76145648951532E-02 
630	 8,74896188680886E-02 
631	 8,79982942827993E-02 
632	 8,84859554648763E-02 
633	 8,77619903684506E-02 
634	 8,78721504786333E-02 
635	 8,89981483766299E-02 
636	 8,92127721988036E-02 
637	 8,93647431681182E-02 
638	 0,090161883749477 
639	 9,05852144617213E-02 
640	 0,090580382641091 
641	 9,04406900775827E-02 
642	 9,04180808668948E-02 
643	 9,06596291944649E-02 
644	 9,11411126160356E-02 
645	 9,17026655075942E-02 
646	 9,21516858829809E-02 
647	 9,23579385376354E-02 
648	 9,22500235784174E-02 
649	 0,091708256540135 
650	 9,12603027597447E-02 
651	 9,12439394697825E-02 
652	 9,12221642436453E-02 
653	 9,10645776649559E-02 
654	 9,06392954635591E-02 
655	 9,03143721092451E-02 
656	 9,01263195562403E-02 
657	 8,95323639921897E-02 
658	 8,90161739505294E-02 
659	 8,90683116892422E-02 
660	 8,85624736758502E-02 
661	 8,76352190325663E-02 
662	 8,73676164189679E-02 
663	 8,72886523443997E-02 
664	 8,71071054410871E-02 
665	 8,65361853970345E-02 
666	 8,57439861883342E-02 
667	 8,50168538112825E-02 
668	 8,47853862974265E-02 
669	 0,085073423550564 
670	 8,54355555305468E-02 
671	 8,55692489956254E-02 
672	 8,52898585883676E-02 
673	 8,53779523222136E-02 
674	 8,56517884754796E-02 
675	 8,52972759380687E-02 
676	 8,50463694529005E-02 
677	 8,52172419905939E-02 
678	 8,59525712114052E-02 
679	 8,66216043052896E-02 
680	 8,64891348286167E-02 
681	 8,67480302915725E-02 
682	 8,74843852401616E-02 
683	 8,80024505859439E-02 
684	 0,088544796207438 
685	 8,92547909514569E-02 
686	 9,01986914222292E-02 
687	 9,10206091493986E-02 
688	 9,10315728922814E-02 
689	 0,091649706843731 
690	 9,31047345869566E-02 
691	 9,42928152112613E-02 
692	 0,095313418439549 
693	 9,63520652269213E-02 
694	 9,82262696652794E-02 
695	 0,100638559488612 
696	 0,102475878090989 
697	 0,104077452083344 
698	 0,105719356861099 
699	 0,108314087592256 
700	 0,111010618032128 
701	 0,112624185162554 
702	 0,114591497417331 
703	 0,116980435190361 
704	 0,118772610941656 
705	 0,120548560269362 
706	 0,12262340969624 
707	 0,124348356396603 
708	 0,125912864314539 
709	 0,127854526779685 
710	 0,129569475648804 
711	 0,130877195738011 
712	 0,131850890213756 
713	 0,132937872144578 
714	 0,134499492033735 
715	 0,135710462361953 
716	 0,136591326762677 
717	 0,137574094398412 
718	 0,138780792885774 
719	 0,140148989990958 
720	 0,140950294791689 
721	 0,141362793402759 
722	 0,141708304814867 
723	 0,142227688773798 
724	 0,142946532685128 
725	 0,143677419029868 
726	 0,144309755025535 
727	 0,144778099246805 
728	 0,145182274038903 
729	 0,145609984509435 
730	 0,146220333091047 
731	 0,146403231862596 
732	 0,146199323090395 
733	 0,146646842159926 
734	 0,147138697810419 
735	 0,147152788846357 
736	 0,147409964856628 
737	 0,147932634170935 
738	 0,148491447591927 
739	 0,148907597174015 
740	 0,149056594500118 
741	 0,148778221645002 
742	 0,148550263983593 
743	 0,148924551039705 
744	 0,149609754173341 
745	 0,150252991707109 
746	 0,150007974974017 
747	 0,149882728651504 
748	 0,150358952858745 
749	 0,150624946804428 
750	 0,150788104372023 
751	 0,151168901688464 
752	 0,151319151059148 
753	 0,151269996232911 
754	 0,151627432360253 
755	 0,151959284167526 
756	 0,151962497012079 
757	 0,151979167948907 
758	 0,152017432444787 
759	 0,151954727149972 
760	 0,152095702327037 
761	 0,152480168652694 
762	 0,152787585957109 
763	 0,153036861994374 
764	 0,153252310331515 
765	 0,153266546501826 
766	 0,153192876722992 
767	 0,153426724168203 
768	 0,153487072230901 
769	 0,153261482485211 
770	 0,153241828736006 
771	 0,153442919088017 
772	 0,15382113514972 
773	 0,154060261377672 
774	 0,154151063337144 
775	 0,154352547237943 
776	 0,154482583127583 
777	 0,154488203350353 
778	 0,154697724973357 
779	 0,154890097179378 
780	 0,154687846283167 
781	 0,154743533700704 
782	 0,155117434766121 
783	 0,155365991974535 
784	 0,155522557766361 
785	 0,155633554902185 
786	 0,155993825593665 
787	 0,15624979818726 
788	 0,155663761027476 
789	 0,155584923334951 
790	 0,156232688329307 
791	 0,156727996893105 
792	 0,156719424866679 
793	 0,156056252968788 
794	 0,156054415040318 
795	 0,156598343468353 
796	 0,156963753888366 
797	 0,157080417952296 
798	 0,156937918437841 
799	 0,156778920838638 
800	 0,156732362400601 
801	 0,156904155939249 
802	 0,157225633764537 
803	 0,15760538021252 
804	 0,157892922986405 
805	 0,158086871505058 
806	 0,158157726970418 
807	 0,158027808940033 
808	 0,157819220231704 
809	 0,157679104377115 
810	 0,157855694541147 
811	 0,158203696595218 
812	 0,158134769174903 
813	 0,158290066363424 
814	 0,158803840561618 
815	 0,158752616582402 
816	 0,158622005276977 
817	 0,159061666042087 
818	 0,159454041449544 
819	 0,15957242534417 
820	 0,15914997386511 
821	 0,15893063727898 
822	 0,159159434934806 
823	 0,15881337884922 
824	 0,158347862071576 
825	 0,158464168422461 
826	 0,158650932465739 
827	 0,158845247268668 
828	 0,159220598813251 
829	 0,159763653680424 
830	 0,160331034529908 
831	 0,160144689376631 
832	 0,159570107049227 
833	 0,159217778508615 
834	 0,15951898965544 
835	 0,16014621841822 
836	 0,159637624664773 
837	 0,159018991249742 
838	 0,158881064460786 
839	 0,159053533401328 
840	 0,159460286074871 
841	 0,160009337464585 
842	 0,160100356942038 
843	 0,159717665583011 
844	 0,159335206066083 
845	 0,15921713449014 
846	 0,159510567436389 
847	 0,160003791058626 
848	 0,160405888805345 
849	 0,160368758208884 
850	 0,160336883481211 
851	 0,160357130870852 
852	 0,160160557379336 
853	 0,160033839667584 
854	 0,160089805724109 
855	 0,159901309441047 
856	 0,159771810187027 
857	 0,160165171682816 
858	 0,160020638958798 
859	 0,159520998008737 
860	 0,160133172878247 
861	 0,16070857052559 
862	 0,160658243710076 
863	 0,160402848281569 
864	 0,16012260064737 
865	 0,159996014423921 
866	 0,160047114476648 
867	 0,160222239076504 
868	 0,160361620983707 
869	 0,16037559956549 
870	 0,160264205244795 
871	 0,160385740600282 
872	 0,160459606972248 
873	 0,160125152963169 
874	 0,159710378522262 
875	 0,159542783397323 
876	 0,1603625427984 
877	 0,160899419762766 
878	 0,160698575593522 
879	 0,160681077647936 
880	 0,160714654466444 
881	 0,160594838211431 
882	 0,160631968179416 
883	 0,16066928205582 
884	 0,160069996518514 
885	 0,15979703323483 
886	 0,160144703306341 
887	 0,160668142078881 
888	 0,160791328509944 
889	 0,160143900666804 
890	 0,160781410296768 
891	 0,16207861544257 
892	 0,161891161280507 
893	 0,161344624993234 
894	 0,160875663639476 
895	 0,160711409086227 
896	 0,160857752660173 
897	 0,161267976961481 
898	 0,161660650557007 
899	 0,161818742238597 
900	 0,161485962015386 
901	 0,160913400194464 
902	 0,160420334763989 
903	 0,16080944753429 
904	 0,16111786084066 
905	 0,16082643578747 
906	 0,160937690687217 
907	 0,161359787072243 
908	 0,161787426061607 
909	 0,161484737985775 
910	 0,160854272738665 
911	 0,161847023158952 
912	 0,162378613082579 
913	 0,161724072508568 
914	 0,162053854905667 
915	 0,162271622786892 
916	 0,161079779102414 
917	 0,160760759291141 
918	 0,161403845387935 
919	 0,16206125431177 
920	 0,162505120436353 
921	 0,16246459000715 
922	 0,161365952654657 
923	 0,160579445917556 
924	 0,161196613547005 
925	 0,162093508777143 
926	 0,162539681130255 
927	 0,161581858460272 
928	 0,161270387780052 
929	 0,161953285659341 
930	 0,162536254401347 
931	 0,162733433317934 
932	 0,162486635471594 
933	 0,162814036986299 
934	 0,163111241283483 
935	 0,162493619319613 
936	 0,16203756510476 
937	 0,161899478994133 
938	 0,161746523998945 
939	 0,16184837288773 
940	 0,162236502683558 
941	 0,162658639437607 
942	 0,162680008945587 
943	 0,162035480979805 
944	 0,161842937828149 
945	 0,162169356334794 
946	 0,162775959967143 
947	 0,163011911171152 
948	 0,162606475920185 
949	 0,161266763968827 
950	 0,161016876008115 
951	 0,162496710415869 
952	 0,161661490125827 
953	 0,16010351502843 
954	 0,16023256251219 
955	 0,160972865657755 
956	 0,161775250024059 
957	 0,161879326522649 
958	 0,161429930266768 
959	 0,160761590432554 
960	 0,161087112823392 
961	 0,161699512780636 
962	 0,162019791414197 
963	 0,162337422270958 
964	 0,16255173503349 
965	 0,162486808882359 
966	 0,161920137239785 
967	 0,161316811548062 
968	 0,162088522391292 
969	 0,163771466298766 
970	 0,165466578153872 
971	 0,163665438076948 
972	 0,162135855534329 
973	 0,164089158328166 
974	 0,163370805219156 
975	 0,161512032137375 
976	 0,163052421112376 
977	 0,163554517774896 
978	 0,162682881268335 
979	 0,163766712052117 
980	 0,164058325507178 
981	 0,162557807619166 
982	 0,161679513100095 
983	 0,162341565097097 
984	 0,164730278065143 
985	 0,161540856977131 
986	 0,156829227661618 
987	 0,161090245060251 
988	 0,163666718002268 
989	 0,162863201355986 
990	 0,164400124665531 
991	 0,165234812293527 
992	 0,164163815839927 
993	 0,163882101729035 
994	 0,164270027789182 
995	 0,164876337171701 
996	 0,16462582725207 
997	 0,164382397314124 
998	 0,166292011346809 
999	 0,16605133476671 
1000	 0,16400863343668 
1001	 0,166218561728708 
1002	 0,167406387393828 
1003	 0,165515203360605 
1004	 0,164832168388906 
1005	 0,165385018280857 
1006	 0,166783500678025 
1007	 0,168290044336649 
1008	 0,169408502145446 
1009	 0,169640842028694 
1010	 0,169364853876447 
1011	 0,16878793354275 
1012	 0,168110996609503 
1013	 0,167589286629883 
1014	 0,167247566505539 
1015	 0,166443009802664 
1016	 0,165697672930115 
1017	 0,165562262907877 
1018	 0,166496317968714 
1019	 0,168255161122641 
1020	 0,170339180000724 
1021	 0,171186561802886 
1022	 0,170796635689833 
1023	 0,170561618443401 
1024	 0,169130872034819 
1025	 0,167152523627292 
1026	 0,169159700922962 
1027	 0,170955150466359 
1028	 0,170020883633004 
1029	 0,169799811485191 
1030	 0,170385210356808 
1031	 0,171292625042252 
1032	 0,169715507453577 
1033	 0,168649897637575 
1034	 0,175228960327905 
1035	 0,177333445543641 
1036	 0,173862099980683 
1037	 0,174535401028124 
1038	 0,173191275693666 
1039	 0,169323179500859 
1040	 0,174833986994217 
1041	 0,179488558568312 
1042	 0,175189032037073 
1043	 0,172172116432872 
1044	 0,171762025494683 
1045	 0,173585065332853 
1046	 0,174149517714689 
1047	 0,172207700934139 
1048	 0,166262845395808 
1049	 0,170152651867123 
1050	 0,182901017517891 
1051	 0,184657239226818 
1052	 0,180076499948269 
1053	 0,173604492153575 
1054	 0,175591472766987 
1055	 0,180409108302906 
1056	 0,182574209900797 
1057	 0,185759758570973 
1058	 0,185727731532313 
1059	 0,176969762790134 
1060	 0,174537522086413 
1061	 0,175396526421249 
1062	 0,163901306783505 
1063	 0,161977695562758 
1064	 0,172264570854911 
1065	 0,180463817621766 
1066	 0,179400088925259 
1067	 0,168997626729346 
1068	 0,1674565948262 
1069	 0,171182941271237 
1070	 0,175399219458962 
1071	 0,169458286018287 
1072	 0,166731238093683 
1073	 0,183358196656058 
1074	 0,189924302556212 
1075	 0,186463582719559 
