Wavelength	AULNE200306.asd
325	 0,301922703342046 
326	 0,254573707514443 
327	 0,26063938098147 
328	 0,33367081353423 
329	 0,364839658972247 
330	 0,320623721015023 
331	 0,214269260995637 
332	 0,186331990133168 
333	 0,219729482703632 
334	 0,268462093948058 
335	 0,240784499482026 
336	 0,147289814128426 
337	 0,129035160387864 
338	 0,151872027463555 
339	 0,17463676887034 
340	 0,165243191724907 
341	 0,138264885347106 
342	 0,139011073911924 
343	 0,104761507471498 
344	 0,038206398852902 
345	 0,121002647688437 
346	 0,182805273537511 
347	 0,104388240658409 
348	 8,04668845309718E-02 
349	 0,115313197496671 
350	 0,124487014545507 
351	 0,137180505790315 
352	 0,153234469463245 
353	 0,111477452371646 
354	 7,06401766004415E-02 
355	 9,24346053329998E-02 
356	 0,12890380965512 
357	 0,158288594793683 
358	 0,146825685766757 
359	 0,126405325085204 
360	 0,113925521867819 
361	 0,112194418899931 
362	 0,126054255347916 
363	 0,162253931938564 
364	 0,168379230330228 
365	 0,139205611674381 
366	 0,109477360037893 
367	 0,117018888676895 
368	 0,169837419385154 
369	 0,169200449898792 
370	 0,139325174404709 
371	 0,150150394555889 
372	 0,141959979932936 
373	 0,115536678641456 
374	 0,144470662925946 
375	 0,164699928495808 
376	 0,134774288245226 
377	 0,154408295233976 
378	 0,191902695913303 
379	 0,150101196095449 
380	 0,133500321854153 
381	 0,165616177519546 
382	 0,173010214577318 
383	 0,168865877241242 
384	 0,168070059925628 
385	 0,169965935475445 
386	 0,168697785521752 
387	 0,146733404200898 
388	 0,135461557142977 
389	 0,145878366078786 
390	 0,145793098212979 
391	 0,145911217409263 
392	 0,161098678897859 
393	 0,167827530989342 
394	 0,165249133317495 
395	 0,165242252432189 
396	 0,163428969437831 
397	 0,158268998787679 
398	 0,152354169928513 
399	 0,152942684326379 
400	 0,170668280747897 
401	 0,175715004127529 
402	 0,164128864848845 
403	 0,148779919296982 
404	 0,147616557114996 
405	 0,169033283936394 
406	 0,172757943184932 
407	 0,162987951319471 
408	 0,159747049164571 
409	 0,16127716498012 
410	 0,164986159142172 
411	 0,158683352015224 
412	 0,152474832153874 
413	 0,155933501592895 
414	 0,158238898135034 
415	 0,157432206184197 
416	 0,152670320757549 
417	 0,152964057886439 
418	 0,159837211624888 
419	 0,15688994037796 
420	 0,15291804394407 
421	 0,160576435869088 
422	 0,16323812542698 
423	 0,159587288163005 
424	 0,157757100035773 
425	 0,157311747138087 
426	 0,157960823161717 
427	 0,158981759182476 
428	 0,16096292309169 
429	 0,166012901005585 
430	 0,163652568587508 
431	 0,15455202496164 
432	 0,155048935547497 
433	 0,159198008070272 
434	 0,161032986233373 
435	 0,161556070186822 
436	 0,161280050046476 
437	 0,161546550250352 
438	 0,160595285269139 
439	 0,158646314138738 
440	 0,161205580741833 
441	 0,164519653440876 
442	 0,163497250290754 
443	 0,162090369669413 
444	 0,161389313343143 
445	 0,161459968215617 
446	 0,162307706149162 
447	 0,163654691887663 
448	 0,163365507007937 
449	 0,162399454941273 
450	 0,162978127693581 
451	 0,164835017368058 
452	 0,167475290493194 
453	 0,169555511925551 
454	 0,169263768509591 
455	 0,165389410937229 
456	 0,164631079730804 
457	 0,166836539067651 
458	 0,16744118647207 
459	 0,17103732546331 
460	 0,1775019851394 
461	 0,175187549955594 
462	 0,169477136036445 
463	 0,16891159947886 
464	 0,1698060939949 
465	 0,171367949978801 
466	 0,174402666903527 
467	 0,174317526602938 
468	 0,169123194304137 
469	 0,170152865270104 
470	 0,174353123050549 
471	 0,172360374291499 
472	 0,169674114265424 
473	 0,1684308831644 
474	 0,170367225191952 
475	 0,17263710722845 
476	 0,172300403479646 
477	 0,169815140205945 
478	 0,167523892188585 
479	 0,172037940193717 
480	 0,173834914319684 
481	 0,169501259605841 
482	 0,168662328380776 
483	 0,170235911601211 
484	 0,171064804771656 
485	 0,170356958105292 
486	 0,168926380990131 
487	 0,171354527309105 
488	 0,172720830316066 
489	 0,169720091557921 
490	 0,16913171423059 
491	 0,170139809025705 
492	 0,167822877382183 
493	 0,167870615672724 
494	 0,171222986330925 
495	 0,172095704835933 
496	 0,171037286387994 
497	 0,169236485408791 
498	 0,169780473304685 
499	 0,171830236253069 
500	 0,17013959755315 
501	 0,169407587880718 
502	 0,171775111369714 
503	 0,171528472790134 
504	 0,170366647796396 
505	 0,172592649950191 
506	 0,173587332980582 
507	 0,172892202043615 
508	 0,174787499771369 
509	 0,176727824643199 
510	 0,176420692305362 
511	 0,177089911219607 
512	 0,178883063273844 
513	 0,180945023311309 
514	 0,181222985284834 
515	 0,17930679944205 
516	 0,178852320962196 
517	 0,179939506198667 
518	 0,182114876206087 
519	 0,183509391558756 
520	 0,183844843904508 
521	 0,184485318430036 
522	 0,184556453474863 
523	 0,183504202277443 
524	 0,182277967734339 
525	 0,181684266102566 
526	 0,183275820437323 
527	 0,18411339781105 
528	 0,183387646864346 
529	 0,183073859671462 
530	 0,182958407850224 
531	 0,182628279664559 
532	 0,182198694977882 
533	 0,181855340293038 
534	 0,182133498282863 
535	 0,182223912564747 
536	 0,181766672735652 
537	 0,182076339967804 
538	 0,182685595438288 
539	 0,182379821424771 
540	 0,18247387958929 
541	 0,183102103480565 
542	 0,182944187658964 
543	 0,182606785482868 
544	 0,182742935128133 
545	 0,183291097427616 
546	 0,183885013095024 
547	 0,18352196891952 
548	 0,183305334661955 
549	 0,183778075868599 
550	 0,18465993790536 
551	 0,18529298238162 
552	 0,184704846910602 
553	 0,184651520897507 
554	 0,185245912172397 
555	 0,184637243048616 
556	 0,18431882005221 
557	 0,185372374492474 
558	 0,18480546711844 
559	 0,182920060110182 
560	 0,181697714101213 
561	 0,181051912362116 
562	 0,180887885689673 
563	 0,180184879977778 
564	 0,179589584082107 
565	 0,180064113668322 
566	 0,180372211495055 
567	 0,180377188520351 
568	 0,180733615186288 
569	 0,181511536160415 
570	 0,18269513197364 
571	 0,183550700683101 
572	 0,184425382254008 
573	 0,186369787467409 
574	 0,188268870053692 
575	 0,189769777356811 
576	 0,191290561955828 
577	 0,192895149272567 
578	 0,194642235264045 
579	 0,197605827292875 
580	 0,200897011104547 
581	 0,20099430078001 
582	 0,201283564694602 
583	 0,203529124576839 
584	 0,205047968228168 
585	 0,206025062194219 
586	 0,207419596349625 
587	 0,208574356157264 
588	 0,20950303406206 
589	 0,211107863117815 
590	 0,212595529576852 
591	 0,213234444409545 
592	 0,214048344307203 
593	 0,214747812917536 
594	 0,213790375369506 
595	 0,213620424285777 
596	 0,215091455724141 
597	 0,215534459614101 
598	 0,215164282552975 
599	 0,214747341584921 
600	 0,214291636357253 
601	 0,213844495838692 
602	 0,213361161463523 
603	 0,212921722760797 
604	 0,21256332757777 
605	 0,211949821115909 
606	 0,21117040832089 
607	 0,21065122144831 
608	 0,209739623313118 
609	 0,208395984429655 
610	 0,207891008826512 
611	 0,207583825553441 
612	 0,206559007517651 
613	 0,205406425147565 
614	 0,204439601108434 
615	 0,204160468128448 
616	 0,203968987738453 
617	 0,203501894928961 
618	 0,203243346043709 
619	 0,203155654997955 
620	 0,20312336869134 
621	 0,202355831134682 
622	 0,201092012231528 
623	 0,20181872294574 
624	 0,202867611284245 
625	 0,202435173718429 
626	 0,202420523141116 
627	 0,202988059286404 
628	 0,20349366466893 
629	 0,203657807931331 
630	 0,203492552359994 
631	 0,204334440819422 
632	 0,20561979049325 
633	 0,206161098079178 
634	 0,207189121412673 
635	 0,208766529720811 
636	 0,209615720579398 
637	 0,210695342950964 
638	 0,212737377503551 
639	 0,214010628002672 
640	 0,214557292415579 
641	 0,215333923143233 
642	 0,215864074944021 
643	 0,216201454474164 
644	 0,217625596640115 
645	 0,219182379944168 
646	 0,219518258034283 
647	 0,219620654938193 
648	 0,219500370886947 
649	 0,218288222683512 
650	 0,21716079637938 
651	 0,216791850353814 
652	 0,215542475237218 
653	 0,213724339978206 
654	 0,212483003643189 
655	 0,211066360375315 
656	 0,209259559512437 
657	 0,207284880227969 
658	 0,205060744445668 
659	 0,202502708923138 
660	 0,199846111174361 
661	 0,197290921001174 
662	 0,195171891691089 
663	 0,19320223718074 
664	 0,191216615780237 
665	 0,189202552197963 
666	 0,187193444127966 
667	 0,18520136080193 
668	 0,18404701937296 
669	 0,183642917556181 
670	 0,182657119040136 
671	 0,18161464305985 
672	 0,180971559965384 
673	 0,180644672941976 
674	 0,180421110538477 
675	 0,179767728048074 
676	 0,17946099505031 
677	 0,179714815716557 
678	 0,179985410221273 
679	 0,180084246913295 
680	 0,179862334198467 
681	 0,180752969046758 
682	 0,182516927291351 
683	 0,183121356623257 
684	 0,18429948304087 
685	 0,186988973420665 
686	 0,189910985060663 
687	 0,192844248055016 
688	 0,195623035018179 
689	 0,199703229020143 
690	 0,205515906655364 
691	 0,212536639369978 
692	 0,22021798497891 
693	 0,22816054676222 
694	 0,237444958592983 
695	 0,248127714795436 
696	 0,259827924552115 
697	 0,272410960275896 
698	 0,2857422414212 
699	 0,299625598092099 
700	 0,313963442636283 
701	 0,328681410899543 
702	 0,343497775390716 
703	 0,35814054859736 
704	 0,372280748931328 
705	 0,385804266523412 
706	 0,398672068104439 
707	 0,411337339437734 
708	 0,423645402245172 
709	 0,43518532434084 
710	 0,44600033464255 
711	 0,456157131599427 
712	 0,465952673347179 
713	 0,475051669853418 
714	 0,483129752863181 
715	 0,490797028332359 
716	 0,498148497182132 
717	 0,504992379558325 
718	 0,511447919967144 
719	 0,517519863603617 
720	 0,522983882258648 
721	 0,527952610895114 
722	 0,532605895802723 
723	 0,536552292971447 
724	 0,539876639599515 
725	 0,543034306110785 
726	 0,546327330535529 
727	 0,549848008886206 
728	 0,55257888501876 
729	 0,554778997200909 
730	 0,557186222430352 
731	 0,559254174276323 
732	 0,560935104518879 
733	 0,562728683602624 
734	 0,564288710813193 
735	 0,565349737994719 
736	 0,566701372965693 
737	 0,568223657677195 
738	 0,569258035347603 
739	 0,570147558841459 
740	 0,571007498519096 
741	 0,571729986504097 
742	 0,572514745016999 
743	 0,573580337124673 
744	 0,574260635911038 
745	 0,574592314861104 
746	 0,57517498747185 
747	 0,575777623687431 
748	 0,576323560766474 
749	 0,577161298221889 
750	 0,577975654941568 
751	 0,578231087508602 
752	 0,578567708361888 
753	 0,579079078202135 
754	 0,579408180570203 
755	 0,57960514837588 
756	 0,579745592707554 
757	 0,580139931914239 
758	 0,580679611756153 
759	 0,58106537073051 
760	 0,58127200340754 
761	 0,581295668996903 
762	 0,581199756473137 
763	 0,581199201547748 
764	 0,581473368848814 
765	 0,581656906246129 
766	 0,581796274082967 
767	 0,582259888605 
768	 0,582451816377727 
769	 0,582261871737566 
770	 0,582508706232421 
771	 0,583033151264446 
772	 0,583552629375119 
773	 0,583530345793358 
774	 0,583122329923213 
775	 0,583211226650242 
776	 0,583337180653464 
777	 0,583349640797779 
778	 0,583960907625011 
779	 0,584440501721708 
780	 0,583623218560931 
781	 0,583463062572447 
782	 0,584144733323354 
783	 0,584332202813384 
784	 0,584291242530981 
785	 0,584244109228688 
786	 0,584580110513794 
787	 0,584990164899659 
788	 0,58481156190308 
789	 0,584776707960432 
790	 0,585001435873097 
791	 0,585011942297421 
792	 0,584863789435275 
793	 0,584647818496901 
794	 0,584742257785665 
795	 0,585006250413175 
796	 0,584983317677157 
797	 0,585085261338186 
798	 0,58531617409456 
799	 0,585048732795422 
800	 0,584721214724009 
801	 0,584770413586225 
802	 0,584992424912277 
803	 0,585243675923286 
804	 0,585266390188751 
805	 0,585273157596305 
806	 0,585344476816293 
807	 0,585446537107378 
808	 0,585617190437476 
809	 0,585881530557796 
810	 0,585885324936621 
811	 0,585729656998166 
812	 0,585894616291964 
813	 0,586169457641916 
814	 0,586384641011173 
815	 0,586028030954241 
816	 0,585842260412491 
817	 0,586716046299442 
818	 0,587461435701853 
819	 0,587647202558936 
820	 0,586819337792019 
821	 0,586336703901135 
822	 0,586828744933405 
823	 0,587584197871002 
824	 0,588021893482786 
825	 0,587523988927628 
826	 0,587230033081857 
827	 0,587353366989899 
828	 0,587556105064548 
829	 0,587888707361597 
830	 0,588301939680374 
831	 0,588484709913595 
832	 0,58834132338321 
833	 0,587807264251182 
834	 0,587567957502528 
835	 0,587705566288692 
836	 0,587819118120565 
837	 0,587932668652815 
838	 0,588055286904315 
839	 0,588284075069958 
840	 0,588432338855906 
841	 0,588234455583358 
842	 0,588198044088844 
843	 0,588348051641128 
844	 0,588257926374101 
845	 0,588344420869348 
846	 0,588795952268312 
847	 0,589247004483217 
848	 0,58952458754336 
849	 0,589466091454461 
850	 0,589108208833507 
851	 0,588688045278804 
852	 0,588858357243368 
853	 0,589174079776188 
854	 0,589355445061489 
855	 0,589295921179909 
856	 0,589283508990665 
857	 0,589723835375796 
858	 0,589029359145213 
859	 0,587741133400195 
860	 0,58891016815783 
861	 0,589725226918814 
862	 0,588954603110993 
863	 0,588936652258792 
864	 0,589264102842564 
865	 0,589110629788997 
866	 0,589530322164481 
867	 0,590255087148139 
868	 0,589754071370278 
869	 0,589238419567152 
870	 0,589295403581974 
871	 0,589651905504111 
872	 0,589985259502104 
873	 0,58994450158406 
874	 0,589796194130795 
875	 0,589618946209425 
876	 0,589437310899141 
877	 0,58930345314313 
878	 0,58930113309298 
879	 0,589796321904871 
880	 0,589999716798342 
881	 0,589133153760629 
882	 0,589079851914381 
883	 0,589652480187258 
884	 0,589284317464538 
885	 0,58903424256137 
886	 0,589216394641604 
887	 0,589417077481936 
888	 0,589726142143219 
889	 0,590183289985379 
890	 0,589957185717078 
891	 0,589406568766291 
892	 0,589614618270964 
893	 0,590030404162112 
894	 0,590402998491412 
895	 0,590472346033994 
896	 0,590374945856846 
897	 0,590183067532466 
898	 0,589322958755666 
899	 0,588489118176868 
900	 0,589025813449548 
901	 0,589456855680318 
902	 0,589469855829181 
903	 0,589715334369788 
904	 0,589667015276319 
905	 0,58910655307936 
906	 0,588902994616085 
907	 0,589114463878327 
908	 0,58964704196115 
909	 0,589450560553817 
910	 0,588824296491292 
911	 0,589658161214391 
912	 0,590195361338326 
913	 0,589752115827623 
914	 0,589710743378007 
915	 0,589519928660511 
916	 0,588531126283163 
917	 0,588390843192742 
918	 0,589039772488749 
919	 0,589539059256682 
920	 0,589473995700815 
921	 0,588787760683747 
922	 0,588048262538581 
923	 0,588270428956256 
924	 0,589903286589204 
925	 0,589023891254145 
926	 0,586857693399985 
927	 0,586725472158767 
928	 0,586776040942808 
929	 0,586690701130387 
930	 0,587191107240134 
931	 0,587346827461324 
932	 0,586712431357752 
933	 0,586282588312625 
934	 0,586085285553301 
935	 0,586005166225868 
936	 0,586240772149676 
937	 0,586327751936908 
938	 0,584894719557086 
939	 0,583392844538996 
940	 0,582554183439426 
941	 0,582892566705232 
942	 0,582912097227029 
943	 0,581406978905024 
944	 0,580330805367413 
945	 0,580081603601959 
946	 0,580820365245128 
947	 0,580076264516049 
948	 0,577906943308962 
949	 0,577519253894381 
950	 0,576937993848758 
951	 0,575288287617414 
952	 0,574699734990738 
953	 0,5743670895212 
954	 0,573093566475505 
955	 0,571456270390511 
956	 0,570070496692747 
957	 0,570201553650295 
958	 0,570013564411927 
959	 0,569103362584453 
960	 0,56874965140948 
961	 0,569153335750374 
962	 0,570172264634774 
963	 0,569729374328651 
964	 0,568261444171934 
965	 0,566920172924935 
966	 0,566776110946785 
967	 0,56724157819212 
968	 0,565259725622027 
969	 0,56470877406745 
970	 0,566536447340911 
971	 0,566275973106973 
972	 0,565533601374265 
973	 0,565918627151632 
974	 0,565454337463574 
975	 0,565030118810379 
976	 0,566759458727785 
977	 0,567553325747059 
978	 0,567084740551983 
979	 0,567509981022202 
980	 0,567520967837794 
981	 0,566701328753132 
982	 0,566398654325132 
983	 0,566673909211822 
984	 0,567417358738764 
985	 0,568103403641286 
986	 0,568316456192481 
987	 0,567527750653973 
988	 0,566671361773256 
989	 0,566407297253341 
990	 0,567822902582804 
991	 0,569393803839769 
992	 0,570256582742329 
993	 0,570806433407141 
994	 0,571473370607187 
995	 0,572549777573516 
996	 0,572250930580837 
997	 0,571710324354945 
998	 0,573778659434828 
999	 0,573914887837148 
1000	 0,571908323396136 
1001	 0,571873959085709 
1002	 0,572160786892301 
1003	 0,572126177670473 
1004	 0,572758621745539 
1005	 0,574068752900713 
1006	 0,575851439963782 
1007	 0,576794800463589 
1008	 0,57691744415064 
1009	 0,576662459997687 
1010	 0,578818623537611 
1011	 0,581945892289588 
1012	 0,57870672323319 
1013	 0,576538609790569 
1014	 0,578087334598122 
1015	 0,578136283873266 
1016	 0,579372018324901 
1017	 0,583451067845929 
1018	 0,582856284773879 
1019	 0,579700085103745 
1020	 0,578795718257801 
1021	 0,580793207200492 
1022	 0,584374113623852 
1023	 0,585524576736203 
1024	 0,58371434424271 
1025	 0,580401277680608 
1026	 0,583002569513042 
1027	 0,585794295394769 
1028	 0,585240569305634 
1029	 0,585531676329844 
1030	 0,586241000667216 
1031	 0,586355779063615 
1032	 0,585498473099736 
1033	 0,584505191418015 
1034	 0,585089657278787 
1035	 0,587784101323543 
1036	 0,590963068985726 
1037	 0,588330956906733 
1038	 0,585650458464238 
1039	 0,585858931758049 
1040	 0,589566460085882 
1041	 0,590273846438856 
1042	 0,583984789679743 
1043	 0,583850605365038 
1044	 0,587384633385026 
1045	 0,588519985095647 
1046	 0,586944288855529 
1047	 0,583644895983741 
1048	 0,58128590947055 
1049	 0,581384055704621 
1050	 0,584408237895309 
1051	 0,590693768529792 
1052	 0,591030434102847 
1053	 0,582893087123904 
1054	 0,581107424221164 
1055	 0,580213487426911 
1056	 0,576958737196008 
1057	 0,593199894388863 
1058	 0,611112788842416 
1059	 0,60397039581593 
1060	 0,595304346590653 
1061	 0,589652947991433 
1062	 0,584577409813853 
1063	 0,583914450760401 
1064	 0,585935525044389 
1065	 0,580959861395916 
1066	 0,573844437356958 
1067	 0,568024140986647 
1068	 0,567592592806822 
1069	 0,56777285364491 
1070	 0,56614016264819 
1071	 0,573172134731001 
1072	 0,586054836812509 
1073	 0,597479623213495 
1074	 0,593801400260066 
1075	 0,58153023646466 
