Wavelength	AULNE200360.asd
325	 0,195678528132354 
326	 0,353674300682222 
327	 0,407441344826806 
328	 0,32410993576733 
329	 0,293190990422385 
330	 0,289337533924394 
331	 0,27210418868504 
332	 0,17778331182925 
333	 8,87903779921615E-02 
334	 0,263609835955901 
335	 0,279391159555754 
336	 0,110209442863536 
337	 0,126225656626015 
338	 0,181866016405251 
339	 0,125684414352793 
340	 0,11855567719376 
341	 0,160245701833631 
342	 0,210172546999742 
343	 0,190883774316656 
344	 9,39435957635108E-02 
345	 9,08851917226875E-02 
346	 0,119462775331755 
347	 0,115120721868407 
348	 0,114084425730702 
349	 0,113411674760121 
350	 8,59220423245333E-02 
351	 9,61062148205547E-02 
352	 0,148626701237583 
353	 0,108974974464897 
354	 5,69084437794535E-02 
355	 8,37579154847675E-02 
356	 9,54660031045104E-02 
357	 8,56599975029652E-02 
358	 9,31847445718365E-02 
359	 0,107256786041528 
360	 0,119212354441718 
361	 9,69381205566162E-02 
362	 7,32000743904317E-02 
363	 9,09444784793794E-02 
364	 0,118408092537852 
365	 0,135378668428765 
366	 0,097007712203201 
367	 6,99374866724279E-02 
368	 0,086765460233925 
369	 7,91677852085974E-02 
370	 5,95223898172898E-02 
371	 6,85853106070449E-02 
372	 6,55219611592113E-02 
373	 5,27756233589357E-02 
374	 9,18176930712871E-02 
375	 0,115977294063004 
376	 8,15633988442389E-02 
377	 0,071667304138323 
378	 8,11499358438314E-02 
379	 0,061614966811661 
380	 7,02171363005384E-02 
381	 0,109110344317748 
382	 0,106233728126019 
383	 9,56243783294347E-02 
384	 0,110679326808677 
385	 0,107616285383913 
386	 8,96092288289724E-02 
387	 7,50207255779277E-02 
388	 7,45157481304067E-02 
389	 8,96256298603558E-02 
390	 9,01934379661759E-02 
391	 8,62567042653782E-02 
392	 9,24139979639368E-02 
393	 8,69023766500433E-02 
394	 7,36233643471493E-02 
395	 7,80270815883856E-02 
396	 8,33629581100056E-02 
397	 8,17955379785232E-02 
398	 8,21956174396068E-02 
399	 8,69111338964875E-02 
400	 9,84492289346679E-02 
401	 0,101533714180584 
402	 9,27812093634931E-02 
403	 0,073483740834133 
404	 6,40227886112855E-02 
405	 7,57507272885604E-02 
406	 7,97968223078765E-02 
407	 7,72825999896347E-02 
408	 7,96737328093378E-02 
409	 8,28107955126444E-02 
410	 8,41542462492074E-02 
411	 7,68356273132555E-02 
412	 7,14356015242243E-02 
413	 7,73138479869591E-02 
414	 7,71029151585383E-02 
415	 7,18124956866033E-02 
416	 7,16646522616831E-02 
417	 7,25685152525776E-02 
418	 7,29253133716866E-02 
419	 7,33973764862769E-02 
420	 7,32204618600773E-02 
421	 7,14085371791554E-02 
422	 7,31311899455805E-02 
423	 7,67557786994209E-02 
424	 7,28520503830229E-02 
425	 6,91086838284832E-02 
426	 6,99728871439347E-02 
427	 7,12982912342684E-02 
428	 7,22437454209735E-02 
429	 7,25014467757904E-02 
430	 7,10827754622789E-02 
431	 6,90611465035491E-02 
432	 7,19697406959009E-02 
433	 0,075820366003229 
434	 7,68395603723532E-02 
435	 7,62124805060591E-02 
436	 0,074032181149209 
437	 6,94060915236676E-02 
438	 6,69154284019568E-02 
439	 6,84175231279893E-02 
440	 7,15515347603493E-02 
441	 7,44484543327519E-02 
442	 7,52853872498828E-02 
443	 7,38449234285408E-02 
444	 7,10285526296999E-02 
445	 6,91209730455863E-02 
446	 7,05604846017112E-02 
447	 7,57963342492512E-02 
448	 7,50283565447209E-02 
449	 7,14241628229155E-02 
450	 7,36246121009205E-02 
451	 0,074688151070252 
452	 7,34568571952878E-02 
453	 7,45835455612708E-02 
454	 7,51608562726858E-02 
455	 7,26702128386156E-02 
456	 0,074201092452038 
457	 7,75788810649898E-02 
458	 7,25988654822386E-02 
459	 7,28630499379498E-02 
460	 8,17879170313087E-02 
461	 8,23720992960131E-02 
462	 0,078229367016064 
463	 7,62965352004644E-02 
464	 0,074836203054166 
465	 7,41971637422906E-02 
466	 7,60476645164156E-02 
467	 7,86298524661182E-02 
468	 8,02658385047274E-02 
469	 7,75795664097288E-02 
470	 7,33561801638835E-02 
471	 7,38788284740077E-02 
472	 7,57893481145254E-02 
473	 7,74475157578134E-02 
474	 7,63552848710308E-02 
475	 7,50620968580287E-02 
476	 7,60678241079957E-02 
477	 7,38229097905722E-02 
478	 7,03694197786864E-02 
479	 7,46717785289069E-02 
480	 7,75748740886351E-02 
481	 7,52615418675003E-02 
482	 0,072655252844532 
483	 7,23980351402735E-02 
484	 7,75719005895578E-02 
485	 7,80357759218366E-02 
486	 7,36585265244287E-02 
487	 0,075395698235644 
488	 7,68938371698616E-02 
489	 7,37475161004175E-02 
490	 7,38767193998745E-02 
491	 7,57038824192148E-02 
492	 7,21439877268504E-02 
493	 7,14114559794457E-02 
494	 7,52931898468885E-02 
495	 7,73161692731557E-02 
496	 7,72262653077603E-02 
497	 7,54087251040234E-02 
498	 7,62962916348129E-02 
499	 7,86850355238272E-02 
500	 7,51512424564122E-02 
501	 7,28351073841402E-02 
502	 7,52921820375117E-02 
503	 7,59702431267833E-02 
504	 7,56351325500224E-02 
505	 7,72303881800933E-02 
506	 7,76310762903215E-02 
507	 7,64443444877336E-02 
508	 7,59971849540765E-02 
509	 7,61672269179502E-02 
510	 7,67291414548624E-02 
511	 7,74716962950611E-02 
512	 7,80997307590986E-02 
513	 7,80430340089187E-02 
514	 7,81639333264532E-02 
515	 7,86483013180169E-02 
516	 7,79410796044013E-02 
517	 7,72985857122633E-02 
518	 7,86457688604464E-02 
519	 7,97885595776552E-02 
520	 8,01340093217815E-02 
521	 7,98170071622413E-02 
522	 7,95538972369404E-02 
523	 7,98273424436601E-02 
524	 7,99073792074001E-02 
525	 7,97458396785099E-02 
526	 7,94164055657001E-02 
527	 7,94622140260447E-02 
528	 0,080017035897293 
529	 8,07797735935022E-02 
530	 8,08302110299253E-02 
531	 7,92128343053338E-02 
532	 7,85246028677637E-02 
533	 7,90062842631103E-02 
534	 7,94378334510655E-02 
535	 7,91209440811196E-02 
536	 7,79228170174741E-02 
537	 7,85665537781892E-02 
538	 0,080221126043284 
539	 0,080812917055616 
540	 0,080320168539241 
541	 0,079055473041194 
542	 7,86937378839014E-02 
543	 7,87000433438659E-02 
544	 7,84998928358906E-02 
545	 7,91942210614134E-02 
546	 8,04172270465361E-02 
547	 8,07225571444175E-02 
548	 0,080597883123743 
549	 8,03429807121262E-02 
550	 8,02808011134965E-02 
551	 8,07844270042255E-02 
552	 8,24094221928912E-02 
553	 8,30271778092527E-02 
554	 8,22201790341139E-02 
555	 8,09776305082879E-02 
556	 8,05226171239102E-02 
557	 8,17086837237151E-02 
558	 8,22822261288231E-02 
559	 8,20614603254875E-02 
560	 0,081648298833378 
561	 0,081522729822815 
562	 8,18895268752144E-02 
563	 8,22685165586187E-02 
564	 8,28282642914571E-02 
565	 8,38482787825271E-02 
566	 8,47252304679943E-02 
567	 8,53570629347783E-02 
568	 8,59218818704795E-02 
569	 8,69870939696996E-02 
570	 8,87591975640051E-02 
571	 8,91827548283274E-02 
572	 8,87908435633078E-02 
573	 0,089425609603322 
574	 9,01746069517511E-02 
575	 9,08004128052877E-02 
576	 9,15335250897091E-02 
577	 9,24163880527004E-02 
578	 9,34730173216838E-02 
579	 9,44828716074733E-02 
580	 9,50729886386014E-02 
581	 9,42345825614809E-02 
582	 9,37173080380266E-02 
583	 9,43777550734083E-02 
584	 9,40682857778052E-02 
585	 9,36646810726873E-02 
586	 9,52424195415395E-02 
587	 9,62579492322082E-02 
588	 9,61094372052782E-02 
589	 0,095961307946075 
590	 9,58010770013386E-02 
591	 9,55998726692704E-02 
592	 9,59223843358927E-02 
593	 9,62623302752937E-02 
594	 9,47862039853351E-02 
595	 9,40515108270822E-02 
596	 9,50005202618336E-02 
597	 9,52478225362023E-02 
598	 9,46687073929481E-02 
599	 9,34629134389258E-02 
600	 9,27998312355144E-02 
601	 9,28031179779498E-02 
602	 9,23155305630064E-02 
603	 9,20103735094215E-02 
604	 0,092367015966257 
605	 9,23750817272984E-02 
606	 9,20607589722465E-02 
607	 9,20465157297377E-02 
608	 9,13492416863212E-02 
609	 0,090031886525217 
610	 9,07001651905614E-02 
611	 9,15750591291764E-02 
612	 9,02406466990562E-02 
613	 8,94821588466914E-02 
614	 8,95432228020628E-02 
615	 8,87163877556375E-02 
616	 8,83795781695286E-02 
617	 8,92554064970145E-02 
618	 8,94633316809061E-02 
619	 8,91828544789082E-02 
620	 8,93930850785902E-02 
621	 8,90489232579353E-02 
622	 8,82455951846665E-02 
623	 8,90721027361079E-02 
624	 0,090020225149634 
625	 8,94856287839307E-02 
626	 8,94704459227612E-02 
627	 9,01635157823205E-02 
628	 9,08924694949919E-02 
629	 0,091305424322818 
630	 9,13029764251515E-02 
631	 9,17926238969426E-02 
632	 9,25558521664607E-02 
633	 9,30264591382798E-02 
634	 9,40665554785895E-02 
635	 9,55577382388309E-02 
636	 9,60337730395938E-02 
637	 9,63352464793995E-02 
638	 9,71672697586867E-02 
639	 9,75800102473955E-02 
640	 9,77043714159136E-02 
641	 9,82381357470169E-02 
642	 9,89803299188576E-02 
643	 9,98054294104813E-02 
644	 0,100364082436234 
645	 0,100895083205999 
646	 0,101758597491277 
647	 0,102145352507679 
648	 0,101963574529039 
649	 0,101603227147512 
650	 0,101480314920234 
651	 0,101791108320014 
652	 0,101580673895541 
653	 0,100867446205129 
654	 9,99335736714931E-02 
655	 9,93950289764996E-02 
656	 9,93380686367806E-02 
657	 9,89714562216141E-02 
658	 9,82622451983584E-02 
659	 9,72415447651254E-02 
660	 9,61318155510915E-02 
661	 9,50077586110738E-02 
662	 9,37976700657831E-02 
663	 9,29686689057083E-02 
664	 0,092626257148307 
665	 9,17180852101391E-02 
666	 9,04754081636763E-02 
667	 8,94369206016762E-02 
668	 0,088716456138048 
669	 8,83198285536371E-02 
670	 8,80126671109293E-02 
671	 0,087789931419655 
672	 0,087632451808887 
673	 8,73839713855003E-02 
674	 8,69792735698506E-02 
675	 8,62350406611541E-02 
676	 8,60021282116825E-02 
677	 8,64395774593788E-02 
678	 0,086440299345915 
679	 0,086128820626817 
680	 8,57746629190137E-02 
681	 8,60259834724497E-02 
682	 8,66687912912975E-02 
683	 8,64105857629434E-02 
684	 0,086422651961193 
685	 8,73361939892522E-02 
686	 8,82033294322918E-02 
687	 8,90792778592585E-02 
688	 0,090308270450679 
689	 9,14224377080917E-02 
690	 9,26064131340758E-02 
691	 0,095205642493001 
692	 9,81849001622422E-02 
693	 0,100637414229846 
694	 0,103848130688052 
695	 0,107968602031187 
696	 0,112837358624384 
697	 0,117635857427297 
698	 0,122288224928273 
699	 0,128640141345933 
700	 0,135880637875054 
701	 0,142755651496392 
702	 0,150180007691645 
703	 0,158130715544409 
704	 0,165901286312076 
705	 0,173872073484306 
706	 0,182207183516711 
707	 0,190238965939653 
708	 0,198061479778038 
709	 0,206050917610786 
710	 0,213741786744319 
711	 0,221123157992413 
712	 0,228873246935398 
713	 0,236320049273638 
714	 0,242835410885861 
715	 0,249426831144061 
716	 0,256036175351734 
717	 0,261969090440413 
718	 0,267483360137302 
719	 0,272701295731873 
720	 0,27781855409517 
721	 0,282535161574586 
722	 0,286460844649912 
723	 0,290313184989122 
724	 0,294142993696989 
725	 0,297403967946149 
726	 0,300608555721554 
727	 0,303977668086443 
728	 0,306506444724772 
729	 0,308519620498451 
730	 0,310841145391915 
731	 0,312925365652952 
732	 0,314730094479259 
733	 0,316769355427485 
734	 0,318610786530056 
735	 0,319884392566636 
736	 0,320976911039334 
737	 0,32211503773219 
738	 0,323683979781482 
739	 0,325102253370224 
740	 0,326085690148265 
741	 0,326419712313383 
742	 0,326908747279477 
743	 0,328458414506336 
744	 0,329347737800875 
745	 0,329554252284524 
746	 0,330284696890684 
747	 0,331115693917637 
748	 0,331801609579783 
749	 0,332240050790278 
750	 0,33248511166635 
751	 0,332635698692977 
752	 0,332928557565896 
753	 0,333441974786787 
754	 0,334175751542119 
755	 0,334754457739825 
756	 0,334933179618977 
757	 0,335201374351531 
758	 0,33546743919269 
759	 0,335347845755955 
760	 0,335452406357844 
761	 0,335896957052728 
762	 0,336182206270633 
763	 0,336417976469631 
764	 0,33671458161056 
765	 0,336765803741282 
766	 0,336718467468905 
767	 0,337125951076225 
768	 0,337358352805473 
769	 0,337261905778236 
770	 0,337480880097187 
771	 0,337883220024792 
772	 0,338244644369771 
773	 0,33828399894821 
774	 0,338160456535208 
775	 0,338624695085029 
776	 0,338864099864726 
777	 0,338573911691225 
778	 0,338802642015575 
779	 0,339205807618229 
780	 0,339108617131627 
781	 0,339154162805275 
782	 0,339425171105393 
783	 0,339599974580372 
784	 0,339701640083957 
785	 0,339784446599391 
786	 0,340230077434239 
787	 0,340675438571097 
788	 0,340366291604867 
789	 0,340314316885943 
790	 0,340738258289873 
791	 0,341197379110785 
792	 0,341400395255617 
793	 0,341158225525032 
794	 0,340922936895979 
795	 0,34094896329908 
796	 0,341619184584877 
797	 0,342054815661307 
798	 0,341993795808904 
799	 0,34182426515221 
800	 0,341786864775557 
801	 0,342079475399769 
802	 0,342485412096047 
803	 0,342836962039263 
804	 0,342865448660933 
805	 0,342719289619594 
806	 0,342592089393339 
807	 0,343138181313415 
808	 0,34379533859549 
809	 0,343931200188384 
810	 0,344052031513268 
811	 0,34430682671066 
812	 0,34486571315802 
813	 0,345198014791009 
814	 0,345069513849706 
815	 0,344536001043272 
816	 0,344471612726099 
817	 0,34582911844998 
818	 0,346603910045269 
819	 0,346557723256556 
820	 0,346468895108506 
821	 0,346527485174483 
822	 0,346841458041645 
823	 0,347205293853619 
824	 0,347478235143433 
825	 0,347515393566491 
826	 0,347349825127706 
827	 0,347153845066585 
828	 0,34733388508751 
829	 0,347883549727517 
830	 0,348692204516829 
831	 0,34913103635381 
832	 0,349187649193206 
833	 0,34896577558798 
834	 0,348978677668799 
835	 0,349269250900482 
836	 0,34944928410946 
837	 0,349681608082384 
838	 0,349959750710085 
839	 0,349584354902697 
840	 0,349349767899468 
841	 0,350446419111612 
842	 0,350814489943717 
843	 0,350276187295517 
844	 0,350020861980906 
845	 0,350228934498808 
846	 0,350909644822556 
847	 0,351201589442362 
848	 0,351212739029222 
849	 0,351251422116641 
850	 0,351457748890919 
851	 0,351755022200311 
852	 0,351746020738679 
853	 0,351617089044585 
854	 0,351524899116201 
855	 0,351787944925507 
856	 0,352089515550679 
857	 0,351957438512692 
858	 0,351720790057225 
859	 0,35160100605761 
860	 0,351950906209712 
861	 0,352679652554359 
862	 0,353489026202334 
863	 0,352920326826455 
864	 0,351933794726165 
865	 0,351965744975366 
866	 0,352894436464216 
867	 0,354078948189143 
868	 0,353648251218255 
869	 0,353328277231101 
870	 0,353806240956273 
871	 0,353796468397184 
872	 0,353685506593707 
873	 0,354045007770154 
874	 0,354055636162797 
875	 0,353737952969718 
876	 0,353596252696381 
877	 0,353903603392939 
878	 0,354587614670703 
879	 0,354475118043802 
880	 0,354037226464566 
881	 0,35393063781684 
882	 0,35497763344124 
883	 0,356396232713496 
884	 0,355649810909495 
885	 0,355138783080358 
886	 0,355451412284361 
887	 0,354710699017981 
888	 0,354308850549838 
889	 0,355478405891107 
890	 0,355741760875536 
891	 0,355277645225732 
892	 0,355504963783388 
893	 0,355683428481746 
894	 0,355654398030831 
895	 0,355727757245431 
896	 0,355690855520211 
897	 0,355433439964882 
898	 0,355610085922111 
899	 0,355943659918097 
900	 0,355769747218172 
901	 0,355461748580051 
902	 0,355302404948604 
903	 0,355894794945327 
904	 0,356528188484678 
905	 0,356744268725698 
906	 0,356856483282504 
907	 0,356859011406844 
908	 0,356700914981862 
909	 0,356762529762454 
910	 0,356955401246286 
911	 0,35661849261281 
912	 0,356578780993154 
913	 0,357118187454236 
914	 0,357488188211012 
915	 0,357311142751539 
916	 0,356338255643999 
917	 0,35610916456415 
918	 0,35654912250581 
919	 0,356617646061915 
920	 0,356624228380824 
921	 0,356490549320508 
922	 0,355422946381953 
923	 0,354886109432042 
924	 0,355898600913113 
925	 0,355724410934297 
926	 0,354775112468671 
927	 0,354585875403505 
928	 0,35454633655973 
929	 0,354494844611997 
930	 0,354385303079093 
931	 0,354287351796347 
932	 0,354159638836908 
933	 0,353366403355409 
934	 0,352759170284055 
935	 0,353438054911612 
936	 0,353229034721846 
937	 0,352089792149089 
938	 0,351320624387075 
939	 0,350684250522423 
940	 0,350207257284176 
941	 0,350396614347685 
942	 0,349831430643418 
943	 0,347459601668324 
944	 0,345884443763044 
945	 0,345418738084548 
946	 0,345792907523754 
947	 0,345419150865374 
948	 0,343932676495797 
949	 0,341862923287344 
950	 0,341099399910534 
951	 0,342136984191801 
952	 0,340546018223019 
953	 0,338013251871396 
954	 0,337121167838554 
955	 0,336541553636464 
956	 0,33597815481218 
957	 0,335365412175377 
958	 0,33435653859289 
959	 0,333195180036758 
960	 0,333569204181996 
961	 0,333871606667803 
962	 0,33289249029006 
963	 0,331674485760984 
964	 0,330833129171859 
965	 0,331025508691403 
966	 0,331179763338444 
967	 0,330907694632467 
968	 0,329658565767857 
969	 0,330299258967876 
970	 0,333209993043307 
971	 0,333471349308043 
972	 0,332134923808254 
973	 0,330656080967988 
974	 0,330224310760396 
975	 0,331101285034049 
976	 0,333301943171853 
977	 0,333390148642902 
978	 0,331463586742296 
979	 0,331516789112734 
980	 0,33208381538245 
981	 0,33230102430576 
982	 0,331362878810735 
983	 0,33098341974139 
984	 0,332615822379263 
985	 0,331047318110157 
986	 0,328415395662535 
987	 0,330700993166656 
988	 0,332307613048784 
989	 0,332436487410248 
990	 0,334554440660346 
991	 0,335280502558428 
992	 0,333391225121952 
993	 0,332761203340103 
994	 0,333464055165649 
995	 0,335174869239989 
996	 0,337972895700315 
997	 0,340369289835239 
998	 0,339621653169351 
999	 0,339322940604544 
1000	 0,340129549248748 
1001	 0,340457507098044 
1002	 0,339756277473857 
1003	 0,338386185203719 
1004	 0,340140313881755 
1005	 0,342233477860636 
1006	 0,34182205061915 
1007	 0,341508729039699 
1008	 0,34264265450859 
1009	 0,346825448662273 
1010	 0,347658381953811 
1011	 0,344983679889547 
1012	 0,344473783513563 
1013	 0,344343848003865 
1014	 0,344193567595903 
1015	 0,345088827781784 
1016	 0,347552523821398 
1017	 0,351445167176908 
1018	 0,352246426659737 
1019	 0,351650671359633 
1020	 0,353169697155247 
1021	 0,352252713322893 
1022	 0,350282145604486 
1023	 0,354357629375454 
1024	 0,355400158096318 
1025	 0,35195910974813 
1026	 0,352628758044422 
1027	 0,353704383453982 
1028	 0,352995940541112 
1029	 0,353583984918815 
1030	 0,355467807901137 
1031	 0,358094211879745 
1032	 0,359944441168379 
1033	 0,360102030620809 
1034	 0,357331972488857 
1035	 0,359268170678974 
1036	 0,364453331126403 
1037	 0,358902973389557 
1038	 0,355007499816103 
1039	 0,357986502392666 
1040	 0,363371634716895 
1041	 0,36720172716121 
1042	 0,36627935504996 
1043	 0,360701520863299 
1044	 0,358694860013247 
1045	 0,370099088687217 
1046	 0,372457050221682 
1047	 0,3648251994925 
1048	 0,356386389948481 
1049	 0,35836832279345 
1050	 0,369550022735928 
1051	 0,370795146154956 
1052	 0,364674709189663 
1053	 0,355287060109083 
1054	 0,356656233245762 
1055	 0,364313258412641 
1056	 0,372333663936398 
1057	 0,373658459068829 
1058	 0,371351204047838 
1059	 0,371327650730434 
1060	 0,371870583557437 
1061	 0,370947095145621 
1062	 0,364349625426759 
1063	 0,361695368278365 
1064	 0,365511070124117 
1065	 0,373418783594534 
1066	 0,378544413363747 
1067	 0,377722960281645 
1068	 0,374231598684258 
1069	 0,372730792819936 
1070	 0,374814007170761 
1071	 0,363655672381894 
1072	 0,35967935348155 
1073	 0,386459105181307 
1074	 0,387221580397106 
1075	 0,369427305422751 
