Wavelength	AULNE200363.asd
325	 0,333250546515945 
326	 0,28756483157988 
327	 0,24099866512817 
328	 0,244146230807803 
329	 0,292818969476323 
330	 0,288302791749793 
331	 0,163852831449916 
332	 9,53600556458417E-02 
333	 9,71768850911535E-02 
334	 0,19736647927952 
335	 0,2071297754363 
336	 0,127703439016975 
337	 0,195677268653068 
338	 0,249307366015554 
339	 0,129352247456473 
340	 9,66392441802278E-02 
341	 0,14858582353247 
342	 0,197973216585115 
343	 0,172042276755748 
344	 6,04839450926634E-02 
345	 3,21748131595749E-02 
346	 6,30751608651036E-02 
347	 0,109509684553476 
348	 0,11472704025379 
349	 8,85641583060103E-02 
350	 8,58491070088294E-02 
351	 0,100930590683292 
352	 0,122311668963224 
353	 8,66688994918685E-02 
354	 5,16064632587769E-02 
355	 7,88772774451368E-02 
356	 9,16516641719316E-02 
357	 8,54096437563726E-02 
358	 0,100523321701888 
359	 9,15085398193621E-02 
360	 4,67027884877517E-02 
361	 5,44380155258772E-02 
362	 8,47305912990788E-02 
363	 8,69027546611295E-02 
364	 9,40580918019884E-02 
365	 0,100248938690099 
366	 5,04928518044503E-02 
367	 3,66779885135459E-02 
368	 9,61514364811791E-02 
369	 0,092145484258441 
370	 5,06021896080191E-02 
371	 5,26201992023083E-02 
372	 5,67387540827679E-02 
373	 5,48537659267975E-02 
374	 6,08640844928283E-02 
375	 6,06380608134653E-02 
376	 4,61918309725779E-02 
377	 5,96418779557535E-02 
378	 8,30885862959715E-02 
379	 6,93143499437992E-02 
380	 5,93778226267738E-02 
381	 6,60970994831138E-02 
382	 0,075262346170684 
383	 8,19298219527675E-02 
384	 8,20491992758091E-02 
385	 0,103297707192733 
386	 0,125768513734038 
387	 9,15633069608106E-02 
388	 7,44551172002579E-02 
389	 9,76517618473772E-02 
390	 0,086559877673539 
391	 0,068878481673256 
392	 8,34256734591966E-02 
393	 8,15314368499979E-02 
394	 6,48152217878223E-02 
395	 6,81971200309258E-02 
396	 0,0773494947155 
397	 8,35678924574409E-02 
398	 8,08501968777685E-02 
399	 7,53515794028559E-02 
400	 7,71628541461825E-02 
401	 8,16895335598479E-02 
402	 8,36718963443614E-02 
403	 6,72371778765964E-02 
404	 5,79301781364917E-02 
405	 7,08592240018608E-02 
406	 7,59209273059248E-02 
407	 7,21304964568709E-02 
408	 6,63661556433362E-02 
409	 6,47334665382756E-02 
410	 6,76587796867124E-02 
411	 6,53105687801702E-02 
412	 6,46234803121031E-02 
413	 7,18015994527736E-02 
414	 7,45501578203047E-02 
415	 7,18021435345059E-02 
416	 6,53899712450315E-02 
417	 6,35854264458327E-02 
418	 6,85393871687736E-02 
419	 6,86948073216513E-02 
420	 6,74391604569515E-02 
421	 7,03239053826962E-02 
422	 7,12830281663444E-02 
423	 6,95575021912472E-02 
424	 6,67479526386656E-02 
425	 6,60091149063355E-02 
426	 6,85201349982612E-02 
427	 6,69993856055708E-02 
428	 6,41438316672179E-02 
429	 6,67256019158605E-02 
430	 6,73784505064576E-02 
431	 6,55074862334709E-02 
432	 6,83070054111766E-02 
433	 7,12117957471315E-02 
434	 7,02495743943852E-02 
435	 7,21557186076793E-02 
436	 7,51052584924573E-02 
437	 7,14099283959139E-02 
438	 6,77967242490547E-02 
439	 6,70656761145286E-02 
440	 6,75579578508222E-02 
441	 6,90669693953065E-02 
442	 7,15644685266467E-02 
443	 6,84144395244215E-02 
444	 6,20565366515575E-02 
445	 6,55957287106035E-02 
446	 7,16613905950972E-02 
447	 7,48274133464725E-02 
448	 7,11827689343808E-02 
449	 6,54310285635814E-02 
450	 0,067429598640631 
451	 6,92697623881527E-02 
452	 0,0692292594722 
453	 7,11492709397655E-02 
454	 0,072313067749049 
455	 7,03713278054119E-02 
456	 7,12883458715242E-02 
457	 7,41659506037441E-02 
458	 7,35942545314343E-02 
459	 7,31054848416241E-02 
460	 7,41184735827321E-02 
461	 7,58858408385152E-02 
462	 0,077021979601456 
463	 7,57725674374784E-02 
464	 7,53889393049578E-02 
465	 7,60233263237299E-02 
466	 7,52583077042646E-02 
467	 7,33482428536558E-02 
468	 7,09332066794081E-02 
469	 7,17620930511241E-02 
470	 7,45385063176244E-02 
471	 7,57392556018054E-02 
472	 7,59239782361443E-02 
473	 7,52811939186153E-02 
474	 7,43855591055221E-02 
475	 7,35528310396421E-02 
476	 7,30604040789077E-02 
477	 7,27644586966957E-02 
478	 7,26584610359921E-02 
479	 7,30173257510139E-02 
480	 7,23895679771771E-02 
481	 7,05625824631368E-02 
482	 7,09921197826828E-02 
483	 7,29472715004893E-02 
484	 7,49056344770048E-02 
485	 7,39011033798733E-02 
486	 7,09470859846034E-02 
487	 7,33485871385007E-02 
488	 7,53710145151868E-02 
489	 7,30298851574662E-02 
490	 7,33600367972432E-02 
491	 7,47066563384848E-02 
492	 7,00093866524081E-02 
493	 6,84854870624454E-02 
494	 7,24629953438412E-02 
495	 7,59957635973227E-02 
496	 7,72477089264825E-02 
497	 7,48457381086959E-02 
498	 0,073848928442701 
499	 7,44028206953731E-02 
500	 7,25929168716596E-02 
501	 7,18803701178544E-02 
502	 7,37942991540701E-02 
503	 7,37868059735915E-02 
504	 7,31226871265043E-02 
505	 7,51689638809298E-02 
506	 7,56559556055138E-02 
507	 7,42671990077054E-02 
508	 7,54708529514542E-02 
509	 7,67112190644327E-02 
510	 7,56695928318026E-02 
511	 7,56226553110139E-02 
512	 7,63833479190759E-02 
513	 7,57025287416135E-02 
514	 7,56036673301357E-02 
515	 7,67005970935778E-02 
516	 7,70139759142789E-02 
517	 7,69118100774729E-02 
518	 0,077172503274808 
519	 7,77702247678302E-02 
520	 7,85734888242978E-02 
521	 7,92298323369736E-02 
522	 7,93443123499662E-02 
523	 7,86560778058937E-02 
524	 7,73288664521761E-02 
525	 7,62742210855285E-02 
526	 7,74663353326468E-02 
527	 7,83068133244989E-02 
528	 0,078051103405704 
529	 7,81570733707264E-02 
530	 7,84348464163768E-02 
531	 7,85501102980416E-02 
532	 7,81716761929211E-02 
533	 7,78062675354892E-02 
534	 7,94485697594156E-02 
535	 8,03080700686492E-02 
536	 7,89766289874342E-02 
537	 7,83876852239898E-02 
538	 7,86072081863372E-02 
539	 0,079055550942179 
540	 7,87518351942371E-02 
541	 7,77383970201993E-02 
542	 7,79098753370379E-02 
543	 7,82957414684912E-02 
544	 7,79134606326982E-02 
545	 7,82341887701997E-02 
546	 0,079118507644719 
547	 7,93843588530441E-02 
548	 7,97273947541302E-02 
549	 8,02919621239002E-02 
550	 7,96074655375739E-02 
551	 7,90016803923057E-02 
552	 8,08002757223493E-02 
553	 8,17362108417455E-02 
554	 8,11292804460857E-02 
555	 8,02261230035182E-02 
556	 8,01082429660945E-02 
557	 8,14619731484047E-02 
558	 8,13811226003313E-02 
559	 0,080317996163742 
560	 8,08149575719905E-02 
561	 8,11567217658992E-02 
562	 8,08303544625144E-02 
563	 8,08955954833857E-02 
564	 8,12780422388224E-02 
565	 8,17442230569196E-02 
566	 8,28423635688236E-02 
567	 8,43816979857622E-02 
568	 0,085263570847843 
569	 8,61816854917372E-02 
570	 8,75201188704641E-02 
571	 8,80329795452278E-02 
572	 8,81653414070265E-02 
573	 8,94319075998979E-02 
574	 8,96010198625537E-02 
575	 8,85408829761496E-02 
576	 8,98840128014606E-02 
577	 9,17286048339585E-02 
578	 9,17002481224978E-02 
579	 9,22076369451534E-02 
580	 9,32651535258578E-02 
581	 9,32658519171476E-02 
582	 9,29257122714162E-02 
583	 9,27184032114991E-02 
584	 0,092822145282338 
585	 9,33754757210377E-02 
586	 9,46044908628793E-02 
587	 9,54198774338546E-02 
588	 9,54742294555251E-02 
589	 9,50657695586821E-02 
590	 9,45724354262632E-02 
591	 0,094334176487595 
592	 9,42063981124312E-02 
593	 9,40899878902947E-02 
594	 0,093660277618542 
595	 9,38613342795021E-02 
596	 9,48816220397627E-02 
597	 9,49484402753236E-02 
598	 9,41008841086091E-02 
599	 9,26586144664126E-02 
600	 9,22857640803725E-02 
601	 9,29859675769996E-02 
602	 9,26579968864145E-02 
603	 9,19986493334235E-02 
604	 9,16349403735357E-02 
605	 9,18950644710341E-02 
606	 9,23223572421605E-02 
607	 9,16959142557126E-02 
608	 9,08152107573798E-02 
609	 9,00748093180478E-02 
610	 8,98998548757062E-02 
611	 8,97841010644264E-02 
612	 8,90610791721933E-02 
613	 8,88602259833253E-02 
614	 8,91578592602338E-02 
615	 8,89360863456705E-02 
616	 8,86419051378589E-02 
617	 8,85337220422595E-02 
618	 8,81667440997189E-02 
619	 8,79025831214084E-02 
620	 8,86824464329735E-02 
621	 8,84739685853815E-02 
622	 8,72004315563895E-02 
623	 8,80238136267023E-02 
624	 8,91365258750193E-02 
625	 8,85770774575762E-02 
626	 0,088908230504729 
627	 9,00541644499054E-02 
628	 9,02659194056655E-02 
629	 0,090073526148522 
630	 8,99171151396506E-02 
631	 9,10276013094756E-02 
632	 9,25053275830264E-02 
633	 9,26503149395065E-02 
634	 9,32648568299676E-02 
635	 9,45067969585866E-02 
636	 9,47374821381489E-02 
637	 0,095142900017303 
638	 0,096650976859164 
639	 9,73198360051972E-02 
640	 9,72432385379312E-02 
641	 9,75117168005081E-02 
642	 9,80358678800361E-02 
643	 0,098810159455505 
644	 9,96679272361191E-02 
645	 0,100615167026902 
646	 0,10170080445755 
647	 0,10193081323974 
648	 0,101323751129827 
649	 0,100761494389351 
650	 0,10078102928265 
651	 0,101574733202717 
652	 0,10135192205571 
653	 0,1003290661976 
654	 9,94667380784769E-02 
655	 9,90250210325563E-02 
656	 9,89018179125079E-02 
657	 9,78717603367452E-02 
658	 9,67665490101469E-02 
659	 9,64709175436549E-02 
660	 9,54865157102696E-02 
661	 9,39060552741993E-02 
662	 9,28825098607435E-02 
663	 9,21066927377458E-02 
664	 9,13762877965241E-02 
665	 0,090312733185285 
666	 8,90738836489478E-02 
667	 8,79391175594026E-02 
668	 8,75294802281694E-02 
669	 8,77206893418934E-02 
670	 8,72563020042459E-02 
671	 8,66865840424349E-02 
672	 8,64728086072751E-02 
673	 8,63558982054073E-02 
674	 8,62152176826928E-02 
675	 8,58796472395842E-02 
676	 8,54376389437563E-02 
677	 8,50196677489022E-02 
678	 8,51530435359884E-02 
679	 8,52491062821245E-02 
680	 8,45825919251678E-02 
681	 8,46436561897661E-02 
682	 8,54535057537606E-02 
683	 8,58893087616661E-02 
684	 8,63479392145645E-02 
685	 8,70334475470907E-02 
686	 8,76859992063976E-02 
687	 0,088393450132761 
688	 8,93365979745087E-02 
689	 9,06090741327501E-02 
690	 0,092322739559508 
691	 9,47216506418102E-02 
692	 9,74043011441203E-02 
693	 0,100056422130166 
694	 0,103512718860902 
695	 0,107823388633208 
696	 0,112751036245796 
697	 0,117808988518776 
698	 0,122954985746904 
699	 0,129354166832583 
700	 0,136428680274983 
701	 0,143307025946719 
702	 0,150636632783646 
703	 0,158441689139235 
704	 0,16632358546329 
705	 0,17457061765246 
706	 0,183244468386161 
707	 0,191339450874443 
708	 0,199157077107118 
709	 0,207537846493689 
710	 0,215835360170282 
711	 0,223797886279729 
712	 0,231328047868587 
713	 0,238511840318926 
714	 0,245410791804869 
715	 0,252019134340296 
716	 0,258420506101726 
717	 0,2648306104702 
718	 0,270640541497164 
719	 0,275698352520205 
720	 0,28087323025003 
721	 0,285845596567122 
722	 0,290116134555407 
723	 0,294264797005965 
724	 0,298309811399274 
725	 0,30180610697807 
726	 0,305028876192893 
727	 0,308118682477274 
728	 0,310665164976484 
729	 0,312895722376984 
730	 0,31531167312604 
731	 0,317387724544039 
732	 0,319159408981876 
733	 0,321506237826055 
734	 0,323596808972856 
735	 0,324734711381299 
736	 0,325906647992143 
737	 0,327243267970192 
738	 0,32859602617333 
739	 0,329843432470336 
740	 0,330898894038527 
741	 0,331611241739 
742	 0,332391014571396 
743	 0,333701124330604 
744	 0,334621669682577 
745	 0,335147907402942 
746	 0,335974120254973 
747	 0,336720739486327 
748	 0,337193237483886 
749	 0,337477247710402 
750	 0,33782030859735 
751	 0,338570780520816 
752	 0,339443282781821 
753	 0,340159575633068 
754	 0,340059011370924 
755	 0,339884715300552 
756	 0,340188458206619 
757	 0,340612248966301 
758	 0,341089775403677 
759	 0,341620241439102 
760	 0,341977204469789 
761	 0,342121847850684 
762	 0,342299405252464 
763	 0,34248193183731 
764	 0,342627534051045 
765	 0,342639595417651 
766	 0,342667415172763 
767	 0,343192666414771 
768	 0,343428653649904 
769	 0,343203137317792 
770	 0,343492260712681 
771	 0,34402395561419 
772	 0,344378404995854 
773	 0,344386718033706 
774	 0,344226707694677 
775	 0,344606217987242 
776	 0,344871012902936 
777	 0,34477527300433 
778	 0,345142506416865 
779	 0,345642513957286 
780	 0,345668135544766 
781	 0,345638781004814 
782	 0,345710429897666 
783	 0,346028480556077 
784	 0,346295093640126 
785	 0,346355193688913 
786	 0,346770600804853 
787	 0,347123731419031 
788	 0,34649680282822 
789	 0,346460758769433 
790	 0,347240101059349 
791	 0,347667817971011 
792	 0,347682581777308 
793	 0,347312520377941 
794	 0,347136461244334 
795	 0,347258253850787 
796	 0,347650421680051 
797	 0,348047791328805 
798	 0,348328393988228 
799	 0,348539798011429 
800	 0,348553348043297 
801	 0,348285748872145 
802	 0,348234586194885 
803	 0,348484252275998 
804	 0,3489797525808 
805	 0,349525826101607 
806	 0,349956484115716 
807	 0,349985819800491 
808	 0,349906792532551 
809	 0,350058363347916 
810	 0,350413313720902 
811	 0,350892384459146 
812	 0,351326032033394 
813	 0,351591393631895 
814	 0,351613883885772 
815	 0,351281033033807 
816	 0,351313830603114 
817	 0,352511782743462 
818	 0,353166639081051 
819	 0,353098237992874 
820	 0,353037658552276 
821	 0,353050726203427 
822	 0,353226856803391 
823	 0,353690719938714 
824	 0,354067444251136 
825	 0,353880471693237 
826	 0,353840690697557 
827	 0,35405243831852 
828	 0,354235653479293 
829	 0,354482083689823 
830	 0,354818485495946 
831	 0,355155506342555 
832	 0,355437570255002 
833	 0,35561008241402 
834	 0,355815637586935 
835	 0,355976801672088 
836	 0,355673551952565 
837	 0,355568127607643 
838	 0,355974328849784 
839	 0,356302962639821 
840	 0,356510022220225 
841	 0,356636515496778 
842	 0,356819164024052 
843	 0,35698447945487 
844	 0,356719129375712 
845	 0,356622721450452 
846	 0,356996805167745 
847	 0,357348468744583 
848	 0,357766755693466 
849	 0,358455583759225 
850	 0,358697318632568 
851	 0,358474730442379 
852	 0,358297597273699 
853	 0,358551592809314 
854	 0,359273539782832 
855	 0,359120409150147 
856	 0,358528862455114 
857	 0,358305856749131 
858	 0,358218312801415 
859	 0,358316859709653 
860	 0,358908068195833 
861	 0,359326451229834 
862	 0,359250154883194 
863	 0,359171385082209 
864	 0,359096726484331 
865	 0,358971584524087 
866	 0,359284760080339 
867	 0,360006869375467 
868	 0,360761346878674 
869	 0,361176310788097 
870	 0,361091348936 
871	 0,360828371734212 
872	 0,36085299913585 
873	 0,361617388440113 
874	 0,36136717231109 
875	 0,360423377562579 
876	 0,36086580573959 
877	 0,361324284159132 
878	 0,361317539092329 
879	 0,361564294921644 
880	 0,361788101833023 
881	 0,361670431783775 
882	 0,361805928409069 
883	 0,362162137704839 
884	 0,362365654752472 
885	 0,362343931494665 
886	 0,362147710472862 
887	 0,362268871081713 
888	 0,362357871820603 
889	 0,362108461765081 
890	 0,362311795039268 
891	 0,362645187249006 
892	 0,362033802171014 
893	 0,361981689681909 
894	 0,362774082637465 
895	 0,363395100774728 
896	 0,363492863112207 
897	 0,362929049100035 
898	 0,362857033557114 
899	 0,363136292398766 
900	 0,363175611758432 
901	 0,362972442382107 
902	 0,362684095674875 
903	 0,362948972878065 
904	 0,363216473538818 
905	 0,363167657792098 
906	 0,363198757062113 
907	 0,363410129277567 
908	 0,3638696963829 
909	 0,363564881065959 
910	 0,362867902453292 
911	 0,363854656479155 
912	 0,364298047442978 
913	 0,363464400560136 
914	 0,363895695223076 
915	 0,364220372752623 
916	 0,362834223205906 
917	 0,362797069799306 
918	 0,363849542900015 
919	 0,363662428810552 
920	 0,363991301032999 
921	 0,364862068768053 
922	 0,363626162584329 
923	 0,36224165035493 
924	 0,362378886403731 
925	 0,362792662404075 
926	 0,362771400739025 
927	 0,361390395386293 
928	 0,36068133140095 
929	 0,360881104571202 
930	 0,360383046372944 
931	 0,360334220146669 
932	 0,361072150257331 
933	 0,360149112608678 
934	 0,358682657342307 
935	 0,358432600443079 
936	 0,358558347427416 
937	 0,358528874362993 
938	 0,357256683187449 
939	 0,356617471743261 
940	 0,357075286945055 
941	 0,357078606182664 
942	 0,356223183063361 
943	 0,354419606486763 
944	 0,353704247476473 
945	 0,353707767206119 
946	 0,353096765834938 
947	 0,351954344256152 
948	 0,350423527143009 
949	 0,349028951982302 
950	 0,347950034616977 
951	 0,347238348400864 
952	 0,346571118605747 
953	 0,345359299646497 
954	 0,343058493636113 
955	 0,341793307784419 
956	 0,341592924189107 
957	 0,341359178428238 
958	 0,340501704196783 
959	 0,339098263052989 
960	 0,338804037820971 
961	 0,338575804626013 
962	 0,337661638256342 
963	 0,337158427720387 
964	 0,336877543358148 
965	 0,336303076250431 
966	 0,33645095878464 
967	 0,336915254765168 
968	 0,335387056829164 
969	 0,335581618739457 
970	 0,338358942280107 
971	 0,339479366084228 
972	 0,338323127539108 
973	 0,335194293352222 
974	 0,336472615784026 
975	 0,339748782223548 
976	 0,338744886114796 
977	 0,337857402874654 
978	 0,337962714539065 
979	 0,338012951371133 
980	 0,33745092519489 
981	 0,33624068346636 
982	 0,33584106783272 
983	 0,336445115326057 
984	 0,337899067463112 
985	 0,337474834185138 
986	 0,336365136925813 
987	 0,337923559664119 
988	 0,338894907620581 
989	 0,338955148094924 
990	 0,340561904278097 
991	 0,341477910843305 
992	 0,340733354339425 
993	 0,339909122310609 
994	 0,340359502307275 
995	 0,343081034255821 
996	 0,344871667980414 
997	 0,345881737012216 
998	 0,347749765473476 
999	 0,346949338202928 
1000	 0,344046267588839 
1001	 0,344520288664755 
1002	 0,346145222373686 
1003	 0,347163758797548 
1004	 0,343955949177938 
1005	 0,342249170029744 
1006	 0,34722670217998 
1007	 0,349926159310643 
1008	 0,350443088698518 
1009	 0,351767986473643 
1010	 0,353880834386088 
1011	 0,355769894550543 
1012	 0,35423616066769 
1013	 0,351428206051591 
1014	 0,349037508935951 
1015	 0,34964164720656 
1016	 0,352453774275194 
1017	 0,35623178099812 
1018	 0,358252809553799 
1019	 0,358243390182925 
1020	 0,356685212347583 
1021	 0,357038287658432 
1022	 0,35860112070757 
1023	 0,356526795087656 
1024	 0,355984420481418 
1025	 0,358051370910171 
1026	 0,359320368114544 
1027	 0,358706991761472 
1028	 0,356324513858798 
1029	 0,357249911260019 
1030	 0,361537028762012 
1031	 0,367979855749826 
1032	 0,371517919786207 
1033	 0,370696040117897 
1034	 0,36502923310318 
1035	 0,360517134474594 
1036	 0,359533862826553 
1037	 0,362985038277126 
1038	 0,36520842239476 
1039	 0,365173826162604 
1040	 0,373699368508871 
1041	 0,378090607009456 
1042	 0,369148806170564 
1043	 0,363231249226785 
1044	 0,365829543967223 
1045	 0,379701028779296 
1046	 0,380406840853949 
1047	 0,369903275632975 
1048	 0,365906328309667 
1049	 0,368209835723137 
1050	 0,374572786911986 
1051	 0,375707531653095 
1052	 0,372412792257336 
1053	 0,366622768371752 
1054	 0,366845567796823 
1055	 0,366926487637351 
1056	 0,362489497808272 
1057	 0,368077311289528 
1058	 0,3756581799827 
1059	 0,372422986200633 
1060	 0,376839750416577 
1061	 0,383707059538805 
1062	 0,371783639424124 
1063	 0,371238977953622 
1064	 0,382924364025529 
1065	 0,374887542325379 
1066	 0,369750643428789 
1067	 0,374174572816984 
1068	 0,365404455171683 
1069	 0,362562756785835 
1070	 0,377159354979771 
1071	 0,38135965427967 
1072	 0,37454175576514 
1073	 0,362567417855851 
1074	 0,368790608621739 
1075	 0,380749558513158 
