Wavelength	AULNE200324.asd
325	 8,24089488451239E-02 
326	 0,192732956365479 
327	 0,238935270028734 
328	 0,162212564769932 
329	 0,163950913760413 
330	 0,196880881405195 
331	 0,190320045527221 
332	 0,107092483303027 
333	 2,71951436173287E-02 
334	 0,178799607254381 
335	 0,227165319453208 
336	 0,139309736992235 
337	 0,166701184235543 
338	 0,185293852202891 
339	 7,49179694082893E-02 
340	 6,43989609941691E-02 
341	 0,125677724279494 
342	 0,125284573783157 
343	 0,117487260973387 
344	 0,107829311399811 
345	 5,53620385323168E-02 
346	 2,22897648870911E-02 
347	 4,15086203059613E-02 
348	 5,73573684414752E-02 
349	 5,52102526819152E-02 
350	 2,55358413470305E-02 
351	 1,38038027144478E-02 
352	 3,16493332523411E-02 
353	 3,00433435221734E-02 
354	 2,46126947153055E-02 
355	 3,61341668328933E-02 
356	 4,13019944467131E-02 
357	 3,53662057556651E-02 
358	 1,53928397841492E-02 
359	 1,45913830968299E-02 
360	 4,16502365930599E-02 
361	 0,031803891272179 
362	 1,18710131722939E-02 
363	 2,47718906376219E-02 
364	 3,80517819074567E-02 
365	 4,10492570141796E-02 
366	 2,15456268824758E-02 
367	 2,15694956999768E-02 
368	 5,60926615527389E-02 
369	 4,60102834009684E-02 
370	 1,18511872892761E-02 
371	 1,24081024300917E-02 
372	 3,56731697745162E-03 
373	-1,18068007670636E-02 
374	 3,32371241465487E-02 
375	 5,48322604721425E-02 
376	-6,9827426503071E-04 
377	-8,20372402600884E-04 
378	 3,45296455667918E-02 
379	 1,65232153966896E-02 
380	 6,20486998628918E-03 
381	 1,85571541887364E-02 
382	 2,30499613152729E-02 
383	 2,45588731318579E-02 
384	 2,86376696167528E-02 
385	 4,41955086502882E-02 
386	 5,48638183114482E-02 
387	 1,40159549236699E-02 
388	 2,24803410071099E-03 
389	 4,22941890713071E-02 
390	 3,66105440229496E-02 
391	 1,57251118253533E-02 
392	 2,46783493737147E-02 
393	 2,71425843116914E-02 
394	 2,09469831214591E-02 
395	 2,16556063827503E-02 
396	 2,01994869979764E-02 
397	 1,49489451607954E-02 
398	 2,95985230034338E-02 
399	 4,72976595864768E-02 
400	 3,99729388062811E-02 
401	 2,98097587548401E-02 
402	 0,023066907291618 
403	 1,82464701258576E-02 
404	 2,13215158084051E-02 
405	 3,40965166676028E-02 
406	 3,33553498859266E-02 
407	 2,42722097542189E-02 
408	 0,023739597889231 
409	 2,42321210003585E-02 
410	 2,31886922448843E-02 
411	 1,73401916765036E-02 
412	 1,48235891852658E-02 
413	 2,25472147379216E-02 
414	 2,53141702339831E-02 
415	 2,31026805683715E-02 
416	 2,33038991657779E-02 
417	 2,17477128452327E-02 
418	 1,75502079854329E-02 
419	 1,52510406412474E-02 
420	 1,33959265660928E-02 
421	 9,64889029377441E-03 
422	 1,07414384266014E-02 
423	 1,56446369077814E-02 
424	 1,60533897942852E-02 
425	 1,63306961093566E-02 
426	 1,86449937421438E-02 
427	 1,76404709403097E-02 
428	 1,52267951682769E-02 
429	 1,60220756813289E-02 
430	 1,63425041066342E-02 
431	 1,57230845675034E-02 
432	 1,67862148219923E-02 
433	 1,82952339816806E-02 
434	 1,89876254080093E-02 
435	 1,84868723884614E-02 
436	 0,016414100931219 
437	 1,12801350191575E-02 
438	 8,95706617682327E-03 
439	 0,011602233990164 
440	 1,54551062215598E-02 
441	 1,79900850789714E-02 
442	 1,67679095588761E-02 
443	 1,56005111807373E-02 
444	 1,46519366665195E-02 
445	 0,010073406295655 
446	 9,40091846059526E-03 
447	 1,59346576819349E-02 
448	 1,52359512419205E-02 
449	 1,09023104916232E-02 
450	 1,34156769180639E-02 
451	 1,67803202005629E-02 
452	 1,85250821656251E-02 
453	 0,015945226071776 
454	 1,31528364893691E-02 
455	 1,40372513059402E-02 
456	 1,60374927767871E-02 
457	 1,79098277325601E-02 
458	 1,79556530332506E-02 
459	 0,017560765495401 
460	 1,73314977188996E-02 
461	 1,69765591611166E-02 
462	 1,66615563052282E-02 
463	 1,66083302209922E-02 
464	 1,73244964881998E-02 
465	 1,82770239474004E-02 
466	 1,72670345409528E-02 
467	 1,63139399616926E-02 
468	 1,65193945342572E-02 
469	 1,46034654289047E-02 
470	 1,22809999791524E-02 
471	 1,37543832025196E-02 
472	 1,62586859229543E-02 
473	 1,80913620463198E-02 
474	 1,59898668507188E-02 
475	 1,33407958813491E-02 
476	 1,35917288408823E-02 
477	 1,26152869046696E-02 
478	 1,14717139279855E-02 
479	 1,56370865042452E-02 
480	 0,018666559703015 
481	 1,74872460729717E-02 
482	 1,30799246123489E-02 
483	 1,01657793865195E-02 
484	 1,53459998051166E-02 
485	 1,70428918043328E-02 
486	 1,41577518766512E-02 
487	 1,54589105462709E-02 
488	 1,65802342969745E-02 
489	 1,45066874570729E-02 
490	 0,014891630249996 
491	 1,63946540010542E-02 
492	 1,34451866261354E-02 
493	 1,26607334453843E-02 
494	 1,54460776067622E-02 
495	 1,62509717398446E-02 
496	 1,56298248142125E-02 
497	 1,47253495194085E-02 
498	 1,50346342995118E-02 
499	 1,61998560736248E-02 
500	 1,57884646563302E-02 
501	 1,57843226620812E-02 
502	 1,68994542196463E-02 
503	 1,50937949296836E-02 
504	 1,30191563094319E-02 
505	 1,62337840140581E-02 
506	 1,81044240816053E-02 
507	 1,70599692017755E-02 
508	 1,57347277080227E-02 
509	 0,014426185131653 
510	 1,33546010993981E-02 
511	 0,013137491149753 
512	 1,37796477543166E-02 
513	 1,50948746823782E-02 
514	 1,61410461634483E-02 
515	 1,63681970434061E-02 
516	 1,54701945844922E-02 
517	 1,46341032421314E-02 
518	 1,55045891096065E-02 
519	 0,016137322492084 
520	 1,61828634617843E-02 
521	 1,65447784444509E-02 
522	 0,016145885402509 
523	 1,44643725206437E-02 
524	 1,47079499034084E-02 
525	 1,59468621807639E-02 
526	 1,47648235862669E-02 
527	 1,44407032589043E-02 
528	 1,56897704415313E-02 
529	 1,61314670148931E-02 
530	 1,58184605596124E-02 
531	 1,50373923320642E-02 
532	 1,42577359636102E-02 
533	 1,39732282027692E-02 
534	 0,015353817188938 
535	 1,60201388179103E-02 
536	 1,48049987057749E-02 
537	 1,46153005242277E-02 
538	 1,52010043692093E-02 
539	 1,54363347775752E-02 
540	 1,48716465871394E-02 
541	 1,37011127291255E-02 
542	 1,36446129922799E-02 
543	 0,01385701005819 
544	 1,35055825444272E-02 
545	 1,48091043470509E-02 
546	 1,67288011379677E-02 
547	 1,51758577813538E-02 
548	 1,38903438661769E-02 
549	 1,45640155774879E-02 
550	 1,51236944460898E-02 
551	 1,53422955489301E-02 
552	 0,015218586020188 
553	 1,55015995300455E-02 
554	 1,60779682521825E-02 
555	 0,015455773331355 
556	 1,50906248745524E-02 
557	 1,60914753483052E-02 
558	 1,63105886753427E-02 
559	 1,56519486275424E-02 
560	 1,47676158133085E-02 
561	 1,43361491939282E-02 
562	 1,46163899232163E-02 
563	 1,49089184632934E-02 
564	 1,51527349096196E-02 
565	 1,53591211439295E-02 
566	 1,60620135619337E-02 
567	 0,017133963770519 
568	 1,76885005728561E-02 
569	 1,80269820817918E-02 
570	 1,83464537828602E-02 
571	 1,84703792516178E-02 
572	 1,83652195451188E-02 
573	 1,78963842204237E-02 
574	 1,79930243957834E-02 
575	 1,88045705859997E-02 
576	 1,91233177538431E-02 
577	 1,91870485340588E-02 
578	 1,93680939285757E-02 
579	 1,97679544027502E-02 
580	 2,01998019389435E-02 
581	 2,00251342325284E-02 
582	 0,019627819307073 
583	 1,92799980539112E-02 
584	 1,91615677968913E-02 
585	 1,92853424343166E-02 
586	 1,96297810186972E-02 
587	 1,98517535801776E-02 
588	 1,98849715680618E-02 
589	 2,01364990807007E-02 
590	 1,99722289282581E-02 
591	 1,88936939557996E-02 
592	 1,90450119792044E-02 
593	 1,98859999632428E-02 
594	 1,85882826137398E-02 
595	 1,79653515638275E-02 
596	 1,90238469105906E-02 
597	 0,019110537059837 
598	 1,85951252297677E-02 
599	 1,84444112656073E-02 
600	 1,86978344607634E-02 
601	 1,91266024036994E-02 
602	 1,88214357860951E-02 
603	 1,79186262295341E-02 
604	 1,67124801236498E-02 
605	 1,70628408744344E-02 
606	 1,83442021523094E-02 
607	 0,018274357511249 
608	 1,79678110937527E-02 
609	 1,78670468536009E-02 
610	 1,83540079316705E-02 
611	 0,018541959646792 
612	 1,73264862016413E-02 
613	 1,68804542066929E-02 
614	 1,73660138652021E-02 
615	 1,74272639142109E-02 
616	 1,71719292830208E-02 
617	 1,67565794217887E-02 
618	 1,70242218614553E-02 
619	 1,76845764331648E-02 
620	 1,80146642197865E-02 
621	 0,017530064850778 
622	 1,64574442997089E-02 
623	 1,68126955163246E-02 
624	 1,73976093769392E-02 
625	 1,69166422125114E-02 
626	 1,72342967287325E-02 
627	 1,82543408430663E-02 
628	 1,86886642658833E-02 
629	 1,83845970216748E-02 
630	 1,75381188819892E-02 
631	 1,84145001691105E-02 
632	 1,98117145027917E-02 
633	 1,93436648100133E-02 
634	 1,92098939544483E-02 
635	 1,97308954086002E-02 
636	 1,94160699084523E-02 
637	 1,93451582705651E-02 
638	 2,03574635345431E-02 
639	 2,05863068607125E-02 
640	 2,02259824123356E-02 
641	 2,06301551653736E-02 
642	 2,11844358159085E-02 
643	 2,16589850301822E-02 
644	 2,20921124600183E-02 
645	 2,24917463663635E-02 
646	 2,28767112376328E-02 
647	 2,31181404567363E-02 
648	 2,30921987811539E-02 
649	 2,23981098775176E-02 
650	 2,21646657466397E-02 
651	 2,29532006685002E-02 
652	 2,23893169201253E-02 
653	 2,12143528769078E-02 
654	 2,16888079039459E-02 
655	 2,19682607107506E-02 
656	 2,16195121934338E-02 
657	 2,16903688205514E-02 
658	 2,17215547115673E-02 
659	 2,11984963429538E-02 
660	 2,06118358556549E-02 
661	 2,00978363264736E-02 
662	 1,96660794625065E-02 
663	 1,94408377000106E-02 
664	 1,94287878806768E-02 
665	 1,92495537554795E-02 
666	 1,88535432057227E-02 
667	 1,82236792817939E-02 
668	 1,79681172333694E-02 
669	 1,80668560148646E-02 
670	 1,75884077205229E-02 
671	 0,017333330322654 
672	 1,78967868514928E-02 
673	 1,83072246593001E-02 
674	 0,018271929778466 
675	 1,74441308602306E-02 
676	 1,69724397555364E-02 
677	 1,72293898718059E-02 
678	 1,74974762726802E-02 
679	 0,017493402569931 
680	 1,69750074613051E-02 
681	 0,017289341620213 
682	 1,82871307068725E-02 
683	 1,84828341805529E-02 
684	 1,82777068000542E-02 
685	 0,018014338326476 
686	 1,85620039575298E-02 
687	 1,92376747548931E-02 
688	 0,018571974957253 
689	 1,83911465398064E-02 
690	 1,91894901091011E-02 
691	 2,04541483951089E-02 
692	 0,021558676781455 
693	 2,20449871334298E-02 
694	 2,33877399586041E-02 
695	 2,55169296847715E-02 
696	 2,74459893532304E-02 
697	 2,97676844064414E-02 
698	 0,032698850441166 
699	 3,60378456117551E-02 
700	 3,96439395200068E-02 
701	 4,33620850099261E-02 
702	 4,77698540576741E-02 
703	 5,28365375553422E-02 
704	 5,79322113870329E-02 
705	 6,34830392694202E-02 
706	 6,96520921287728E-02 
707	 7,54589669522152E-02 
708	 8,12127495306596E-02 
709	 8,77444617558796E-02 
710	 9,44715749768659E-02 
711	 0,101201312648969 
712	 0,108000068211534 
713	 0,114635029273198 
714	 0,12090580211456 
715	 0,127567170147968 
716	 0,134399791363405 
717	 0,140411726278366 
718	 0,146303122756357 
719	 0,152248706089093 
720	 0,157536595703882 
721	 0,162537208362536 
722	 0,167806529891982 
723	 0,172584152281957 
724	 0,176800470101303 
725	 0,180848785821411 
726	 0,184769077919832 
727	 0,188563946508979 
728	 0,191934877697529 
729	 0,194913911975136 
730	 0,197626647283759 
731	 0,20023544020391 
732	 0,202798078889771 
733	 0,205278047409321 
734	 0,207532771471335 
735	 0,209442348374547 
736	 0,211065575157888 
737	 0,212586287979402 
738	 0,214438886944119 
739	 0,216052306604908 
740	 0,217247917602413 
741	 0,218348671393949 
742	 0,219473553601144 
743	 0,220719031168099 
744	 0,221814164437467 
745	 0,222774617881552 
746	 0,223881932432192 
747	 0,224820391125501 
748	 0,225481775887364 
749	 0,226400324904512 
750	 0,227385079609656 
751	 0,228049567465425 
752	 0,228638431503267 
753	 0,229187874792482 
754	 0,229574242307446 
755	 0,229922183482949 
756	 0,230346731868772 
757	 0,231005470325199 
758	 0,231724448304535 
759	 0,23209811064543 
760	 0,232545701892402 
761	 0,233114065015056 
762	 0,233362400444422 
763	 0,233550096474599 
764	 0,233923005129914 
765	 0,234054808831316 
766	 0,234143851555781 
767	 0,234953144581954 
768	 0,23551550391407 
769	 0,235543927214781 
770	 0,235800424129428 
771	 0,236295437459289 
772	 0,236952619412111 
773	 0,23728666864454 
774	 0,237300159592226 
775	 0,237389786069524 
776	 0,23747989910701 
777	 0,237601295417193 
778	 0,238171572332082 
779	 0,238731919224816 
780	 0,238552356594237 
781	 0,238797346699799 
782	 0,239450134442893 
783	 0,239273478847852 
784	 0,239051465876317 
785	 0,239316219922424 
786	 0,239913898818181 
787	 0,240420770377965 
788	 0,240098714983955 
789	 0,240225521734619 
790	 0,240949749845127 
791	 0,241168692519504 
792	 0,241136882061588 
793	 0,241110662285511 
794	 0,24134023435892 
795	 0,241664375078044 
796	 0,241609969422941 
797	 0,241741076102566 
798	 0,242103423805112 
799	 0,241960242591932 
800	 0,241773618057907 
801	 0,242005958145357 
802	 0,242409824411069 
803	 0,242894844975563 
804	 0,243435154215132 
805	 0,24356910761836 
806	 0,243288495345018 
807	 0,243608243023836 
808	 0,244087684498431 
809	 0,244191586708427 
810	 0,244349004638463 
811	 0,244572825774283 
812	 0,24464352378149 
813	 0,244836305663982 
814	 0,245185316183861 
815	 0,245129349134951 
816	 0,24507901609001 
817	 0,245563971836942 
818	 0,246271300736288 
819	 0,246902703334643 
820	 0,246873202625982 
821	 0,246536702594834 
822	 0,246234449383959 
823	 0,246889836674829 
824	 0,247662382688565 
825	 0,247375117382414 
826	 0,247340427736375 
827	 0,247718601090604 
828	 0,247985139542448 
829	 0,248207464134261 
830	 0,248388169378309 
831	 0,248447682579587 
832	 0,248342550308445 
833	 0,248029356395999 
834	 0,248211562769369 
835	 0,248816420873243 
836	 0,248989584034469 
837	 0,249098097881284 
838	 0,249335300305409 
839	 0,249617262989574 
840	 0,249946298188285 
841	 0,250335957629887 
842	 0,250309742930234 
843	 0,250013502437971 
844	 0,250393981063136 
845	 0,250487416076331 
846	 0,249943747910438 
847	 0,250234709363515 
848	 0,25098797509742 
849	 0,251447649085971 
850	 0,25162443730428 
851	 0,251500589872056 
852	 0,251057139307272 
853	 0,250795671863919 
854	 0,25099155329112 
855	 0,251372003939123 
856	 0,251720166340186 
857	 0,251796677665795 
858	 0,251653695933119 
859	 0,251525137784993 
860	 0,252134557746101 
861	 0,252486881759696 
862	 0,252187546996581 
863	 0,252401743987827 
864	 0,252738194286576 
865	 0,252546596178498 
866	 0,252593616682756 
867	 0,252902241076117 
868	 0,252968864782734 
869	 0,253100363629308 
870	 0,253373394085451 
871	 0,253308388737471 
872	 0,2533526337922 
873	 0,254046626552154 
874	 0,254000216387528 
875	 0,253387542769698 
876	 0,25362654329852 
877	 0,253810584032999 
878	 0,253703080077031 
879	 0,254166720425126 
880	 0,254715184682881 
881	 0,254778931859658 
882	 0,254896827930117 
883	 0,254980735238225 
884	 0,254454144285924 
885	 0,254234294948715 
886	 0,254584946849602 
887	 0,254970424408954 
888	 0,255046344147386 
889	 0,254594445856361 
890	 0,254638178593963 
891	 0,255103574458332 
892	 0,255445798778212 
893	 0,255338199839708 
894	 0,254861024151225 
895	 0,254956065391754 
896	 0,255266551124204 
897	 0,255447511379443 
898	 0,255216885535124 
899	 0,254985296406285 
900	 0,255594192620795 
901	 0,255520678933297 
902	 0,25474536010013 
903	 0,254882461569763 
904	 0,255336166597752 
905	 0,255670865692421 
906	 0,255729106557034 
907	 0,255515467680608 
908	 0,255090799942177 
909	 0,255096748638038 
910	 0,255574195790276 
911	 0,256128388012442 
912	 0,256425334935015 
913	 0,256287627187698 
914	 0,255831582128903 
915	 0,255536789543732 
916	 0,255869195491488 
917	 0,255939015652475 
918	 0,255625248248402 
919	 0,255033561369148 
920	 0,254957990211134 
921	 0,255504551045205 
922	 0,25579171219675 
923	 0,255184660629144 
924	 0,253484123304097 
925	 0,253793840517582 
926	 0,254883105349566 
927	 0,253657790592336 
928	 0,252257665440181 
929	 0,251404685455245 
930	 0,251537047592603 
931	 0,251036259210455 
932	 0,249237642479951 
933	 0,248679841061836 
934	 0,248598764582892 
935	 0,247683126021354 
936	 0,247198057133236 
937	 0,247148055817571 
938	 0,246922736616422 
939	 0,245989860295334 
940	 0,244322189113658 
941	 0,243040659587178 
942	 0,24197960884514 
943	 0,240950648617171 
944	 0,240253883656399 
945	 0,239673946460764 
946	 0,238746865242739 
947	 0,237979640352164 
948	 0,237213524023576 
949	 0,235426201819367 
950	 0,233442690806362 
951	 0,231686770253944 
952	 0,229448154726055 
953	 0,227216796173927 
954	 0,225658493753019 
955	 0,224547416133018 
956	 0,223561971875045 
957	 0,221923978215613 
958	 0,22107983584381 
959	 0,220993839144728 
960	 0,219072839378295 
961	 0,217041871197783 
962	 0,216343889703022 
963	 0,216974788676939 
964	 0,217415441771526 
965	 0,215442521238568 
966	 0,214464048901052 
967	 0,214717371694605 
968	 0,213795786990675 
969	 0,214804908956172 
970	 0,217867777928155 
971	 0,216484975392697 
972	 0,214018528391113 
973	 0,213912880243196 
974	 0,214601339018635 
975	 0,215499660138939 
976	 0,216007133569351 
977	 0,215424001066886 
978	 0,214246896117105 
979	 0,214994583232429 
980	 0,21501545997495 
981	 0,213633056036642 
982	 0,215222497602282 
983	 0,216748129597011 
984	 0,215102607077311 
985	 0,215104816603772 
986	 0,216511515656695 
987	 0,217141573278251 
988	 0,217100110607733 
989	 0,216718943965216 
990	 0,217121222852881 
991	 0,218392421291732 
992	 0,220270336730985 
993	 0,221000825775045 
994	 0,221524981555184 
995	 0,222882662978289 
996	 0,22369221140977 
997	 0,223785019623693 
998	 0,223241867530172 
999	 0,22412915636287 
1000	 0,226217505366086 
1001	 0,226366627373865 
1002	 0,226039174193457 
1003	 0,226036036631361 
1004	 0,226264988792854 
1005	 0,227218607711776 
1006	 0,229246185550019 
1007	 0,231280976932091 
1008	 0,23271963926816 
1009	 0,232938050349846 
1010	 0,233163296995474 
1011	 0,233772841204978 
1012	 0,234868333121595 
1013	 0,235045141722751 
1014	 0,234042542688163 
1015	 0,233837447041912 
1016	 0,235003105524864 
1017	 0,237641797756334 
1018	 0,239230624188067 
1019	 0,240504555477403 
1020	 0,243116551115663 
1021	 0,243063514274251 
1022	 0,241276381653062 
1023	 0,243135030584216 
1024	 0,243940503552297 
1025	 0,243462167215029 
1026	 0,248461169529364 
1027	 0,250671826353497 
1028	 0,245741560259386 
1029	 0,243597910006898 
1030	 0,244982453869811 
1031	 0,249122504253769 
1032	 0,253508529627999 
1033	 0,256519430114705 
1034	 0,256408854616714 
1035	 0,253236820643123 
1036	 0,248794496579547 
1037	 0,248506234947601 
1038	 0,25166451142456 
1039	 0,256400774002705 
1040	 0,255201435006721 
1041	 0,253754605843672 
1042	 0,256603500289222 
1043	 0,257682212951851 
1044	 0,257584846766165 
1045	 0,258334880607289 
1046	 0,263782862658319 
1047	 0,269176738048194 
1048	 0,26092727358475 
1049	 0,259433389282412 
1050	 0,267473889897845 
1051	 0,269834047360779 
1052	 0,269587066002074 
1053	 0,268092729621243 
1054	 0,265022463352575 
1055	 0,2627733072461 
1056	 0,263762964307763 
1057	 0,270572638067049 
1058	 0,277283865665493 
1059	 0,275729411598431 
1060	 0,264742818448008 
1061	 0,254789623979466 
1062	 0,269801768392706 
1063	 0,273417602113008 
1064	 0,260309495527765 
1065	 0,253015051756888 
1066	 0,255199557752826 
1067	 0,264186650152991 
1068	 0,254484196770892 
1069	 0,251896717569262 
1070	 0,271002919772997 
1071	 0,264313417902421 
1072	 0,253096728875596 
1073	 0,269043605644183 
1074	 0,27880767527447 
1075	 0,277029493474609 
