Wavelength	AULNE200149.asd
325	 0,412767694452709 
326	 0,322816399691943 
327	 0,260947080250684 
328	 0,26632441080255 
329	 0,23484014644797 
330	 0,207908716739972 
331	 0,227983884808903 
332	 0,189829176712043 
333	 0,140945975739492 
334	 0,239281645438858 
335	 0,257495249648808 
336	 0,179152048481701 
337	 0,19412907080968 
338	 0,217275066368555 
339	 0,160350393713797 
340	 9,87178717317431E-02 
341	 6,34739103373764E-02 
342	 7,94231264486222E-02 
343	 9,22708776560444E-02 
344	 8,41691024115844E-02 
345	 6,24765275847824E-02 
346	 5,25883395677772E-02 
347	 6,64056820530878E-02 
348	 6,67353762607406E-02 
349	 6,18758535193354E-02 
350	 9,53264576250056E-02 
351	 0,104948176417017 
352	 7,34589353138078E-02 
353	 4,89638909826875E-02 
354	 5,24480924488576E-02 
355	 9,71522849675943E-02 
356	 9,59963954431118E-02 
357	 5,80677632811037E-02 
358	 7,45999473504388E-02 
359	 7,08668049973578E-02 
360	 2,24787747789851E-02 
361	 3,37930567679474E-02 
362	 6,91455751213673E-02 
363	 6,96992697247508E-02 
364	 5,37071447999786E-02 
365	 3,31528798795042E-02 
366	 3,86396028530768E-02 
367	 5,80010835507407E-02 
368	 7,75395389633528E-02 
369	 6,01646559038439E-02 
370	 2,32358316912853E-02 
371	 1,01027879988331E-02 
372	 6,53242870440808E-03 
373	 0,011694222734918 
374	 0,040269324560132 
375	 5,17134605970734E-02 
376	 2,14212524530389E-02 
377	 2,03207495236836E-02 
378	 3,99012435124402E-02 
379	 3,74620244237793E-02 
380	 3,37379133947674E-02 
381	 3,50483619282433E-02 
382	 3,90383374102748E-02 
383	 4,47638023582591E-02 
384	 5,03407702051485E-02 
385	 5,06456927435252E-02 
386	 4,41519282038471E-02 
387	 2,38375154918038E-02 
388	 2,15993501436216E-02 
389	 4,53313507507433E-02 
390	 4,87044437434474E-02 
391	 0,037584386868111 
392	 2,46216296341343E-02 
393	 2,40066402908348E-02 
394	 3,43156755060586E-02 
395	 4,27756480467324E-02 
396	 0,042416130425891 
397	 3,21269958416102E-02 
398	 3,05950677961651E-02 
399	 3,51983895546818E-02 
400	 3,90116376251925E-02 
401	 3,52859547844345E-02 
402	 2,47038389277793E-02 
403	 1,49519545609112E-02 
404	 1,41630916285284E-02 
405	 2,58510228031399E-02 
406	 3,00190513174752E-02 
407	 2,79176829092729E-02 
408	 2,89609013045445E-02 
409	 2,79150454223038E-02 
410	 0,023352986012069 
411	 1,34569734855419E-02 
412	 9,0881509707857E-03 
413	 1,92778582242095E-02 
414	 2,32284889361529E-02 
415	 2,00406162214389E-02 
416	 1,64323512777722E-02 
417	 1,72326159190718E-02 
418	 2,29247327311704E-02 
419	 2,19089175711352E-02 
420	 1,82322807713798E-02 
421	 1,82394990738344E-02 
422	 2,03975317245423E-02 
423	 2,22023039849536E-02 
424	 1,56416369175373E-02 
425	 1,27575304158647E-02 
426	 1,93773826373921E-02 
427	 1,98106421172771E-02 
428	 1,62824312464136E-02 
429	 1,68278004101383E-02 
430	 1,52885717299758E-02 
431	 1,20146074098422E-02 
432	 1,57833248875724E-02 
433	 2,00123032765365E-02 
434	 1,88110790095596E-02 
435	 1,79774154792685E-02 
436	 1,78310882105411E-02 
437	 1,64437279633648E-02 
438	 1,48946012251422E-02 
439	 0,013991896474828 
440	 1,54178633459948E-02 
441	 0,017647544094557 
442	 1,87018349452165E-02 
443	 1,82856474409533E-02 
444	 1,69940376096093E-02 
445	 1,70332178222063E-02 
446	 1,76635935638353E-02 
447	 1,81949649020283E-02 
448	 1,67766526224618E-02 
449	 1,50355631129134E-02 
450	 0,016532240806249 
451	 1,76684194480192E-02 
452	 1,75935578247891E-02 
453	 1,78168229670193E-02 
454	 1,83804447838856E-02 
455	 0,019216104077993 
456	 1,97514586326484E-02 
457	 1,94376129487558E-02 
458	 1,65294389428724E-02 
459	 1,69120803862236E-02 
460	 2,17404474397059E-02 
461	 2,11107477395849E-02 
462	 1,79062246955377E-02 
463	 1,71760759693974E-02 
464	 1,87025775815106E-02 
465	 0,021311072075133 
466	 2,11947772214018E-02 
467	 1,94910641835058E-02 
468	 1,73392874586644E-02 
469	 1,75737622452138E-02 
470	 1,88032515840166E-02 
471	 1,72798378788689E-02 
472	 1,66411743477694E-02 
473	 1,75911660014107E-02 
474	 1,78578187164333E-02 
475	 0,017841448267833 
476	 1,79574585792679E-02 
477	 1,50390198816357E-02 
478	 1,17377094031118E-02 
479	 1,75425518497538E-02 
480	 2,05509525655475E-02 
481	 1,62470487854889E-02 
482	 1,47747875658499E-02 
483	 1,59485666943433E-02 
484	 1,78291182095765E-02 
485	 1,76558660146272E-02 
486	 1,56437427888603E-02 
487	 1,61211546798016E-02 
488	 1,64576648235538E-02 
489	 1,48595261294864E-02 
490	 1,49871968608253E-02 
491	 1,58994383889331E-02 
492	 1,37861428538084E-02 
493	 1,32522077473215E-02 
494	 1,53745067203326E-02 
495	 0,016860696063442 
496	 1,71358008337577E-02 
497	 1,59270671093435E-02 
498	 0,01731306292084 
499	 1,99510900532147E-02 
500	 1,65941445210202E-02 
501	 1,37312439858461E-02 
502	 1,47218736535468E-02 
503	 1,43098893175925E-02 
504	 1,36845474807929E-02 
505	 1,62790274139981E-02 
506	 0,016718580595304 
507	 1,44856409472625E-02 
508	 1,47646415118315E-02 
509	 1,56639267068019E-02 
510	 1,52952257552051E-02 
511	 1,41162293710652E-02 
512	 1,33542147586878E-02 
513	 1,63003427140121E-02 
514	 1,76096585915488E-02 
515	 1,54366062642213E-02 
516	 1,41004397919532E-02 
517	 0,014535365521001 
518	 1,74340242106927E-02 
519	 1,78475675896932E-02 
520	 1,56701053271374E-02 
521	 1,56686488418459E-02 
522	 1,61021874584881E-02 
523	 1,56898903274891E-02 
524	 1,52666494318715E-02 
525	 1,48781447669543E-02 
526	 1,42702679732146E-02 
527	 1,40814906629918E-02 
528	 1,44883844244025E-02 
529	 1,51379231288344E-02 
530	 1,55854304978997E-02 
531	 1,53858152748399E-02 
532	 1,49362080693587E-02 
533	 1,46828214934724E-02 
534	 1,57927548179697E-02 
535	 1,62153172905752E-02 
536	 1,49949780293774E-02 
537	 1,50205199494457E-02 
538	 1,57612665923202E-02 
539	 1,55279647818079E-02 
540	 1,50696340623034E-02 
541	 1,46811281775513E-02 
542	 1,47440389297667E-02 
543	 1,46964742701982E-02 
544	 1,40540724166803E-02 
545	 1,48990166388511E-02 
546	 1,65301566884602E-02 
547	 1,58928450862394E-02 
548	 1,50962167715618E-02 
549	 0,015116787352772 
550	 1,50326125383093E-02 
551	 1,50845063415282E-02 
552	 1,58109649583542E-02 
553	 1,61213465674438E-02 
554	 1,58149305979438E-02 
555	 1,54006758384733E-02 
556	 1,55054034605874E-02 
557	 1,64739780218471E-02 
558	 1,59435695415185E-02 
559	 1,43933828559082E-02 
560	 1,40136285012489E-02 
561	 1,41050577966882E-02 
562	 1,43646853417414E-02 
563	 1,43401372892079E-02 
564	 1,43505078736986E-02 
565	 1,48715284000107E-02 
566	 1,56951536229932E-02 
567	 1,63947900115958E-02 
568	 1,56102714317888E-02 
569	 1,53748257451632E-02 
570	 1,68792084201089E-02 
571	 0,016841383847986 
572	 1,58725391209081E-02 
573	 1,64693892858368E-02 
574	 1,67813384326461E-02 
575	 1,64025758254162E-02 
576	 1,65750261413133E-02 
577	 1,70665529203616E-02 
578	 1,75179401315124E-02 
579	 1,81059355612042E-02 
580	 1,85209490948838E-02 
581	 1,77307024536504E-02 
582	 1,69959707707297E-02 
583	 1,70438486621771E-02 
584	 1,72179838939026E-02 
585	 1,75344696837783E-02 
586	 1,82236389433853E-02 
587	 1,84296506691163E-02 
588	 1,80958959395541E-02 
589	 1,83566111108821E-02 
590	 1,84224161344349E-02 
591	 1,76038780450756E-02 
592	 1,78088047072294E-02 
593	 0,018631433327409 
594	 1,77921358886984E-02 
595	 1,75198297571629E-02 
596	 1,85655435317265E-02 
597	 1,85579110234977E-02 
598	 1,80307211470995E-02 
599	 1,81608996719063E-02 
600	 1,82616610178488E-02 
601	 1,81280063966863E-02 
602	 1,76660507872695E-02 
603	 1,71904822724234E-02 
604	 0,016982873491751 
605	 1,72346810661523E-02 
606	 1,76619123629061E-02 
607	 1,75651210155143E-02 
608	 0,017157881252002 
609	 1,66524084643339E-02 
610	 1,68770589038567E-02 
611	 1,70807877046947E-02 
612	 1,62691936852299E-02 
613	 1,60081474509785E-02 
614	 1,64052251732851E-02 
615	 1,64459625948863E-02 
616	 1,65168786108296E-02 
617	 1,67938159096904E-02 
618	 1,65926255932781E-02 
619	 1,62309816898198E-02 
620	 1,66236441446991E-02 
621	 1,60694803169839E-02 
622	 0,014656356037094 
623	 1,56419869404581E-02 
624	 1,69165238725387E-02 
625	 1,62088829825739E-02 
626	 1,62990121004413E-02 
627	 1,72034994874186E-02 
628	 1,73160794995473E-02 
629	 1,69651111674816E-02 
630	 1,64064682171769E-02 
631	 1,63635699868974E-02 
632	 1,66404037809647E-02 
633	 1,67501229137172E-02 
634	 1,70251243828162E-02 
635	 1,74644522380611E-02 
636	 1,77378554346391E-02 
637	 1,79703366995865E-02 
638	 1,82538893242429E-02 
639	 1,82437242453032E-02 
640	 1,80801947114693E-02 
641	 1,82821446395354E-02 
642	 1,83637552131073E-02 
643	 1,82255013165616E-02 
644	 1,84273382689573E-02 
645	 1,89459357149256E-02 
646	 1,96853969197812E-02 
647	 1,99685330504292E-02 
648	 1,96226424588384E-02 
649	 1,85984833319292E-02 
650	 1,83608530599269E-02 
651	 1,96343178999703E-02 
652	 0,019352721896532 
653	 1,81058875754128E-02 
654	 1,80456847766634E-02 
655	 1,80787362484869E-02 
656	 1,79155988412329E-02 
657	 1,77979845138292E-02 
658	 1,76840448931685E-02 
659	 0,017507631213891 
660	 1,68405153637099E-02 
661	 1,59972289045042E-02 
662	 1,60687255792688E-02 
663	 1,65076532535333E-02 
664	 1,68483638423348E-02 
665	 1,59753823288162E-02 
666	 1,46812862927586E-02 
667	 1,43570843912459E-02 
668	 0,014631440116923 
669	 1,51887044011615E-02 
670	 1,52094056393483E-02 
671	 1,49930133588639E-02 
672	 1,48269971083665E-02 
673	 1,49161751653313E-02 
674	 1,51779416690869E-02 
675	 1,53406589560701E-02 
676	 1,53393810176686E-02 
677	 1,52064813434263E-02 
678	 1,53895262887912E-02 
679	 1,54772931513196E-02 
680	 1,49565544259706E-02 
681	 1,49789326037819E-02 
682	 1,55000159309538E-02 
683	 1,54623384921988E-02 
684	 1,53459318116997E-02 
685	 0,01547201372177 
686	 1,61054178762334E-02 
687	 1,66881733292842E-02 
688	 1,61496524833084E-02 
689	 1,59047456827445E-02 
690	 0,016430186124129 
691	 1,76674157201768E-02 
692	 1,88124591551107E-02 
693	 1,92404332806347E-02 
694	 2,05981934259559E-02 
695	 2,28631069726855E-02 
696	 2,51948769708905E-02 
697	 2,73824932405202E-02 
698	 2,95614743328897E-02 
699	 3,32993390295193E-02 
700	 3,75623849060635E-02 
701	 4,08517569536353E-02 
702	 4,48473937923123E-02 
703	 4,97469603542113E-02 
704	 5,48421708522115E-02 
705	 5,99040957001276E-02 
706	 6,48119259714757E-02 
707	 7,00210673460709E-02 
708	 7,55050734115873E-02 
709	 8,11330745788176E-02 
710	 8,63779384968016E-02 
711	 9,11873390696544E-02 
712	 9,62520878429258E-02 
713	 0,101241157317502 
714	 0,10582268784387 
715	 0,110481450149199 
716	 0,115145545946711 
717	 0,119366220571719 
718	 0,123397642851331 
719	 0,127311390733237 
720	 0,130961467789131 
721	 0,134297826492497 
722	 0,137283342746505 
723	 0,140105555763691 
724	 0,14286865126684 
725	 0,145766341184049 
726	 0,148220778590743 
727	 0,149957373021089 
728	 0,151848728955452 
729	 0,153825009873247 
730	 0,15552619709084 
731	 0,157142769597175 
732	 0,158739588288845 
733	 0,160405795693522 
734	 0,161827494862685 
735	 0,162749153317348 
736	 0,16347341069449 
737	 0,164296395937938 
738	 0,16585252049998 
739	 0,166984014365526 
740	 0,167390819410563 
741	 0,168166748767484 
742	 0,169081510995039 
743	 0,169765884964216 
744	 0,170406373402111 
745	 0,171098166343224 
746	 0,172009525820161 
747	 0,172930927313865 
748	 0,173709143508676 
749	 0,174218125571388 
750	 0,174537294159965 
751	 0,174808747434852 
752	 0,175105618706874 
753	 0,175489283508474 
754	 0,176074877305661 
755	 0,176526830070362 
756	 0,176654855655066 
757	 0,177154842654484 
758	 0,177799536136107 
759	 0,177872929084239 
760	 0,178199865915038 
761	 0,178932835725368 
762	 0,179468800259774 
763	 0,179838420733103 
764	 0,180093045702407 
765	 0,18006575987398 
766	 0,180009859955122 
767	 0,180655550685006 
768	 0,18118523517207 
769	 0,181309521866916 
770	 0,181453750979016 
771	 0,181582673451035 
772	 0,181624830496487 
773	 0,182057379874477 
774	 0,182769922775618 
775	 0,183122645868108 
776	 0,183297588478067 
777	 0,183429884925409 
778	 0,183850598718717 
779	 0,184234481309884 
780	 0,184046088363487 
781	 0,184255520835741 
782	 0,184882494396428 
783	 0,185058688721681 
784	 0,184931767984202 
785	 0,184713041533063 
786	 0,185340429742321 
787	 0,186162593927825 
788	 0,185756616485805 
789	 0,185768291212197 
790	 0,186475997616597 
791	 0,186875040101358 
792	 0,187010742475737 
793	 0,186970479587552 
794	 0,187115118986091 
795	 0,187342147226956 
796	 0,187246532651335 
797	 0,187420703236124 
798	 0,187928408778937 
799	 0,188089340245057 
800	 0,188047227132002 
801	 0,188000744030045 
802	 0,188353399057283 
803	 0,18889448033423 
804	 0,18882672671572 
805	 0,189078483191651 
806	 0,189824921810764 
807	 0,190083453190508 
808	 0,190046779272613 
809	 0,190021529206198 
810	 0,190479043408099 
811	 0,191206164344413 
812	 0,191322097046742 
813	 0,191377278277208 
814	 0,191573616957272 
815	 0,191614033057046 
816	 0,191845578824036 
817	 0,19267126921328 
818	 0,193175462555861 
819	 0,19318976530796 
820	 0,192820049074376 
821	 0,192904812373177 
822	 0,193693565122615 
823	 0,19385549036909 
824	 0,193644510077059 
825	 0,193568451446081 
826	 0,193683516305596 
827	 0,19403567270066 
828	 0,194697992467966 
829	 0,195154382988686 
830	 0,195167954986961 
831	 0,195261739458746 
832	 0,195297267745759 
833	 0,195012842478201 
834	 0,195292054783847 
835	 0,196024502581067 
836	 0,196129498767412 
837	 0,196004200519025 
838	 0,195958455401728 
839	 0,196591923002677 
840	 0,197309221538844 
841	 0,197192392069951 
842	 0,197222398642117 
843	 0,197523223607944 
844	 0,197669390641575 
845	 0,197638717049392 
846	 0,197517317607572 
847	 0,198024746365368 
848	 0,19867806966006 
849	 0,19870013108276 
850	 0,198398987963205 
851	 0,198034372509804 
852	 0,198139516548799 
853	 0,198462949371197 
854	 0,198812039873055 
855	 0,19894437138885 
856	 0,198856115569769 
857	 0,198596942188531 
858	 0,198404545968528 
859	 0,1985381831086 
860	 0,199653865201467 
861	 0,200280593053526 
862	 0,199832029011497 
863	 0,200125587039516 
864	 0,200581529688226 
865	 0,200221957053808 
866	 0,200214940012777 
867	 0,200669065780304 
868	 0,201089570691883 
869	 0,201289685917565 
870	 0,201201297822546 
871	 0,201120376775919 
872	 0,201195820095839 
873	 0,201553936877825 
874	 0,201942479659336 
875	 0,202262324051689 
876	 0,202457157562062 
877	 0,202512968540265 
878	 0,202472469903432 
879	 0,20258616308088 
880	 0,202734282504667 
881	 0,202776871153056 
882	 0,203032033413966 
883	 0,203294729237594 
884	 0,202769119094797 
885	 0,202771626903699 
886	 0,203583204169762 
887	 0,203828404586211 
888	 0,204368060180129 
889	 0,205896275321253 
890	 0,20585435977481 
891	 0,20473311554177 
892	 0,204561160194397 
893	 0,204942980512165 
894	 0,205678578971042 
895	 0,206278845836412 
896	 0,206454044625635 
897	 0,206078475179326 
898	 0,206034085553595 
899	 0,206196109452151 
900	 0,206073454141364 
901	 0,205890471245812 
902	 0,205799378622368 
903	 0,206072269426821 
904	 0,206601955505509 
905	 0,207222578240652 
906	 0,207433535758722 
907	 0,207220562737643 
908	 0,206678531905823 
909	 0,206360896831624 
910	 0,206533628827146 
911	 0,207561990307103 
912	 0,208122503828833 
913	 0,207702108237974 
914	 0,207528382748812 
915	 0,207527365549646 
916	 0,207494776734543 
917	 0,207412335641292 
918	 0,207416417655803 
919	 0,207923623141916 
920	 0,208099556454374 
921	 0,207798798452589 
922	 0,207988467910137 
923	 0,207776539142121 
924	 0,206555559562348 
925	 0,206108309118942 
926	 0,206550127913758 
927	 0,207586983862429 
928	 0,207489976891494 
929	 0,206292324014856 
930	 0,206260894168147 
931	 0,206237696318397 
932	 0,205590308969126 
933	 0,204861325785274 
934	 0,204456646646201 
935	 0,204767865806235 
936	 0,204095842800611 
937	 0,202839102914948 
938	 0,203256171485654 
939	 0,203666295200343 
940	 0,203393161791351 
941	 0,202591877492755 
942	 0,201534454799641 
943	 0,200487459936663 
944	 0,199449126905448 
945	 0,198797650640305 
946	 0,199220073986378 
947	 0,198986856999959 
948	 0,19773079650932 
949	 0,19618483738606 
950	 0,194828613483359 
951	 0,193945978791725 
952	 0,193382071258299 
953	 0,192165198887777 
954	 0,18933816760026 
955	 0,188849084063732 
956	 0,190125357230598 
957	 0,189551955230765 
958	 0,188451838971257 
959	 0,187305298853253 
960	 0,186473178134893 
961	 0,18575928949195 
962	 0,185024644658908 
963	 0,184331567097222 
964	 0,184461568703063 
965	 0,186519378085164 
966	 0,186275203009799 
967	 0,184060825962377 
968	 0,184422232516049 
969	 0,185105961984382 
970	 0,185128121189836 
971	 0,184480233503063 
972	 0,183736690508982 
973	 0,183545440399141 
974	 0,184853424537875 
975	 0,18668528144732 
976	 0,187119561695354 
977	 0,1859540888994 
978	 0,184092407683027 
979	 0,184751396578645 
980	 0,185722828465417 
981	 0,185993572933864 
982	 0,186779360660364 
983	 0,187043052896574 
984	 0,185818353287475 
985	 0,185009803693512 
986	 0,185577103939684 
987	 0,18864099354073 
988	 0,190191669179293 
989	 0,18943933450991 
990	 0,188260013724838 
991	 0,187596570216739 
992	 0,188153106067426 
993	 0,190388716840634 
994	 0,192118958594248 
995	 0,19132022898143 
996	 0,192280488116925 
997	 0,194278001344565 
998	 0,194404966806676 
999	 0,19410134265103 
1000	 0,194036775578345 
1001	 0,195404105897905 
1002	 0,195081196665941 
1003	 0,192462428384599 
1004	 0,193735888998216 
1005	 0,195514294734685 
1006	 0,194439722366467 
1007	 0,196320172025597 
1008	 0,200020982708803 
1009	 0,201924528690161 
1010	 0,202442505893434 
1011	 0,202013083886989 
1012	 0,20224578478494 
1013	 0,200837385441606 
1014	 0,197928124250838 
1015	 0,199115936766278 
1016	 0,202616743925025 
1017	 0,206040996185611 
1018	 0,204728564374045 
1019	 0,202749099775336 
1020	 0,207003406690361 
1021	 0,210157507283348 
1022	 0,210810708335308 
1023	 0,210388952644043 
1024	 0,208645211346531 
1025	 0,206427660862731 
1026	 0,206845364487178 
1027	 0,208162525278729 
1028	 0,209042588139993 
1029	 0,208732065385053 
1030	 0,20997798972854 
1031	 0,215528608286755 
1032	 0,218027519075071 
1033	 0,217230573868816 
1034	 0,215709711192355 
1035	 0,214684203534782 
1036	 0,214713953348117 
1037	 0,216096183294917 
1038	 0,214836736412647 
1039	 0,211366471610104 
1040	 0,217961842436378 
1041	 0,224613127519265 
1042	 0,223122206274929 
1043	 0,222303178587105 
1044	 0,221839911593576 
1045	 0,219935835496359 
1046	 0,221807817752139 
1047	 0,22491836964816 
1048	 0,220281863973892 
1049	 0,221695149231916 
1050	 0,229019388336172 
1051	 0,22451368084741 
1052	 0,222796222075221 
1053	 0,22950391768596 
1054	 0,232281853228615 
1055	 0,230642720214919 
1056	 0,226249745772605 
1057	 0,230608807420343 
1058	 0,239120212084411 
1059	 0,243111660245906 
1060	 0,239536996985131 
1061	 0,231283283957258 
1062	 0,226598149153238 
1063	 0,227161264397383 
1064	 0,231402614945491 
1065	 0,230653985306702 
1066	 0,231090308515884 
1067	 0,233880405862355 
1068	 0,230067029559316 
1069	 0,228927427765515 
1070	 0,235047772826569 
1071	 0,225802952458903 
1072	 0,217780679614489 
1073	 0,232878853271428 
1074	 0,237180080248729 
1075	 0,231305455054486 
