Wavelength	AULNE200275.asd
325	 0,351988236075216 
326	 0,336208678742057 
327	 0,39587773479038 
328	 0,477881515795506 
329	 0,374619961361135 
330	 0,267086725772783 
331	 0,349613379944536 
332	 0,392163639993731 
333	 0,36776053718168 
334	 0,267098503198437 
335	 0,194676713968292 
336	 0,178578138824647 
337	 0,224938547410164 
338	 0,261678566745736 
339	 0,21886389695702 
340	 0,179905984445707 
341	 0,177848619683403 
342	 0,251972701519444 
343	 0,273533542416439 
344	 0,216818063641879 
345	 0,209001905960116 
346	 0,220372339222295 
347	 0,215371650859558 
348	 0,231683829868988 
349	 0,254938912800579 
350	 0,237230595177619 
351	 0,221978566875619 
352	 0,223477957843517 
353	 0,217082776072077 
354	 0,220472134139257 
355	 0,252937815478344 
356	 0,25705095262818 
357	 0,237796392825187 
358	 0,253495812617349 
359	 0,241969224653244 
360	 0,185789446781166 
361	 0,195186207830158 
362	 0,235477172126104 
363	 0,247450000271075 
364	 0,25577966389019 
365	 0,259962094303509 
366	 0,240233579358282 
367	 0,227755835818596 
368	 0,238309134195574 
369	 0,247780878125631 
370	 0,251303450970334 
371	 0,244656029142469 
372	 0,234474848989542 
373	 0,231395282549303 
374	 0,272819559150301 
375	 0,288146681140523 
376	 0,233427248693666 
377	 0,234328921076243 
378	 0,27022527448345 
379	 0,252664022906054 
380	 0,248865400080933 
381	 0,270272149483413 
382	 0,265411055217875 
383	 0,257626542975582 
384	 0,27027434707237 
385	 0,275905967999648 
386	 0,272752845581274 
387	 0,266801294925393 
388	 0,264706936546884 
389	 0,268492269428537 
390	 0,267585943811864 
391	 0,263427080718304 
392	 0,259102202538588 
393	 0,255637636300558 
394	 0,253755346002578 
395	 0,25506007989176 
396	 0,256640366759475 
397	 0,258048294278028 
398	 0,268714814602311 
399	 0,279122768235095 
400	 0,274017205255445 
401	 0,270227015159267 
402	 0,270261896432765 
403	 0,265874570275095 
404	 0,263144356215519 
405	 0,265611399270393 
406	 0,264755317197437 
407	 0,263341330654414 
408	 0,269879533458485 
409	 0,273473494138805 
410	 0,270463533377155 
411	 0,259448182325638 
412	 0,253697114861187 
413	 0,264390218660873 
414	 0,2689243951458 
415	 0,265747412600997 
416	 0,261094716460902 
417	 0,258950410434334 
418	 0,260556160712005 
419	 0,25986775802774 
420	 0,258941315363018 
421	 0,260944975297912 
422	 0,26542873804356 
423	 0,270691309880612 
424	 0,271946327926455 
425	 0,270932592443873 
426	 0,268946041745444 
427	 0,266750376508752 
428	 0,265157311354467 
429	 0,265625682639564 
430	 0,261910467838518 
431	 0,255488390815811 
432	 0,260459648855809 
433	 0,268142443917308 
434	 0,270356933283613 
435	 0,270923472014889 
436	 0,270305230405149 
437	 0,267816104388947 
438	 0,266069514751663 
439	 0,266224438231297 
440	 0,267123082000498 
441	 0,268649277322234 
442	 0,270852011939149 
443	 0,270720184452175 
444	 0,26872937240761 
445	 0,268791588484405 
446	 0,270316988436342 
447	 0,272587968546027 
448	 0,272666516915779 
449	 0,272147428389098 
450	 0,274858703669628 
451	 0,276965385711874 
452	 0,277377615721024 
453	 0,276770561328793 
454	 0,276742458012111 
455	 0,278598694939256 
456	 0,279508160173231 
457	 0,279020750579288 
458	 0,276978069055167 
459	 0,277231328813362 
460	 0,281014769668808 
461	 0,284649418461079 
462	 0,286101778440194 
463	 0,28319009723729 
464	 0,281582513792683 
465	 0,282342910486789 
466	 0,283388088867177 
467	 0,283853462285291 
468	 0,283272163268819 
469	 0,283451535980647 
470	 0,283615764847633 
471	 0,281467752385948 
472	 0,281165059431063 
473	 0,28301703389683 
474	 0,281789453037839 
475	 0,279977807398298 
476	 0,280287736836064 
477	 0,280503306355282 
478	 0,28052669329169 
479	 0,281313770359658 
480	 0,28225005521157 
481	 0,282814385137023 
482	 0,281529777516061 
483	 0,279998073489589 
484	 0,280780772904666 
485	 0,280342070023593 
486	 0,278683762588785 
487	 0,279567285438708 
488	 0,280448797759191 
489	 0,279454495889373 
490	 0,278432951826396 
491	 0,277663761703736 
492	 0,27675847178639 
493	 0,277446414866748 
494	 0,279935728958159 
495	 0,282317418151801 
496	 0,282643005442129 
497	 0,279079367972769 
498	 0,278784429144009 
499	 0,281125002701107 
500	 0,278292169916408 
501	 0,277026794787135 
502	 0,280443998600093 
503	 0,280737292470486 
504	 0,279918365964366 
505	 0,283434172094813 
506	 0,284736717546962 
507	 0,283108766012734 
508	 0,284224636188346 
509	 0,28618303646826 
510	 0,287020919622166 
511	 0,286528283885853 
512	 0,285543426816037 
513	 0,286223566860389 
514	 0,287528973856363 
515	 0,288857697607838 
516	 0,289395198428574 
517	 0,289661563956756 
518	 0,29054301412098 
519	 0,290322011615067 
520	 0,289337633544588 
521	 0,290487407514584 
522	 0,291238282226476 
523	 0,289896063725304 
524	 0,28917218091577 
525	 0,289137449271216 
526	 0,288874089082257 
527	 0,288985084804404 
528	 0,28948601672482 
529	 0,289509134390816 
530	 0,289271706136175 
531	 0,289100403205883 
532	 0,289262484747354 
533	 0,289575289501897 
534	 0,289262660964336 
535	 0,288790219716035 
536	 0,288522462297486 
537	 0,289137026699917 
538	 0,289804247063875 
539	 0,288788928146637 
540	 0,288320015860966 
541	 0,28887938650395 
542	 0,289133582019995 
543	 0,289456011279747 
544	 0,290242617574454 
545	 0,290815249332317 
546	 0,29106555010477 
547	 0,291035082296429 
548	 0,291470302581284 
549	 0,292480789412915 
550	 0,291888830154407 
551	 0,291092132931811 
552	 0,292681958180272 
553	 0,293042035159551 
554	 0,291733004445849 
555	 0,291265566360041 
556	 0,291684925851831 
557	 0,292802706011671 
558	 0,292398428410262 
559	 0,290870984359653 
560	 0,290201665032313 
561	 0,289951740639899 
562	 0,289890813323215 
563	 0,289282580670603 
564	 0,288614957799727 
565	 0,288598982462122 
566	 0,28928542751339 
567	 0,290421178540492 
568	 0,291044066449937 
569	 0,291877478728028 
570	 0,293335523080382 
571	 0,294195576354325 
572	 0,294908038465342 
573	 0,296893999075078 
574	 0,298683314758733 
575	 0,300012451389273 
576	 0,302353530816992 
577	 0,305002139897196 
578	 0,30707194866226 
579	 0,309423458290412 
580	 0,311899787954806 
581	 0,313539265756759 
582	 0,314703749318462 
583	 0,315643584016727 
584	 0,31648162073495 
585	 0,317609648006615 
586	 0,319707320702871 
587	 0,321165031381383 
588	 0,321661873473914 
589	 0,322234653624978 
590	 0,32298125567169 
591	 0,323932945866859 
592	 0,324771983309662 
593	 0,325257319285834 
594	 0,324868503809675 
595	 0,32477975086239 
596	 0,325444850143571 
597	 0,325807275337699 
598	 0,325693081348913 
599	 0,325005811529761 
600	 0,324833027435513 
601	 0,325060346884066 
602	 0,323881758645318 
603	 0,322654874289857 
604	 0,322437593174433 
605	 0,322215066514539 
606	 0,321631532876783 
607	 0,320201451603034 
608	 0,319000072910838 
609	 0,318408686510419 
610	 0,317880026310011 
611	 0,317271459305238 
612	 0,316465726091473 
613	 0,315941392788389 
614	 0,315523430642348 
615	 0,314121873531533 
616	 0,313113677163208 
617	 0,313281296038343 
618	 0,313036427013817 
619	 0,312600645475827 
620	 0,312975263677643 
621	 0,3126203358451 
622	 0,311537474369618 
623	 0,312284639942212 
624	 0,313404923285195 
625	 0,313294991305137 
626	 0,31345546841705 
627	 0,313978296561378 
628	 0,31414093885501 
629	 0,314653865576878 
630	 0,315756085988145 
631	 0,31628894311428 
632	 0,316761672060286 
633	 0,318208992833018 
634	 0,319869823189729 
635	 0,321441886096159 
636	 0,322698641382737 
637	 0,323960348067144 
638	 0,325497456081168 
639	 0,327108346010359 
640	 0,328694823772069 
641	 0,33017735129985 
642	 0,331252042725282 
643	 0,331909079780153 
644	 0,332972565814625 
645	 0,333950122900101 
646	 0,334116451687619 
647	 0,334432818254598 
648	 0,33477928330339 
649	 0,333848096699019 
650	 0,332896538718528 
651	 0,332641062211691 
652	 0,331385824150098 
653	 0,329402129559919 
654	 0,327653125955902 
655	 0,326514702375756 
656	 0,325821669338519 
657	 0,324058648609917 
658	 0,321520387345204 
659	 0,318639301766532 
660	 0,315764868469881 
661	 0,31312436897644 
662	 0,310968348967364 
663	 0,308965793242057 
664	 0,306941540655743 
665	 0,305038215524449 
666	 0,303157991478521 
667	 0,30109895731611 
668	 0,299657009098847 
669	 0,298844657529198 
670	 0,297717259280279 
671	 0,296630933899149 
672	 0,295909069901552 
673	 0,295694217097239 
674	 0,295627844253775 
675	 0,294761136959638 
676	 0,294185470065609 
677	 0,294234134347713 
678	 0,2943465678188 
679	 0,294226418358161 
680	 0,293600655839274 
681	 0,2940217264376 
682	 0,295469292694751 
683	 0,296526090660185 
684	 0,297942012145853 
685	 0,3001561540065 
686	 0,302943462850969 
687	 0,306152730477062 
688	 0,309522170931368 
689	 0,313793014433601 
690	 0,319324387005966 
691	 0,326430356285398 
692	 0,334270150449613 
693	 0,34217509816065 
694	 0,35173468223529 
695	 0,362770561934282 
696	 0,37412214908084 
697	 0,386055422959666 
698	 0,398679128477662 
699	 0,412242862748502 
700	 0,426148543881371 
701	 0,439630251248773 
702	 0,453632644400682 
703	 0,467945598436835 
704	 0,48131314789257 
705	 0,494140339852406 
706	 0,506652160007296 
707	 0,518561866834688 
708	 0,530024395578124 
709	 0,541379219434137 
710	 0,552185403874497 
711	 0,562304713295794 
712	 0,571848479947626 
713	 0,580732024008626 
714	 0,588851152209068 
715	 0,596395976251269 
716	 0,603454652647502 
717	 0,610050512467847 
718	 0,616147217752873 
719	 0,621789100300496 
720	 0,627267210382433 
721	 0,632560114257524 
722	 0,637611601870099 
723	 0,641911338807711 
724	 0,645353559866361 
725	 0,647948829292241 
726	 0,650667919758434 
727	 0,65404033363699 
728	 0,656916267986321 
729	 0,659208494150635 
730	 0,661042827223025 
731	 0,662953417907808 
732	 0,664975857431008 
733	 0,666422396224782 
734	 0,667538111511748 
735	 0,668589139769973 
736	 0,669892148304488 
737	 0,671296138398 
738	 0,672298739362678 
739	 0,673018379739555 
740	 0,673558842581365 
741	 0,674273089990821 
742	 0,67503548968642 
743	 0,675656191120975 
744	 0,675876511450473 
745	 0,675940813776237 
746	 0,676793085633905 
747	 0,677541970434912 
748	 0,677751430522497 
749	 0,678063429050678 
750	 0,678332511028558 
751	 0,678209119345641 
752	 0,678388159301409 
753	 0,678894392294113 
754	 0,679058671866928 
755	 0,679042514235355 
756	 0,678987478648361 
757	 0,678964014068574 
758	 0,679092167644024 
759	 0,679617634585118 
760	 0,679844987352115 
761	 0,679563894776375 
762	 0,679023275748249 
763	 0,678617018560596 
764	 0,678676970675133 
765	 0,678668124730153 
766	 0,678560057343423 
767	 0,678548634369125 
768	 0,678668260085643 
769	 0,678841627351494 
770	 0,678551997548505 
771	 0,678112616241262 
772	 0,677940624576883 
773	 0,677973069930215 
774	 0,678136102958345 
775	 0,678305790199885 
776	 0,678102202596193 
777	 0,677484307368592 
778	 0,677746278740936 
779	 0,67811821965818 
780	 0,67725960762989 
781	 0,677032081247653 
782	 0,677609863121177 
783	 0,677809138686537 
784	 0,677593345004231 
785	 0,677054147799666 
786	 0,677257747613594 
787	 0,67774619539838 
788	 0,677436718799772 
789	 0,676932332261023 
790	 0,676588750522481 
791	 0,677133403550247 
792	 0,677453591368646 
793	 0,676753550672986 
794	 0,676700291347838 
795	 0,67707216231701 
796	 0,676786949487666 
797	 0,676492688009757 
798	 0,676375550538239 
799	 0,676271571630461 
800	 0,676272004905983 
801	 0,676427297635638 
802	 0,676108297940395 
803	 0,67560073705723 
804	 0,675943691894991 
805	 0,676230190285899 
806	 0,676195551330436 
807	 0,676361210641095 
808	 0,676538601431342 
809	 0,676499832409226 
810	 0,676408926895396 
811	 0,676409273439791 
812	 0,676884471331809 
813	 0,676889839247417 
814	 0,676152526063081 
815	 0,675651848078458 
816	 0,675618472254625 
817	 0,676195061405004 
818	 0,677115208773428 
819	 0,677844546935775 
820	 0,677101060054474 
821	 0,676375904930074 
822	 0,676365062618364 
823	 0,67636842084993 
824	 0,676417208043839 
825	 0,676624799529552 
826	 0,676757091145095 
827	 0,676752356596664 
828	 0,676586103821277 
829	 0,676613727634082 
830	 0,676945573494221 
831	 0,676979027260303 
832	 0,676731976378081 
833	 0,676329057644451 
834	 0,676188399971675 
835	 0,676316999164428 
836	 0,676350479016141 
837	 0,676241201580157 
838	 0,675997779255894 
839	 0,675909836401968 
840	 0,676001008660116 
841	 0,676247572108952 
842	 0,676355492214997 
843	 0,676283420387635 
844	 0,676151966369387 
845	 0,676242788409067 
846	 0,676645564574455 
847	 0,676766255014546 
848	 0,676769145784258 
849	 0,676987096956176 
850	 0,676659830049582 
851	 0,676002977383 
852	 0,676357237589175 
853	 0,676619557290159 
854	 0,676269029143262 
855	 0,676138204574738 
856	 0,676265818240487 
857	 0,676574447562445 
858	 0,676014935275009 
859	 0,675006479806621 
860	 0,675778538422991 
861	 0,676424738985434 
862	 0,676019960092092 
863	 0,67554492115807 
864	 0,675303711079311 
865	 0,675542265531672 
866	 0,675658776568786 
867	 0,675603483991029 
868	 0,67565549070568 
869	 0,676074046452436 
870	 0,676819576189721 
871	 0,676911361714699 
872	 0,676487358736895 
873	 0,675857344484317 
874	 0,675501057605856 
875	 0,675451822200583 
876	 0,675359370614133 
877	 0,675527402083641 
878	 0,675924803829491 
879	 0,675788988469104 
880	 0,675197247987892 
881	 0,674382139236847 
882	 0,67475662149626 
883	 0,675829963340646 
884	 0,675575326759174 
885	 0,674936422158704 
886	 0,674445635299664 
887	 0,675035072123205 
888	 0,675867746428622 
889	 0,676064237579663 
890	 0,675471249604392 
891	 0,674585315200213 
892	 0,674455576358306 
893	 0,675177165598235 
894	 0,676250297978483 
895	 0,675365957957523 
896	 0,674129831251289 
897	 0,673918980969253 
898	 0,674621897892172 
899	 0,675551461779328 
900	 0,675566961186033 
901	 0,674613707768029 
902	 0,67331286982594 
903	 0,673963906025773 
904	 0,674851635181819 
905	 0,674864730424339 
906	 0,674506605066189 
907	 0,67419230418251 
908	 0,674426992026275 
909	 0,674253850684823 
910	 0,673845953850341 
911	 0,674551833393941 
912	 0,675016165195089 
913	 0,674707965672542 
914	 0,674700404858825 
915	 0,674628543215214 
916	 0,674032425562408 
917	 0,673772245549492 
918	 0,673684135460475 
919	 0,672766753500868 
920	 0,672706560486893 
921	 0,673712892166167 
922	 0,673894364262585 
923	 0,673383239419545 
924	 0,672463233968341 
925	 0,672001386100122 
926	 0,671924637507903 
927	 0,671792554542459 
928	 0,671717579189624 
929	 0,671680404048102 
930	 0,671611756364411 
931	 0,671372770354794 
932	 0,670912235606436 
933	 0,670390259420393 
934	 0,670222868957979 
935	 0,67084609304663 
936	 0,67032505772224 
937	 0,668941466991887 
938	 0,668745326114501 
939	 0,668718447770959 
940	 0,668560546476085 
941	 0,668769634321655 
942	 0,668584155642356 
943	 0,667352791520028 
944	 0,665580641766397 
945	 0,664059318038928 
946	 0,664003889231763 
947	 0,66420781395677 
948	 0,6640715842191 
949	 0,662939534969111 
950	 0,661629308792712 
951	 0,660653910239324 
952	 0,659906964712344 
953	 0,659098095951686 
954	 0,657919353804781 
955	 0,657053409763327 
956	 0,656672877293593 
957	 0,656919931914701 
958	 0,65648377457744 
959	 0,655193186818876 
960	 0,654613210249253 
961	 0,654543013483434 
962	 0,654608145826343 
963	 0,653277930713231 
964	 0,651886463077139 
965	 0,652721151930525 
966	 0,65346107352323 
967	 0,653405750960877 
968	 0,652068334967342 
969	 0,652478678965684 
970	 0,654940002279269 
971	 0,653614397326524 
972	 0,650833987392697 
973	 0,649377117800106 
974	 0,651508922558752 
975	 0,654582767917579 
976	 0,653227496553288 
977	 0,651659161699 
978	 0,65126301025839 
979	 0,652676262681557 
980	 0,653395659957854 
981	 0,652291281259117 
982	 0,650743907742188 
983	 0,650825084852287 
984	 0,654023874183099 
985	 0,65376040868608 
986	 0,651572381828614 
987	 0,652939178802304 
988	 0,653359184344891 
989	 0,652577088963685 
990	 0,654293502362434 
991	 0,655850843446264 
992	 0,655923592841924 
993	 0,655593416544526 
994	 0,656083983165031 
995	 0,65830945377058 
996	 0,658985435885699 
997	 0,658301606742178 
998	 0,657824654338268 
999	 0,657843935687868 
1000	 0,658406773193418 
1001	 0,659023897554497 
1002	 0,659841130939748 
1003	 0,66076116825792 
1004	 0,660957333229904 
1005	 0,660807373532029 
1006	 0,660700930111426 
1007	 0,659615536287348 
1008	 0,65902572806278 
1009	 0,661732871002369 
1010	 0,662951395477512 
1011	 0,66204010646874 
1012	 0,661273152925608 
1013	 0,662351616228701 
1014	 0,665425511728812 
1015	 0,666678001938897 
1016	 0,66670088803162 
1017	 0,66632487928073 
1018	 0,666142768049591 
1019	 0,666837127966853 
1020	 0,669114900652114 
1021	 0,670516420371017 
1022	 0,670335082084356 
1023	 0,66842982644215 
1024	 0,667349396820237 
1025	 0,667524913886694 
1026	 0,665862458663263 
1027	 0,665188989988065 
1028	 0,667310003434863 
1029	 0,670831381737022 
1030	 0,673986692399242 
1031	 0,674822931983918 
1032	 0,672307139269699 
1033	 0,668213584949377 
1034	 0,666247530397592 
1035	 0,669118606426813 
1036	 0,67459198914876 
1037	 0,671637476461575 
1038	 0,667776269878244 
1039	 0,667692824792515 
1040	 0,676757933025486 
1041	 0,682330270164292 
1042	 0,674996650124889 
1043	 0,668985322055556 
1044	 0,667471844993277 
1045	 0,671350296508213 
1046	 0,669005058969459 
1047	 0,663269944094157 
1048	 0,667224810867395 
1049	 0,670370620546613 
1050	 0,670773040389699 
1051	 0,674971733046579 
1052	 0,674310102276136 
1053	 0,667441203129096 
1054	 0,67241318617857 
1055	 0,678920757524403 
1056	 0,677668373321175 
1057	 0,676933459007305 
1058	 0,679749914974974 
1059	 0,687965703540109 
1060	 0,682479414973815 
1061	 0,668957837574585 
1062	 0,670333269341757 
1063	 0,670739440672832 
1064	 0,66686520929958 
1065	 0,663987889714164 
1066	 0,661772934446014 
1067	 0,658956559225135 
1068	 0,647166913111913 
1069	 0,647704908148278 
1070	 0,671673074430025 
1071	 0,677433131228234 
1072	 0,679186500103112 
1073	 0,697395834304037 
1074	 0,687223526758064 
1075	 0,663050781754749 
