Wavelength	AULNE200218.asd
325	 0,294695660085525 
326	 0,332371603370447 
327	 0,269793434240594 
328	 0,130108168771938 
329	 0,130938544705372 
330	 0,205939368730246 
331	 0,243478044858766 
332	 0,227901065471884 
333	 0,193210739352582 
334	 0,228673971945055 
335	 0,200040859348022 
336	 0,119188737706206 
337	 0,200411834207024 
338	 0,2605274405663 
339	 0,121996755124227 
340	 9,08637390352397E-02 
341	 0,154260513068365 
342	 0,178273242338398 
343	 0,18489064852422 
344	 0,173027177923616 
345	 0,121048418898111 
346	 9,97075740781489E-02 
347	 0,147126284440919 
348	 0,1477947154183 
349	 0,114124410853953 
350	 0,133455514121888 
351	 0,14948528262611 
352	 0,140873821482351 
353	 0,109942700060256 
354	 9,89417292221023E-02 
355	 0,147275179947326 
356	 0,158987082571664 
357	 0,134591474707119 
358	 0,143593276539019 
359	 0,134374287944383 
360	 0,090118345211668 
361	 8,31954318630586E-02 
362	 0,101563357966426 
363	 0,11801291399884 
364	 0,125601023450067 
365	 0,120786793959558 
366	 0,103438468636363 
367	 9,35082863063469E-02 
368	 0,101295711113983 
369	 0,116553375514611 
370	 0,128400087221066 
371	 0,116816979508589 
372	 0,11441319786454 
373	 0,127040237304911 
374	 0,139519681904171 
375	 0,13395402074606 
376	 0,100838342842091 
377	 0,099914745613063 
378	 0,119539954565922 
379	 0,112782377775105 
380	 0,114213403816832 
381	 0,129783794907862 
382	 0,138019318369994 
383	 0,14308381469189 
384	 0,148118231215403 
385	 0,142973047216881 
386	 0,131840270370826 
387	 0,124002146811177 
388	 0,122569277537245 
389	 0,129117539788123 
390	 0,138576053906317 
391	 0,145484568286738 
392	 0,144306419914359 
393	 0,147078882270446 
394	 0,152242914790547 
395	 0,14665131112686 
396	 0,139990707946412 
397	 0,137074446910087 
398	 0,13231824666465 
399	 0,132591528229827 
400	 0,149383036901977 
401	 0,152644659139386 
402	 0,141253918680048 
403	 0,140592165208099 
404	 0,142118783287265 
405	 0,140370367717549 
406	 0,145680128761381 
407	 0,151510233796438 
408	 0,142034979187377 
409	 0,137183644319866 
410	 0,140624449736114 
411	 0,139156492325395 
412	 0,136490074396661 
413	 0,13679109406809 
414	 0,141298052798933 
415	 0,145778366813812 
416	 0,138603197337805 
417	 0,134258897281726 
418	 0,138102559695651 
419	 0,142260225098845 
420	 0,14387979697234 
421	 0,140422948075883 
422	 0,141366782732557 
423	 0,145904419021682 
424	 0,143306543896863 
425	 0,142526569687674 
426	 0,147547518928636 
427	 0,14354909704163 
428	 0,135906887201099 
429	 0,137620472230307 
430	 0,139287712727585 
431	 0,138911835106319 
432	 0,139822457619831 
433	 0,141830832257374 
434	 0,144467902787708 
435	 0,145335812400003 
436	 0,144381167401952 
437	 0,142208080787962 
438	 0,141913995472581 
439	 0,144241516565234 
440	 0,144422443051555 
441	 0,144276993464988 
442	 0,146609226958186 
443	 0,146125344468399 
444	 0,143340337865732 
445	 0,144272008582459 
446	 0,145686152786293 
447	 0,145409667342874 
448	 0,142733717626489 
449	 0,140532987261095 
450	 0,144362595859848 
451	 0,148089946563153 
452	 0,149862038318579 
453	 0,151097759569378 
454	 0,151829544252831 
455	 0,151990480252708 
456	 0,15025910798146 
457	 0,148256957501172 
458	 0,15044138586901 
459	 0,15393224833977 
460	 0,156680870090508 
461	 0,155367333707854 
462	 0,152347158610363 
463	 0,151157346287969 
464	 0,150950308349602 
465	 0,151912380927637 
466	 0,155498961883931 
467	 0,157351185174923 
468	 0,154964489416585 
469	 0,153644995917903 
470	 0,154061513247046 
471	 0,156085162851577 
472	 0,156506790892578 
473	 0,154624049335751 
474	 0,152665821696389 
475	 0,151867359542869 
476	 0,153118923361092 
477	 0,151080041438569 
478	 0,14777303886504 
479	 0,152349634219172 
480	 0,154605673449322 
481	 0,150781848972108 
482	 0,150113795973215 
483	 0,151700258496092 
484	 0,152735986710945 
485	 0,152131942446775 
486	 0,150679911794665 
487	 0,153098639831083 
488	 0,154698617059652 
489	 0,152282572766283 
490	 0,151972794825043 
491	 0,152741538543176 
492	 0,14939351614376 
493	 0,148621296807113 
494	 0,151725533559994 
495	 0,152605081968991 
496	 0,151243259990936 
497	 0,148269473749202 
498	 0,150261278959476 
499	 0,155354263029858 
500	 0,152686441203136 
501	 0,151188009789554 
502	 0,155060891367546 
503	 0,154647970804897 
504	 0,15238973026415 
505	 0,154642291225111 
506	 0,156436613689941 
507	 0,156686488597616 
508	 0,157252876655888 
509	 0,158054697784372 
510	 0,15895385176405 
511	 0,159900926211948 
512	 0,160877019864888 
513	 0,161932643998864 
514	 0,162924405575798 
515	 0,163638959366827 
516	 0,163020751632585 
517	 0,162755080486095 
518	 0,165309021076191 
519	 0,166513949678437 
520	 0,165922894466919 
521	 0,166095066542893 
522	 0,16668321404988 
523	 0,167299582755279 
524	 0,166645447800704 
525	 0,165645521762759 
526	 0,167083997842561 
527	 0,167130053014825 
528	 0,165155164894512 
529	 0,165367720854091 
530	 0,166352939231261 
531	 0,166167126023235 
532	 0,166591192972433 
533	 0,167476163139927 
534	 0,167296891078789 
535	 0,166380858026977 
536	 0,165231868022859 
537	 0,166434630326628 
538	 0,168277879902696 
539	 0,166960456454431 
540	 0,166014420133541 
541	 0,166278391843579 
542	 0,166104193586674 
543	 0,166261414558686 
544	 0,167512601219209 
545	 0,16871940175868 
546	 0,169393805971895 
547	 0,168895815709707 
548	 0,16867242122455 
549	 0,169370338941154 
550	 0,169848945591878 
551	 0,170227679995157 
552	 0,170949250858675 
553	 0,170867421553666 
554	 0,169857345639418 
555	 0,168651527356139 
556	 0,168267273728403 
557	 0,169327727087224 
558	 0,168837275561889 
559	 0,1671558206205 
560	 0,166634675500046 
561	 0,165930423895421 
562	 0,164718834372529 
563	 0,164002336479762 
564	 0,163866424704432 
565	 0,164287805097851 
566	 0,164711750777848 
567	 0,164980852820832 
568	 0,16514288201492 
569	 0,165604811348761 
570	 0,166682179589477 
571	 0,168492026501426 
572	 0,170471931771004 
573	 0,171372262779547 
574	 0,17250864960086 
575	 0,174382307044628 
576	 0,176964286777074 
577	 0,179435888416752 
578	 0,180923531493944 
579	 0,183225422089367 
580	 0,185957984800098 
581	 0,186507700670721 
582	 0,187430979690103 
583	 0,189986920472854 
584	 0,191668643016367 
585	 0,192705766091694 
586	 0,194114859494582 
587	 0,195204783148991 
588	 0,196043053952999 
589	 0,19780772387212 
590	 0,199292870968924 
591	 0,199446294100111 
592	 0,200785337479424 
593	 0,202634947149779 
594	 0,201652811297314 
595	 0,201118427009882 
596	 0,202329170187631 
597	 0,202994074344768 
598	 0,202830580207869 
599	 0,201783469779993 
600	 0,200998063471412 
601	 0,200772639256586 
602	 0,200771070637782 
603	 0,200393403169304 
604	 0,199239034513724 
605	 0,198409588063454 
606	 0,197882601307863 
607	 0,197133558320579 
608	 0,196182329116247 
609	 0,195116336609126 
610	 0,194560041996704 
611	 0,193938940546074 
612	 0,192491469865367 
613	 0,191237907334914 
614	 0,190391935907927 
615	 0,189680735857593 
616	 0,189174498632961 
617	 0,188878530936438 
618	 0,188478277532589 
619	 0,188022473352123 
620	 0,187739361601579 
621	 0,18720759734007 
622	 0,18656205572324 
623	 0,187193497353197 
624	 0,187657240890046 
625	 0,186496116604243 
626	 0,186720548874265 
627	 0,18815212441442 
628	 0,188435829816829 
629	 0,188109192800707 
630	 0,187685617250768 
631	 0,188989047279648 
632	 0,190957581898076 
633	 0,191537211277691 
634	 0,192152852994071 
635	 0,193140752840046 
636	 0,194115139819386 
637	 0,195371835214523 
638	 0,197107023018533 
639	 0,198502437700203 
640	 0,199590495438907 
641	 0,200954448527744 
642	 0,201838907572921 
643	 0,202098864310363 
644	 0,20273204602835 
645	 0,203711249124995 
646	 0,204881159802146 
647	 0,205054235384102 
648	 0,20416317814445 
649	 0,20309708474214 
650	 0,202383983994999 
651	 0,202186254537687 
652	 0,200426889234125 
653	 0,197743029389931 
654	 0,196067983508355 
655	 0,194276712432293 
656	 0,192072721518423 
657	 0,189781638583901 
658	 0,187346231984604 
659	 0,184685312860152 
660	 0,181619717670124 
661	 0,178426041757155 
662	 0,175867421851559 
663	 0,173792907420646 
664	 0,171998531794564 
665	 0,169569549675719 
666	 0,167032017571369 
667	 0,165332375936745 
668	 0,16438381189323 
669	 0,163926973800986 
670	 0,163068193236544 
671	 0,162057922699982 
672	 0,161166691230808 
673	 0,160932572098085 
674	 0,160945165779363 
675	 0,159929816522057 
676	 0,159242567719347 
677	 0,159339815687691 
678	 0,15971745535169 
679	 0,160007363919122 
680	 0,159842575906974 
681	 0,160433077148769 
682	 0,161830863562909 
683	 0,16317273564242 
684	 0,164761749639097 
685	 0,166785447508991 
686	 0,169274846682662 
687	 0,17214393461126 
688	 0,175130160999875 
689	 0,179480852436776 
690	 0,185495913373107 
691	 0,192474325860672 
692	 0,200196775124855 
693	 0,208544995579909 
694	 0,218215513307098 
695	 0,229156521794325 
696	 0,240960671702653 
697	 0,253431617857524 
698	 0,266459027879387 
699	 0,280069553958649 
700	 0,294390595639388 
701	 0,309596937305213 
702	 0,32414533229894 
703	 0,337830549081104 
704	 0,351595822298352 
705	 0,365266514225838 
706	 0,378602435621302 
707	 0,390613214553532 
708	 0,40182041800089 
709	 0,413479423138204 
710	 0,424293105597451 
711	 0,433998618065445 
712	 0,443351730612422 
713	 0,452106187007461 
714	 0,45999089633367 
715	 0,467337711877442 
716	 0,474331275379976 
717	 0,481242683492374 
718	 0,487370910788073 
719	 0,492555022718661 
720	 0,497827069653272 
721	 0,502849877884528 
722	 0,507080236067616 
723	 0,511016140791601 
724	 0,514628054587489 
725	 0,517311780735523 
726	 0,519974677719343 
727	 0,523112372360107 
728	 0,525717688262633 
729	 0,5278817488223 
730	 0,530059039339449 
731	 0,531575624938718 
732	 0,532570211137906 
733	 0,534480695335796 
734	 0,536369491555795 
735	 0,537404487669751 
736	 0,538280536277204 
737	 0,539266736071879 
738	 0,540744095541054 
739	 0,541984742227221 
740	 0,542745937608666 
741	 0,543472550154717 
742	 0,544134407355358 
743	 0,544655942252803 
744	 0,545071383204375 
745	 0,545513915402391 
746	 0,546366272106003 
747	 0,547058713026374 
748	 0,547374045247495 
749	 0,548195160279289 
750	 0,549091705011574 
751	 0,549249250930655 
752	 0,549513326103857 
753	 0,549992443920751 
754	 0,55014966057801 
755	 0,550280765714353 
756	 0,550608347247885 
757	 0,551056586389406 
758	 0,551467287909064 
759	 0,551525884115192 
760	 0,551777549352828 
761	 0,552262884626274 
762	 0,552247689912016 
763	 0,552239837713238 
764	 0,552700726486436 
765	 0,552665625007432 
766	 0,552327008871257 
767	 0,552676000761952 
768	 0,552950754344463 
769	 0,552933187243027 
770	 0,553219515656852 
771	 0,553455513724591 
772	 0,55319111805376 
773	 0,553143791236926 
774	 0,553400562428224 
775	 0,553720068169783 
776	 0,553800870513076 
777	 0,553646417827429 
778	 0,554603969749316 
779	 0,555603860998555 
780	 0,554887316315562 
781	 0,554494878538273 
782	 0,554788869799996 
783	 0,554985198683907 
784	 0,55502109032747 
785	 0,554876339211643 
786	 0,554841418466416 
787	 0,554863113619292 
788	 0,554744399500613 
789	 0,554899467397371 
790	 0,555308863564138 
791	 0,555399292047234 
792	 0,555247852304254 
793	 0,554974518106886 
794	 0,555004367930699 
795	 0,55528396340926 
796	 0,55555573473926 
797	 0,555629177992985 
798	 0,555459754443986 
799	 0,555222147117366 
800	 0,555198649680335 
801	 0,555594220185653 
802	 0,555569514262706 
803	 0,55532830061518 
804	 0,55583404774358 
805	 0,55627689203381 
806	 0,556341942979224 
807	 0,556082109154207 
808	 0,55584886371713 
809	 0,555998977529493 
810	 0,556090401759502 
811	 0,556165827998412 
812	 0,556670220456071 
813	 0,556895532963453 
814	 0,55660058988852 
815	 0,556294653634816 
816	 0,556325991882169 
817	 0,557021416951081 
818	 0,557726234077151 
819	 0,558100972450569 
820	 0,557678752748039 
821	 0,557261474422025 
822	 0,557274256465627 
823	 0,557591779572945 
824	 0,557923766551478 
825	 0,557915478903112 
826	 0,557552788058537 
827	 0,557102563679443 
828	 0,557324761217575 
829	 0,557925511350506 
830	 0,558586371916189 
831	 0,558381969171038 
832	 0,557781935691075 
833	 0,557565866952333 
834	 0,557937567375331 
835	 0,558526424071548 
836	 0,557798534623825 
837	 0,557658230851317 
838	 0,558846588773688 
839	 0,558700084968224 
840	 0,558095217024982 
841	 0,558669721826312 
842	 0,559029050036637 
843	 0,558977595396871 
844	 0,559065375397792 
845	 0,559032548290018 
846	 0,558835389200013 
847	 0,559153124741041 
848	 0,559600028812583 
849	 0,55954056675867 
850	 0,559211573590814 
851	 0,558914953800262 
852	 0,559470293149202 
853	 0,559796435546157 
854	 0,559373331806935 
855	 0,559057287772845 
856	 0,558914261145308 
857	 0,558894237201462 
858	 0,559049960525835 
859	 0,559303842898913 
860	 0,559460709347789 
861	 0,55933366412775 
862	 0,558904588883223 
863	 0,558743192071897 
864	 0,558786972199299 
865	 0,558863094746159 
866	 0,55885478112014 
867	 0,558838835990248 
868	 0,559136064305074 
869	 0,559651709244466 
870	 0,560146456129536 
871	 0,559506868446082 
872	 0,558784865154641 
873	 0,55931114022312 
874	 0,559523909640726 
875	 0,559271498388053 
876	 0,559086587083949 
877	 0,55928047999744 
878	 0,559793746159517 
879	 0,559371086628531 
880	 0,558764245633384 
881	 0,558877550556022 
882	 0,559340612674443 
883	 0,559845540046774 
884	 0,559791690393327 
885	 0,559692837847591 
886	 0,559693777442117 
887	 0,559510710207905 
888	 0,559339872677884 
889	 0,55937668718793 
890	 0,55956782491828 
891	 0,559746498488051 
892	 0,559563515049957 
893	 0,559583962722893 
894	 0,559801896667312 
895	 0,55929728475807 
896	 0,558865215101923 
897	 0,559104205220921 
898	 0,559251578075759 
899	 0,559375614693964 
900	 0,55982502506403 
901	 0,560006918666841 
902	 0,559774963688755 
903	 0,559260852282548 
904	 0,558921756517917 
905	 0,55900770941726 
906	 0,558984013989078 
907	 0,558969429657795 
908	 0,55922520196922 
909	 0,558561748958121 
910	 0,557408329263106 
911	 0,557987031753341 
912	 0,558809269279728 
913	 0,55916386949044 
914	 0,55954423825949 
915	 0,55925488733272 
916	 0,557648686736431 
917	 0,557354754871245 
918	 0,55817442296038 
919	 0,558133168161251 
920	 0,558277775659212 
921	 0,558599221768407 
922	 0,557590900428563 
923	 0,556407763139797 
924	 0,55606573150014 
925	 0,556069289254968 
926	 0,55607595040882 
927	 0,555603961483857 
928	 0,555301595747187 
929	 0,555331263001592 
930	 0,555663502042721 
931	 0,555439602246391 
932	 0,554325203843774 
933	 0,553773805201734 
934	 0,55353019741353 
935	 0,553045151295767 
936	 0,552099942505406 
937	 0,551188537822478 
938	 0,551979721737281 
939	 0,552077665150082 
940	 0,55079517983244 
941	 0,549865820757705 
942	 0,549114265624394 
943	 0,548275673285537 
944	 0,547072094019371 
945	 0,545822648148385 
946	 0,545185504885965 
947	 0,544938878169007 
948	 0,544452639367384 
949	 0,541768879831833 
950	 0,539099411047363 
951	 0,537774273473188 
952	 0,53723116127541 
953	 0,536659411334601 
954	 0,53519451928066 
955	 0,533947681671481 
956	 0,533143667123149 
957	 0,532755346125851 
958	 0,532077920988375 
959	 0,531078356760115 
960	 0,530823841536725 
961	 0,531112513967763 
962	 0,531502910178639 
963	 0,529977648548685 
964	 0,527871800155841 
965	 0,527598148750315 
966	 0,527985534848433 
967	 0,528248873016532 
968	 0,526609113119887 
969	 0,526654813560919 
970	 0,529095799288911 
971	 0,528939222853595 
972	 0,527522509514713 
973	 0,526559202258102 
974	 0,527569266764649 
975	 0,529064075816764 
976	 0,527916175399207 
977	 0,526634537680912 
978	 0,526244434501511 
979	 0,527825810788268 
980	 0,528550734194688 
981	 0,527370014013798 
982	 0,527374924780447 
983	 0,527749408324163 
984	 0,527532622569207 
985	 0,528521694564484 
986	 0,530000065597589 
987	 0,530035558677305 
988	 0,529315590475944 
989	 0,52852138390072 
990	 0,529229891524997 
991	 0,530413634593818 
992	 0,531366304561656 
993	 0,531666223933558 
994	 0,531433549663288 
995	 0,531003230245629 
996	 0,532218096376687 
997	 0,534049560846109 
998	 0,533805303629515 
999	 0,534439482803589 
1000	 0,536099785356547 
1001	 0,536208681142976 
1002	 0,536287530302355 
1003	 0,536757766482581 
1004	 0,53516313644956 
1005	 0,53446358865982 
1006	 0,537315444963257 
1007	 0,538425579394751 
1008	 0,539036375939214 
1009	 0,542999676335519 
1010	 0,544023627301317 
1011	 0,541966718094126 
1012	 0,54247542610262 
1013	 0,541354788545397 
1014	 0,538145968632458 
1015	 0,539669859462948 
1016	 0,54321889572349 
1017	 0,54584992379065 
1018	 0,545812757909984 
1019	 0,544674570976645 
1020	 0,545241070658209 
1021	 0,548054138849201 
1022	 0,551207002781717 
1023	 0,549317313090271 
1024	 0,544951525550331 
1025	 0,540874800313876 
1026	 0,544840697869642 
1027	 0,546107065660145 
1028	 0,539926828274327 
1029	 0,546603436654344 
1030	 0,554604623993382 
1031	 0,549227030006718 
1032	 0,55297249425233 
1033	 0,56096352088499 
1034	 0,554952058476738 
1035	 0,548942943423536 
1036	 0,546719488770422 
1037	 0,546707095682945 
1038	 0,54858846744696 
1039	 0,551859937049845 
1040	 0,555697199796668 
1041	 0,559747425887605 
1042	 0,56266224483152 
1043	 0,55558296693147 
1044	 0,547854959326699 
1045	 0,553072380844117 
1046	 0,555615803501418 
1047	 0,554188197500589 
1048	 0,553805548129461 
1049	 0,554103629348802 
1050	 0,554393770630917 
1051	 0,551858950326694 
1052	 0,550171633710955 
1053	 0,550429824312076 
1054	 0,546905053706838 
1055	 0,544494070044022 
1056	 0,548049794357329 
1057	 0,560044009327812 
1058	 0,568456290665511 
1059	 0,557975790296629 
1060	 0,549214277609432 
1061	 0,54741001059877 
1062	 0,552691803285984 
1063	 0,55496572304084 
1064	 0,552730499442013 
1065	 0,553741589835232 
1066	 0,555804640049091 
1067	 0,555809495135422 
1068	 0,542654616724235 
1069	 0,535237776264109 
1070	 0,546536905427605 
1071	 0,56320519015402 
1072	 0,570675687527671 
1073	 0,554891853199275 
1074	 0,548700750735418 
1075	 0,548291122884094 
