Wavelength	AURAY00715.asd
325	-0,107272069996209 
326	-7,8979261135395E-04 
327	 5,37233802772084E-02 
328	-1,63643229785865E-03 
329	-6,12333563341767E-03 
330	 5,19673282395397E-02 
331	 0,150663148859416 
332	 0,147284424099963 
333	 6,43522993170817E-02 
334	-1,11078727263663E-02 
335	 0,0276806479999 
336	 0,14083987426973 
337	 4,95132788923828E-02 
338	-5,30570523028786E-02 
339	 1,50029731271563E-02 
340	 6,51018737569939E-02 
341	 6,41050471123613E-02 
342	 5,37199261606338E-03 
343	 1,58565859053413E-02 
344	 0,113401489944784 
345	 0,112561351320215 
346	 4,44702772187014E-02 
347	-5,46461255124621E-02 
348	-5,67385064968951E-02 
349	 1,69116322668986E-02 
350	 4,14432896464474E-02 
351	 0,03333338876841 
352	 3,73389872681105E-03 
353	-9,6274924308047E-03 
354	-9,95241312600557E-03 
355	-6,20472113418143E-03 
356	 7,61677584280897E-03 
357	 1,77243957351005E-02 
358	-2,91638860784018E-02 
359	-4,17978551755422E-02 
360	 8,70056392543961E-03 
361	 2,74748007854549E-02 
362	 2,33482562125848E-02 
363	 2,20878497682177E-02 
364	 3,75864312539312E-02 
365	 5,99793241135067E-02 
366	 4,04256386030566E-02 
367	 1,50902617133741E-02 
368	 9,13858643533817E-03 
369	 2,64156352792106E-02 
370	 4,68739930538687E-02 
371	 3,96900982689405E-02 
372	 1,53434317371325E-02 
373	-8,56385486685587E-03 
374	 2,37611472699208E-02 
375	 5,22577349275565E-02 
376	 3,54052643055617E-02 
377	 1,35051802666884E-02 
378	 4,0563554310318E-03 
379	 0,029014288033362 
380	 3,85502906393744E-02 
381	 0,025501270975322 
382	 2,70118860692038E-02 
383	 3,45804089623987E-02 
384	 3,72184221906748E-02 
385	 2,04390243541551E-02 
386	 2,79754509101226E-04 
387	 2,63717714921656E-02 
388	 0,038968049320881 
389	 2,22192928775872E-02 
390	 2,21763188863016E-02 
391	 0,024302063835774 
392	 7,4648404074784E-03 
393	 1,16973497435051E-02 
394	 3,02047390198692E-02 
395	 1,99193007657639E-02 
396	 7,64407060218852E-03 
397	 8,78195703735669E-03 
398	 1,69905296593938E-02 
399	 2,40925284817555E-02 
400	 2,00761083986333E-02 
401	 1,31321796194135E-02 
402	 8,11480688398538E-03 
403	 1,37504243451964E-02 
404	 1,78863054483587E-02 
405	 1,34139516831469E-02 
406	 1,47421887333789E-02 
407	 1,96978296633876E-02 
408	 1,99699013635667E-02 
409	 1,79990562034611E-02 
410	 1,58796629785398E-02 
411	 1,99861213315553E-02 
412	 2,26688720098559E-02 
413	 1,69940055756667E-02 
414	 0,01140413265087 
415	 9,00580643650131E-03 
416	 1,30338487045804E-02 
417	 0,016539219121849 
418	 1,61324829367301E-02 
419	 0,011329067107516 
420	 6,63930289460432E-03 
421	 7,69081981357477E-03 
422	 1,29273374244297E-02 
423	 0,018438162293179 
424	 1,33866999395028E-02 
425	 9,16978455357817E-03 
426	 1,19812591060116E-02 
427	 1,22330634464503E-02 
428	 1,15413680185028E-02 
429	 1,54398758313838E-02 
430	 1,55633286550265E-02 
431	 1,18966346382798E-02 
432	 1,59810753164627E-02 
433	 0,018972947859764 
434	 1,32882089273438E-02 
435	 1,04021222912585E-02 
436	 1,08034204947391E-02 
437	 9,66782047190478E-03 
438	 1,02281073995078E-02 
439	 1,29011506496055E-02 
440	 1,28295577457475E-02 
441	 1,18162713408439E-02 
442	 1,26503920113489E-02 
443	 1,22324005518036E-02 
444	 1,11191757391527E-02 
445	 1,36998950989708E-02 
446	 1,55900213026637E-02 
447	 1,43589108764526E-02 
448	 1,41374741987537E-02 
449	 1,48508191424039E-02 
450	 0,015331602014543 
451	 1,51955857692862E-02 
452	 1,45416107721915E-02 
453	 1,44461680838395E-02 
454	 1,49465398447972E-02 
455	 1,60356381598596E-02 
456	 1,83301120989563E-02 
457	 2,00929333489148E-02 
458	 1,64367506710569E-02 
459	 1,37730832029523E-02 
460	 0,014641090637396 
461	 1,55346161443322E-02 
462	 1,56167374946383E-02 
463	 1,43008608212451E-02 
464	 1,20127307157035E-02 
465	 1,02018003986649E-02 
466	 1,32413325422097E-02 
467	 1,55936350821655E-02 
468	 1,37833605956492E-02 
469	 1,23588820554079E-02 
470	 1,21566983324994E-02 
471	 1,35436512645916E-02 
472	 1,40500527205987E-02 
473	 1,34429099843263E-02 
474	 1,54351339792532E-02 
475	 1,61325975893166E-02 
476	 1,19910715449094E-02 
477	 1,36483030447424E-02 
478	 1,88861669072051E-02 
479	 1,53486884412143E-02 
480	 1,31350523675005E-02 
481	 1,59828572321906E-02 
482	 1,46387841639477E-02 
483	 1,20065566837602E-02 
484	 0,013716380506187 
485	 1,39972591425062E-02 
486	 1,26291612787344E-02 
487	 1,49692340390283E-02 
488	 1,68282569135766E-02 
489	 1,52394462657188E-02 
490	 1,46603204420091E-02 
491	 1,45152151668868E-02 
492	 1,12547017619845E-02 
493	 1,06970257742082E-02 
494	 0,013749817918619 
495	 1,32832584139873E-02 
496	 1,19069724119202E-02 
497	 0,013110976572062 
498	 1,29886623224008E-02 
499	 1,17951414941354E-02 
500	 1,30995346791125E-02 
501	 1,38752435124744E-02 
502	 0,012560289668629 
503	 1,09977967518629E-02 
504	 1,03099010932409E-02 
505	 0,012037867124574 
506	 1,32275751852905E-02 
507	 1,31352766437404E-02 
508	 1,29270473033169E-02 
509	 1,29340771307242E-02 
510	 1,34025728518862E-02 
511	 1,42173680257428E-02 
512	 1,49931740945657E-02 
513	 1,49336234850306E-02 
514	 1,44218335040183E-02 
515	 1,37368764865856E-02 
516	 1,35127120071316E-02 
517	 1,32432858175676E-02 
518	 1,20588766780039E-02 
519	 1,28061999511666E-02 
520	 1,51901740481165E-02 
521	 1,56575353041756E-02 
522	 1,51146353358424E-02 
523	 1,43409620190274E-02 
524	 1,39553039062708E-02 
525	 1,37875120116417E-02 
526	 1,29988195217727E-02 
527	 1,29544798299827E-02 
528	 1,38437222997751E-02 
529	 1,40382755175446E-02 
530	 1,37570154295679E-02 
531	 1,34104185517865E-02 
532	 1,43441477742555E-02 
533	 1,58946126531664E-02 
534	 1,51519429144789E-02 
535	 1,37004300323311E-02 
536	 1,26613810245639E-02 
537	 1,28089850015644E-02 
538	 1,37854550989714E-02 
539	 1,48283695901202E-02 
540	 1,50401245526203E-02 
541	 1,43003323021845E-02 
542	 1,36725054976006E-02 
543	 1,34476663161468E-02 
544	 1,37873184576357E-02 
545	 1,33119098345883E-02 
546	 1,22853727108031E-02 
547	 1,21225430792612E-02 
548	 1,27322729352058E-02 
549	 1,39170972608761E-02 
550	 1,45345926490676E-02 
551	 1,46763418942893E-02 
552	 1,47358432988473E-02 
553	 1,44974582311337E-02 
554	 1,41514839005386E-02 
555	 1,46257875002194E-02 
556	 1,49228978845037E-02 
557	 1,42581074137952E-02 
558	 1,37538341641874E-02 
559	 0,01353602482061 
560	 1,33928301196598E-02 
561	 1,31269452987721E-02 
562	 1,27524160261005E-02 
563	 0,012861057975646 
564	 1,33711703119318E-02 
565	 1,41119510936601E-02 
566	 1,40703887648223E-02 
567	 1,33343886099031E-02 
568	 1,32151371901197E-02 
569	 1,33039861119197E-02 
570	 1,33305639636594E-02 
571	 1,35006922780481E-02 
572	 1,39029926562163E-02 
573	 1,46880941435208E-02 
574	 1,56137248575157E-02 
575	 1,62986785998652E-02 
576	 1,53696764881333E-02 
577	 0,014564748819405 
578	 1,58669789121449E-02 
579	 1,59824259004589E-02 
580	 1,50519859596712E-02 
581	 1,60080814233496E-02 
582	 1,68433489222144E-02 
583	 1,65230711384827E-02 
584	 1,64692732493374E-02 
585	 1,66092098662419E-02 
586	 1,64987311852134E-02 
587	 1,61840660586785E-02 
588	 1,58874074802693E-02 
589	 1,64752283436181E-02 
590	 1,73097833355076E-02 
591	 1,77265149204564E-02 
592	 0,017318064125939 
593	 1,65560694867512E-02 
594	 1,69633220508818E-02 
595	 1,73084241451093E-02 
596	 1,70928974242382E-02 
597	 1,70943337810807E-02 
598	 1,71222989437629E-02 
599	 1,67611233477494E-02 
600	 1,68547284839012E-02 
601	 1,72924416227567E-02 
602	 1,66614071840764E-02 
603	 1,61182040251037E-02 
604	 1,65034264365206E-02 
605	 1,61851927762453E-02 
606	 1,54556709206985E-02 
607	 1,56346907739084E-02 
608	 1,62783268706041E-02 
609	 1,70327055135042E-02 
610	 1,68527636192414E-02 
611	 1,63377021018356E-02 
612	 1,63375670220562E-02 
613	 1,62671690381729E-02 
614	 1,59490982298721E-02 
615	 1,51682509374804E-02 
616	 1,46827552307876E-02 
617	 1,49332402463641E-02 
618	 1,50687352723744E-02 
619	 1,51034996761476E-02 
620	 0,015360082106738 
621	 1,54237971631661E-02 
622	 1,52379661216482E-02 
623	 0,015184504400935 
624	 1,53596845557403E-02 
625	 1,58144950382917E-02 
626	 1,60120064996788E-02 
627	 1,58930162931114E-02 
628	 1,55356714187332E-02 
629	 0,015871600226342 
630	 1,70909525474713E-02 
631	 0,016755062601565 
632	 1,56689448383252E-02 
633	 1,55851192866127E-02 
634	 1,57447512443426E-02 
635	 1,59359602218617E-02 
636	 1,60460092661325E-02 
637	 1,63000187022181E-02 
638	 1,68579805816234E-02 
639	 1,71671417632375E-02 
640	 0,01731813793501 
641	 0,017933822868806 
642	 1,78848468894407E-02 
643	 1,70513089844385E-02 
644	 1,76288886507193E-02 
645	 1,87201794862033E-02 
646	 1,89094663266191E-02 
647	 1,88523538552996E-02 
648	 1,87457297724748E-02 
649	 1,88481932791492E-02 
650	 1,84498191323634E-02 
651	 1,73042066224958E-02 
652	 1,78440684970771E-02 
653	 1,90128999151108E-02 
654	 1,79157857012344E-02 
655	 1,69105454893561E-02 
656	 1,67455788855378E-02 
657	 1,70043694979707E-02 
658	 1,71524792893551E-02 
659	 1,66791513441056E-02 
660	 1,61763419287853E-02 
661	 1,58257036516409E-02 
662	 1,57421347240091E-02 
663	 1,56425609825992E-02 
664	 0,015399113872723 
665	 1,52543877520591E-02 
666	 1,51672081615301E-02 
667	 1,50128671455251E-02 
668	 1,52806461462945E-02 
669	 1,56874561765594E-02 
670	 1,45137819602869E-02 
671	 1,36142299406886E-02 
672	 1,43937274837694E-02 
673	 1,46473707166992E-02 
674	 1,43251990798439E-02 
675	 1,42204970513264E-02 
676	 1,43945723097884E-02 
677	 1,47161145377173E-02 
678	 1,40692529478085E-02 
679	 1,35065595629966E-02 
680	 1,43516817386146E-02 
681	 1,47888971236054E-02 
682	 1,46391209941821E-02 
683	 1,47794765163775E-02 
684	 1,50612170342767E-02 
685	 1,53616916114472E-02 
686	 1,53407210223653E-02 
687	 1,52111774121636E-02 
688	 1,54095989236455E-02 
689	 1,58016402968583E-02 
690	 1,63751332185435E-02 
691	 1,71661912944191E-02 
692	 1,81446283750965E-02 
693	 1,92962054594166E-02 
694	 2,08512599176424E-02 
695	 2,26790622495731E-02 
696	 2,42173628923031E-02 
697	 2,64946417215384E-02 
698	 2,97910887858932E-02 
699	 0,032812361329381 
700	 0,036204376709891 
701	 0,040937312810668 
702	 4,56770629158946E-02 
703	 5,03545595382693E-02 
704	 5,60064827913317E-02 
705	 6,19029095118698E-02 
706	 6,75669042829089E-02 
707	 7,31799725252298E-02 
708	 7,90442241863182E-02 
709	 8,57445656805681E-02 
710	 9,18745253371135E-02 
711	 9,72450018374041E-02 
712	 0,103263849532031 
713	 0,109164977789404 
714	 0,114249718669725 
715	 0,119847450883911 
716	 0,125713535503893 
717	 0,130566594396204 
718	 0,135177549110632 
719	 0,139743038353504 
720	 0,143482074439543 
721	 0,147021248543953 
722	 0,151229092186067 
723	 0,155003760700087 
724	 0,158127389092272 
725	 0,160865396178783 
726	 0,163358705380041 
727	 0,165719999675642 
728	 0,167904304051823 
729	 0,170081330631139 
730	 0,172587163969301 
731	 0,174661142549568 
732	 0,17607012594123 
733	 0,176923374346296 
734	 0,177807428951316 
735	 0,17920620971325 
736	 0,180583307986082 
737	 0,18173907213929 
738	 0,182412873685269 
739	 0,183178498159892 
740	 0,184194671077035 
741	 0,184958231098862 
742	 0,185541968645471 
743	 0,186081720059941 
744	 0,186748326457381 
745	 0,187577249982991 
746	 0,188603369814901 
747	 0,189266797687158 
748	 0,189325594999234 
749	 0,189477414133205 
750	 0,189739838681971 
751	 0,189992070530232 
752	 0,190311149261377 
753	 0,190610342115163 
754	 0,190425835380274 
755	 0,190591212412782 
756	 0,19159778433265 
757	 0,191949493190258 
758	 0,191892451975096 
759	 0,192460676483866 
760	 0,192688274575929 
761	 0,19244334541019 
762	 0,19258441856068 
763	 0,192887396274723 
764	 0,193104478858922 
765	 0,19337226884151 
766	 0,193691145656341 
767	 0,19407665859507 
768	 0,194123005905876 
769	 0,193801584454792 
770	 0,193953282903141 
771	 0,19436596147501 
772	 0,194698015270319 
773	 0,194902184723971 
774	 0,194941361427535 
775	 0,194751574823143 
776	 0,194709463445727 
777	 0,194991811587522 
778	 0,195298145366149 
779	 0,195457925030657 
780	 0,19528760123123 
781	 0,195035272441606 
782	 0,194888851155952 
783	 0,195219842823402 
784	 0,195513110422405 
785	 0,195434778146419 
786	 0,195296567295916 
787	 0,195163250192841 
788	 0,195040472629009 
789	 0,195293363824019 
790	 0,195816398450635 
791	 0,195727499250985 
792	 0,195478699287776 
793	 0,195440258219667 
794	 0,195312829701455 
795	 0,195116326546482 
796	 0,19496424091786 
797	 0,194939430329903 
798	 0,195040386670988 
799	 0,195113366695948 
800	 0,195086910066541 
801	 0,194908784868121 
802	 0,194671504633461 
803	 0,19446252051946 
804	 0,194413789982843 
805	 0,194481527115086 
806	 0,194674046147397 
807	 0,195119556203818 
808	 0,19555046596977 
809	 0,195688330397592 
810	 0,195958798925914 
811	 0,196212873879888 
812	 0,19569888118666 
813	 0,195659387540247 
814	 0,196413814287273 
815	 0,196348888612894 
816	 0,196128358951468 
817	 0,196678583212975 
818	 0,196959316578475 
819	 0,196940170973213 
820	 0,197282145353931 
821	 0,197445133100455 
822	 0,197269682559718 
823	 0,197459811081165 
824	 0,197740925840744 
825	 0,197679932360327 
826	 0,197882865060154 
827	 0,198210713130761 
828	 0,197691079237092 
829	 0,197615907049641 
830	 0,198400667455977 
831	 0,19789363203627 
832	 0,197180427412215 
833	 0,198018267313708 
834	 0,198127355082755 
835	 0,1974510364335 
836	 0,197709895899008 
837	 0,19810425640496 
838	 0,198193596430011 
839	 0,198076943512733 
840	 0,197906679053698 
841	 0,197883190250919 
842	 0,198230346824915 
843	 0,198702204075305 
844	 0,198320725064664 
845	 0,19786515931595 
846	 0,197801481762261 
847	 0,198120694221599 
848	 0,198335549260284 
849	 0,197780306339855 
850	 0,197646782938027 
851	 0,197998564249345 
852	 0,198041443592805 
853	 0,197717579720376 
854	 0,197159087262676 
855	 0,197578980334931 
856	 0,198204115528915 
857	 0,197813160490469 
858	 0,197837780586072 
859	 0,198208298995188 
860	 0,197512663295865 
861	 0,197032776094758 
862	 0,19732021445675 
863	 0,19716904568716 
864	 0,197087558149428 
865	 0,197861313066999 
866	 0,197763405825548 
867	 0,197012416302337 
868	 0,197576436522739 
869	 0,198181330472103 
870	 0,198254063158815 
871	 0,198185627105352 
872	 0,19830145451872 
873	 0,198925245871355 
874	 0,199368084796217 
875	 0,199364845580393 
876	 0,198651619562118 
877	 0,197946555432355 
878	 0,197685769243211 
879	 0,1981101490017 
880	 0,19882942442415 
881	 0,199385867645495 
882	 0,199689436152664 
883	 0,199864233172422 
884	 0,200377072978061 
885	 0,20056788739358 
886	 0,200315098230987 
887	 0,200281220004637 
888	 0,200423128194312 
889	 0,200617287738489 
890	 0,200331343532856 
891	 0,199741053874273 
892	 0,199414347230091 
893	 0,199352732749934 
894	 0,199499455028091 
895	 0,19950151254117 
896	 0,199497419396487 
897	 0,199602761849104 
898	 0,199746504896373 
899	 0,199920390114499 
900	 0,200128366534032 
901	 0,200375823409393 
902	 0,20056331085312 
903	 0,200333282630643 
904	 0,200141739619524 
905	 0,200257124311597 
906	 0,200396632606184 
907	 0,200275219215449 
908	 0,199559997465749 
909	 0,199406515807028 
910	 0,199683589135889 
911	 0,198845113551042 
912	 0,19890100401735 
913	 0,200322729097897 
914	 0,199919594229738 
915	 0,198831959105028 
916	 0,198646384059886 
917	 0,199140100826918 
918	 0,199759939914547 
919	 0,199167881235095 
920	 0,198736564631852 
921	 0,198784853909403 
922	 0,198351717505177 
923	 0,198008299687761 
924	 0,198095542201094 
925	 0,196676126638991 
926	 0,195000017581557 
927	 0,195860133303053 
928	 0,196019543233927 
929	 0,19494205655225 
930	 0,194277672160266 
931	 0,193783528122167 
932	 0,193317111833783 
933	 0,192831351064153 
934	 0,192278277009169 
935	 0,191618302466317 
936	 0,191028862339435 
937	 0,190463717645808 
938	 0,189677497777157 
939	 0,188891785887739 
940	 0,188186379538008 
941	 0,187501623184681 
942	 0,186828010347942 
943	 0,186150185120459 
944	 0,185479648301752 
945	 0,184556789180023 
946	 0,182904119453682 
947	 0,181701830844314 
948	 0,18096523393115 
949	 0,179319919560328 
950	 0,177913020270781 
951	 0,177393358683262 
952	 0,177524558242269 
953	 0,177304946110375 
954	 0,175604384898254 
955	 0,172844731340155 
956	 0,170021975741559 
957	 0,169376367993067 
958	 0,168688561159556 
959	 0,167500126167098 
960	 0,167664523213972 
961	 0,167214715154602 
962	 0,165001904688823 
963	 0,16502036034399 
964	 0,165649179119049 
965	 0,163626949434346 
966	 0,162552399637184 
967	 0,162684346108043 
968	 0,16186041395276 
969	 0,161580738119669 
970	 0,162308749965394 
971	 0,163050789149893 
972	 0,163559745337289 
973	 0,163561750986314 
974	 0,1617527002791 
975	 0,160051890596305 
976	 0,162187406925017 
977	 0,162520671534105 
978	 0,160628244663733 
979	 0,160622108548771 
980	 0,161829361009378 
981	 0,163497656241214 
982	 0,163384947041345 
983	 0,162058551184511 
984	 0,160561500830075 
985	 0,161831640859539 
986	 0,164392086978114 
987	 0,164408823493015 
988	 0,162871173782766 
989	 0,161112964990189 
990	 0,162776510501566 
991	 0,1651025446405 
992	 0,166495890051431 
993	 0,167138693641998 
994	 0,168023362811032 
995	 0,169900733010323 
996	 0,168765915716499 
997	 0,166454639190095 
998	 0,167901003128908 
999	 0,168690262605201 
1000	 0,168441417288743 
1001	 0,170729149703672 
1002	 0,171005328662548 
1003	 0,168280630164644 
1004	 0,171000250867662 
1005	 0,174573926641435 
1006	 0,174088487194957 
1007	 0,173479109081848 
1008	 0,172822295935835 
1009	 0,171028380365832 
1010	 0,173079969982905 
1011	 0,177567520636808 
1012	 0,175266958854063 
1013	 0,174631269131531 
1014	 0,177671184999764 
1015	 0,174199543781563 
1016	 0,170811455848826 
1017	 0,173221912388547 
1018	 0,175960518043574 
1019	 0,178497568268983 
1020	 0,181131711397747 
1021	 0,181677329765187 
1022	 0,180305940127683 
1023	 0,178409392488887 
1024	 0,180777156186151 
1025	 0,186910654349759 
1026	 0,186574238788748 
1027	 0,184009995525201 
1028	 0,18250947120851 
1029	 0,182777734430053 
1030	 0,183096532207129 
1031	 0,181766924735117 
1032	 0,186717147744514 
1033	 0,192854620368298 
1034	 0,186911368004649 
1035	 0,187508215988509 
1036	 0,195059476200594 
1037	 0,192039556790398 
1038	 0,188304471186772 
1039	 0,188414793347794 
1040	 0,190868208266179 
1041	 0,191111553769026 
1042	 0,186796690570017 
1043	 0,191148543424235 
1044	 0,195519791268228 
1045	 0,186605403146319 
1046	 0,186933167648432 
1047	 0,194580649193322 
1048	 0,193407907144216 
1049	 0,187870159535948 
1050	 0,182659604323876 
1051	 0,189978780178993 
1052	 0,196759544644834 
1053	 0,196457257261423 
1054	 0,193913539095088 
1055	 0,193568434766981 
1056	 0,198165148489033 
1057	 0,200272201992452 
1058	 0,198728304305308 
1059	 0,193899333107601 
1060	 0,192139559826963 
1061	 0,193579799660896 
1062	 0,194443900077597 
1063	 0,201001275380663 
1064	 0,210527218293114 
1065	 0,209507294271501 
1066	 0,200866292012561 
1067	 0,188389116077431 
1068	 0,183117456740521 
1069	 0,190177731258905 
1070	 0,207774844270344 
1071	 0,204529878872626 
1072	 0,192208642927995 
1073	 0,188703045028459 
1074	 0,189360526409257 
1075	 0,190983713800391 
