Wavelength	AURAY00281.asd
325	-5,99035406631065E-02 
326	-2,63000939580865E-02 
327	-4,89954046091796E-02 
328	-0,116762941102424 
329	 9,07255488256792E-02 
330	 0,255452493248767 
331	 0,207081235240834 
332	 0,115746396758629 
333	 2,40599205742785E-02 
334	 8,12429772857137E-03 
335	 5,44045751249003E-02 
336	 0,114944488806759 
337	 4,69485873603004E-02 
338	-0,03558328476912 
339	-2,18743680218291E-02 
340	 1,73535608696753E-02 
341	 0,05794644957762 
342	 9,58584081642032E-02 
343	 0,101647409559506 
344	 7,44072458211647E-02 
345	 9,82225654233484E-02 
346	 8,74508327683157E-02 
347	-3,80160523934977E-02 
348	-6,66764076605959E-02 
349	-2,65236834511195E-03 
350	 1,66815757067461E-02 
351	 3,41948498596384E-02 
352	 5,68878557922438E-02 
353	 4,17996427045075E-02 
354	 1,65557602477045E-02 
355	 2,22766672837216E-02 
356	 2,48421356082858E-02 
357	 2,31107429590926E-02 
358	 3,55830086323811E-02 
359	 3,17563916317522E-02 
360	 6,58931597418351E-03 
361	 2,16495627041475E-02 
362	 5,07032190782385E-02 
363	 5,11114119909751E-02 
364	 3,75869725487734E-02 
365	 2,61074515017828E-02 
366	 6,51574371953456E-02 
367	 8,26196283458361E-02 
368	 3,85514300297336E-02 
369	 1,43845592658484E-02 
370	 1,74659608831481E-02 
371	 3,93870230856977E-02 
372	 4,08309438183356E-02 
373	 1,86267545584004E-02 
374	 1,72090488121029E-02 
375	 1,75547616733816E-02 
376	 6,24221306766002E-03 
377	 9,38083555405803E-03 
378	 2,83249401730477E-02 
379	 0,056448960675315 
380	 6,23592007880326E-02 
381	 4,37186510543396E-02 
382	 3,24699285062162E-02 
383	 2,82016821379057E-02 
384	 2,76183424918999E-02 
385	 2,42405926259119E-02 
386	 2,34719447739331E-02 
387	 4,38103967869185E-02 
388	 5,79916291761321E-02 
389	 5,64672873456161E-02 
390	 4,92422819800195E-02 
391	 3,35893248186345E-02 
392	 5,70895219155883E-03 
393	 1,34321589832848E-02 
394	 4,39008415733461E-02 
395	 3,42095641286588E-02 
396	 1,34866058012333E-02 
397	 1,28094316094391E-03 
398	 7,75075972914944E-03 
399	 2,18873299997789E-02 
400	 2,72218109951978E-02 
401	 2,90076663798399E-02 
402	 2,82557369762584E-02 
403	 2,48061541943345E-02 
404	 2,28656231668156E-02 
405	 2,48976286862323E-02 
406	 2,78005258158039E-02 
407	 2,82337098586173E-02 
408	 1,90747663375011E-02 
409	 1,96447132549614E-02 
410	 3,10191966082158E-02 
411	 3,20073608167715E-02 
412	 2,58454415379472E-02 
413	 1,69794059145193E-02 
414	 1,45473664932596E-02 
415	 1,78212527559189E-02 
416	 1,98530293042488E-02 
417	 2,32311779407121E-02 
418	 2,75437689833074E-02 
419	 2,64267612475784E-02 
420	 2,19215015374968E-02 
421	 1,72597368473381E-02 
422	 1,89741945435161E-02 
423	 2,47943811001803E-02 
424	 2,22149005188727E-02 
425	 1,94314215694706E-02 
426	 2,09707401937559E-02 
427	 0,02082154982412 
428	 2,04028827050879E-02 
429	 2,37721990735973E-02 
430	 0,025727996102885 
431	 2,51935190744081E-02 
432	 0,025008834848572 
433	 2,39005412222684E-02 
434	 2,08843949802917E-02 
435	 2,01542666334652E-02 
436	 2,13044359371411E-02 
437	 2,13184462699875E-02 
438	 2,08138200135421E-02 
439	 2,04382559459573E-02 
440	 2,32695558209548E-02 
441	 2,53927233501119E-02 
442	 2,16803510753992E-02 
443	 2,11967327615586E-02 
444	 2,43351621193102E-02 
445	 2,46460809167888E-02 
446	 2,41832904076051E-02 
447	 2,42800523341208E-02 
448	 2,53041821065564E-02 
449	 2,62105008520015E-02 
450	 2,48120601256303E-02 
451	 2,46894735420302E-02 
452	 2,63400545510248E-02 
453	 2,66961622697866E-02 
454	 2,61204904005156E-02 
455	 2,52122500818471E-02 
456	 0,026359441437959 
457	 2,83985161507854E-02 
458	 2,72749238705992E-02 
459	 2,48624301517513E-02 
460	 2,24386076401589E-02 
461	 2,25129037267736E-02 
462	 2,35463622275384E-02 
463	 2,31662747104914E-02 
464	 2,34262280121375E-02 
465	 2,43659983450626E-02 
466	 2,45243653042038E-02 
467	 2,44739616492286E-02 
468	 2,45240421953345E-02 
469	 2,34887815237405E-02 
470	 2,30424647120497E-02 
471	 2,72270884084806E-02 
472	 0,0277184009366 
473	 2,33687337905777E-02 
474	 2,26847504250085E-02 
475	 2,36146733508524E-02 
476	 2,37557243645191E-02 
477	 0,026187512789816 
478	 2,89445116364232E-02 
479	 2,51542466515258E-02 
480	 2,22967049628476E-02 
481	 2,35809010596886E-02 
482	 2,40503827955411E-02 
483	 2,41674305252338E-02 
484	 2,54718850642788E-02 
485	 2,47873312581321E-02 
486	 2,26034868896961E-02 
487	 2,41725200764303E-02 
488	 2,54632703593057E-02 
489	 0,02368967245395 
490	 2,39450976002369E-02 
491	 2,52037640398928E-02 
492	 0,023000002900333 
493	 2,21590753802317E-02 
494	 2,37238963994802E-02 
495	 2,36055462640274E-02 
496	 2,27467234883652E-02 
497	 2,25552683340189E-02 
498	 2,31003043733631E-02 
499	 2,41135422348192E-02 
500	 2,46128056837019E-02 
501	 2,54575578351613E-02 
502	 2,67855197986125E-02 
503	 2,56738217099798E-02 
504	 2,37196154637369E-02 
505	 2,42547494155245E-02 
506	 2,55065438123115E-02 
507	 2,67398058581038E-02 
508	 2,72537611390992E-02 
509	 2,71556312927353E-02 
510	 2,66310448812485E-02 
511	 2,63146897100163E-02 
512	 2,62226182082692E-02 
513	 2,59592810471037E-02 
514	 2,58890988700075E-02 
515	 2,59980104263463E-02 
516	 2,50594369991868E-02 
517	 2,42975642119619E-02 
518	 2,55561718884097E-02 
519	 2,61709962609693E-02 
520	 2,59218561092093E-02 
521	 2,67314127498465E-02 
522	 2,76160532169053E-02 
523	 2,78509770024822E-02 
524	 2,80264637397569E-02 
525	 2,78452474561019E-02 
526	 2,61138530465066E-02 
527	 2,59951211004674E-02 
528	 2,78922005757102E-02 
529	 2,73988281773322E-02 
530	 2,62478264563519E-02 
531	 2,67726320393887E-02 
532	 2,81545475648229E-02 
533	 2,94143609942474E-02 
534	 2,81144628771699E-02 
535	 2,69037344748476E-02 
536	 0,027298935946709 
537	 0,027655738826535 
538	 0,028022143139017 
539	 2,89831533662996E-02 
540	 0,029310352712466 
541	 0,028758686042411 
542	 2,80537580026648E-02 
543	 2,78883700076104E-02 
544	 2,87996117368243E-02 
545	 2,86811318116207E-02 
546	 2,77170558764175E-02 
547	 2,76603904014761E-02 
548	 2,78381973521387E-02 
549	 2,79635786337443E-02 
550	 2,82043958017889E-02 
551	 2,86270010956484E-02 
552	 2,93747957784766E-02 
553	 2,90856663850875E-02 
554	 2,80358182613489E-02 
555	 2,90532527829395E-02 
556	 3,00100040455402E-02 
557	 2,91831297736892E-02 
558	 2,85941333135409E-02 
559	 2,84104494282215E-02 
560	 2,80058391979112E-02 
561	 0,028095264676532 
562	 2,87896094694335E-02 
563	 2,89518899135508E-02 
564	 2,89196206924126E-02 
565	 2,92793716276042E-02 
566	 2,94527121585052E-02 
567	 2,92737805139569E-02 
568	 0,028539057969148 
569	 0,028434600393106 
570	 2,96621239992925E-02 
571	 0,030367946735299 
572	 0,03049576629178 
573	 3,05170593548655E-02 
574	 3,13021213505231E-02 
575	 3,26772484332128E-02 
576	 3,18133877344212E-02 
577	 3,07363768176086E-02 
578	 3,18795090496402E-02 
579	 3,20477329597667E-02 
580	 3,13380888752308E-02 
581	 3,24177707614837E-02 
582	 3,33766283586328E-02 
583	 3,32452389673788E-02 
584	 3,35511853871226E-02 
585	 3,40181558985134E-02 
586	 3,37552135507294E-02 
587	 3,42316300593046E-02 
588	 3,54068188022418E-02 
589	 3,49722065177764E-02 
590	 3,45030139142785E-02 
591	 3,54529077333692E-02 
592	 3,53561854124163E-02 
593	 3,44230761984785E-02 
594	 3,45394539130315E-02 
595	 3,47860568804127E-02 
596	 3,48026468383528E-02 
597	 3,50491388004723E-02 
598	 3,52750595676444E-02 
599	 3,50568566845562E-02 
600	 3,48300783034092E-02 
601	 3,46700840468675E-02 
602	 3,42326715517716E-02 
603	 3,42768048395533E-02 
604	 3,52336084243823E-02 
605	 3,47988508771281E-02 
606	 3,35222660161072E-02 
607	 3,36639742134004E-02 
608	 3,41895311237533E-02 
609	 3,46761748697684E-02 
610	 3,49041911356689E-02 
611	 3,48001838803041E-02 
612	 3,43238076016284E-02 
613	 0,034034567691429 
614	 3,39361023208667E-02 
615	 3,34405881105961E-02 
616	 3,31019606983552E-02 
617	 3,32383087104569E-02 
618	 3,32981461000262E-02 
619	 3,32106440472775E-02 
620	 3,29792078918515E-02 
621	 3,29417275667811E-02 
622	 3,32112964361127E-02 
623	 3,37412230470582E-02 
624	 3,40246257586182E-02 
625	 3,35925510162095E-02 
626	 3,36426861223871E-02 
627	 3,41661896407579E-02 
628	 3,43610389728639E-02 
629	 3,43775291346386E-02 
630	 3,43501002650825E-02 
631	 3,48101080069878E-02 
632	 3,53249127032067E-02 
633	 3,50873154353946E-02 
634	 3,50003362583927E-02 
635	 3,52680983833985E-02 
636	 3,54609869769984E-02 
637	 3,59589645718082E-02 
638	 3,70289710948019E-02 
639	 3,78189574223271E-02 
640	 3,81252022038019E-02 
641	 0,037859010498528 
642	 3,76004366854224E-02 
643	 3,76674095414621E-02 
644	 3,80951476098767E-02 
645	 3,87978792140791E-02 
646	 3,96654080887393E-02 
647	 3,95294335100613E-02 
648	 0,038686526017388 
649	 3,92896866753826E-02 
650	 0,039860123508228 
651	 3,94950722631239E-02 
652	 0,039680478066404 
653	 3,99888452993319E-02 
654	 3,90560018878587E-02 
655	 3,85061771656966E-02 
656	 3,87639535840873E-02 
657	 3,90481333365908E-02 
658	 0,038952728346672 
659	 3,81460680547479E-02 
660	 3,76240116273834E-02 
661	 3,73629279000733E-02 
662	 3,65016970202398E-02 
663	 3,60803002656597E-02 
664	 3,64407305043557E-02 
665	 3,60068150480364E-02 
666	 3,52285134616758E-02 
667	 0,035074976184798 
668	 3,52591976813003E-02 
669	 3,54982612538922E-02 
670	 3,49969183466532E-02 
671	 3,44134101527643E-02 
672	 3,42840993134628E-02 
673	 3,41659364553016E-02 
674	 0,034045090420589 
675	 3,40173328426485E-02 
676	 3,43182001324181E-02 
677	 3,48375311567114E-02 
678	 3,44567326889651E-02 
679	 3,39207112712287E-02 
680	 3,42104125794946E-02 
681	 3,47374125680995E-02 
682	 3,52361865655467E-02 
683	 3,53174118351021E-02 
684	 3,54642129595659E-02 
685	 3,59087507008703E-02 
686	 3,59756777054153E-02 
687	 3,60314743241031E-02 
688	 3,68784974145603E-02 
689	 3,76518879002859E-02 
690	 3,82565101909806E-02 
691	 3,93824184095435E-02 
692	 4,10283461022282E-02 
693	 4,31496952382457E-02 
694	 4,54983461827161E-02 
695	 4,79937006710062E-02 
696	 5,05060040500726E-02 
697	 5,36528837905245E-02 
698	 5,75754236297503E-02 
699	 0,061256555493507 
700	 6,52814181671476E-02 
701	 7,05091664646679E-02 
702	 7,59311577517876E-02 
703	 8,13353988794388E-02 
704	 8,70293840104415E-02 
705	 9,28536222742123E-02 
706	 9,86822065988492E-02 
707	 0,104470701185661 
708	 0,110100858767256 
709	 0,115402618872909 
710	 0,12038833050758 
711	 0,125152084907618 
712	 0,130095852676541 
713	 0,1347212781288 
714	 0,138579899206018 
715	 0,14223619340526 
716	 0,145857210697951 
717	 0,14956374489444 
718	 0,153024201944583 
719	 0,156095406112946 
720	 0,15897810758807 
721	 0,161477732170211 
722	 0,163333755702813 
723	 0,165318913336756 
724	 0,167510389631693 
725	 0,169509450774631 
726	 0,170987932727965 
727	 0,171850136935622 
728	 0,173096338815859 
729	 0,174614831760884 
730	 0,17594091850183 
731	 0,177193810122791 
732	 0,178276241686392 
733	 0,178714728686816 
734	 0,179032132880664 
735	 0,179710304411887 
736	 0,180733248267157 
737	 0,181740753835379 
738	 0,181845274247034 
739	 0,18190158588868 
740	 0,182289916284935 
741	 0,183113353765551 
742	 0,183906739548331 
743	 0,184131448030996 
744	 0,184166784210706 
745	 0,184290535371595 
746	 0,185084268883012 
747	 0,185698458925322 
748	 0,185715415188254 
749	 0,185777012497523 
750	 0,185879947098271 
751	 0,185902491153821 
752	 0,185770175414307 
753	 0,18557861861256 
754	 0,185686011605992 
755	 0,186109724209155 
756	 0,186784997462896 
757	 0,187043512836404 
758	 0,187015673933307 
759	 0,187235381573955 
760	 0,187125361249496 
761	 0,186724696449913 
762	 0,187042956226553 
763	 0,187538841910714 
764	 0,187655941206884 
765	 0,187612567824933 
766	 0,187538979282921 
767	 0,18773137326332 
768	 0,18758895444898 
769	 0,187071327157283 
770	 0,187373699364616 
771	 0,188012902379554 
772	 0,188303633624488 
773	 0,188543893192295 
774	 0,188632605040912 
775	 0,18806261408851 
776	 0,187682237075623 
777	 0,187940348575758 
778	 0,188558970310249 
779	 0,188941828606781 
780	 0,188282669177911 
781	 0,188152564590844 
782	 0,188659059202162 
783	 0,188539430369491 
784	 0,188354113952038 
785	 0,188461834839973 
786	 0,188605886493827 
787	 0,188708968057554 
788	 0,188712888202344 
789	 0,188442584430853 
790	 0,188074813746674 
791	 0,188516087237931 
792	 0,189082201293596 
793	 0,189180168454016 
794	 0,188842486515373 
795	 0,18837511558144 
796	 0,188407535399662 
797	 0,188506367192203 
798	 0,188545145882096 
799	 0,188608731826857 
800	 0,188770276908033 
801	 0,189061562345064 
802	 0,188947027052313 
803	 0,188628660729234 
804	 0,188869086315618 
805	 0,189162336637786 
806	 0,189348834561509 
807	 0,189617638565992 
808	 0,189847428694423 
809	 0,189909768091011 
810	 0,190126435989175 
811	 0,190326262437497 
812	 0,18976965428212 
813	 0,189596927595483 
814	 0,190143044909212 
815	 0,190168033455736 
816	 0,190081898749784 
817	 0,190472886898722 
818	 0,190273096236049 
819	 0,189719771126546 
820	 0,190292177690693 
821	 0,19056763751969 
822	 0,190047776240474 
823	 0,190230353995914 
824	 0,190578580425737 
825	 0,190235085562643 
826	 0,190413259165622 
827	 0,191056928085359 
828	 0,191053499829807 
829	 0,191067438029052 
830	 0,191361680020581 
831	 0,19128907194482 
832	 0,191129029124641 
833	 0,191342712502726 
834	 0,191460271767144 
835	 0,191391778916574 
836	 0,19120695136518 
837	 0,191179149782198 
838	 0,191437524075863 
839	 0,191677908040302 
840	 0,191936526442843 
841	 0,192314965939893 
842	 0,192562075184233 
843	 0,192480926385244 
844	 0,191578083691414 
845	 0,191100009375782 
846	 0,191676637029223 
847	 0,192399785917438 
848	 0,192714383611121 
849	 0,19203592218013 
850	 0,191624571266319 
851	 0,191763793006042 
852	 0,192238855394115 
853	 0,192328417032301 
854	 0,191803567526085 
855	 0,19223382897248 
856	 0,19265986431264 
857	 0,191571428963939 
858	 0,191526678160169 
859	 0,192427792044567 
860	 0,191771276756121 
861	 0,191496614794195 
862	 0,192295705393078 
863	 0,191617572891808 
864	 0,190823539018158 
865	 0,191960241671755 
866	 0,192458133327004 
867	 0,192023373755796 
868	 0,191682408902658 
869	 0,191527622949297 
870	 0,191660817538117 
871	 0,192129571975988 
872	 0,192590303385159 
873	 0,192644573081716 
874	 0,192566103715837 
875	 0,192489219430089 
876	 0,192667473798998 
877	 0,192457549663332 
878	 0,191817029830221 
879	 0,192123753539272 
880	 0,192730876970475 
881	 0,192840275880454 
882	 0,192881497233359 
883	 0,193130663407862 
884	 0,194256497853285 
885	 0,194571657325033 
886	 0,193702597110105 
887	 0,193238056348886 
888	 0,193217425348393 
889	 0,193512725248167 
890	 0,193088542162612 
891	 0,192515330689788 
892	 0,193531962775894 
893	 0,193970970021927 
894	 0,193479671758629 
895	 0,193940757049922 
896	 0,194406607342656 
897	 0,194100916380193 
898	 0,19339199557108 
899	 0,192797977942497 
900	 0,193111818364635 
901	 0,193420617890472 
902	 0,193475719192492 
903	 0,193460182787575 
904	 0,193425822269889 
905	 0,193399504668111 
906	 0,193154517225757 
907	 0,193325304769562 
908	 0,194801834867638 
909	 0,194910757415562 
910	 0,193705742174984 
911	 0,193573558347634 
912	 0,193594213108118 
913	 0,193388942340285 
914	 0,193167121920946 
915	 0,193106871752913 
916	 0,193384067993522 
917	 0,193936363929778 
918	 0,194468743975446 
919	 0,194358884070305 
920	 0,193987949409204 
921	 0,193546604404327 
922	 0,193065692272655 
923	 0,193356501582107 
924	 0,194791604628218 
925	 0,194238146134426 
926	 0,192818439361356 
927	 0,193485130588025 
928	 0,193846672265976 
929	 0,193418796497508 
930	 0,192990680819752 
931	 0,192501472107033 
932	 0,19200581908515 
933	 0,191925610523546 
934	 0,192206896414675 
935	 0,192686918058869 
936	 0,19269910657545 
937	 0,192227291095072 
938	 0,191788887823492 
939	 0,190850939430388 
940	 0,189659474077307 
941	 0,190281583244087 
942	 0,191330768211079 
943	 0,191450902091614 
944	 0,191033742518115 
945	 0,19040914986356 
946	 0,190118818697892 
947	 0,189402155507738 
948	 0,188436861087873 
949	 0,188696904398963 
950	 0,188583079766443 
951	 0,187471136570488 
952	 0,187717197550957 
953	 0,188476215671459 
954	 0,188404937064167 
955	 0,186730228921304 
956	 0,184972342966159 
957	 0,187838076120803 
958	 0,187919550589026 
959	 0,184183639748696 
960	 0,184469181658284 
961	 0,186208264082923 
962	 0,186958801169671 
963	 0,185228037851958 
964	 0,182912125337535 
965	 0,183205239693031 
966	 0,183080215185842 
967	 0,182489721025788 
968	 0,18386384538389 
969	 0,183912528347289 
970	 0,181925549247208 
971	 0,18220602277934 
972	 0,183188328875986 
973	 0,18317711535009 
974	 0,18233116105458 
975	 0,18194927133186 
976	 0,184311247769507 
977	 0,185348984351711 
978	 0,184584535275016 
979	 0,18463976727989 
980	 0,184873718919382 
981	 0,184953309170461 
982	 0,184682121640552 
983	 0,184217863888411 
984	 0,183777437976488 
985	 0,183743030129424 
986	 0,183840496172788 
987	 0,183379201891782 
988	 0,183195968667855 
989	 0,183440178579165 
990	 0,183590915282528 
991	 0,184388801322454 
992	 0,185927233150278 
993	 0,186375582552272 
994	 0,186822334106304 
995	 0,188425116249833 
996	 0,189531919496905 
997	 0,189235283979967 
998	 0,186273899629196 
999	 0,18687444071209 
1000	 0,190705479482586 
1001	 0,189887489082 
1002	 0,187771535177441 
1003	 0,186537051900863 
1004	 0,188330451726535 
1005	 0,190243570860442 
1006	 0,189301389345091 
1007	 0,186858080225226 
1008	 0,185006145919278 
1009	 0,186810387221227 
1010	 0,189718760077451 
1011	 0,191531139886221 
1012	 0,187565861933896 
1013	 0,185826519955069 
1014	 0,188668587351816 
1015	 0,187691905188596 
1016	 0,186362384237961 
1017	 0,187990692894053 
1018	 0,192293221781726 
1019	 0,193938138313272 
1020	 0,185548157991209 
1021	 0,188561767490607 
1022	 0,199435463914897 
1023	 0,193667088824276 
1024	 0,189327498573257 
1025	 0,191395533654501 
1026	 0,192923872045353 
1027	 0,193365286651962 
1028	 0,192278905640531 
1029	 0,189222953735706 
1030	 0,187126213327689 
1031	 0,189215369066098 
1032	 0,194378068999943 
1033	 0,198910164602745 
1034	 0,196091196846626 
1035	 0,195557333643865 
1036	 0,197396946528288 
1037	 0,191107023731795 
1038	 0,188651143071454 
1039	 0,194054899934755 
1040	 0,196807987543366 
1041	 0,196441334304999 
1042	 0,193195371118454 
1043	 0,18799772378336 
1044	 0,186063580558109 
1045	 0,19351860216555 
1046	 0,196735758950994 
1047	 0,195748620999727 
1048	 0,198802376571571 
1049	 0,19933068335024 
1050	 0,197182879920556 
1051	 0,199838869923212 
1052	 0,198645011422878 
1053	 0,191222862017765 
1054	 0,19050725052141 
1055	 0,191477268966655 
1056	 0,189960051749004 
1057	 0,195307989247265 
1058	 0,201887829059816 
1059	 0,20024858619232 
1060	 0,194807423805718 
1061	 0,190405161305922 
1062	 0,195310763744834 
1063	 0,199957879297461 
1064	 0,202678406890979 
1065	 0,211087867033074 
1066	 0,210018108710878 
1067	 0,195093860997451 
1068	 0,181788979160253 
1069	 0,179353244877459 
1070	 0,190750506570826 
1071	 0,190718163976852 
1072	 0,193102395001014 
1073	 0,214598457283142 
1074	 0,206506162026849 
1075	 0,184175174072749 
