Wavelength	AURAY00542.asd
325	 0,203525673995656 
326	 0,177722401514223 
327	 0,184261117902402 
328	 0,210685763039009 
329	 0,272375987119528 
330	 0,290275343986141 
331	 0,238175856081073 
332	 0,222264320178152 
333	 0,227327846435667 
334	 0,181877274592443 
335	 0,194355346838091 
336	 0,249068254746449 
337	 0,149235265696657 
338	 6,96301744260333E-02 
339	 0,169045671458885 
340	 0,184926959765281 
341	 0,133593992702751 
342	 0,143100793798719 
343	 0,160676527419075 
344	 0,168966839297756 
345	 0,172769195848584 
346	 0,161598975054381 
347	 0,125345720276124 
348	 0,101774252465689 
349	 0,102346169414581 
350	 0,128355753042464 
351	 0,131212331865413 
352	 9,87801408782888E-02 
353	 6,21779305353374E-02 
354	 5,27571060310732E-02 
355	 0,101843568455856 
356	 0,11091099606655 
357	 8,31343896464325E-02 
358	 8,29043603211849E-02 
359	 7,73350278582188E-02 
360	 6,02261257674108E-02 
361	 9,68212242373368E-02 
362	 0,142714581208696 
363	 0,132064310851319 
364	 0,111567903814072 
365	 9,71927109210503E-02 
366	 0,104981354558962 
367	 0,107792075752129 
368	 9,15472660749302E-02 
369	 9,74000076794102E-02 
370	 0,111579298030277 
371	 0,102675790962475 
372	 9,30586715219862E-02 
373	 8,97434856279436E-02 
374	 9,37126420461052E-02 
375	 9,59065933331134E-02 
376	 9,01583128019203E-02 
377	 8,24727023682593E-02 
378	 8,39424414815858E-02 
379	 0,118901805623195 
380	 0,1169085506853 
381	 7,66749948343342E-02 
382	 9,76481245254005E-02 
383	 0,12234105564051 
384	 9,38185147197448E-02 
385	 7,83802959134528E-02 
386	 8,24788487542441E-02 
387	 8,89506247658505E-02 
388	 9,79478778460224E-02 
389	 0,108376984844811 
390	 0,119948233556173 
391	 0,122396349445199 
392	 0,104473108050615 
393	 0,102766235314891 
394	 0,114301115801553 
395	 0,106809581054016 
396	 9,31979851516627E-02 
397	 8,42629664956599E-02 
398	 9,80325617850836E-02 
399	 0,114551534371223 
400	 0,103261384810044 
401	 9,76882173530064E-02 
402	 0,101243306485624 
403	 9,13756656274651E-02 
404	 8,70785961907515E-02 
405	 0,099187535822438 
406	 0,105576914477821 
407	 0,102406394970912 
408	 8,69217804350627E-02 
409	 8,27165331535188E-02 
410	 9,32631553355237E-02 
411	 0,098706150424935 
412	 0,099616953742429 
413	 9,74610206595032E-02 
414	 9,21409294615269E-02 
415	 8,64311282660963E-02 
416	 8,52345138930505E-02 
417	 8,88413521152795E-02 
418	 9,50127415936277E-02 
419	 9,07022074432044E-02 
420	 8,32324309334097E-02 
421	 8,33288406593693E-02 
422	 8,59903527885911E-02 
423	 8,86069711102004E-02 
424	 8,68050481452335E-02 
425	 8,46386641409477E-02 
426	 8,44962118352982E-02 
427	 0,08404414310321 
428	 8,49129678705579E-02 
429	 9,09004351776415E-02 
430	 9,34087289740896E-02 
431	 9,10618410298374E-02 
432	 8,98798594724528E-02 
433	 9,04376330409983E-02 
434	 9,25891899677314E-02 
435	 8,90325033976461E-02 
436	 8,27540967627172E-02 
437	 8,42723346611069E-02 
438	 0,086455138066167 
439	 0,0869375341621 
440	 0,089984954445308 
441	 9,19570639744599E-02 
442	 8,80168543013165E-02 
443	 8,57750482078564E-02 
444	 8,62642728921949E-02 
445	 0,085352422366923 
446	 8,74698376461824E-02 
447	 9,40560948966005E-02 
448	 9,33149012268408E-02 
449	 8,83074246861378E-02 
450	 0,08757331186962 
451	 8,85057310259817E-02 
452	 9,01715452256947E-02 
453	 9,15873299666378E-02 
454	 9,11593767418962E-02 
455	 8,79417802610087E-02 
456	 9,02504711055276E-02 
457	 9,57315507857475E-02 
458	 9,41510829769343E-02 
459	 9,15252197428608E-02 
460	 9,04122776675517E-02 
461	 8,97509267552517E-02 
462	 9,02397088880957E-02 
463	 9,28369888963864E-02 
464	 9,40309370080537E-02 
465	 9,35118602344886E-02 
466	 9,40990908089904E-02 
467	 9,31007771244727E-02 
468	 8,95309188093263E-02 
469	 9,13144067187426E-02 
470	 9,56514369226679E-02 
471	 9,48560710565282E-02 
472	 0,09377233650429 
473	 9,38754323816158E-02 
474	 0,09492131289243 
475	 0,095271114746344 
476	 9,35203551336111E-02 
477	 0,094423393080104 
478	 9,65034034263573E-02 
479	 9,25459258088854E-02 
480	 9,08798051675144E-02 
481	 9,45069919003315E-02 
482	 0,094597471584578 
483	 9,33463350652309E-02 
484	 9,54158003363915E-02 
485	 9,54206430968083E-02 
486	 9,31374552447881E-02 
487	 9,34312541904258E-02 
488	 9,34203718777568E-02 
489	 9,11548618636309E-02 
490	 9,08088894614662E-02 
491	 0,091309993838436 
492	 8,80598689951829E-02 
493	 8,81727109031429E-02 
494	 9,26228274549215E-02 
495	 9,23146560304953E-02 
496	 9,06291374105684E-02 
497	 9,20785822062838E-02 
498	 9,15389334700069E-02 
499	 8,96932276092354E-02 
500	 9,21495892668063E-02 
501	 9,41713690320298E-02 
502	 9,32379890752002E-02 
503	 9,19404354505766E-02 
504	 9,13024042986743E-02 
505	 9,23873349091311E-02 
506	 9,43179122287801E-02 
507	 9,64391494769159E-02 
508	 9,75692388815003E-02 
509	 9,78751333732173E-02 
510	 0,097637895578846 
511	 9,76216656141308E-02 
512	 9,81408184178213E-02 
513	 9,96663779087949E-02 
514	 0,100476959695197 
515	 9,99078210385425E-02 
516	 9,90786375976992E-02 
517	 9,87039079027778E-02 
518	 9,95589333056822E-02 
519	 0,100326080439453 
520	 0,100814214791619 
521	 0,101783417198964 
522	 0,102786700192089 
523	 0,103429229629686 
524	 0,103335210054693 
525	 0,102655816010957 
526	 0,101705785415925 
527	 0,101329421967808 
528	 0,101696691288533 
529	 0,101712111102602 
530	 0,10160363971689 
531	 0,1017312090386 
532	 0,102495145474961 
533	 0,103338478486183 
534	 0,102199126880433 
535	 0,101421582368072 
536	 0,102232104344887 
537	 0,102299368856155 
538	 0,102008392975482 
539	 0,102674832058316 
540	 0,103165614269365 
541	 0,103172623242168 
542	 0,103022749368995 
543	 0,102766825472765 
544	 0,102459645629411 
545	 0,102457540739602 
546	 0,102747679665901 
547	 0,103008316598988 
548	 0,103658501923001 
549	 0,104653236012075 
550	 0,10428157831544 
551	 0,103499337936406 
552	 0,104080875011898 
553	 0,104565330229486 
554	 0,104573463254149 
555	 0,104382014625909 
556	 0,103962563356384 
557	 0,103307449761181 
558	 0,102664947995431 
559	 0,10199962027496 
560	 0,101009061872092 
561	 0,100242462370096 
562	 9,99399450825586E-02 
563	 9,98882338802663E-02 
564	 0,100101942124424 
565	 0,100633037393027 
566	 0,100815255445276 
567	 0,100528171029022 
568	 9,98275861471527E-02 
569	 0,100133842227194 
570	 0,102238449949347 
571	 0,103454902840286 
572	 0,103851241369447 
573	 0,104461606344615 
574	 0,105946092655351 
575	 0,108156199918066 
576	 0,108664606942183 
577	 0,109107277366633 
578	 0,111452016709165 
579	 0,113187780708098 
580	 0,114214621268973 
581	 0,11617539003034 
582	 0,117735768466182 
583	 0,118273247726606 
584	 0,119158526129655 
585	 0,120388775063805 
586	 0,121653958942641 
587	 0,122698726791324 
588	 0,12344682346622 
589	 0,124004317694342 
590	 0,124765502567408 
591	 0,126021198954977 
592	 0,126277342158133 
593	 0,126035220285575 
594	 0,127611776981824 
595	 0,128594314719791 
596	 0,128052586505443 
597	 0,127937531271257 
598	 0,128105391135512 
599	 0,128018639931809 
600	 0,127960218603361 
601	 0,127824541647364 
602	 0,126915815394738 
603	 0,12613482080055 
604	 0,12613892540083 
605	 0,125792052544431 
606	 0,125016821674122 
607	 0,124043255436746 
608	 0,123459349999007 
609	 0,123359701133529 
610	 0,122787053387091 
611	 0,121778667511284 
612	 0,120494123984143 
613	 0,119853648649073 
614	 0,119785424550648 
615	 0,11919271996326 
616	 0,118508006698739 
617	 0,118005319170105 
618	 0,117500401713144 
619	 0,117064334732257 
620	 0,11688052267077 
621	 0,116694784609224 
622	 0,116546293158387 
623	 0,117146601034253 
624	 0,117504175456172 
625	 0,116635356762186 
626	 0,116477293357341 
627	 0,117114119348314 
628	 0,117477767872699 
629	 0,117953275036489 
630	 0,118633310849249 
631	 0,118902037587893 
632	 0,119040761219039 
633	 0,119629882206778 
634	 0,119905265610551 
635	 0,119963712300942 
636	 0,121067566222798 
637	 0,122445126876663 
638	 0,123417888814161 
639	 0,124474525803606 
640	 0,125565435149937 
641	 0,126435757508516 
642	 0,126972714213865 
643	 0,127256666089765 
644	 0,128018879712068 
645	 0,129151724702532 
646	 0,130431957925184 
647	 0,130331396135443 
648	 0,128988389127968 
649	 0,128370338897554 
650	 0,127736867684908 
651	 0,126678035518751 
652	 0,126278909841511 
653	 0,125817123525202 
654	 0,123475043545619 
655	 0,121376958605481 
656	 0,120113755145347 
657	 0,118762084543617 
658	 0,116941807708576 
659	 0,114356945329608 
660	 0,112070079086964 
661	 0,110209581985398 
662	 0,108334162793449 
663	 0,106621296807517 
664	 0,105107152046608 
665	 0,103431380779386 
666	 0,101888084511393 
667	 0,100959259654405 
668	 0,100661553400768 
669	 0,100601349156384 
670	 9,92865522181616E-02 
671	 9,79869631004216E-02 
672	 9,77269103645293E-02 
673	 9,76120991749721E-02 
674	 9,74282292147566E-02 
675	 0,097004994155541 
676	 9,68823350426076E-02 
677	 9,71055886911797E-02 
678	 9,65662651160951E-02 
679	 9,63474801578898E-02 
680	 9,77954030787764E-02 
681	 9,86123016801553E-02 
682	 9,86640882152117E-02 
683	 0,099279117480586 
684	 0,100497325845443 
685	 0,102308975068141 
686	 0,104167160102801 
687	 0,106154526685489 
688	 0,10849852752679 
689	 0,111769043994757 
690	 0,11603246247775 
691	 0,120528257588642 
692	 0,125721459059387 
693	 0,132051900486626 
694	 0,139191620074501 
695	 0,147177972916591 
696	 0,156236923693563 
697	 0,166083895575811 
698	 0,176599649371044 
699	 0,187840353167186 
700	 0,199739440007854 
701	 0,212222681189142 
702	 0,224676936944704 
703	 0,236913095719347 
704	 0,249141316227211 
705	 0,261255811953365 
706	 0,27312073010944 
707	 0,284262152186858 
708	 0,294987777739889 
709	 0,306055495400227 
710	 0,316144131167384 
711	 0,32511259234062 
712	 0,334291816833021 
713	 0,343105185460093 
714	 0,350985743117067 
715	 0,358463418340166 
716	 0,36555731471227 
717	 0,372000494077018 
718	 0,378142951806786 
719	 0,384070822491397 
720	 0,389332587831888 
721	 0,394161336940508 
722	 0,398907354344146 
723	 0,403004471054548 
724	 0,406474474230314 
725	 0,409799958761461 
726	 0,413024995312937 
727	 0,416136097931769 
728	 0,41866989037291 
729	 0,420826784618771 
730	 0,42305818548217 
731	 0,425357962903844 
732	 0,427584023817334 
733	 0,429067035576657 
734	 0,430373875372731 
735	 0,431999673620528 
736	 0,433430258708853 
737	 0,434613318782197 
738	 0,43561840871527 
739	 0,436638847879732 
740	 0,437779198262648 
741	 0,439126640088527 
742	 0,440257942094659 
743	 0,440700530782696 
744	 0,441272770601352 
745	 0,442197509326603 
746	 0,443632306193492 
747	 0,444441717645996 
748	 0,444165913046351 
749	 0,444375401766564 
750	 0,444951237125495 
751	 0,445386650687163 
752	 0,446106023896219 
753	 0,446978051121536 
754	 0,447078115485206 
755	 0,447398542547371 
756	 0,448552639419265 
757	 0,449063527775159 
758	 0,448988313755157 
759	 0,448879648489288 
760	 0,449070125160068 
761	 0,449631966996673 
762	 0,450169178907996 
763	 0,450543918092849 
764	 0,450673505260883 
765	 0,451005699737725 
766	 0,451511876818031 
767	 0,451907953401944 
768	 0,452097345800442 
769	 0,452115317486598 
770	 0,452464088888519 
771	 0,452893334465246 
772	 0,453063525432809 
773	 0,4533055697789 
774	 0,453581386020556 
775	 0,453527238602611 
776	 0,453581450679056 
777	 0,45392915081443 
778	 0,454136548690477 
779	 0,454211418849498 
780	 0,454237371095319 
781	 0,454430498620706 
782	 0,454696116828294 
783	 0,454439869206481 
784	 0,454266110062052 
785	 0,45455147584769 
786	 0,454825639462999 
787	 0,455093513018953 
788	 0,455521064153442 
789	 0,455492434566771 
790	 0,455061670849685 
791	 0,455231639988016 
792	 0,455646970036099 
793	 0,455959432892676 
794	 0,455920060798321 
795	 0,45558536174626 
796	 0,455106087723636 
797	 0,45518945381763 
798	 0,455918623373604 
799	 0,456393553475242 
800	 0,456510059512056 
801	 0,456240706056013 
802	 0,455912610738883 
803	 0,455721282718475 
804	 0,455908131399047 
805	 0,456324315248149 
806	 0,45680915611145 
807	 0,456842968414506 
808	 0,456980776807444 
809	 0,457816457710971 
810	 0,458504039625082 
811	 0,458751328138415 
812	 0,458230436755326 
813	 0,457983832075658 
814	 0,458400859548561 
815	 0,458665976550431 
816	 0,458877432729593 
817	 0,459230534023133 
818	 0,459608847478284 
819	 0,459896421317735 
820	 0,459795706190985 
821	 0,459912712710009 
822	 0,460445338776668 
823	 0,46065572230922 
824	 0,460498461688785 
825	 0,46003268610978 
826	 0,460067812589032 
827	 0,460628257620464 
828	 0,461099071514917 
829	 0,461468544604173 
830	 0,461685181770362 
831	 0,461607531652053 
832	 0,461601203872338 
833	 0,462162446397147 
834	 0,462373551630612 
835	 0,462123503418899 
836	 0,4618288188292 
837	 0,461672306636128 
838	 0,461790252722125 
839	 0,462257129731176 
840	 0,462646631279137 
841	 0,462372898867202 
842	 0,46237433238682 
843	 0,462649009100287 
844	 0,462320017269193 
845	 0,462139786748528 
846	 0,462452002086074 
847	 0,462515974891895 
848	 0,462515203992183 
849	 0,462820882635789 
850	 0,462893041236052 
851	 0,462716416713622 
852	 0,462671862538981 
853	 0,462804235148632 
854	 0,463086673937796 
855	 0,463109462660453 
856	 0,463025476042978 
857	 0,463107539611397 
858	 0,463415691913323 
859	 0,46370691061065 
860	 0,463150887096831 
861	 0,462614248268201 
862	 0,462580573180399 
863	 0,462840604419097 
864	 0,463338281862858 
865	 0,464006287100335 
866	 0,463833347635802 
867	 0,46311447229566 
868	 0,463517396969025 
869	 0,463999498355722 
870	 0,464088733335707 
871	 0,464089756177885 
872	 0,464175849525851 
873	 0,464507566912973 
874	 0,464400631281387 
875	 0,464146009879049 
876	 0,465061505584502 
877	 0,46569863245146 
878	 0,465587383320986 
879	 0,465971885093598 
880	 0,466241255511337 
881	 0,465724076121341 
882	 0,466125856452108 
883	 0,467115367421446 
884	 0,466877234558782 
885	 0,466820510626353 
886	 0,467227073006446 
887	 0,466784600209812 
888	 0,466616063495315 
889	 0,467718729226445 
890	 0,468327716409207 
891	 0,468204867725601 
892	 0,467542611167101 
893	 0,467036648149947 
894	 0,467031144649972 
895	 0,467668200781442 
896	 0,468228816220085 
897	 0,468220748645905 
898	 0,468751773486359 
899	 0,469376919885596 
900	 0,469002306334184 
901	 0,468951227524974 
902	 0,469422693640398 
903	 0,46967670707281 
904	 0,469707734012823 
905	 0,469518803452219 
906	 0,46918883241376 
907	 0,468900574128061 
908	 0,46887684870582 
909	 0,469314057884624 
910	 0,469825588157832 
911	 0,469017689283117 
912	 0,468584898213072 
913	 0,469187323675579 
914	 0,469423529949874 
915	 0,469648487564693 
916	 0,470332439294202 
917	 0,470401421100189 
918	 0,470041145088717 
919	 0,470327080638665 
920	 0,470263587955538 
921	 0,469593244112955 
922	 0,468669182914989 
923	 0,468417637579732 
924	 0,469394241636021 
925	 0,46930976104152 
926	 0,468692777525613 
927	 0,469218125243521 
928	 0,469105560746224 
929	 0,468137305353152 
930	 0,467358617881326 
931	 0,466962810915312 
932	 0,466978900333819 
933	 0,466704617538729 
934	 0,466186742127666 
935	 0,465606024400143 
936	 0,464923289603401 
937	 0,464423452536794 
938	 0,464975509399035 
939	 0,465012857546149 
940	 0,464149189935391 
941	 0,463929162853607 
942	 0,463595403975686 
943	 0,462480012432058 
944	 0,461543662608361 
945	 0,460991712012736 
946	 0,460965006184906 
947	 0,459414101300948 
948	 0,456839750144171 
949	 0,457444312433216 
950	 0,457751433863295 
951	 0,455926804303246 
952	 0,453946417499806 
953	 0,452835620513651 
954	 0,453437909730111 
955	 0,452819518752013 
956	 0,451094912659614 
957	 0,450421760569785 
958	 0,448959622796904 
959	 0,446695087169323 
960	 0,446232613490025 
961	 0,446793982560031 
962	 0,447416584221503 
963	 0,445922522065832 
964	 0,444185741523727 
965	 0,445471043225963 
966	 0,445604216408163 
967	 0,444311639268756 
968	 0,444020488326173 
969	 0,444395658944153 
970	 0,444966340189042 
971	 0,443798467075223 
972	 0,442635655280113 
973	 0,443066332217445 
974	 0,44306917592847 
975	 0,44333199060866 
976	 0,445691590438862 
977	 0,446430074211495 
978	 0,445222783162389 
979	 0,444796027546293 
980	 0,444731554861034 
981	 0,444759600485535 
982	 0,444049854319448 
983	 0,444021708743208 
984	 0,446023913058129 
985	 0,44793136263488 
986	 0,448854016030975 
987	 0,448021216447015 
988	 0,4469307489614 
989	 0,446451069482191 
990	 0,447535958248061 
991	 0,449371435093552 
992	 0,451162194522006 
993	 0,451395366713013 
994	 0,45130930991087 
995	 0,452195224753239 
996	 0,451650695419472 
997	 0,450857892477944 
998	 0,452900023964382 
999	 0,45398394524821 
1000	 0,453893162037847 
1001	 0,456338411128711 
1002	 0,456684324269303 
1003	 0,4537887316934 
1004	 0,455525678275882 
1005	 0,457993212843069 
1006	 0,456947984606203 
1007	 0,455083233627649 
1008	 0,454616118585372 
1009	 0,458529337087195 
1010	 0,460268067775538 
1011	 0,459428491248779 
1012	 0,461361697058208 
1013	 0,462112392563671 
1014	 0,460295785512996 
1015	 0,457797862358475 
1016	 0,457375707148218 
1017	 0,460775252415426 
1018	 0,462835838882757 
1019	 0,46396014090077 
1020	 0,465901691298786 
1021	 0,468677614953102 
1022	 0,470202692414272 
1023	 0,464145690037746 
1024	 0,463667151686544 
1025	 0,470722542094927 
1026	 0,471462098629485 
1027	 0,469722625009748 
1028	 0,468668733008419 
1029	 0,470661691998291 
1030	 0,471302168293282 
1031	 0,466128504527233 
1032	 0,469946538203959 
1033	 0,477600415171747 
1034	 0,473010642559594 
1035	 0,469926230677546 
1036	 0,471262069747095 
1037	 0,472971418779726 
1038	 0,474202458989662 
1039	 0,474624620213274 
1040	 0,476247939829359 
1041	 0,476873150217912 
1042	 0,474849029898663 
1043	 0,472905273259661 
1044	 0,470709546281827 
1045	 0,467531676913537 
1046	 0,471544583549088 
1047	 0,478678758276845 
1048	 0,475591472468455 
1049	 0,472834915921812 
1050	 0,472989229937102 
1051	 0,472268573656541 
1052	 0,47341916426803 
1053	 0,47722257786488 
1054	 0,479818983038223 
1055	 0,482537272119865 
1056	 0,485796041849619 
1057	 0,479547234712845 
1058	 0,476008591050592 
1059	 0,492327037868575 
1060	 0,485346461397474 
1061	 0,467880360703071 
1062	 0,490989871579923 
1063	 0,496904983606067 
1064	 0,478591476963543 
1065	 0,476696105892852 
1066	 0,477341165977433 
1067	 0,475084972345761 
1068	 0,473118344988033 
1069	 0,470543886281368 
1070	 0,46745055375138 
1071	 0,469815407905692 
1072	 0,471767849911988 
1073	 0,466487039919426 
1074	 0,466217401252147 
1075	 0,470813800082424 
