Wavelength	AURAY00258.asd
325	 4,86793417723007E-02 
326	 7,14353799855659E-02 
327	-1,98426483027814E-02 
328	-0,20406170888289 
329	 2,42275550103504E-03 
330	 0,257869423724909 
331	 0,338463029401643 
332	 0,275721421501918 
333	 0,129371441273193 
334	 5,56946782686061E-02 
335	 1,83954577177566E-02 
336	 6,61772783692449E-03 
337	 1,90126175219599E-02 
338	 1,61009844771115E-02 
339	-3,00693327216036E-02 
340	 1,54083530010774E-02 
341	 0,100166248337842 
342	 8,47097362259709E-02 
343	 5,47078154202799E-02 
344	 4,44641142249908E-02 
345	 7,05076803925572E-02 
346	 8,32051794831211E-02 
347	 4,00126508609793E-02 
348	-4,42101967332881E-03 
349	-1,99513490377297E-02 
350	 2,61030842651853E-02 
351	 3,77180261564866E-02 
352	-6,07214440227227E-03 
353	-2,37531091421469E-02 
354	-7,34056290881046E-03 
355	 0,037357392084832 
356	 5,04120336579531E-02 
357	 3,34501508007306E-02 
358	 2,01016349858997E-02 
359	 9,48257657102426E-03 
360	 3,93852687982863E-03 
361	 2,20280807879385E-02 
362	 0,046041979960705 
363	 5,08173142550837E-02 
364	 5,48623974381598E-02 
365	 5,90380525090504E-02 
366	 5,07456856851045E-02 
367	 4,11730301794753E-02 
368	 3,82228622394384E-02 
369	 4,42298191498893E-02 
370	 5,05309735390668E-02 
371	 4,28125573170098E-02 
372	 3,66063493313002E-02 
373	 3,66678402337325E-02 
374	 4,45579337415895E-02 
375	 4,02092306485276E-02 
376	 1,07861171154624E-02 
377	-1,04997054039491E-02 
378	-6,57814219643834E-03 
379	 4,46392748909283E-02 
380	 6,43868705263404E-02 
381	 4,14211884535588E-02 
382	 3,09246840820425E-02 
383	 0,03412123015161 
384	 4,65845376829543E-02 
385	 3,57699572161734E-02 
386	 1,65058770105325E-02 
387	 4,51216337571898E-02 
388	 6,05375210549152E-02 
389	 4,64627201338347E-02 
390	 4,79643957034478E-02 
391	 5,10634198260359E-02 
392	 3,53833734087356E-02 
393	 3,03683345143337E-02 
394	 0,036368039839629 
395	 3,55516581425072E-02 
396	 3,16618641793371E-02 
397	 2,81115719237627E-02 
398	 3,35461917287251E-02 
399	 4,20401390815742E-02 
400	 4,49134356984762E-02 
401	 3,55161841614036E-02 
402	 1,98245152632078E-02 
403	 2,42602453740224E-02 
404	 3,54111330862322E-02 
405	 4,33479707011946E-02 
406	 4,85947978730103E-02 
407	 4,94061046070474E-02 
408	 4,18565275452625E-02 
409	 3,73755895242849E-02 
410	 3,91565673583164E-02 
411	 4,38373305026801E-02 
412	 4,50364488854036E-02 
413	 3,75207080049521E-02 
414	 3,00818810187465E-02 
415	 2,79450204782711E-02 
416	 0,040023046882803 
417	 4,76313337081507E-02 
418	 4,33187556350815E-02 
419	 3,46168252994935E-02 
420	 2,72096692403046E-02 
421	 2,72365567763932E-02 
422	 3,13668228268599E-02 
423	 3,66020795930998E-02 
424	 3,74812946330972E-02 
425	 3,49759231575177E-02 
426	 3,07442407200712E-02 
427	 3,29095603498509E-02 
428	 3,90089322083414E-02 
429	 4,30796828527719E-02 
430	 4,37946707512106E-02 
431	 0,04157889545571 
432	 4,12761600477693E-02 
433	 4,03288177071255E-02 
434	 3,65427654705431E-02 
435	 3,44881329897186E-02 
436	 3,48250245465557E-02 
437	 3,69763917497082E-02 
438	 3,88605263455902E-02 
439	 0,039432874101274 
440	 0,039338122624343 
441	 3,83301944558468E-02 
442	 3,60382496060757E-02 
443	 3,42406288826298E-02 
444	 3,42241145726388E-02 
445	 3,84269963377898E-02 
446	 4,24891793396246E-02 
447	 0,043368470414742 
448	 4,02687134527564E-02 
449	 3,70571794168213E-02 
450	 0,041211363361855 
451	 4,25781062400948E-02 
452	 3,96789426302081E-02 
453	 4,10452448983685E-02 
454	 4,36793545630768E-02 
455	 4,44711935688002E-02 
456	 4,44491085233862E-02 
457	 4,34443889407207E-02 
458	 4,03647345108586E-02 
459	 3,81928970629311E-02 
460	 0,038136855384362 
461	 3,80276382086376E-02 
462	 3,81806852945896E-02 
463	 0,039283559488187 
464	 4,06326572517168E-02 
465	 4,16884738210376E-02 
466	 4,14885677074378E-02 
467	 4,11338719042162E-02 
468	 4,12881119807046E-02 
469	 4,04850854409879E-02 
470	 3,99582877476416E-02 
471	 4,26711683143216E-02 
472	 4,39844033360058E-02 
473	 4,31432644407899E-02 
474	 4,48922128432595E-02 
475	 4,53510233033538E-02 
476	 4,08661744055631E-02 
477	 4,01241365947405E-02 
478	 4,27797111247588E-02 
479	 4,25236178553916E-02 
480	 4,33589394868661E-02 
481	 4,62494508433539E-02 
482	 4,51727598095708E-02 
483	 4,24067640278387E-02 
484	 4,21043029447066E-02 
485	 4,23595021826745E-02 
486	 4,27662667610593E-02 
487	 4,37371066317546E-02 
488	 4,37585820402562E-02 
489	 4,20248460249479E-02 
490	 4,30093967995541E-02 
491	 4,49004722778933E-02 
492	 4,14777422003602E-02 
493	 4,02735907639719E-02 
494	 4,30149210715269E-02 
495	 4,35697189234225E-02 
496	 4,32184192906683E-02 
497	 4,39076043909501E-02 
498	 4,43093638761854E-02 
499	 4,46647751186857E-02 
500	 4,69436938802575E-02 
501	 4,74021403432177E-02 
502	 4,43933568498978E-02 
503	 4,26397011013568E-02 
504	 4,26645556666854E-02 
505	 4,42148437363973E-02 
506	 4,56011278584792E-02 
507	 4,62647445603535E-02 
508	 4,66509294075875E-02 
509	 4,71908645543853E-02 
510	 4,81772802992801E-02 
511	 4,79583276280257E-02 
512	 4,70360986208443E-02 
513	 4,75463195318428E-02 
514	 0,047895502811963 
515	 4,74817560252006E-02 
516	 4,71431797769428E-02 
517	 4,67546771327577E-02 
518	 4,59613643193278E-02 
519	 4,68501308996039E-02 
520	 4,90220843234713E-02 
521	 4,90301711903394E-02 
522	 4,91864333055667E-02 
523	 5,09681284231603E-02 
524	 5,12477810871943E-02 
525	 5,01987168688601E-02 
526	 4,90497699550948E-02 
527	 4,91008500440938E-02 
528	 5,05259399406377E-02 
529	 5,12727964865325E-02 
530	 5,11253854810068E-02 
531	 5,00704889867708E-02 
532	 5,00316974454247E-02 
533	 5,09403287480528E-02 
534	 5,10311339472789E-02 
535	 5,10129582668992E-02 
536	 5,12716416872505E-02 
537	 5,14408704586406E-02 
538	 5,15934853912533E-02 
539	 5,19628032856913E-02 
540	 5,21979152721779E-02 
541	 5,21669363880926E-02 
542	 5,16670525819765E-02 
543	 5,17776806553528E-02 
544	 5,34223024766376E-02 
545	 5,37326084589209E-02 
546	 5,27390590586011E-02 
547	 5,20841587762378E-02 
548	 5,23785760301089E-02 
549	 5,36713197021078E-02 
550	 5,35602175510301E-02 
551	 5,30188012561835E-02 
552	 5,40370305976429E-02 
553	 5,42230557542236E-02 
554	 5,34995684424815E-02 
555	 5,44171547819373E-02 
556	 5,52930269999727E-02 
557	 5,47785505348048E-02 
558	 5,47618605823231E-02 
559	 5,50467053464667E-02 
560	 5,42282109564988E-02 
561	 5,35727949456706E-02 
562	 0,053609871368899 
563	 5,41662403915239E-02 
564	 5,46196009051924E-02 
565	 5,41876274571932E-02 
566	 5,44128567970664E-02 
567	 5,52980480986467E-02 
568	 0,055341719474449 
569	 5,54817153521089E-02 
570	 5,62701962488221E-02 
571	 5,62681189588794E-02 
572	 5,59150853869682E-02 
573	 5,65148017538712E-02 
574	 5,80833367233399E-02 
575	 6,00826724714316E-02 
576	 5,96930913258378E-02 
577	 5,87707709727908E-02 
578	 5,95955585752532E-02 
579	 6,01039514939643E-02 
580	 6,01800462033309E-02 
581	 6,09524981406322E-02 
582	 6,15300129856448E-02 
583	 6,15203067783594E-02 
584	 6,21059004136876E-02 
585	 6,28781915830995E-02 
586	 6,28580269804222E-02 
587	 0,062806520508483 
588	 6,29775465928093E-02 
589	 6,33145586638214E-02 
590	 6,39569776905387E-02 
591	 6,49414317950677E-02 
592	 6,45234228777848E-02 
593	 6,33563588623706E-02 
594	 6,42238286192177E-02 
595	 6,48928253738454E-02 
596	 6,45007881153023E-02 
597	 6,47276484801292E-02 
598	 6,50419605119812E-02 
599	 6,43909802367967E-02 
600	 6,41208147047679E-02 
601	 6,43127409476027E-02 
602	 6,35800848381448E-02 
603	 6,33854695541918E-02 
604	 6,47171343966437E-02 
605	 6,48972383101948E-02 
606	 6,41084538734864E-02 
607	 6,38837614197702E-02 
608	 0,064087914917149 
609	 6,45625512117959E-02 
610	 6,43807278629824E-02 
611	 6,38937124987353E-02 
612	 6,36374086255057E-02 
613	 6,35298647141797E-02 
614	 6,35046528102284E-02 
615	 6,33821782072727E-02 
616	 6,31227020876709E-02 
617	 6,27607499729375E-02 
618	 6,28645552973613E-02 
619	 0,063091967179014 
620	 6,25736388798376E-02 
621	 6,23077194841556E-02 
622	 6,25414450959749E-02 
623	 6,27456732363851E-02 
624	 0,062892291230079 
625	 6,29903237504708E-02 
626	 6,32433654049381E-02 
627	 6,35572785588631E-02 
628	 6,34960780726317E-02 
629	 6,35913468495235E-02 
630	 6,40589624404685E-02 
631	 6,43249241599412E-02 
632	 6,44323308778122E-02 
633	 6,45699409234342E-02 
634	 6,45799167273113E-02 
635	 6,45639074072125E-02 
636	 6,50513374363143E-02 
637	 6,56701904623507E-02 
638	 6,60974438253313E-02 
639	 6,66681820661982E-02 
640	 6,71639665860717E-02 
641	 6,68995295984779E-02 
642	 6,65366163694383E-02 
643	 6,64981872380756E-02 
644	 6,73869467432066E-02 
645	 6,85697588426731E-02 
646	 0,069170702210967 
647	 6,92054131834827E-02 
648	 6,88075469361053E-02 
649	 0,068482180291806 
650	 6,81162220570354E-02 
651	 6,77027231887286E-02 
652	 6,78995162899416E-02 
653	 6,81771291779909E-02 
654	 6,72964334921364E-02 
655	 6,62195500026787E-02 
656	 6,54091102684642E-02 
657	 6,53326759277847E-02 
658	 6,54046303097096E-02 
659	 0,064984383310073 
660	 6,41148744476757E-02 
661	 6,30763538729692E-02 
662	 0,06261579560202 
663	 6,22654121777727E-02 
664	 6,18228259551977E-02 
665	 6,16676080731748E-02 
666	 6,14162906785389E-02 
667	 6,03705254010103E-02 
668	 6,03096483617329E-02 
669	 6,11914087175217E-02 
670	 6,07110963780999E-02 
671	 6,01167047873891E-02 
672	 6,03812716957626E-02 
673	 6,00873765323373E-02 
674	 0,059488633774324 
675	 5,97708871331551E-02 
676	 6,00742212227161E-02 
677	 6,00464502357014E-02 
678	 5,95223189560963E-02 
679	 5,92431491652105E-02 
680	 6,00768567787724E-02 
681	 0,060762429920185 
682	 6,10672916478444E-02 
683	 6,13140788623277E-02 
684	 6,15646338110952E-02 
685	 6,19124535598293E-02 
686	 6,26761934779635E-02 
687	 0,06359150816438 
688	 0,064090437484857 
689	 6,49581011599711E-02 
690	 6,63230992424546E-02 
691	 6,75333196105118E-02 
692	 6,90548711583061E-02 
693	 7,13015756086771E-02 
694	 7,37473167121481E-02 
695	 7,62904823508934E-02 
696	 7,88577871048587E-02 
697	 8,20809930714724E-02 
698	 8,60737388851438E-02 
699	 8,97094965735983E-02 
700	 9,33821744130577E-02 
701	 9,77399061028425E-02 
702	 0,101680380806342 
703	 0,105250404952559 
704	 0,10961135591337 
705	 0,114054918474361 
706	 0,118087312640892 
707	 0,121666460618931 
708	 0,125018249436277 
709	 0,128602241823648 
710	 0,131822835785354 
711	 0,134606135509682 
712	 0,137508418612711 
713	 0,140170114322046 
714	 0,142295038732382 
715	 0,144958293651075 
716	 0,147848254844737 
717	 0,149622210264376 
718	 0,151161225444684 
719	 0,152815023935998 
720	 0,154331307069126 
721	 0,155794123724206 
722	 0,157328483260406 
723	 0,158745597593152 
724	 0,159975246989259 
725	 0,160999681833548 
726	 0,16175875124841 
727	 0,162292613397315 
728	 0,16317070771652 
729	 0,164255468169368 
730	 0,165166613762708 
731	 0,165924344722057 
732	 0,166486633381026 
733	 0,166688323302709 
734	 0,166982259544855 
735	 0,167747201794537 
736	 0,168599344594943 
737	 0,169280041391386 
738	 0,169338922092214 
739	 0,169403439384092 
740	 0,169714777878185 
741	 0,170068538207563 
742	 0,170413479840306 
743	 0,170709440911893 
744	 0,171113191091569 
745	 0,171671529625603 
746	 0,172538062368187 
747	 0,172829541729408 
748	 0,172219855224553 
749	 0,172097734690988 
750	 0,172369409280707 
751	 0,172604708221142 
752	 0,173022525578369 
753	 0,173513184470644 
754	 0,173487224375366 
755	 0,173609715939201 
756	 0,174300404846171 
757	 0,174638696787838 
758	 0,174659191486191 
759	 0,174727757951666 
760	 0,174807274216324 
761	 0,174942910518396 
762	 0,175322659731027 
763	 0,17559238907604 
764	 0,175452803617311 
765	 0,175704825585533 
766	 0,176168946599366 
767	 0,175954077832818 
768	 0,175755935126127 
769	 0,175890732106678 
770	 0,176461690912961 
771	 0,176989063516041 
772	 0,176918571842676 
773	 0,177002439012898 
774	 0,177227071172903 
775	 0,176957222217408 
776	 0,176840730369408 
777	 0,177183994717522 
778	 0,17761841749611 
779	 0,177813918932355 
780	 0,177359601812384 
781	 0,177326953793329 
782	 0,177755003873313 
783	 0,177605864363673 
784	 0,177593174009231 
785	 0,178116801679626 
786	 0,178343185565233 
787	 0,178377263160889 
788	 0,178631186658207 
789	 0,178753376370991 
790	 0,178695636519917 
791	 0,178696130966675 
792	 0,178678081759382 
793	 0,178607873835969 
794	 0,178838148402986 
795	 0,179236942561465 
796	 0,179435143279825 
797	 0,179369290478772 
798	 0,179125880019989 
799	 0,17924811907056 
800	 0,179520636042747 
801	 0,179705666190323 
802	 0,179814142791687 
803	 0,179800643299275 
804	 0,179522060112452 
805	 0,179438243503309 
806	 0,179679215636333 
807	 0,179820224538854 
808	 0,180028070647566 
809	 0,180498990695927 
810	 0,181038080107856 
811	 0,181363326107148 
812	 0,180781518330409 
813	 0,180502518123196 
814	 0,180908617824913 
815	 0,180753149270807 
816	 0,180574723912029 
817	 0,181106669525165 
818	 0,181267741711663 
819	 0,181073328062727 
820	 0,181344724660013 
821	 0,181534297826935 
822	 0,181496183905642 
823	 0,18208455226993 
824	 0,182540536877722 
825	 0,181826240573635 
826	 0,181419671679727 
827	 0,181591471347774 
828	 0,18198074112351 
829	 0,1822498794253 
830	 0,182214231133522 
831	 0,182068169777128 
832	 0,182094983163924 
833	 0,182631845214922 
834	 0,182782584649136 
835	 0,182463487907308 
836	 0,182138986252705 
837	 0,182179057132789 
838	 0,182690900047985 
839	 0,18276891088069 
840	 0,18273381931077 
841	 0,183182595822143 
842	 0,1830934518363 
843	 0,182577809779049 
844	 0,182898376390891 
845	 0,183057219363794 
846	 0,182622826513922 
847	 0,18265354461798 
848	 0,182977158055789 
849	 0,183185149549077 
850	 0,183204969347385 
851	 0,183093911777711 
852	 0,183159813840975 
853	 0,183186676777208 
854	 0,183079605190492 
855	 0,183028167853921 
856	 0,183032198598321 
857	 0,183061405307347 
858	 0,182849144501244 
859	 0,182545494871566 
860	 0,182842888448003 
861	 0,183177795518244 
862	 0,183213689792412 
863	 0,182787000968679 
864	 0,182637961590374 
865	 0,183699784610951 
866	 0,183917688075941 
867	 0,183185089038502 
868	 0,182667262162316 
869	 0,182760506660721 
870	 0,183567576449091 
871	 0,184244073246542 
872	 0,184499855845378 
873	 0,184132195566524 
874	 0,183828388955226 
875	 0,183788378109906 
876	 0,184073513169264 
877	 0,184180613586734 
878	 0,18397455507928 
879	 0,184066762582103 
880	 0,18440485047611 
881	 0,184836106894277 
882	 0,184481616191227 
883	 0,183891872116717 
884	 0,185082406167767 
885	 0,185776244367788 
886	 0,185305625473117 
887	 0,184858080511393 
888	 0,184633045885688 
889	 0,184768449264689 
890	 0,185440941799008 
891	 0,186042571416994 
892	 0,185222541930036 
893	 0,18434822938352 
894	 0,184022413984359 
895	 0,184594785540071 
896	 0,185283926765303 
897	 0,185424075227171 
898	 0,184962521566169 
899	 0,184523895011083 
900	 0,185208057075589 
901	 0,186052555139932 
902	 0,186596261585813 
903	 0,186347608249845 
904	 0,185892637357991 
905	 0,185613835878998 
906	 0,18516899870306 
907	 0,185032175946833 
908	 0,185882073171901 
909	 0,186509368188602 
910	 0,186519933710125 
911	 0,185716931123409 
912	 0,18519344821025 
913	 0,185393884638851 
914	 0,185268600024811 
915	 0,185312932499134 
916	 0,186121203402088 
917	 0,186791936412411 
918	 0,187080688483914 
919	 0,186848217770098 
920	 0,186924629940918 
921	 0,187354020209161 
922	 0,186661844993369 
923	 0,186356702790538 
924	 0,187453726791641 
925	 0,186532747491159 
926	 0,184783667729667 
927	 0,185330074216665 
928	 0,185421641609871 
929	 0,184819851171781 
930	 0,185676968485711 
931	 0,186013279574507 
932	 0,184917823736187 
933	 0,18468283195033 
934	 0,185024164477423 
935	 0,185226548912865 
936	 0,185000168686963 
937	 0,184414894917322 
938	 0,183860928296204 
939	 0,183661216369355 
940	 0,183918983562654 
941	 0,184232828243824 
942	 0,184891137072253 
943	 0,18597847691244 
944	 0,185515220632305 
945	 0,184158249170289 
946	 0,1837215735861 
947	 0,183757084959553 
948	 0,184078905199719 
949	 0,184440289515569 
950	 0,184213682708873 
951	 0,183247906985952 
952	 0,183112551344649 
953	 0,183256936013142 
954	 0,182824703477926 
955	 0,182268628921947 
956	 0,181927437082959 
957	 0,182498762402211 
958	 0,182656821670857 
959	 0,182086151329147 
960	 0,181637773052532 
961	 0,181666168661893 
962	 0,182313552888687 
963	 0,182660641903412 
964	 0,182568854392833 
965	 0,182075846201947 
966	 0,181582398018047 
967	 0,181400868224774 
968	 0,182264813445185 
969	 0,181968869057034 
970	 0,180063036455333 
971	 0,179487657405359 
972	 0,180377480454562 
973	 0,182294079322575 
974	 0,181048616502652 
975	 0,179214615534182 
976	 0,182709994355325 
977	 0,183054697406054 
978	 0,179824968781635 
979	 0,179933458149734 
980	 0,180909292577437 
981	 0,181489522802483 
982	 0,181771292009135 
983	 0,181314969347682 
984	 0,17998215544012 
985	 0,181579335079707 
986	 0,184174795731071 
987	 0,182832194073111 
988	 0,179978276795749 
989	 0,177426808462639 
990	 0,178740404720879 
991	 0,180779777434196 
992	 0,181837998041159 
993	 0,182993308358067 
994	 0,183722719354018 
995	 0,183416581868935 
996	 0,181646032200042 
997	 0,180326947014689 
998	 0,18320520834675 
999	 0,184763693154708 
1000	 0,184530603195239 
1001	 0,187515383894161 
1002	 0,187624181735777 
1003	 0,183220323119029 
1004	 0,183736581030359 
1005	 0,185694813055567 
1006	 0,185051802206166 
1007	 0,18380991398507 
1008	 0,18287247357816 
1009	 0,183231676437064 
1010	 0,183895014371524 
1011	 0,184922533985083 
1012	 0,187828656932363 
1013	 0,188929350953571 
1014	 0,186931028511154 
1015	 0,184478048803109 
1016	 0,183487573066856 
1017	 0,18530404715828 
1018	 0,188136084509211 
1019	 0,18945661771928 
1020	 0,186164467938642 
1021	 0,185403021181644 
1022	 0,187308894912755 
1023	 0,186886683998201 
1024	 0,188340058886973 
1025	 0,191238385402158 
1026	 0,187505813193396 
1027	 0,184370064636451 
1028	 0,186284688715729 
1029	 0,187550246104887 
1030	 0,187668947813697 
1031	 0,186949954925622 
1032	 0,187885007490954 
1033	 0,189607337760901 
1034	 0,189299001749729 
1035	 0,190266387107966 
1036	 0,191941863037806 
1037	 0,18899041215049 
1038	 0,187490025981367 
1039	 0,18961015491917 
1040	 0,190254937580244 
1041	 0,190441955740599 
1042	 0,191231343952319 
1043	 0,192995525053905 
1044	 0,193532019226565 
1045	 0,190088074457938 
1046	 0,190718061164866 
1047	 0,192493869244446 
1048	 0,183869505027118 
1049	 0,181579279628364 
1050	 0,188672463102946 
1051	 0,196551007055374 
1052	 0,195754853465107 
1053	 0,18491947972062 
1054	 0,187406392323572 
1055	 0,192880091276791 
1056	 0,191516112647165 
1057	 0,189759200945688 
1058	 0,187401218355001 
1059	 0,183343692684603 
1060	 0,180067970607008 
1061	 0,181997890425008 
1062	 0,198136097178794 
1063	 0,200739357306499 
1064	 0,189870692134497 
1065	 0,200832589621016 
1066	 0,200116817201526 
1067	 0,179659628872816 
1068	 0,181428813045801 
1069	 0,18786532207387 
1070	 0,185403042957857 
1071	 0,19056835128081 
1072	 0,20139966613516 
1073	 0,212485924067168 
1074	 0,205476151864412 
1075	 0,187371282261908 
