Wavelength	AURAY00054.asd
325	-7,09220066598677E-02 
326	 2,83698952843934E-02 
327	 2,62438447484468E-02 
328	-0,11826789935242 
329	-7,21868690740883E-02 
330	 6,16106814591969E-02 
331	 0,17894734760234 
332	 0,123600457750835 
333	-2,46573004384093E-02 
334	-1,16773597278734E-02 
335	 8,46376687425368E-02 
336	 0,175418977925057 
337	 2,00961561309434E-02 
338	-8,94210003085256E-02 
339	 0,105677314587037 
340	 0,14126034842147 
341	 4,38510862034677E-02 
342	 3,25638753922397E-02 
343	 3,77440143950619E-02 
344	 3,69280953091272E-02 
345	 1,56402380254428E-02 
346	-0,015870401700828 
347	-5,12779413520715E-02 
348	-3,22412983353337E-02 
349	 2,17331517960378E-02 
350	 4,11613625059954E-02 
351	 0,037364627542807 
352	 1,46259901072351E-02 
353	-3,02145574169927E-02 
354	-5,70629323041477E-02 
355	-1,71472443087743E-02 
356	 1,78549096055457E-02 
357	 2,93487957181088E-02 
358	-1,10676382580242E-02 
359	-0,029687999433457 
360	 1,56182962475963E-03 
361	 3,51174032943014E-02 
362	 5,06669201827621E-02 
363	 2,93631618725036E-02 
364	 0,026507749718256 
365	 4,60506436212002E-02 
366	 5,38588013607345E-02 
367	 4,53032778895226E-02 
368	 2,21062715049453E-02 
369	 3,15388258181772E-02 
370	 4,72234808188226E-02 
371	 1,33068641134462E-02 
372	-2,50006195488809E-03 
373	 1,41286646701695E-02 
374	 0,036247463666885 
375	 4,34589567175716E-02 
376	 2,26136586751742E-02 
377	-1,83588047137199E-02 
378	-4,15322564256111E-02 
379	 3,16457186787417E-02 
380	 6,10113138736103E-02 
381	 2,75159813415748E-02 
382	 3,91612367339796E-02 
383	 5,06968134919854E-02 
384	 1,68152339377912E-02 
385	 1,02613120422822E-02 
386	 2,75863214123018E-02 
387	 2,29951985587412E-02 
388	 2,53480556889102E-02 
389	 4,02431013933845E-02 
390	 3,92464132802524E-02 
391	 3,29412412375674E-02 
392	 0,036345123309543 
393	 3,45221879005942E-02 
394	 2,73861913304852E-02 
395	 2,40250560381211E-02 
396	 1,31643864896094E-02 
397	-4,06450645627756E-03 
398	 2,06131166476448E-02 
399	 5,01529172835342E-02 
400	 2,54104876261181E-02 
401	 1,09654784833402E-02 
402	 0,017983731772897 
403	 2,17828484181559E-02 
404	 2,23453141971779E-02 
405	 2,03986689472679E-02 
406	 0,020491667891015 
407	 2,10430282285565E-02 
408	 1,67510527745325E-02 
409	 1,63033717024735E-02 
410	 0,021067269949751 
411	 2,53349355861131E-02 
412	 2,74413347649804E-02 
413	 0,02624864654824 
414	 2,53334680324218E-02 
415	 2,44138467767995E-02 
416	 1,99908611493977E-02 
417	 1,92030541200391E-02 
418	 2,32766201597342E-02 
419	 2,09087160037944E-02 
420	 1,59069902555124E-02 
421	 1,43687941950186E-02 
422	 1,64701329987308E-02 
423	 1,97739718456439E-02 
424	 1,59853048401257E-02 
425	 1,37466842459899E-02 
426	 1,75889604221694E-02 
427	 1,95210600100584E-02 
428	 1,91301366963736E-02 
429	 1,74211175107933E-02 
430	 1,84587262673019E-02 
431	 2,19557037417535E-02 
432	 2,09240143058665E-02 
433	 1,84828263303558E-02 
434	 1,76124784317283E-02 
435	 1,74972023797023E-02 
436	 1,71541467916696E-02 
437	 1,36682006963312E-02 
438	 1,37534495442261E-02 
439	 1,86983363933231E-02 
440	 1,86893363241721E-02 
441	 1,64286483825348E-02 
442	 1,63893858404375E-02 
443	 1,62351317279843E-02 
444	 1,63915990508024E-02 
445	 2,00219016647582E-02 
446	 2,26663660126491E-02 
447	 2,18564241315932E-02 
448	 0,022387105901364 
449	 2,30351357656096E-02 
450	 2,01705195191947E-02 
451	 1,80884256887637E-02 
452	 1,81153870178079E-02 
453	 1,95163913840781E-02 
454	 2,03822347264914E-02 
455	 0,019185480439505 
456	 2,02694361229223E-02 
457	 2,25123542348756E-02 
458	 2,10781825641798E-02 
459	 1,77833614530218E-02 
460	 1,44266781430092E-02 
461	 1,70039824318827E-02 
462	 2,05288096325732E-02 
463	 1,77573255750857E-02 
464	 1,73105222331227E-02 
465	 2,00039094963991E-02 
466	 2,10975507166879E-02 
467	 2,11687865788533E-02 
468	 2,06463929173845E-02 
469	 1,99124867828094E-02 
470	 1,96664525591158E-02 
471	 2,13621429425199E-02 
472	 2,06665799834389E-02 
473	 1,73543407099349E-02 
474	 1,76099419558681E-02 
475	 1,87279713491023E-02 
476	 1,78782590915788E-02 
477	 1,95218808419184E-02 
478	 2,21758609434763E-02 
479	 1,92637462858098E-02 
480	 1,76438690770689E-02 
481	 1,99760088872338E-02 
482	 2,02777032212213E-02 
483	 0,019669778555106 
484	 2,08038346657632E-02 
485	 1,97974409128635E-02 
486	 1,71083221715723E-02 
487	 1,85190229116094E-02 
488	 1,94715892383026E-02 
489	 1,69344182342176E-02 
490	 1,80055923434638E-02 
491	 2,06956087097894E-02 
492	 1,77176909353638E-02 
493	 1,57089686948021E-02 
494	 1,65005152922599E-02 
495	 0,016367805960942 
496	 1,63302782396322E-02 
497	 1,77843619621921E-02 
498	 1,76805674114585E-02 
499	 1,64861814435513E-02 
500	 1,77769328705673E-02 
501	 1,94356347441211E-02 
502	 1,99149218172514E-02 
503	 1,68085713502897E-02 
504	 1,34050121035693E-02 
505	 1,59225155809616E-02 
506	 1,82264877358746E-02 
507	 1,87404867783017E-02 
508	 0,019462592897183 
509	 1,95502180480193E-02 
510	 1,83403859582242E-02 
511	 1,83258218718445E-02 
512	 1,94676583927256E-02 
513	 2,05467302678833E-02 
514	 2,07533337817431E-02 
515	 1,97282958507745E-02 
516	 1,80302429929301E-02 
517	 0,01654438382326 
518	 1,62696856685665E-02 
519	 0,017761135538779 
520	 2,01462441537466E-02 
521	 2,01284845298945E-02 
522	 1,94618911627999E-02 
523	 0,019416659700371 
524	 1,88193513714532E-02 
525	 1,81166097835449E-02 
526	 1,85714042275947E-02 
527	 1,95487289775217E-02 
528	 2,05323063274496E-02 
529	 2,02914495250611E-02 
530	 1,92516805200868E-02 
531	 1,80355237174475E-02 
532	 1,89289986588882E-02 
533	 2,09003659740706E-02 
534	 1,88910504338573E-02 
535	 1,74322111784594E-02 
536	 1,88906467594247E-02 
537	 1,89945613692753E-02 
538	 1,83665495866075E-02 
539	 1,92806520701184E-02 
540	 1,96523832211783E-02 
541	 1,90384071028111E-02 
542	 1,83349040763489E-02 
543	 1,83510843568507E-02 
544	 1,96981294194696E-02 
545	 0,019589530160985 
546	 1,82298712068922E-02 
547	 0,017752949528958 
548	 1,79639029964887E-02 
549	 1,86597509795253E-02 
550	 1,87613674715246E-02 
551	 1,84879727405283E-02 
552	 1,83727393228055E-02 
553	 1,86747920616254E-02 
554	 1,93124981549175E-02 
555	 0,019570757540601 
556	 1,97529231856158E-02 
557	 2,00770061448558E-02 
558	 1,97769697854843E-02 
559	 1,90909919551636E-02 
560	 1,89415933033134E-02 
561	 1,86457899944203E-02 
562	 1,81233735739532E-02 
563	 1,84732558784075E-02 
564	 1,90863645039449E-02 
565	 1,90462718174843E-02 
566	 1,92949130972276E-02 
567	 1,96942844317362E-02 
568	 1,88574258601374E-02 
569	 1,83014546953244E-02 
570	 1,90260635367302E-02 
571	 0,019619448018401 
572	 1,99863689982642E-02 
573	 2,04596028608985E-02 
574	 2,08536396651105E-02 
575	 2,10250491745064E-02 
576	 2,06050170020767E-02 
577	 2,00898078752396E-02 
578	 2,00608942343195E-02 
579	 2,01943692473657E-02 
580	 2,05673369292337E-02 
581	 2,17896545456239E-02 
582	 2,23487785020017E-02 
583	 2,15492712245231E-02 
584	 2,14158448424271E-02 
585	 2,16716578919069E-02 
586	 0,021310075737364 
587	 2,11291255545357E-02 
588	 0,021317142771884 
589	 0,021641608083012 
590	 2,18040445348616E-02 
591	 2,15511674023872E-02 
592	 2,12288905315407E-02 
593	 2,09526438090788E-02 
594	 2,06636860258595E-02 
595	 0,021131476131382 
596	 2,24240648185628E-02 
597	 2,24860939257264E-02 
598	 2,17680822796209E-02 
599	 2,12704781015007E-02 
600	 2,10401426554819E-02 
601	 2,10433723080764E-02 
602	 2,08521218949114E-02 
603	 2,08038159339012E-02 
604	 2,11155756285943E-02 
605	 2,10419801524613E-02 
606	 2,06770899466494E-02 
607	 2,04901788393643E-02 
608	 2,07437878326291E-02 
609	 2,13969510363658E-02 
610	 2,15688096647846E-02 
611	 2,12398682453733E-02 
612	 2,05007870923979E-02 
613	 2,02081045759057E-02 
614	 2,03352376957427E-02 
615	 1,98915370296603E-02 
616	 1,97020803644511E-02 
617	 2,01937708341293E-02 
618	 2,01821748071455E-02 
619	 1,98380171163631E-02 
620	 1,98458742904135E-02 
621	 1,98287246193135E-02 
622	 0,019764508806831 
623	 2,00763146469657E-02 
624	 2,04550910341848E-02 
625	 2,05597163554283E-02 
626	 0,020427015823427 
627	 2,01807178752195E-02 
628	 2,00506112204843E-02 
629	 2,04308830241293E-02 
630	 2,13327521178633E-02 
631	 2,12055857502867E-02 
632	 2,07177210896979E-02 
633	 0,021270835602243 
634	 2,14174210016638E-02 
635	 2,10517263487424E-02 
636	 2,14181286753471E-02 
637	 2,22612696155499E-02 
638	 2,32528188420712E-02 
639	 2,34620484355178E-02 
640	 2,31621208601142E-02 
641	 2,35655134997134E-02 
642	 2,36747115852892E-02 
643	 0,023291290500444 
644	 2,36135725516315E-02 
645	 2,43188331579535E-02 
646	 2,48455805560802E-02 
647	 2,54067442701892E-02 
648	 2,58240868643271E-02 
649	 0,025389062857803 
650	 2,48916875176493E-02 
651	 2,49089974316914E-02 
652	 0,025493886411458 
653	 2,60912081172205E-02 
654	 2,55555814230758E-02 
655	 2,51712256582258E-02 
656	 2,52733480754789E-02 
657	 2,52235545475183E-02 
658	 2,49678294475708E-02 
659	 2,45150601143035E-02 
660	 2,46363333429113E-02 
661	 2,50564850580713E-02 
662	 2,45222458232971E-02 
663	 2,37747137297378E-02 
664	 2,32293394266659E-02 
665	 2,30082632436558E-02 
666	 2,28309518906792E-02 
667	 2,22031547380361E-02 
668	 2,21089102653027E-02 
669	 2,25270835693488E-02 
670	 2,21989186950634E-02 
671	 2,19202091599842E-02 
672	 2,22574923174904E-02 
673	 2,16706289622125E-02 
674	 0,020697051894503 
675	 2,12024750095466E-02 
676	 2,21224552866003E-02 
677	 2,27503988416313E-02 
678	 2,14294638375782E-02 
679	 2,01410495715881E-02 
680	 2,13442584720719E-02 
681	 2,17801107619955E-02 
682	 2,12264006872988E-02 
683	 0,021550827497722 
684	 2,20550681308855E-02 
685	 2,23073356660289E-02 
686	 2,22372572110328E-02 
687	 2,21006419897463E-02 
688	 2,23213915867436E-02 
689	 2,30789369927438E-02 
690	 2,42142503275289E-02 
691	 2,46839252924453E-02 
692	 2,54114632595087E-02 
693	 2,71963258744479E-02 
694	 2,86931072824082E-02 
695	 3,00117238694436E-02 
696	 3,20094449879485E-02 
697	 3,46175722993592E-02 
698	 3,77977869919142E-02 
699	 4,11955506614546E-02 
700	 4,51046025204033E-02 
701	 0,049943540540013 
702	 5,46601903642246E-02 
703	 5,93009848851966E-02 
704	 6,50090550116836E-02 
705	 7,11537723349965E-02 
706	 7,72633997914314E-02 
707	 8,30396827073525E-02 
708	 8,87938477552286E-02 
709	 0,09523763051092 
710	 0,101391522214303 
711	 0,107028406566617 
712	 0,11258412518576 
713	 0,118263167372987 
714	 0,124212611542722 
715	 0,130080526828567 
716	 0,13566980851313 
717	 0,140632767096687 
718	 0,145742826626426 
719	 0,151126538196806 
720	 0,155479965617774 
721	 0,159209006954499 
722	 0,162990113255987 
723	 0,166659125368608 
724	 0,170181049777753 
725	 0,173521626796433 
726	 0,176560438355389 
727	 0,179231551062697 
728	 0,181623820531016 
729	 0,183867577788113 
730	 0,186142558714386 
731	 0,188507106533399 
732	 0,190799622895287 
733	 0,192229679660034 
734	 0,193537762221532 
735	 0,195362537916688 
736	 0,19697766458482 
737	 0,19831532246323 
738	 0,199563094583301 
739	 0,20058530180124 
740	 0,201415032637582 
741	 0,202454917110206 
742	 0,203575374957367 
743	 0,204579153897732 
744	 0,205064083587738 
745	 0,205385167980848 
746	 0,207038199064909 
747	 0,208073480000555 
748	 0,207655474921406 
749	 0,207953023094637 
750	 0,208684561489921 
751	 0,20899991490271 
752	 0,209485359066303 
753	 0,210128617434481 
754	 0,210337175860615 
755	 0,210438468563258 
756	 0,210719928879596 
757	 0,211474229987949 
758	 0,212342803511918 
759	 0,212536151167514 
760	 0,212506071074605 
761	 0,212502845842012 
762	 0,212924365903628 
763	 0,213476372625787 
764	 0,213851740155145 
765	 0,214042304238984 
766	 0,214155296524644 
767	 0,214524451821663 
768	 0,214651609654537 
769	 0,214465093632393 
770	 0,214766757989988 
771	 0,21518900220898 
772	 0,215231913544778 
773	 0,215486280045666 
774	 0,215903294851028 
775	 0,215895274877972 
776	 0,21605713318333 
777	 0,216599984773931 
778	 0,216709430408129 
779	 0,216588292806876 
780	 0,216664566334113 
781	 0,21684267828343 
782	 0,217040091072375 
783	 0,216974034335027 
784	 0,217115323573112 
785	 0,217696241199275 
786	 0,217880850069787 
787	 0,2178366780208 
788	 0,218080168819365 
789	 0,218322417195438 
790	 0,218495478283776 
791	 0,218674026452231 
792	 0,218787813570703 
793	 0,218788180410482 
794	 0,21877115509064 
795	 0,218804443108979 
796	 0,21900238766699 
797	 0,219080396704488 
798	 0,219030522994223 
799	 0,219270616508233 
800	 0,21975025429433 
801	 0,220349062948474 
802	 0,22036406494762 
803	 0,21998963604873 
804	 0,22003927545186 
805	 0,220277897127031 
806	 0,220589276343935 
807	 0,220675226932816 
808	 0,22082255165091 
809	 0,221345876084674 
810	 0,221938051840463 
811	 0,222318904086326 
812	 0,22186585314452 
813	 0,22170184705008 
814	 0,222207799043013 
815	 0,22238788380832 
816	 0,222485876189282 
817	 0,222885255150902 
818	 0,223378858751942 
819	 0,223824829942288 
820	 0,223973252824973 
821	 0,223974323692337 
822	 0,224025779725483 
823	 0,22490840323853 
824	 0,225631261012212 
825	 0,224875778663414 
826	 0,224803548755073 
827	 0,225531811639975 
828	 0,225700624877944 
829	 0,225620322932124 
830	 0,225557919855695 
831	 0,226314426859384 
832	 0,227170880945621 
833	 0,227052129962727 
834	 0,226983058126915 
835	 0,227124019497502 
836	 0,227077999641257 
837	 0,227238641334395 
838	 0,227724145475511 
839	 0,227785087216067 
840	 0,227710284933267 
841	 0,228020509103712 
842	 0,228161250876737 
843	 0,228048342793608 
844	 0,227794664340387 
845	 0,227938638107381 
846	 0,228666474298265 
847	 0,229010986130744 
848	 0,228994065968894 
849	 0,228821053973034 
850	 0,229091441377379 
851	 0,229574641058194 
852	 0,228888746606268 
853	 0,228510484315738 
854	 0,229100814979023 
855	 0,22923030295928 
856	 0,228969688566567 
857	 0,22864194487547 
858	 0,229071787391635 
859	 0,229944529851898 
860	 0,229519520477587 
861	 0,22920472293857 
862	 0,229580532673955 
863	 0,229154415030975 
864	 0,228982884312561 
865	 0,230559757606382 
866	 0,230958925744626 
867	 0,230125045502848 
868	 0,230102540709556 
869	 0,230381342548725 
870	 0,230734619711806 
871	 0,231066926996225 
872	 0,231361166892637 
873	 0,231616173982461 
874	 0,231671991046668 
875	 0,23162810708315 
876	 0,231841905418459 
877	 0,232148499295263 
878	 0,23246434539434 
879	 0,23274320993731 
880	 0,23295425153169 
881	 0,233085872028188 
882	 0,233374342350863 
883	 0,233844718573811 
884	 0,234434800896645 
885	 0,235062610337 
886	 0,235494220418616 
887	 0,234805119825754 
888	 0,234203210544293 
889	 0,234784913365905 
890	 0,235057419874733 
891	 0,234842450197334 
892	 0,234303337019242 
893	 0,234204112835714 
894	 0,234702272831855 
895	 0,2351742859939 
896	 0,235369145592942 
897	 0,235180506582696 
898	 0,235403115890599 
899	 0,235899662936366 
900	 0,236167841802179 
901	 0,2369030880194 
902	 0,237856697278189 
903	 0,237448696359817 
904	 0,236862161171415 
905	 0,236876303257345 
906	 0,237222882780264 
907	 0,237512356856643 
908	 0,237246778694017 
909	 0,23673549059903 
910	 0,236264342443173 
911	 0,236405540770297 
912	 0,236726072518923 
913	 0,236930938189327 
914	 0,236648726324556 
915	 0,236394697853854 
916	 0,236749913241774 
917	 0,23704925018572 
918	 0,237181603273642 
919	 0,237300612881636 
920	 0,236913534251848 
921	 0,23614526384757 
922	 0,236316983124966 
923	 0,236973425480014 
924	 0,237507292133824 
925	 0,236315872992169 
926	 0,234737926378401 
927	 0,235664949784179 
928	 0,235820530837457 
929	 0,234675185763835 
930	 0,233852094333324 
931	 0,233500575921497 
932	 0,233558720361183 
933	 0,232837250921351 
934	 0,231862274401949 
935	 0,231482699219877 
936	 0,231593129963898 
937	 0,231790653983583 
938	 0,231056403815622 
939	 0,229986095520463 
940	 0,229089007257634 
941	 0,22976559333722 
942	 0,229900894363727 
943	 0,227818421491414 
944	 0,227036913133781 
945	 0,227156273098424 
946	 0,226325755607333 
947	 0,22547138535096 
948	 0,224752250658653 
949	 0,223872775112645 
950	 0,223052772909833 
951	 0,222346001380376 
952	 0,221315682399442 
953	 0,220065513954196 
954	 0,218791803063732 
955	 0,21757282855681 
956	 0,216633010309008 
957	 0,216434866555478 
958	 0,216639326395681 
959	 0,216799946281322 
960	 0,215658688407783 
961	 0,214514322105596 
962	 0,214221941467131 
963	 0,212832292565181 
964	 0,211341246860848 
965	 0,211602330433736 
966	 0,211394959240941 
967	 0,210469235802227 
968	 0,209702482590411 
969	 0,209918334397188 
970	 0,2111070912384 
971	 0,211116821389354 
972	 0,210614457560174 
973	 0,210281300215755 
974	 0,208970326495175 
975	 0,208045121022455 
976	 0,210183712492931 
977	 0,210942293116549 
978	 0,209862729078248 
979	 0,209939122610327 
980	 0,210525447513866 
981	 0,211168438738776 
982	 0,211072191522425 
983	 0,210559886876015 
984	 0,210159118360427 
985	 0,211305919560703 
986	 0,213069468380137 
987	 0,213247011468523 
988	 0,212208850269859 
989	 0,210621118409753 
990	 0,210174360105532 
991	 0,211551984716649 
992	 0,214425607291951 
993	 0,214757023960229 
994	 0,214449643495712 
995	 0,215650329974396 
996	 0,215269456981823 
997	 0,213380030120849 
998	 0,210991622431902 
999	 0,21218382497802 
1000	 0,216817604533873 
1001	 0,220418560353719 
1002	 0,220429785230096 
1003	 0,216504915314534 
1004	 0,214987695389519 
1005	 0,216342779592356 
1006	 0,219798400919095 
1007	 0,217409275191223 
1008	 0,213711910735434 
1009	 0,219064844397004 
1010	 0,221676267127875 
1011	 0,220270910439172 
1012	 0,221620948453138 
1013	 0,223301164689972 
1014	 0,224014294935374 
1015	 0,222562420874132 
1016	 0,220922883071911 
1017	 0,221063710798265 
1018	 0,22410537045687 
1019	 0,226830413748052 
1020	 0,22440896584608 
1021	 0,226057883292521 
1022	 0,230403995579906 
1023	 0,227262542803005 
1024	 0,226076622768011 
1025	 0,229145577249443 
1026	 0,231533151300432 
1027	 0,231137679101437 
1028	 0,227486938440675 
1029	 0,227585136703045 
1030	 0,227711087874101 
1031	 0,223295421708239 
1032	 0,224239979794143 
1033	 0,229397403302306 
1034	 0,232674756529285 
1035	 0,232604763982787 
1036	 0,230124081269095 
1037	 0,230284807709109 
1038	 0,232750981095566 
1039	 0,23581151159136 
1040	 0,231158089072218 
1041	 0,228642944099086 
1042	 0,235204260975934 
1043	 0,235354738536969 
1044	 0,231282472974895 
1045	 0,229015621311247 
1046	 0,232669118867565 
1047	 0,238135773364678 
1048	 0,233670974008105 
1049	 0,229594767371829 
1050	 0,229708801086381 
1051	 0,235616835963284 
1052	 0,235909320212959 
1053	 0,227898578877947 
1054	 0,233217457116711 
1055	 0,237570147479629 
1056	 0,229579729339182 
1057	 0,229377873383238 
1058	 0,233723556090864 
1059	 0,234156454054286 
1060	 0,234556655183926 
1061	 0,236872026169207 
1062	 0,244754932762818 
1063	 0,238517351270623 
1064	 0,222076431708069 
1065	 0,23103688224015 
1066	 0,238618103849175 
1067	 0,232968396403638 
1068	 0,219390321509096 
1069	 0,212739660335596 
1070	 0,221766146310834 
1071	 0,224162705729015 
1072	 0,230882575626724 
1073	 0,254272546644938 
1074	 0,238199968447163 
1075	 0,205866573129326 
