Wavelength	AURAY00801.asd
325	 0,107986257042678 
326	 9,06954260114111E-02 
327	 8,58699024440691E-02 
328	 9,92181490132453E-02 
329	 0,129019397377904 
330	 0,157483733902822 
331	 0,173118836750274 
332	 9,59324353581591E-02 
333	-1,62205502642562E-02 
334	 3,02997764236216E-02 
335	 0,098901020442769 
336	 0,126889520345906 
337	 6,51406303216557E-02 
338	-5,64851144193642E-03 
339	-6,12886770640596E-03 
340	 4,34978297500063E-02 
341	 0,100445711923736 
342	 0,097913757050102 
343	 0,104474287934139 
344	 0,134920996929131 
345	 0,142703484492645 
346	 0,108865180723665 
347	 1,80705070348899E-02 
348	 6,60648123988937E-04 
349	 4,57390704799828E-02 
350	 4,66429836047842E-02 
351	 4,17002048880433E-02 
352	 4,07884061917718E-02 
353	 2,75888776631368E-02 
354	 1,75514066239244E-02 
355	 3,11644712047986E-02 
356	 0,059940775681712 
357	 8,37397165229458E-02 
358	 3,97074731448991E-02 
359	-1,07049823242425E-02 
360	-3,19804678698311E-02 
361	 1,85909694182464E-02 
362	 7,46869940481335E-02 
363	 4,44037640070983E-02 
364	 2,85819915536353E-02 
365	 4,37552244585148E-02 
366	 6,37629218316606E-02 
367	 6,51070845723378E-02 
368	 3,67215118100993E-02 
369	 2,48295810881724E-02 
370	 2,87645781013445E-02 
371	 3,47310428434533E-02 
372	 4,00627032059589E-02 
373	 4,12925224988093E-02 
374	 3,29359172250798E-02 
375	 2,47594355729548E-02 
376	 2,29506965600421E-02 
377	 1,76478370881549E-02 
378	 1,50842048265301E-02 
379	 3,27833277399135E-02 
380	 4,12762680889485E-02 
381	 3,48840534587003E-02 
382	 2,52861057860951E-02 
383	 0,021587963804362 
384	 0,030612329611793 
385	 4,00287346330009E-02 
386	 0,045688784479292 
387	 0,044352728254402 
388	 4,12767073659621E-02 
389	 4,00314188248667E-02 
390	 5,02265955582263E-02 
391	 5,14402197183788E-02 
392	 1,98071480814001E-02 
393	 2,35818823081562E-02 
394	 5,39104991516475E-02 
395	 4,53439536332015E-02 
396	 2,27848962443103E-02 
397	 5,17546298213134E-03 
398	 1,63113406395672E-02 
399	 3,58662889955539E-02 
400	 3,19793835484071E-02 
401	 2,94529638744381E-02 
402	 3,14398354900311E-02 
403	 2,48239889924446E-02 
404	 2,29669464924818E-02 
405	 3,31838005105779E-02 
406	 3,69803097403682E-02 
407	 3,33429765885693E-02 
408	 2,49857116409247E-02 
409	 2,24775790913473E-02 
410	 2,61925371147829E-02 
411	 2,05963274101605E-02 
412	 1,53677909269731E-02 
413	 0,019524379538968 
414	 1,77602909068121E-02 
415	 1,32883267319827E-02 
416	 2,19414813927009E-02 
417	 2,74425788079266E-02 
418	 2,34126493484723E-02 
419	 1,47949253703121E-02 
420	 8,06575122051741E-03 
421	 1,06644914681197E-02 
422	 1,68688223486798E-02 
423	 2,18103082597524E-02 
424	 1,53082293589337E-02 
425	 9,43078216272042E-03 
426	 1,11526080602857E-02 
427	 1,40670167645203E-02 
428	 1,64305932299246E-02 
429	 1,70572314814846E-02 
430	 1,51823184225451E-02 
431	 1,25911901784277E-02 
432	 1,82997151466506E-02 
433	 0,021926053842511 
434	 1,48683420919952E-02 
435	 1,26411935713236E-02 
436	 1,55413443123004E-02 
437	 1,67827158360944E-02 
438	 1,75140376605796E-02 
439	 1,80979944219422E-02 
440	 1,98223267249936E-02 
441	 2,03028323539399E-02 
442	 1,64720540037381E-02 
443	 1,53667478095308E-02 
444	 1,76059459270659E-02 
445	 1,87752489067983E-02 
446	 2,06919143016791E-02 
447	 2,37219005543725E-02 
448	 2,15599849131497E-02 
449	 1,70968895662369E-02 
450	 1,70649380711858E-02 
451	 1,83121062921222E-02 
452	 1,95924388036054E-02 
453	 1,95906512982073E-02 
454	 1,94243294601963E-02 
455	 2,01324659865177E-02 
456	 2,04030368187089E-02 
457	 2,01161618967522E-02 
458	 1,99172583736381E-02 
459	 1,80515093447224E-02 
460	 1,45171158544347E-02 
461	 1,37030399824338E-02 
462	 1,53314361237286E-02 
463	 1,84151621774599E-02 
464	 0,020088407747941 
465	 1,97218640334453E-02 
466	 1,83006516912508E-02 
467	 1,73049567007778E-02 
468	 1,77909980031096E-02 
469	 1,95196277795522E-02 
470	 2,08955453439782E-02 
471	 1,89343668874741E-02 
472	 1,67849436497605E-02 
473	 1,60783912953251E-02 
474	 1,92829382594641E-02 
475	 2,12237814412313E-02 
476	 1,71745468869179E-02 
477	 1,75705132831198E-02 
478	 2,09555806115081E-02 
479	 1,66476404716703E-02 
480	 1,54697590129784E-02 
481	 2,10295752155741E-02 
482	 2,08418947874471E-02 
483	 1,75929287014732E-02 
484	 0,017084160344534 
485	 1,75936685427928E-02 
486	 1,81246768117661E-02 
487	 1,61624407460614E-02 
488	 1,45207055704953E-02 
489	 1,52705115737399E-02 
490	 1,67825362963326E-02 
491	 1,75211683023191E-02 
492	 1,42507054254273E-02 
493	 1,33218544006071E-02 
494	 1,60221076850755E-02 
495	 1,58385523935687E-02 
496	 1,45826617207757E-02 
497	 1,48250109976006E-02 
498	 1,45237551374971E-02 
499	 1,40648699423862E-02 
500	 1,60431073315147E-02 
501	 1,75685677865044E-02 
502	 1,69439101912705E-02 
503	 0,014497566536824 
504	 1,24650848459945E-02 
505	 1,46141120441481E-02 
506	 1,63602903477281E-02 
507	 1,66072603613855E-02 
508	 1,73100098645835E-02 
509	 1,76976258001125E-02 
510	 1,71306662383029E-02 
511	 1,76264689945702E-02 
512	 1,88956346489146E-02 
513	 1,92843225936128E-02 
514	 1,91210228949333E-02 
515	 1,84969607584037E-02 
516	 1,72354744949163E-02 
517	 1,60427410991961E-02 
518	 1,58206155957156E-02 
519	 1,66301862336297E-02 
520	 1,79032341805672E-02 
521	 1,76256905857802E-02 
522	 1,75611415376681E-02 
523	 1,87895792594163E-02 
524	 1,83379195487851E-02 
525	 1,68527800030523E-02 
526	 1,67052763579371E-02 
527	 0,01716269208352 
528	 1,78293648215681E-02 
529	 1,77903275026429E-02 
530	 1,74296193838743E-02 
531	 1,72780609461312E-02 
532	 1,78617758780645E-02 
533	 1,86913743882545E-02 
534	 1,79175814503459E-02 
535	 1,67916385421658E-02 
536	 1,62215273388603E-02 
537	 1,70408512782786E-02 
538	 1,83543044834901E-02 
539	 1,83761872647928E-02 
540	 1,80973116889272E-02 
541	 1,77827796116491E-02 
542	 1,72129399434533E-02 
543	 1,68509434147928E-02 
544	 1,71089468695702E-02 
545	 1,70226308433215E-02 
546	 1,67048230624413E-02 
547	 0,016995313739171 
548	 1,76689570394152E-02 
549	 1,84414241974733E-02 
550	 1,81509250522688E-02 
551	 1,75785883359318E-02 
552	 0,018168238575167 
553	 1,81099836634718E-02 
554	 1,73487472679736E-02 
555	 1,77704110258805E-02 
556	 1,84112461298301E-02 
557	 1,84408715691382E-02 
558	 1,83658297671504E-02 
559	 1,81126254467931E-02 
560	 1,71956912874685E-02 
561	 0,016637205075617 
562	 1,68225416912359E-02 
563	 1,72069110831654E-02 
564	 1,73350204030172E-02 
565	 1,66905528949387E-02 
566	 1,68640461515348E-02 
567	 1,76451365584142E-02 
568	 1,66956256178779E-02 
569	 1,58532635463997E-02 
570	 1,64250212078303E-02 
571	 1,77236951953282E-02 
572	 1,90366950237522E-02 
573	 1,90540888625018E-02 
574	 1,95467054683733E-02 
575	 2,06562692756204E-02 
576	 1,95313874963643E-02 
577	 1,85413237826986E-02 
578	 2,04689151196182E-02 
579	 2,14640820188596E-02 
580	 2,11248857408637E-02 
581	 2,10567003405095E-02 
582	 2,13944080423969E-02 
583	 2,21190032784341E-02 
584	 2,20444076626357E-02 
585	 2,17143071092726E-02 
586	 2,23898827052462E-02 
587	 2,27886331739543E-02 
588	 2,26442213643352E-02 
589	 2,25532195810316E-02 
590	 2,28287562847877E-02 
591	 0,023650291050114 
592	 2,32992422458167E-02 
593	 2,22430055447512E-02 
594	 2,27295461560885E-02 
595	 2,32071273670742E-02 
596	 2,30090566578833E-02 
597	 2,27604516967654E-02 
598	 2,25605198468886E-02 
599	 2,24382007408064E-02 
600	 2,28639341880906E-02 
601	 2,34952576430061E-02 
602	 2,24335688172227E-02 
603	 2,17126162922623E-02 
604	 2,28004787131495E-02 
605	 2,29361281409232E-02 
606	 2,21181336866449E-02 
607	 2,14360113479141E-02 
608	 2,12118579628992E-02 
609	 2,15091863544133E-02 
610	 2,15526023059347E-02 
611	 2,13422484692072E-02 
612	 2,09756609085118E-02 
613	 2,05347952785582E-02 
614	 2,01192983125152E-02 
615	 1,99026690914961E-02 
616	 1,97656242024179E-02 
617	 1,96429076007361E-02 
618	 1,97218382749908E-02 
619	 0,019775403188837 
620	 1,92816160671355E-02 
621	 1,90255540884853E-02 
622	 1,92510437097818E-02 
623	 1,97686929171187E-02 
624	 2,00948039345156E-02 
625	 1,97751743764979E-02 
626	 1,95658016990281E-02 
627	 1,96227522087132E-02 
628	 1,98259923043895E-02 
629	 2,02703628684119E-02 
630	 2,08535883111383E-02 
631	 2,05567506973548E-02 
632	 0,020045935098354 
633	 0,020607842660675 
634	 2,07035598244255E-02 
635	 2,02140134762263E-02 
636	 0,020496786084987 
637	 2,12114361746494E-02 
638	 2,19805864293176E-02 
639	 2,22444252959799E-02 
640	 2,21705005442207E-02 
641	 2,25391514125031E-02 
642	 2,26062744539852E-02 
643	 2,22299776982218E-02 
644	 2,23484862983811E-02 
645	 0,022833117247098 
646	 2,34011013816982E-02 
647	 2,35900567611687E-02 
648	 2,34157326292846E-02 
649	 2,35301715460163E-02 
650	 0,023234912667537 
651	 2,22211247307131E-02 
652	 2,21510099697154E-02 
653	 2,26607427718327E-02 
654	 2,25764918739537E-02 
655	 2,18145682219582E-02 
656	 2,06759487248766E-02 
657	 2,09495852771993E-02 
658	 2,12991512218017E-02 
659	 2,02815545375175E-02 
660	 1,94132421452334E-02 
661	 1,89349523540781E-02 
662	 1,85447446849638E-02 
663	 1,81730412035544E-02 
664	 1,78108445124095E-02 
665	 1,78240432716207E-02 
666	 0,017744785292374 
667	 1,67486146885295E-02 
668	 1,66492375657593E-02 
669	 1,74400471680301E-02 
670	 1,68830058177364E-02 
671	 1,63441857247407E-02 
672	 1,68470974167975E-02 
673	 1,64168455873926E-02 
674	 1,54627528992643E-02 
675	 1,57402157648969E-02 
676	 1,62703266973412E-02 
677	 1,65845852582914E-02 
678	 1,61058384719609E-02 
679	 1,56467163904789E-02 
680	 1,62101805212826E-02 
681	 1,64325842270378E-02 
682	 1,62553131494614E-02 
683	 1,65132212514431E-02 
684	 0,017106209643775 
685	 1,78630097543686E-02 
686	 1,78403734716965E-02 
687	 1,75957501918306E-02 
688	 1,83444076467448E-02 
689	 1,89869446910173E-02 
690	 1,94515235345637E-02 
691	 2,07968664700919E-02 
692	 0,022657683558053 
693	 2,46550252538647E-02 
694	 0,026715550442304 
695	 2,89193636056419E-02 
696	 0,03142567356293 
697	 0,034692182593834 
698	 3,87849562455122E-02 
699	 0,042683029856595 
700	 4,68377396189833E-02 
701	 5,19481907544266E-02 
702	 5,72827043973212E-02 
703	 6,27727265568936E-02 
704	 6,89715513424138E-02 
705	 7,50932471591868E-02 
706	 0,080697378216785 
707	 8,66828642356685E-02 
708	 9,29374098143977E-02 
709	 9,90421839482737E-02 
710	 0,104886379287349 
711	 0,110436152802485 
712	 0,115784464329934 
713	 0,121048925751947 
714	 0,126327054540062 
715	 0,131565694841786 
716	 0,136543305337858 
717	 0,140688523170913 
718	 0,144817324863857 
719	 0,149188631597564 
720	 0,153097834708374 
721	 0,156637186485471 
722	 0,16001420744586 
723	 0,163008082520505 
724	 0,165621670961357 
725	 0,168039203362338 
726	 0,170139957480376 
727	 0,17193246048822 
728	 0,17401898274679 
729	 0,176238055558764 
730	 0,178170352528656 
731	 0,179781201276748 
732	 0,181086986072879 
733	 0,182255487839592 
734	 0,183375643776725 
735	 0,184519760340287 
736	 0,185665246191825 
737	 0,186701472265069 
738	 0,187372331355692 
739	 0,187915873601313 
740	 0,188523679814714 
741	 0,189698318654544 
742	 0,190733395686795 
743	 0,190792163361369 
744	 0,190844389959912 
745	 0,191215502106535 
746	 0,192164397792163 
747	 0,192974305657733 
748	 0,193253003954386 
749	 0,193306080318894 
750	 0,193439929909101 
751	 0,194066339051346 
752	 0,194399784020269 
753	 0,194350603745981 
754	 0,194401328197595 
755	 0,194821514539572 
756	 0,19570806281267 
757	 0,19601831796311 
758	 0,196001077720968 
759	 0,19656950439158 
760	 0,19663104695476 
761	 0,196157134982192 
762	 0,196687884824914 
763	 0,197462368632526 
764	 0,197703295499182 
765	 0,197911304179185 
766	 0,198089380971812 
767	 0,198009594077544 
768	 0,197921612377298 
769	 0,197985443432824 
770	 0,198432997027525 
771	 0,198891678496319 
772	 0,198917387818591 
773	 0,199198535693752 
774	 0,199633734960886 
775	 0,199437847941507 
776	 0,199154290927413 
777	 0,199097624403251 
778	 0,199312454721069 
779	 0,199567401703547 
780	 0,19951807334317 
781	 0,19951374748837 
782	 0,199585674549562 
783	 0,199485709499972 
784	 0,199442256818013 
785	 0,199587350623651 
786	 0,199652514440213 
787	 0,199732322101327 
788	 0,200081719658775 
789	 0,200192991457884 
790	 0,200013763627472 
791	 0,200039766398851 
792	 0,200045281589504 
793	 0,199849717642077 
794	 0,199625476489963 
795	 0,199423059000706 
796	 0,199255086112828 
797	 0,199312710504729 
798	 0,199549061940923 
799	 0,199399474705386 
800	 0,199280881637581 
801	 0,199585435127383 
802	 0,199808463413288 
803	 0,19989501909985 
804	 0,199953519924079 
805	 0,200035924769335 
806	 0,200173138312262 
807	 0,200307482242723 
808	 0,200647254714501 
809	 0,201382347103229 
810	 0,201891560707898 
811	 0,201915703438585 
812	 0,201062175587711 
813	 0,200652524583202 
814	 0,201130515595306 
815	 0,201185630318364 
816	 0,201164513961877 
817	 0,201592794401182 
818	 0,201671968049228 
819	 0,20151668022978 
820	 0,202104692881245 
821	 0,202222567394398 
822	 0,201527326220342 
823	 0,201823613236548 
824	 0,202373179547755 
825	 0,202019602206552 
826	 0,202199142100505 
827	 0,202791566965155 
828	 0,202283418446661 
829	 0,201993421593584 
830	 0,2024871872032 
831	 0,202562982851296 
832	 0,202581068540067 
833	 0,203193145181675 
834	 0,203342927412665 
835	 0,202970903735712 
836	 0,202720236724809 
837	 0,202829547111465 
838	 0,20333026477162 
839	 0,203371734450905 
840	 0,203142482766302 
841	 0,203052877442296 
842	 0,20305435310909 
843	 0,203123449702702 
844	 0,203216641326233 
845	 0,203103047992252 
846	 0,202735272736107 
847	 0,202736566327331 
848	 0,202927415213949 
849	 0,202952303707879 
850	 0,203095880283994 
851	 0,203242342815042 
852	 0,202766991254454 
853	 0,202553801204336 
854	 0,202942818892462 
855	 0,20265277253402 
856	 0,202146039617485 
857	 0,202235055099115 
858	 0,202519888147421 
859	 0,202678179639781 
860	 0,201929785319973 
861	 0,201605884922424 
862	 0,202197154813143 
863	 0,201816838728616 
864	 0,201440653876436 
865	 0,202540907913224 
866	 0,202964856095864 
867	 0,202479284713617 
868	 0,201909760183234 
869	 0,201966747487134 
870	 0,202863428734862 
871	 0,203455604201827 
872	 0,203522198439837 
873	 0,202988873132604 
874	 0,203030896833279 
875	 0,203639254814427 
876	 0,204007243766284 
877	 0,203958184818488 
878	 0,203653080775685 
879	 0,204685835927046 
880	 0,205574726992196 
881	 0,204713427685872 
882	 0,204512179617472 
883	 0,205188217593529 
884	 0,206084668297863 
885	 0,206383180801894 
886	 0,2059188053794 
887	 0,205750264895479 
888	 0,206085524449592 
889	 0,206919241969409 
890	 0,206443631001294 
891	 0,205366559452782 
892	 0,206004813183031 
893	 0,206302898840175 
894	 0,205808285707109 
895	 0,205474807254017 
896	 0,205944244586048 
897	 0,207450388930922 
898	 0,207531492522465 
899	 0,20668262647878 
900	 0,206458595982322 
901	 0,207206085292428 
902	 0,208479060696576 
903	 0,208175772933455 
904	 0,207417339335563 
905	 0,206953775661133 
906	 0,206544982574892 
907	 0,206359259166036 
908	 0,206628672812848 
909	 0,20718838727942 
910	 0,207665757172291 
911	 0,207133290578618 
912	 0,206508119814862 
913	 0,206268610211563 
914	 0,206221517814806 
915	 0,20652073291113 
916	 0,207297045221557 
917	 0,207871368636754 
918	 0,207980655554505 
919	 0,207367686459925 
920	 0,206861825775705 
921	 0,206647576244358 
922	 0,205793147042586 
923	 0,205557669899681 
924	 0,206697425778097 
925	 0,205613129153161 
926	 0,203680801554913 
927	 0,204418749899341 
928	 0,2048908503956 
929	 0,204343818926999 
930	 0,203098578701662 
931	 0,202570791888983 
932	 0,203292836353745 
933	 0,202647157868445 
934	 0,20148824167657 
935	 0,20127050710835 
936	 0,201132603199927 
937	 0,200713665432188 
938	 0,199477547094539 
939	 0,198438488816878 
940	 0,198054468523453 
941	 0,198214855659584 
942	 0,198930512481324 
943	 0,199932363186318 
944	 0,198397876958575 
945	 0,195773482302785 
946	 0,195624501066034 
947	 0,195257047528974 
948	 0,194083913600235 
949	 0,19280925654016 
950	 0,191608228510318 
951	 0,190673190092622 
952	 0,190495524296675 
953	 0,190250899206329 
954	 0,188936269892894 
955	 0,187490863549216 
956	 0,186291630777809 
957	 0,18575375775016 
958	 0,185356966194871 
959	 0,184805817749673 
960	 0,183566506588727 
961	 0,183390663340197 
962	 0,185062388836057 
963	 0,183356610019942 
964	 0,180668323335136 
965	 0,18168001155828 
966	 0,18210648100563 
967	 0,181425578282693 
968	 0,181409569090843 
969	 0,181380261826803 
970	 0,18107419061628 
971	 0,180471842067323 
972	 0,180342690637569 
973	 0,181183678725743 
974	 0,180438308185861 
975	 0,179525753207292 
976	 0,181722110039957 
977	 0,18290487450243 
978	 0,182350323106166 
979	 0,181834891002361 
980	 0,18131140394291 
981	 0,180986200798966 
982	 0,181868171562781 
983	 0,18232117387148 
984	 0,180758127961145 
985	 0,179302367517153 
986	 0,178921659992742 
987	 0,180674434637187 
988	 0,180681683836719 
989	 0,179053030649628 
990	 0,18083734332632 
991	 0,181892949030319 
992	 0,180761575880011 
993	 0,182674095148691 
994	 0,185040250427649 
995	 0,184890099201104 
996	 0,185142812567299 
997	 0,185600032991961 
998	 0,184770179321079 
999	 0,186215047073339 
1000	 0,189532939553725 
1001	 0,189965901296343 
1002	 0,188268513576935 
1003	 0,185860977262715 
1004	 0,188433155237452 
1005	 0,191629137687535 
1006	 0,190933566435844 
1007	 0,189907627175557 
1008	 0,189640898707393 
1009	 0,190975963492888 
1010	 0,190407993544831 
1011	 0,188878564620406 
1012	 0,192926321281094 
1013	 0,195735888870441 
1014	 0,194238070498591 
1015	 0,189750337114199 
1016	 0,186830422655007 
1017	 0,1892159826505 
1018	 0,194652571460595 
1019	 0,198187036423718 
1020	 0,193345470103993 
1021	 0,192631188083218 
1022	 0,196428934149763 
1023	 0,196916428520795 
1024	 0,19757607789859 
1025	 0,19906252610535 
1026	 0,199568230141969 
1027	 0,200356816228382 
1028	 0,202042263435893 
1029	 0,202952716913543 
1030	 0,20218039461383 
1031	 0,199292826006528 
1032	 0,19910927152534 
1033	 0,201544577364132 
1034	 0,204366216496894 
1035	 0,205856506672733 
1036	 0,205025678511584 
1037	 0,200038048361726 
1038	 0,200654643489982 
1039	 0,208872638337713 
1040	 0,209571256863441 
1041	 0,205392181274027 
1042	 0,200535083298505 
1043	 0,20444541785515 
1044	 0,20991345231232 
1045	 0,205941685461177 
1046	 0,212770439081972 
1047	 0,223340687179132 
1048	 0,211370560817412 
1049	 0,203005249172424 
1050	 0,205284602734346 
1051	 0,211786713796808 
1052	 0,210837644169803 
1053	 0,200158885028297 
1054	 0,204716663030987 
1055	 0,212906202847156 
1056	 0,21352669602271 
1057	 0,210643018713617 
1058	 0,209014056425824 
1059	 0,214328254224025 
1060	 0,2191697040811 
1061	 0,221619819124597 
1062	 0,221468864833897 
1063	 0,221839049739846 
1064	 0,222448902957131 
1065	 0,218600171422007 
1066	 0,213677335986218 
1067	 0,210315086644281 
1068	 0,213133408692414 
1069	 0,217466193947149 
1070	 0,219081890960552 
1071	 0,217919071181598 
1072	 0,215269835984417 
1073	 0,212395536806177 
1074	 0,203480834129267 
1075	 0,196193358942169 
