Wavelength	AURAY00783.asd
325	 0,292466943132489 
326	 0,454065389381375 
327	 0,487962621679744 
328	 0,364079611731961 
329	 0,404669171202944 
330	 0,451456471990412 
331	 0,396372360161228 
332	 0,331641253247557 
333	 0,267707549809771 
334	 0,212851998573406 
335	 0,290882414363665 
336	 0,446690070292862 
337	 0,354510387871971 
338	 0,233927842408868 
339	 0,290380952668419 
340	 0,298923454734183 
341	 0,261117776353741 
342	 0,259286730105882 
343	 0,251341628378113 
344	 0,238102693513452 
345	 0,299764004868184 
346	 0,334573520384483 
347	 0,254990151476848 
348	 0,164058863434744 
349	 0,126313353255954 
350	 0,215370171221977 
351	 0,258862405704935 
352	 0,213826691013599 
353	 0,203103329135957 
354	 0,205173634571046 
355	 0,182525593644973 
356	 0,173354426668042 
357	 0,181507440918681 
358	 0,207544453533679 
359	 0,20583564767408 
360	 0,169072069485985 
361	 0,190870430394166 
362	 0,233724554762357 
363	 0,235742641175237 
364	 0,219577335335403 
365	 0,202112406013228 
366	 0,228787083050727 
367	 0,232893353555703 
368	 0,181806462566853 
369	 0,18937988762463 
370	 0,228253681518988 
371	 0,228418153516898 
372	 0,223246057118034 
373	 0,217896053805104 
374	 0,198825614788826 
375	 0,181627145421007 
376	 0,177267903045284 
377	 0,190817209903005 
378	 0,215208578049165 
379	 0,232976447917692 
380	 0,239485314194171 
381	 0,234626354199938 
382	 0,21807939935403 
383	 0,212945909893683 
384	 0,237981598337798 
385	 0,250167754326286 
386	 0,246847437412599 
387	 0,242994110452432 
388	 0,245263159631314 
389	 0,252725894166413 
390	 0,242479468689752 
391	 0,225562447241898 
392	 0,217090764810769 
393	 0,225576511623107 
394	 0,243192200022579 
395	 0,247623940266509 
396	 0,236989223464851 
397	 0,215806133971585 
398	 0,220341342820044 
399	 0,238931550168677 
400	 0,250729269600032 
401	 0,247553078088485 
402	 0,232055846895552 
403	 0,221929667756161 
404	 0,224711272532948 
405	 0,242036700228812 
406	 0,245602703361224 
407	 0,238041326916659 
408	 0,232852124620228 
409	 0,231912001552327 
410	 0,234698149099985 
411	 0,233905590005921 
412	 0,232501440897967 
413	 0,233180312974621 
414	 0,225909144564446 
415	 0,216136636894482 
416	 0,22071447833643 
417	 0,227882203040642 
418	 0,231708647010854 
419	 0,228978055229526 
420	 0,224652272343272 
421	 0,225364010268179 
422	 0,227154698675491 
423	 0,228054115550419 
424	 0,224507973180716 
425	 0,222605253455601 
426	 0,225390072488484 
427	 0,225506892729581 
428	 0,224563121887311 
429	 0,227254801928165 
430	 0,22984804827426 
431	 0,230894879725258 
432	 0,229586765787395 
433	 0,226789891181572 
434	 0,223531986718664 
435	 0,223247399638184 
436	 0,22587198533541 
437	 0,23034263208552 
438	 0,230918884439814 
439	 0,2264981569985 
440	 0,226791871161504 
441	 0,228661201701403 
442	 0,227106681203105 
443	 0,225230344272227 
444	 0,224135476578062 
445	 0,224260259263722 
446	 0,227541187018617 
447	 0,233920678173694 
448	 0,23241442208911 
449	 0,227595837795564 
450	 0,230949441507221 
451	 0,232402333432052 
452	 0,230024851352919 
453	 0,229244846195844 
454	 0,230092649913795 
455	 0,232290521215757 
456	 0,234484924623116 
457	 0,235821785312661 
458	 0,234961746361845 
459	 0,234616811672857 
460	 0,235783593972176 
461	 0,236617705775793 
462	 0,236041888790292 
463	 0,232902901589372 
464	 0,231942803038945 
465	 0,233895773683246 
466	 0,236780314329378 
467	 0,238851976322687 
468	 0,238814587439452 
469	 0,236895610212529 
470	 0,234663793782162 
471	 0,234826825021896 
472	 0,236214497822479 
473	 0,237831892321987 
474	 0,236810833673313 
475	 0,235817632902342 
476	 0,237504222172998 
477	 0,2392756342513 
478	 0,240153829395888 
479	 0,238883219184168 
480	 0,238908623442674 
481	 0,241213844710623 
482	 0,240243215524959 
483	 0,237992784229705 
484	 0,238200300802154 
485	 0,238012390623094 
486	 0,237370882573129 
487	 0,239147132386931 
488	 0,239785294506216 
489	 0,236966421807022 
490	 0,236348916065336 
491	 0,237055274503425 
492	 0,234518103233807 
493	 0,233946496478459 
494	 0,236466142699032 
495	 0,237769910870965 
496	 0,238125007938385 
497	 0,238227139193188 
498	 0,238109022572324 
499	 0,238158210668592 
500	 0,239359372664131 
501	 0,240614472457942 
502	 0,241090680370993 
503	 0,239366237043304 
504	 0,23763816772848 
505	 0,240028287749598 
506	 0,242079912214095 
507	 0,242639199152234 
508	 0,243013856369568 
509	 0,243549771993924 
510	 0,244479353070848 
511	 0,244860796816203 
512	 0,245175697925408 
513	 0,247382650124687 
514	 0,248443656593359 
515	 0,2474037502451 
516	 0,247374708960593 
517	 0,24794832666888 
518	 0,248055455862877 
519	 0,249341162984898 
520	 0,251351161993524 
521	 0,251041318961126 
522	 0,250749736520105 
523	 0,252031039445989 
524	 0,252166991275035 
525	 0,251556166603913 
526	 0,252148553414629 
527	 0,25206409425743 
528	 0,251085763336367 
529	 0,251556257802299 
530	 0,252381952102202 
531	 0,252141988453339 
532	 0,252997968740902 
533	 0,254461180990813 
534	 0,25356726003932 
535	 0,252441297212235 
536	 0,252346074948225 
537	 0,252481513588043 
538	 0,252718519836176 
539	 0,253043181412417 
540	 0,253076640687947 
541	 0,252808959906285 
542	 0,252686038261133 
543	 0,253153440482321 
544	 0,254522371543575 
545	 0,254775443677333 
546	 0,254062018462072 
547	 0,253887715283563 
548	 0,254469538634328 
549	 0,255735369192045 
550	 0,256051466665627 
551	 0,25600472431182 
552	 0,2568592370923 
553	 0,256868250233544 
554	 0,255953333359111 
555	 0,255878374722389 
556	 0,255786795252773 
557	 0,255012446972551 
558	 0,255038590793337 
559	 0,255247326147492 
560	 0,253153744892912 
561	 0,252455520231344 
562	 0,254104743308629 
563	 0,253950237548049 
564	 0,252964697614502 
565	 0,252918400410189 
566	 0,253307079183955 
567	 0,253817521274988 
568	 0,253618040077125 
569	 0,25374413436757 
570	 0,254856197451918 
571	 0,25586501958115 
572	 0,256563191412463 
573	 0,25674392601953 
574	 0,258123707656314 
575	 0,260739612781395 
576	 0,261269375698192 
577	 0,261289755316764 
578	 0,262810215091723 
579	 0,264557554745483 
580	 0,266130862816451 
581	 0,267191175657338 
582	 0,26819822460814 
583	 0,269376738066466 
584	 0,27018649745875 
585	 0,270848176105516 
586	 0,271873869127222 
587	 0,272797832819265 
588	 0,273592600410916 
589	 0,274834156841884 
590	 0,275897692307272 
591	 0,276205201455739 
592	 0,27636430973259 
593	 0,276541816015024 
594	 0,276708375889384 
595	 0,277393892876849 
596	 0,27859166452043 
597	 0,278526536632105 
598	 0,2778636223467 
599	 0,277876819888863 
600	 0,277736897838494 
601	 0,277383498018861 
602	 0,277387530772049 
603	 0,277438441279984 
604	 0,277248624422913 
605	 0,276586269814534 
606	 0,27560880669932 
607	 0,274703775991321 
608	 0,274246927858061 
609	 0,274214798878436 
610	 0,273443854678091 
611	 0,272437944489509 
612	 0,271936067985711 
613	 0,271392657813093 
614	 0,270742211049801 
615	 0,270214618110975 
616	 0,269578658438572 
617	 0,268759148510927 
618	 0,268411159417894 
619	 0,268365831945747 
620	 0,268076836911191 
621	 0,268050421107932 
622	 0,268370637440753 
623	 0,268669425872987 
624	 0,268904671390252 
625	 0,269047856317391 
626	 0,268743404675901 
627	 0,268369137637082 
628	 0,269236157210194 
629	 0,269989538249187 
630	 0,270012153457455 
631	 0,270392760452291 
632	 0,270885661729003 
633	 0,270868975664979 
634	 0,271178402379945 
635	 0,271974481604632 
636	 0,272761541805797 
637	 0,273801955188077 
638	 0,275228566065466 
639	 0,275583346636283 
640	 0,275449592310247 
641	 0,277047169822575 
642	 0,278364195605686 
643	 0,278699307224859 
644	 0,279111770695148 
645	 0,279677314452585 
646	 0,280374514688862 
647	 0,280292884595619 
648	 0,279497305142177 
649	 0,279119624762573 
650	 0,278581673720422 
651	 0,27752557779805 
652	 0,276437743160402 
653	 0,275271916568803 
654	 0,273742481370094 
655	 0,272316882847705 
656	 0,271123733531961 
657	 0,269917440597668 
658	 0,268574702830714 
659	 0,266967995048985 
660	 0,264602332938921 
661	 0,261926114241846 
662	 0,260394132293076 
663	 0,259215982565873 
664	 0,257966459453373 
665	 0,256625910530964 
666	 0,255291489743287 
667	 0,254110991888298 
668	 0,253322747275027 
669	 0,252826170981499 
670	 0,251850837916799 
671	 0,251265919040917 
672	 0,251643122644364 
673	 0,250939777440987 
674	 0,249558051662681 
675	 0,249209313797866 
676	 0,249597028181023 
677	 0,250363815328908 
678	 0,24987568085785 
679	 0,249361285176397 
680	 0,250415169627757 
681	 0,251402848200284 
682	 0,252022092566033 
683	 0,252559057005565 
684	 0,253405204740935 
685	 0,254794807297381 
686	 0,256352821670097 
687	 0,25827023138644 
688	 0,260915937636668 
689	 0,264369356756982 
690	 0,268537714540487 
691	 0,272714946723037 
692	 0,277837780360248 
693	 0,284695233308355 
694	 0,291806080716105 
695	 0,299154859626938 
696	 0,307352862190528 
697	 0,316714886480566 
698	 0,327235341960015 
699	 0,337841052920463 
700	 0,348706719142591 
701	 0,360209733774347 
702	 0,371839086711557 
703	 0,38336482111687 
704	 0,394748458077452 
705	 0,405759492769223 
706	 0,416219602025199 
707	 0,426030101748459 
708	 0,435502991416477 
709	 0,445261796784156 
710	 0,454279138946717 
711	 0,462374033070472 
712	 0,470330266679997 
713	 0,47769602500493 
714	 0,484090988014407 
715	 0,490806284997698 
716	 0,497429415229568 
717	 0,502152196780088 
718	 0,506689095835242 
719	 0,511661726970425 
720	 0,516106810708109 
721	 0,520061501220546 
722	 0,52368590270802 
723	 0,527267045522379 
724	 0,530710303476381 
725	 0,53338782880751 
726	 0,53594252422239 
727	 0,538692833608411 
728	 0,540614131847595 
729	 0,542304083633166 
730	 0,545111947372049 
731	 0,547290849603145 
732	 0,548444732035337 
733	 0,549324405152232 
734	 0,550350394699591 
735	 0,551829816483745 
736	 0,553098062829864 
737	 0,55407661944198 
738	 0,554888645645527 
739	 0,555708839610334 
740	 0,556574600689482 
741	 0,557222440608424 
742	 0,557719823837388 
743	 0,558171218482668 
744	 0,558510540331232 
745	 0,558993066542562 
746	 0,560498207492861 
747	 0,561556394192046 
748	 0,561507804545558 
749	 0,56190766756903 
750	 0,562513488106284 
751	 0,562659730775252 
752	 0,562799097315483 
753	 0,563100052731467 
754	 0,563691209409896 
755	 0,564327673670693 
756	 0,564813110685011 
757	 0,56514515005923 
758	 0,565361518405215 
759	 0,565523154414042 
760	 0,565817191309839 
761	 0,566256463500494 
762	 0,566532767369717 
763	 0,566826802784556 
764	 0,567290380461551 
765	 0,567312648603194 
766	 0,567122762545425 
767	 0,567622218655578 
768	 0,568075139445803 
769	 0,568241046460837 
770	 0,568506656947292 
771	 0,56889517761544 
772	 0,569388553185427 
773	 0,569587857333908 
774	 0,569455227332008 
775	 0,569143820264894 
776	 0,569024677604424 
777	 0,569275036706487 
778	 0,569541328558257 
779	 0,569717235436437 
780	 0,569718102888094 
781	 0,569734656618332 
782	 0,569834078435204 
783	 0,570057625025496 
784	 0,57018986266869 
785	 0,570110294451672 
786	 0,570059225915462 
787	 0,57018798318935 
788	 0,570714790012857 
789	 0,57099038625775 
790	 0,570891112843971 
791	 0,570825528712998 
792	 0,570895358780554 
793	 0,571140753195606 
794	 0,571134521604597 
795	 0,571022509989591 
796	 0,571285385972765 
797	 0,571455924330091 
798	 0,57148338493343 
799	 0,571912178244349 
800	 0,57238260874934 
801	 0,572496030019159 
802	 0,571742363724905 
803	 0,570793817415646 
804	 0,571572220260364 
805	 0,572368031689942 
806	 0,572581906678302 
807	 0,572692109302888 
808	 0,572887979819521 
809	 0,573333087821314 
810	 0,57384055658759 
811	 0,574179460324404 
812	 0,573804636056512 
813	 0,573627504531598 
814	 0,573966974372595 
815	 0,574076093283864 
816	 0,574109335268267 
817	 0,574321782119961 
818	 0,57464078289031 
819	 0,574877950310414 
820	 0,574464688975294 
821	 0,574402234014354 
822	 0,575025731795376 
823	 0,575131417565794 
824	 0,574862719542121 
825	 0,574571230422607 
826	 0,574617613046219 
827	 0,57489042782138 
828	 0,574627950609802 
829	 0,574693174876437 
830	 0,575409058581016 
831	 0,575770791077266 
832	 0,575744233283915 
833	 0,575451968780547 
834	 0,575330302726565 
835	 0,575477189063391 
836	 0,575791382376021 
837	 0,575923076689409 
838	 0,575702235455618 
839	 0,575440538895974 
840	 0,575325985604342 
841	 0,575554046385671 
842	 0,575809692268319 
843	 0,576016180042199 
844	 0,576228428598749 
845	 0,576514610353149 
846	 0,576827230999511 
847	 0,576527841977559 
848	 0,576239113160654 
849	 0,576909906585165 
850	 0,577025930920422 
851	 0,576570731263628 
852	 0,576812398529843 
853	 0,577081631878953 
854	 0,577073623059367 
855	 0,577351670436228 
856	 0,577555313806903 
857	 0,577132149954219 
858	 0,577382828306913 
859	 0,578172942483697 
860	 0,578017226569923 
861	 0,577719235024353 
862	 0,577690027633212 
863	 0,577671053412077 
864	 0,577825059988002 
865	 0,578366708766274 
866	 0,578254618023667 
867	 0,577701766062046 
868	 0,578219405475332 
869	 0,578378667112573 
870	 0,577770611193756 
871	 0,578287168979028 
872	 0,579231628896137 
873	 0,579549606484647 
874	 0,578803192822583 
875	 0,577589848376687 
876	 0,57787583687783 
877	 0,578200918363207 
878	 0,578074148325053 
879	 0,57846758318901 
880	 0,578771751993569 
881	 0,578320879851696 
882	 0,57826819330613 
883	 0,57871371680022 
884	 0,579355369865965 
885	 0,579591357537042 
886	 0,579270196211731 
887	 0,579012388019066 
888	 0,578982886860026 
889	 0,57924758070291 
890	 0,579124688407412 
891	 0,578675058719158 
892	 0,578244071587242 
893	 0,578458105127662 
894	 0,57926062328425 
895	 0,57929766940114 
896	 0,5794254483666 
897	 0,580238724373991 
898	 0,580447811193292 
899	 0,580208682486798 
900	 0,580150595270312 
901	 0,58023389918461 
902	 0,580411509067735 
903	 0,580450304359412 
904	 0,580539991087968 
905	 0,580743857464473 
906	 0,580568024982311 
907	 0,580417534669527 
908	 0,58093142696894 
909	 0,580683191494225 
910	 0,579930610512758 
911	 0,580728984546053 
912	 0,580883385013787 
913	 0,57978442139516 
914	 0,580485830519049 
915	 0,58142151520915 
916	 0,580674361518762 
917	 0,580775444374026 
918	 0,581520021237053 
919	 0,581091393546481 
920	 0,580808333254186 
921	 0,580930916403189 
922	 0,580417049474387 
923	 0,580111218689383 
924	 0,580593093550991 
925	 0,579952364016855 
926	 0,579054409645008 
927	 0,580012232769253 
928	 0,580345471044908 
929	 0,5797028246116 
930	 0,579623475940324 
931	 0,579246813434353 
932	 0,578312025150194 
933	 0,578587757269399 
934	 0,579232221422922 
935	 0,578945556653437 
936	 0,578921533961389 
937	 0,579015530865263 
938	 0,578053781780357 
939	 0,577300017326246 
940	 0,577253360762446 
941	 0,577830167724527 
942	 0,577757526560269 
943	 0,576141427914644 
944	 0,575818847685989 
945	 0,576194761800378 
946	 0,575278849465618 
947	 0,57415280981162 
948	 0,573171436671018 
949	 0,572456511017956 
950	 0,571996963522525 
951	 0,571760666092163 
952	 0,571843854142448 
953	 0,571226397611085 
954	 0,568812953301682 
955	 0,566833840289218 
956	 0,566000996453558 
957	 0,566977804717562 
958	 0,566395793439334 
959	 0,564164679842805 
960	 0,565969684004972 
961	 0,567946625419475 
962	 0,567018572771446 
963	 0,564426865924286 
964	 0,562402147535423 
965	 0,563934473300646 
966	 0,564705655453662 
967	 0,563811733717389 
968	 0,561861388048698 
969	 0,561536054428241 
970	 0,563363607792192 
971	 0,562920669278898 
972	 0,562584161349732 
973	 0,564357685575862 
974	 0,562732498980569 
975	 0,560529081305259 
976	 0,564338321843836 
977	 0,565838257300251 
978	 0,563921007627645 
979	 0,563029504300909 
980	 0,563478874060096 
981	 0,56516128439889 
982	 0,565823479818205 
983	 0,566266631488081 
984	 0,567340861046816 
985	 0,566506093376994 
986	 0,565263121979713 
987	 0,567428308218542 
988	 0,567142251457003 
989	 0,564473357220437 
990	 0,566086920378885 
991	 0,567756827006826 
992	 0,567663502265646 
993	 0,569097974999542 
994	 0,571318762059238 
995	 0,573126480584428 
996	 0,57278296169972 
997	 0,571547487204544 
998	 0,572526100634045 
999	 0,572633620963931 
1000	 0,572094877279645 
1001	 0,575035357049451 
1002	 0,576546441680928 
1003	 0,574767690227148 
1004	 0,574620565267612 
1005	 0,575282287119038 
1006	 0,575498977372369 
1007	 0,574295517485755 
1008	 0,573714268074335 
1009	 0,577594513758684 
1010	 0,57877153920213 
1011	 0,576874451729156 
1012	 0,577282101019296 
1013	 0,57921152828686 
1014	 0,581871251121712 
1015	 0,583325174920662 
1016	 0,581521285385866 
1017	 0,576296416462707 
1018	 0,580133012070218 
1019	 0,586989480960474 
1020	 0,585292759034477 
1021	 0,584307847032706 
1022	 0,585629831512459 
1023	 0,587767159551947 
1024	 0,588517164787059 
1025	 0,587629010059712 
1026	 0,588573391932491 
1027	 0,588503644688438 
1028	 0,585943969130686 
1029	 0,584474400294908 
1030	 0,584792000903994 
1031	 0,586925199285181 
1032	 0,586907328194042 
1033	 0,586702340428401 
1034	 0,591919488351035 
1035	 0,594780443776427 
1036	 0,594334192258898 
1037	 0,59624737217291 
1038	 0,594491515289872 
1039	 0,588768568043978 
1040	 0,591916163575272 
1041	 0,596221867940025 
1042	 0,595186138111805 
1043	 0,59574189580589 
1044	 0,595481289886753 
1045	 0,590410686935928 
1046	 0,592058896799205 
1047	 0,598199744559276 
1048	 0,598019004932681 
1049	 0,592011447462561 
1050	 0,584290624612783 
1051	 0,588633636116504 
1052	 0,59637974653288 
1053	 0,601829469905316 
1054	 0,600594001393973 
1055	 0,600106034766438 
1056	 0,605404605466137 
1057	 0,599560524447785 
1058	 0,593121542758666 
1059	 0,603076373624168 
1060	 0,60432562338101 
1061	 0,59905603067447 
1062	 0,605021429753813 
1063	 0,606379041422611 
1064	 0,602421887938682 
1065	 0,608625884723118 
1066	 0,609814871315925 
1067	 0,601461573938398 
1068	 0,598614333881289 
1069	 0,597296706584524 
1070	 0,594262513809019 
1071	 0,592137728143788 
1072	 0,595150570341613 
1073	 0,606340074537209 
1074	 0,600076321522862 
1075	 0,587284879757916 
