Wavelength	AURAY00120.asd
325	 7,17713896081376E-02 
326	 8,16754497051895E-02 
327	 7,59578592320155E-02 
328	 4,38983453851211E-02 
329	 0,14851133430448 
330	 0,277047578749621 
331	 0,357204450790913 
332	 0,350032475566003 
333	 0,267259018748995 
334	 0,134629028113867 
335	 0,131038631175178 
336	 0,242952267424415 
337	 0,204643057986741 
338	 0,131372689564044 
339	 0,137089836734571 
340	 0,15774327756977 
341	 0,164995301112265 
342	 0,116762965932273 
343	 0,101875179527023 
344	 0,150700653746251 
345	 0,228011903553386 
346	 0,244283340142064 
347	 0,13352682552677 
348	 0,114864060950791 
349	 0,186751328120915 
350	 0,217916381119393 
351	 0,233709571198595 
352	 0,239608990210167 
353	 0,216411030638662 
354	 0,197295147175815 
355	 0,224468121982177 
356	 0,231208007930491 
357	 0,220689435453039 
358	 0,239613157384884 
359	 0,246548266844286 
360	 0,231646495606197 
361	 0,260629999767158 
362	 0,292124868200439 
363	 0,263079303177032 
364	 0,25011231867976 
365	 0,264826231100363 
366	 0,283956475497014 
367	 0,288314978423766 
368	 0,268189397583795 
369	 0,254967170521304 
370	 0,254927777485849 
371	 0,270458310488265 
372	 0,267703912973548 
373	 0,247632364272669 
374	 0,258765063414053 
375	 0,275451952644047 
376	 0,279287687395326 
377	 0,280215551833111 
378	 0,283605269920151 
379	 0,299027586073478 
380	 0,302599202785499 
381	 0,292374268902208 
382	 0,289813105794805 
383	 0,296174963333221 
384	 0,309901440691206 
385	 0,310247107486319 
386	 0,301539263455109 
387	 0,30366843334729 
388	 0,315738105725782 
389	 0,333560731728908 
390	 0,333884173364381 
391	 0,328298528278343 
392	 0,332653724622232 
393	 0,331254543411509 
394	 0,325173914315166 
395	 0,326897809902202 
396	 0,324791709187295 
397	 0,315777562844265 
398	 0,324745414614694 
399	 0,336663359456997 
400	 0,326278865402356 
401	 0,32623012602517 
402	 0,338565797766519 
403	 0,339116591200188 
404	 0,334706349158224 
405	 0,331639994463976 
406	 0,342536052877249 
407	 0,356032478104539 
408	 0,344823787771498 
409	 0,336960788157043 
410	 0,340159022611583 
411	 0,347442114674108 
412	 0,353267892822408 
413	 0,352833239722365 
414	 0,346195745687761 
415	 0,339297820926646 
416	 0,346777681228901 
417	 0,349112087091135 
418	 0,341146965703974 
419	 0,343713799997929 
420	 0,349570742582013 
421	 0,347139081170018 
422	 0,350842303328871 
423	 0,358615881827842 
424	 0,353563341066749 
425	 0,346948365848351 
426	 0,345762247154872 
427	 0,347981511585 
428	 0,352012331749102 
429	 0,355679897115889 
430	 0,358615251928597 
431	 0,359796558588282 
432	 0,355928927026084 
433	 0,352374405197764 
434	 0,353708963771413 
435	 0,354891335327419 
436	 0,35601933953709 
437	 0,36052540365413 
438	 0,361904738842429 
439	 0,358634497063811 
440	 0,358608963113226 
441	 0,361211452152461 
442	 0,364755256610293 
443	 0,364893450129799 
444	 0,362316865615719 
445	 0,363009196853663 
446	 0,365596408796217 
447	 0,368756817820133 
448	 0,368816925872952 
449	 0,367424985664595 
450	 0,368624335342278 
451	 0,369761796728673 
452	 0,370355367406407 
453	 0,371509983990129 
454	 0,374131590576644 
455	 0,378663178257324 
456	 0,379576488210282 
457	 0,376911984877018 
458	 0,37313175124681 
459	 0,372170858561551 
460	 0,375026439278618 
461	 0,374508119459819 
462	 0,373176457446435 
463	 0,375329191919739 
464	 0,376352239282699 
465	 0,375894243723375 
466	 0,376926081506268 
467	 0,377901319179188 
468	 0,377916182510372 
469	 0,378943692674531 
470	 0,379832585247574 
471	 0,377421289224588 
472	 0,377677208856218 
473	 0,381658624742292 
474	 0,384800693393837 
475	 0,385216730050315 
476	 0,381673012872491 
477	 0,380592547849976 
478	 0,382116570629276 
479	 0,382503840858085 
480	 0,38277413803193 
481	 0,383394701266742 
482	 0,384671046996263 
483	 0,386436162741829 
484	 0,388541747645237 
485	 0,387876729103627 
486	 0,385038919405888 
487	 0,385615622719963 
488	 0,386473212953927 
489	 0,385465656356151 
490	 0,387240433842123 
491	 0,38964152967532 
492	 0,385844183801189 
493	 0,383533245366318 
494	 0,385080458503165 
495	 0,387330548230199 
496	 0,388495329810404 
497	 0,38692919924678 
498	 0,386553476954536 
499	 0,387810713872963 
500	 0,389145529258737 
501	 0,389929394836142 
502	 0,389833233162984 
503	 0,389438642847262 
504	 0,389584130197682 
505	 0,391496528098868 
506	 0,39392196797202 
507	 0,39607116387579 
508	 0,396524900912312 
509	 0,396882716710484 
510	 0,398535223160491 
511	 0,399063105129074 
512	 0,398822122119478 
513	 0,399913621535887 
514	 0,4009927032164 
515	 0,401462448528973 
516	 0,401352416633908 
517	 0,401305276779635 
518	 0,402182103539557 
519	 0,403062107986552 
520	 0,403777646660089 
521	 0,404723667289604 
522	 0,405563598208058 
523	 0,406039514286188 
524	 0,406153701331786 
525	 0,406221445121738 
526	 0,407046227568903 
527	 0,407175818695091 
528	 0,406374459463821 
529	 0,406267140870427 
530	 0,406512066268563 
531	 0,406575806076824 
532	 0,407073486714314 
533	 0,407787451397662 
534	 0,407688953720979 
535	 0,407549373799973 
536	 0,407771655918446 
537	 0,407590396858471 
538	 0,407383280283103 
539	 0,40801804863022 
540	 0,40863420338347 
541	 0,408973864360247 
542	 0,409213084830956 
543	 0,409471118860377 
544	 0,409837457001992 
545	 0,409780861288375 
546	 0,409541819758536 
547	 0,410039866073701 
548	 0,41076692783167 
549	 0,411402998177127 
550	 0,411588446554471 
551	 0,411632508584829 
552	 0,412080718398112 
553	 0,412554299603353 
554	 0,412853828525562 
555	 0,412644691892672 
556	 0,412370435480289 
557	 0,412394142956593 
558	 0,412429500610683 
559	 0,412282741669566 
560	 0,411622771696821 
561	 0,410719020507254 
562	 0,409879195752549 
563	 0,409993424522815 
564	 0,410555781574771 
565	 0,410803577618435 
566	 0,410772911152453 
567	 0,410528750785677 
568	 0,410169316017024 
569	 0,410593028375892 
570	 0,412318921867038 
571	 0,413886419743962 
572	 0,414960343290923 
573	 0,415264102931358 
574	 0,416548199421141 
575	 0,419013668524524 
576	 0,420046124675103 
577	 0,420615372345617 
578	 0,42200500140632 
579	 0,423615758960267 
580	 0,425209901577604 
581	 0,426409506534317 
582	 0,4276841579714 
583	 0,429261393785239 
584	 0,430610680372459 
585	 0,431781408544595 
586	 0,432995672550142 
587	 0,434327928944719 
588	 0,43554970839085 
589	 0,435406296377621 
590	 0,435755782059309 
591	 0,438183001761605 
592	 0,43856895111471 
593	 0,437453284623206 
594	 0,438598085632433 
595	 0,439847356166946 
596	 0,440259163720792 
597	 0,440453731722861 
598	 0,440572045498369 
599	 0,440725877805386 
600	 0,441131698037086 
601	 0,441570410627535 
602	 0,440948797688064 
603	 0,440360907093278 
604	 0,44057160259143 
605	 0,439686626913516 
606	 0,438191158746646 
607	 0,437995655107864 
608	 0,438097705869107 
609	 0,438024082849855 
610	 0,437233548195137 
611	 0,436367020749297 
612	 0,436263498015688 
613	 0,43589358798486 
614	 0,43513636917574 
615	 0,434437784640288 
616	 0,433844996974317 
617	 0,433430429927282 
618	 0,433428533325756 
619	 0,433554558530528 
620	 0,433219369217644 
621	 0,432725205664455 
622	 0,432331298122328 
623	 0,432730594370086 
624	 0,43331845582429 
625	 0,433445739830831 
626	 0,433690071650875 
627	 0,43398242165474 
628	 0,433694525672095 
629	 0,433808467638466 
630	 0,434749406968145 
631	 0,435606598848187 
632	 0,436166528124134 
633	 0,436246667916222 
634	 0,436906405997544 
635	 0,438115032429713 
636	 0,438281393801895 
637	 0,438448155190227 
638	 0,439513761468738 
639	 0,440772133927093 
640	 0,441922379298523 
641	 0,442556438959807 
642	 0,443233597116022 
643	 0,444061884281861 
644	 0,444179769337581 
645	 0,444260245908529 
646	 0,44526186564114 
647	 0,445563432678776 
648	 0,445002264082635 
649	 0,444614640214049 
650	 0,443906105463084 
651	 0,442621180908002 
652	 0,441493746431055 
653	 0,440647178822183 
654	 0,440148231472918 
655	 0,439075897416981 
656	 0,437314889398081 
657	 0,436082539927084 
658	 0,434837703446132 
659	 0,432962581642294 
660	 0,430932390745612 
661	 0,429102601986045 
662	 0,428194762156661 
663	 0,427099429911551 
664	 0,42529623470251 
665	 0,42353118657566 
666	 0,421947521633502 
667	 0,42056804376448 
668	 0,419993737015388 
669	 0,420048345762736 
670	 0,419436753608833 
671	 0,418535260147897 
672	 0,417707176603798 
673	 0,417153755596615 
674	 0,416856886409073 
675	 0,416611705980741 
676	 0,41667544009181 
677	 0,417021369461631 
678	 0,416955315265309 
679	 0,41702564629208 
680	 0,417930654683636 
681	 0,418495312433137 
682	 0,418684623996967 
683	 0,419194099857644 
684	 0,4203456322812 
685	 0,422286088541178 
686	 0,424352084642012 
687	 0,426556266261172 
688	 0,429076055399643 
689	 0,432076902694656 
690	 0,435697563073059 
691	 0,440041479762837 
692	 0,445306915781636 
693	 0,451578232528535 
694	 0,457518958393254 
695	 0,46323323213778 
696	 0,469639514118976 
697	 0,476735492377571 
698	 0,484378506023574 
699	 0,491505097617289 
700	 0,498648687918574 
701	 0,506630364754655 
702	 0,514182939176463 
703	 0,521025836220195 
704	 0,527482391650815 
705	 0,533773635628778 
706	 0,539966434659293 
707	 0,545277229403899 
708	 0,550097911629163 
709	 0,555395327441568 
710	 0,559930189299129 
711	 0,563589177712158 
712	 0,567645250788075 
713	 0,571543257928743 
714	 0,574746630684757 
715	 0,577900488407554 
716	 0,580979269681324 
717	 0,583627553611266 
718	 0,58583226566653 
719	 0,587646630294035 
720	 0,589443607461386 
721	 0,591191389106034 
722	 0,592794044866193 
723	 0,594523465574671 
724	 0,596242306585009 
725	 0,597306024993111 
726	 0,59813319278039 
727	 0,599025597042604 
728	 0,60013466262913 
729	 0,601249455659063 
730	 0,601950557909146 
731	 0,602623313462117 
732	 0,603310381545727 
733	 0,603700386327496 
734	 0,60383912912394 
735	 0,603838809338349 
736	 0,604513262470762 
737	 0,605533270390394 
738	 0,605730053096508 
739	 0,605728029740334 
740	 0,605830385053995 
741	 0,606383043577116 
742	 0,607011226439851 
743	 0,607248592604593 
744	 0,607249128077782 
745	 0,60726296395806 
746	 0,608009834551065 
747	 0,608404735699812 
748	 0,607964089136396 
749	 0,607782322081809 
750	 0,607838917682664 
751	 0,607875903964546 
752	 0,6082365254953 
753	 0,608731078700857 
754	 0,608311969394073 
755	 0,607977760218521 
756	 0,608422600058088 
757	 0,608846563761846 
758	 0,60904592188056 
759	 0,60887865870774 
760	 0,608651130562913 
761	 0,608536714896998 
762	 0,608711812737731 
763	 0,609042145073866 
764	 0,609355685052128 
765	 0,609135322773599 
766	 0,6086926097029 
767	 0,609166524899863 
768	 0,609275701930973 
769	 0,608712838599516 
770	 0,608828787695482 
771	 0,609263864541589 
772	 0,609462161549201 
773	 0,609652251920371 
774	 0,609686077325542 
775	 0,608952929752901 
776	 0,60847091191515 
777	 0,6087186405145 
778	 0,608936368963709 
779	 0,608924069511804 
780	 0,608528151174333 
781	 0,608296291839645 
782	 0,608355796917773 
783	 0,608533562258792 
784	 0,6087553643558 
785	 0,608928151405048 
786	 0,608796816199144 
787	 0,608509144069578 
788	 0,608375687620321 
789	 0,608429150494611 
790	 0,608610402294424 
791	 0,608632138797597 
792	 0,608471272877533 
793	 0,608134122259794 
794	 0,607803422460808 
795	 0,607552048061917 
796	 0,607429752329938 
797	 0,60746427671783 
798	 0,607581235033239 
799	 0,607434715611313 
800	 0,607187597916823 
801	 0,607007609152321 
802	 0,606757080931442 
803	 0,60650685647932 
804	 0,606454658967986 
805	 0,606579540965891 
806	 0,606809910647037 
807	 0,606774172849013 
808	 0,60682536045348 
809	 0,607347508947665 
810	 0,607927063346962 
811	 0,6081868795782 
812	 0,60729897809831 
813	 0,606745973369424 
814	 0,607038219773477 
815	 0,606891794089062 
816	 0,606640783864723 
817	 0,606794929623281 
818	 0,606748861710053 
819	 0,606503455611093 
820	 0,606447607954189 
821	 0,606556440434444 
822	 0,606751922344512 
823	 0,606556743240883 
824	 0,606330199299386 
825	 0,606585033233846 
826	 0,607067575919366 
827	 0,607458862133384 
828	 0,606968867452957 
829	 0,606556680728095 
830	 0,60670805689828 
831	 0,606943601214019 
832	 0,607148457525738 
833	 0,607240282851109 
834	 0,606961319015878 
835	 0,606570681293466 
836	 0,607174413400461 
837	 0,607429647203203 
838	 0,606767180027715 
839	 0,60676181137378 
840	 0,606987064507757 
841	 0,606604787580047 
842	 0,606233931391579 
843	 0,60604118371062 
844	 0,606035020627092 
845	 0,606071741754048 
846	 0,606090583636453 
847	 0,606315767248636 
848	 0,606578520932212 
849	 0,606621029697528 
850	 0,606311080078462 
851	 0,605810192636783 
852	 0,605735676461325 
853	 0,605671855871751 
854	 0,605489379230397 
855	 0,606019655727551 
856	 0,606366978780835 
857	 0,605236717036524 
858	 0,604851209945093 
859	 0,605319306699254 
860	 0,605068105533075 
861	 0,604914895788347 
862	 0,605213978844977 
863	 0,605448704442368 
864	 0,605575639679756 
865	 0,605606971165291 
866	 0,604928600250871 
867	 0,603900283496531 
868	 0,60394750680133 
869	 0,604428868699255 
870	 0,604942896714574 
871	 0,605058512589514 
872	 0,604962353738885 
873	 0,604940242480536 
874	 0,604782281098454 
875	 0,604598622515171 
876	 0,604858861422096 
877	 0,604708478385418 
878	 0,604072483200826 
879	 0,604751872891471 
880	 0,605593127243857 
881	 0,605246193741957 
882	 0,604595365097001 
883	 0,604186213090074 
884	 0,60504552472698 
885	 0,605420421044233 
886	 0,604829751028605 
887	 0,604498794189047 
888	 0,604295925055558 
889	 0,604056854855621 
890	 0,604117869212901 
891	 0,604310936444624 
892	 0,604140076483516 
893	 0,604138928440311 
894	 0,604313603268009 
895	 0,603884245587059 
896	 0,603516103322552 
897	 0,603734119470141 
898	 0,6041974214571 
899	 0,604492506235249 
900	 0,603993893790115 
901	 0,60365470852808 
902	 0,603747134754908 
903	 0,60417408899922 
904	 0,604358535463274 
905	 0,603938651015882 
906	 0,603124355231852 
907	 0,602624218797426 
908	 0,603348721815012 
909	 0,603911245117019 
910	 0,603943543947468 
911	 0,603552996249932 
912	 0,602909984203309 
913	 0,602371677539463 
914	 0,603260127392224 
915	 0,604386658495328 
916	 0,604321380476649 
917	 0,603751576475628 
918	 0,603119984925558 
919	 0,603154624103637 
920	 0,603308421818652 
921	 0,603367429132383 
922	 0,603251121629559 
923	 0,603361283216194 
924	 0,603813077406045 
925	 0,602130875137209 
926	 0,600026423615313 
927	 0,601234366058417 
928	 0,602408170227543 
929	 0,602479681132152 
930	 0,601264803541276 
931	 0,600482072751314 
932	 0,600918254871699 
933	 0,600255458626209 
934	 0,599262109066051 
935	 0,599229152427152 
936	 0,59958438938401 
937	 0,59993075645517 
938	 0,599596601042091 
939	 0,59873505862158 
940	 0,597767027606604 
941	 0,59848075039657 
942	 0,599040521498146 
943	 0,597936510345049 
944	 0,598144324800976 
945	 0,598740343584757 
946	 0,597088200363656 
947	 0,596364636174319 
948	 0,596703704782768 
949	 0,595044348300418 
950	 0,593531464652897 
951	 0,593426850924648 
952	 0,594365942028986 
953	 0,595225366865004 
954	 0,59470762372914 
955	 0,592840044642104 
956	 0,590805012489272 
957	 0,591549573249946 
958	 0,59242697914832 
959	 0,592411064865092 
960	 0,591286888831559 
961	 0,590918987451793 
962	 0,59232632389576 
963	 0,591538189501033 
964	 0,589541022452529 
965	 0,588684051487217 
966	 0,58887670237468 
967	 0,589659742502459 
968	 0,589575546010471 
969	 0,5892978073199 
970	 0,589097365328132 
971	 0,588911686113569 
972	 0,588701092644064 
973	 0,588382330271144 
974	 0,587325985282505 
975	 0,586485717249551 
976	 0,587673393899413 
977	 0,588870248734877 
978	 0,589331170439814 
979	 0,588620451400104 
980	 0,588473521233347 
981	 0,589368215046435 
982	 0,588424229858119 
983	 0,587357104446822 
984	 0,587938784847625 
985	 0,586801866913464 
986	 0,585670452185882 
987	 0,589137876829567 
988	 0,588824826273319 
989	 0,584667971066962 
990	 0,585757525501333 
991	 0,587280465599426 
992	 0,587142456670535 
993	 0,589194247672094 
994	 0,590170264745956 
995	 0,586932670229759 
996	 0,58673882591786 
997	 0,589210549234967 
998	 0,590975854263465 
999	 0,591183396369766 
1000	 0,590233100937858 
1001	 0,591320720267263 
1002	 0,590127601039702 
1003	 0,585930192477487 
1004	 0,587476438146315 
1005	 0,59114974038758 
1006	 0,592429375084532 
1007	 0,588591501099266 
1008	 0,5851894570824 
1009	 0,592722627342478 
1010	 0,593591896317819 
1011	 0,587226540649969 
1012	 0,588288402452324 
1013	 0,588877000600008 
1014	 0,586497142587257 
1015	 0,586105819593278 
1016	 0,586880766061912 
1017	 0,587934701374561 
1018	 0,590118166754491 
1019	 0,591594806628117 
1020	 0,589655383182175 
1021	 0,589522982883105 
1022	 0,591073551152298 
1023	 0,590353441574757 
1024	 0,589275189864122 
1025	 0,588326687950104 
1026	 0,586233317354504 
1027	 0,587194484445173 
1028	 0,592504853820514 
1029	 0,591509488448016 
1030	 0,586071411748122 
1031	 0,580392986690658 
1032	 0,58240259312227 
1033	 0,589006650723189 
1034	 0,590722877949954 
1035	 0,588131720728621 
1036	 0,583587643100566 
1037	 0,584996832468611 
1038	 0,586591548989553 
1039	 0,585374614808536 
1040	 0,580207906502399 
1041	 0,578972237165823 
1042	 0,586981145195828 
1043	 0,592509066856286 
1044	 0,592937107540993 
1045	 0,587661676132686 
1046	 0,591380192949256 
1047	 0,599034264663617 
1048	 0,591094859839859 
1049	 0,58210042361997 
1050	 0,578537857278258 
1051	 0,585537602012666 
1052	 0,590910320343793 
1053	 0,588454614704619 
1054	 0,583087703243381 
1055	 0,580871450325818 
1056	 0,585507350457266 
1057	 0,586624630500734 
1058	 0,582446522607117 
1059	 0,57339840956076 
1060	 0,569760298276647 
1061	 0,572902942423916 
1062	 0,580512204264602 
1063	 0,577959540606388 
1064	 0,56871128637808 
1065	 0,584359067252211 
1066	 0,587121391973963 
1067	 0,566233325217676 
1068	 0,562217357816517 
1069	 0,564973091356909 
1070	 0,564373895497702 
1071	 0,557587365558975 
1072	 0,556508065716361 
1073	 0,573447450837131 
1074	 0,575452443183555 
1075	 0,565913988044292 
