Wavelength	AURAY00097.asd
325	 0,221353898785294 
326	 0,422697005596634 
327	 0,405730847455829 
328	 0,142296879589353 
329	 0,211262746300698 
330	 0,322840768366789 
331	 0,272749387877805 
332	 0,253580044537919 
333	 0,259882072054729 
334	 0,221323357403906 
335	 0,246496634520131 
336	 0,313969866054959 
337	 0,207258441383571 
338	 0,122054593447415 
339	 0,237056332459003 
340	 0,292995001251797 
341	 0,271771188214176 
342	 0,231922504410702 
343	 0,218694599700609 
344	 0,247565556460968 
345	 0,271027120619861 
346	 0,281456868654246 
347	 0,278606167725029 
348	 0,252914470594375 
349	 0,233147922553556 
350	 0,288587890786036 
351	 0,313936045660764 
352	 0,279805743250089 
353	 0,232141365877462 
354	 0,201874796455531 
355	 0,224066913341146 
356	 0,270855516545291 
357	 0,314357220735454 
358	 0,275108712031516 
359	 0,233756390355755 
360	 0,230706311211529 
361	 0,273513943376322 
362	 0,31412948910745 
363	 0,289331132964361 
364	 0,277048773913053 
365	 0,287622117957376 
366	 0,289638518604535 
367	 0,284868126604329 
368	 0,276857403675138 
369	 0,289494822797609 
370	 0,303833756849712 
371	 0,282236067123797 
372	 0,288351654972985 
373	 0,320701961895217 
374	 0,292825440737976 
375	 0,270390136524157 
376	 0,297293653644488 
377	 0,291153374440966 
378	 0,266958045037197 
379	 0,291952961442413 
380	 0,306534935924025 
381	 0,301185102421157 
382	 0,310320554086722 
383	 0,314953447371742 
384	 0,2974036010865 
385	 0,292345297959057 
386	 0,301001773824075 
387	 0,309415425215417 
388	 0,313864651333904 
389	 0,312794030294983 
390	 0,307887340694559 
391	 0,304046928713865 
392	 0,30655591355186 
393	 0,313576802860085 
394	 0,318182899170564 
395	 0,302305591660573 
396	 0,289375976635216 
397	 0,292779219763917 
398	 0,299404003040881 
399	 0,305600286781652 
400	 0,308740159418335 
401	 0,314812042828275 
402	 0,321338029286928 
403	 0,314507644773461 
404	 0,305364052948675 
405	 0,301908123062204 
406	 0,305960918799694 
407	 0,311628130962988 
408	 0,305388088304204 
409	 0,307175592903188 
410	 0,31858539758614 
411	 0,320377063620649 
412	 0,31711943301444 
413	 0,313857759712881 
414	 0,308662510983693 
415	 0,304808217034862 
416	 0,310706438145463 
417	 0,314887415184726 
418	 0,31306533151992 
419	 0,310884098314084 
420	 0,310223033369318 
421	 0,312753802849132 
422	 0,314848954192118 
423	 0,314894705485419 
424	 0,310969663856701 
425	 0,306902807182594 
426	 0,305419929116976 
427	 0,308629072701343 
428	 0,313486284910522 
429	 0,314231666170906 
430	 0,315719300599028 
431	 0,31824333061215 
432	 0,317045494085208 
433	 0,315018496363462 
434	 0,31493075013521 
435	 0,317427824396449 
436	 0,320557429398513 
437	 0,31945494900764 
438	 0,317405217702947 
439	 0,316216661294165 
440	 0,317833735609016 
441	 0,320367337309093 
442	 0,321268422985481 
443	 0,321661718049562 
444	 0,321787633441222 
445	 0,321084779651884 
446	 0,32305997950428 
447	 0,328894021348599 
448	 0,329162424447643 
449	 0,326012927374645 
450	 0,32585847918799 
451	 0,325980492700146 
452	 0,325712412886416 
453	 0,324720454797984 
454	 0,325612242101487 
455	 0,330440317542958 
456	 0,332626050927716 
457	 0,332205112387856 
458	 0,333194242559846 
459	 0,332840798208672 
460	 0,330649914140365 
461	 0,330461733136714 
462	 0,331822970092938 
463	 0,33364078457902 
464	 0,333271086673815 
465	 0,331087760411262 
466	 0,33096347229038 
467	 0,33109912178508 
468	 0,330480852704534 
469	 0,331123589799303 
470	 0,332808586989116 
471	 0,334649256013717 
472	 0,336462597854222 
473	 0,337399536776813 
474	 0,334088214192779 
475	 0,331387893280276 
476	 0,333930935773858 
477	 0,336213690515616 
478	 0,336907803134255 
479	 0,335900148735699 
480	 0,334667553201596 
481	 0,334094312557917 
482	 0,334167557426707 
483	 0,334930231826643 
484	 0,336559594460819 
485	 0,335651019391296 
486	 0,33243317151411 
487	 0,331436714432981 
488	 0,33117695943268 
489	 0,330524536254644 
490	 0,330646934717852 
491	 0,330879983671325 
492	 0,329066299033351 
493	 0,328993696120998 
494	 0,331219966329972 
495	 0,330856788638967 
496	 0,330138372851873 
497	 0,331936288572281 
498	 0,333904280006541 
499	 0,334849259513558 
500	 0,33279679694067 
501	 0,331201043954088 
502	 0,331902153846864 
503	 0,332183394178266 
504	 0,332895638874318 
505	 0,336201993336457 
506	 0,33922155332338 
507	 0,340587304870073 
508	 0,338647537931353 
509	 0,337039213918558 
510	 0,338882743388735 
511	 0,339957439841914 
512	 0,340240625865655 
513	 0,342016267049888 
514	 0,343070008331742 
515	 0,342682695504651 
516	 0,342880614897828 
517	 0,343166237107451 
518	 0,342509919910845 
519	 0,343266214332964 
520	 0,345080847758853 
521	 0,344550124852308 
522	 0,343495123695851 
523	 0,343310685131994 
524	 0,343688968153422 
525	 0,344300342882974 
526	 0,344536177241795 
527	 0,344583599194224 
528	 0,344453863001594 
529	 0,343950581492115 
530	 0,343441560228147 
531	 0,343349503869032 
532	 0,344180712748399 
533	 0,345249543107361 
534	 0,344064471829997 
535	 0,343194165948532 
536	 0,34396997833924 
537	 0,34380036020315 
538	 0,343153347547397 
539	 0,343525815252699 
540	 0,343928711100172 
541	 0,344027755338091 
542	 0,343638964717862 
543	 0,343619548686863 
544	 0,344727700688048 
545	 0,345089727400446 
546	 0,344647590678358 
547	 0,344276048723197 
548	 0,344422722211144 
549	 0,345202162872919 
550	 0,345462860735415 
551	 0,345481581583308 
552	 0,34589464012274 
553	 0,346532335192126 
554	 0,347135993063165 
555	 0,347015073158795 
556	 0,346237620402009 
557	 0,344981883686182 
558	 0,344505364762232 
559	 0,344610119190082 
560	 0,344147674961405 
561	 0,343759350265775 
562	 0,343602400548939 
563	 0,343107661221947 
564	 0,342633317126102 
565	 0,34270485392353 
566	 0,342648123297047 
567	 0,342500867900914 
568	 0,342942235988328 
569	 0,343832763403629 
570	 0,344994010513631 
571	 0,345668940153432 
572	 0,346309026935672 
573	 0,348182917081532 
574	 0,350138260260972 
575	 0,351782731910856 
576	 0,353403055279212 
577	 0,355156248442315 
578	 0,357175096677265 
579	 0,359077325968636 
580	 0,360605036530035 
581	 0,361213559812317 
582	 0,362030902170229 
583	 0,363672456703103 
584	 0,365284614969256 
585	 0,366723025566446 
586	 0,367935425521383 
587	 0,369544026667521 
588	 0,37139000361403 
589	 0,371881004616356 
590	 0,372186508428207 
591	 0,373421285135767 
592	 0,374468346925185 
593	 0,375173633445707 
594	 0,375760722944119 
595	 0,376134389157123 
596	 0,376254268379986 
597	 0,376195484350709 
598	 0,375825723575812 
599	 0,374897423507244 
600	 0,374683118798231 
601	 0,375093542967983 
602	 0,374092509189151 
603	 0,373628489501872 
604	 0,375018511258291 
605	 0,374653422470363 
606	 0,372862385435683 
607	 0,371917338058621 
608	 0,371317967311615 
609	 0,370920848946141 
610	 0,370542937788503 
611	 0,369913124894052 
612	 0,368742676566511 
613	 0,367760800198172 
614	 0,367078061204313 
615	 0,366386586001183 
616	 0,365533532029497 
617	 0,364539953770918 
618	 0,3644844097183 
619	 0,364896643272398 
620	 0,364557820473561 
621	 0,364205586671563 
622	 0,364119238712777 
623	 0,364472622983197 
624	 0,364936698236375 
625	 0,365157234019432 
626	 0,36504657861053 
627	 0,364867244046455 
628	 0,365404542153475 
629	 0,366077491811074 
630	 0,366602152031957 
631	 0,367281329356651 
632	 0,367979839905574 
633	 0,368414954097522 
634	 0,369130472173942 
635	 0,370183046222363 
636	 0,371043350012669 
637	 0,372048144958686 
638	 0,373462274387967 
639	 0,374752228720288 
640	 0,375881640754394 
641	 0,377110894596159 
642	 0,377910125567668 
643	 0,378256881102811 
644	 0,379464131108003 
645	 0,380645027634475 
646	 0,38051163958969 
647	 0,380678803822903 
648	 0,381174966484996 
649	 0,380746308225123 
650	 0,379584087228189 
651	 0,377945783205632 
652	 0,376913054394607 
653	 0,376189016935978 
654	 0,374778479963372 
655	 0,373419349059263 
656	 0,372213062510344 
657	 0,370528854710215 
658	 0,368454608953534 
659	 0,366134213054288 
660	 0,363861275950075 
661	 0,361742565001441 
662	 0,359778218911962 
663	 0,357962309623386 
664	 0,356263638615714 
665	 0,354511471418372 
666	 0,352841789399044 
667	 0,351481744871474 
668	 0,350295624365391 
669	 0,349288837875556 
670	 0,348600350860595 
671	 0,348137302086127 
672	 0,347778505567026 
673	 0,347023237908326 
674	 0,34613159975193 
675	 0,345870456062985 
676	 0,346113145998626 
677	 0,34659520265473 
678	 0,346032712700858 
679	 0,345496042954413 
680	 0,346355777386611 
681	 0,347048726658903 
682	 0,34749113614106 
683	 0,34859952070632 
684	 0,349991717220397 
685	 0,351508379408843 
686	 0,353580397112498 
687	 0,356342152432034 
688	 0,359899137547253 
689	 0,3639789168672 
690	 0,368655836119696 
691	 0,374501369640406 
692	 0,381364161757832 
693	 0,389080348537753 
694	 0,397555226623828 
695	 0,406762330407647 
696	 0,416677411067931 
697	 0,427440151675742 
698	 0,439004859535289 
699	 0,450779934762514 
700	 0,462757628556441 
701	 0,475030019520878 
702	 0,486749556515605 
703	 0,497886052215358 
704	 0,509296412324766 
705	 0,520448947675008 
706	 0,530961380841368 
707	 0,540734724494616 
708	 0,549961510869209 
709	 0,559070288715301 
710	 0,567252667700667 
711	 0,574470137678271 
712	 0,581645933204604 
713	 0,588573007241804 
714	 0,595001534528775 
715	 0,600759273577297 
716	 0,605866632894819 
717	 0,610376368586874 
718	 0,614880233506691 
719	 0,619514644241384 
720	 0,623343632131742 
721	 0,62664033735044 
722	 0,629868990102582 
723	 0,632670932773009 
724	 0,635070323322533 
725	 0,637340727389113 
726	 0,639599966512554 
727	 0,641861520620023 
728	 0,643522142049167 
729	 0,644843042579156 
730	 0,646425333181615 
731	 0,648055183618037 
732	 0,649525937392572 
733	 0,650240967771007 
734	 0,650667939896095 
735	 0,651271728214829 
736	 0,652339211266685 
737	 0,653573227945525 
738	 0,654158381000085 
739	 0,654326197267276 
740	 0,654298886612945 
741	 0,65481158865312 
742	 0,655547379222281 
743	 0,656058437847349 
744	 0,656233210668267 
745	 0,656269170633758 
746	 0,656894026565961 
747	 0,6574405969132 
748	 0,657558517910795 
749	 0,657551863600927 
750	 0,657477817242206 
751	 0,657356926991518 
752	 0,657416162483213 
753	 0,657637384718361 
754	 0,65765626377005 
755	 0,657764538744956 
756	 0,658124992909657 
757	 0,658160627590531 
758	 0,65793985949956 
759	 0,657792027803425 
760	 0,657549730734822 
761	 0,657293867044673 
762	 0,657582098355239 
763	 0,65788854990273 
764	 0,657708941533202 
765	 0,65748672581077 
766	 0,657310982732779 
767	 0,657164792210683 
768	 0,657099024289431 
769	 0,657113468215788 
770	 0,657042130730688 
771	 0,657077355420796 
772	 0,657443171607602 
773	 0,657340109550129 
774	 0,656814480510798 
775	 0,656554415400138 
776	 0,656539712334761 
777	 0,656698909113792 
778	 0,656554206624933 
779	 0,656094656252417 
780	 0,655378006705413 
781	 0,65549007608404 
782	 0,656238226229529 
783	 0,655812223134073 
784	 0,655244230455956 
785	 0,655218485220436 
786	 0,655403833109711 
787	 0,655505957251901 
788	 0,655081223770571 
789	 0,654656132570885 
790	 0,654435761914767 
791	 0,654536342657711 
792	 0,654510999007134 
793	 0,654047034233839 
794	 0,653910319238592 
795	 0,65385072036818 
796	 0,653007931472303 
797	 0,652487704189661 
798	 0,6526029218856 
799	 0,652874424510252 
800	 0,653103233821247 
801	 0,653106585713845 
802	 0,652715846365318 
803	 0,652159365509872 
804	 0,652059965666733 
805	 0,652028401068323 
806	 0,651969172252377 
807	 0,652080279180426 
808	 0,652400255110971 
809	 0,652929977891435 
810	 0,653208135533795 
811	 0,653097511293836 
812	 0,652498815782104 
813	 0,652037140558221 
814	 0,651973747197292 
815	 0,651907754808673 
816	 0,651863347003576 
817	 0,651902732423439 
818	 0,651815027254606 
819	 0,651569074128719 
820	 0,651149814118615 
821	 0,651136777663908 
822	 0,651696610047866 
823	 0,65195986359061 
824	 0,651805916505162 
825	 0,651225701295252 
826	 0,65115956919391 
827	 0,651588233241422 
828	 0,65158076271006 
829	 0,651838023369895 
830	 0,652508912629235 
831	 0,652090063149394 
832	 0,651440191738678 
833	 0,651920514454551 
834	 0,652375360001047 
835	 0,652421473037498 
836	 0,651743459381461 
837	 0,651355415281988 
838	 0,651697834278862 
839	 0,651546088656513 
840	 0,651165891339631 
841	 0,651123738508772 
842	 0,650895274444906 
843	 0,65056250557959 
844	 0,65080395780929 
845	 0,651079010182834 
846	 0,651052742379963 
847	 0,650607575759292 
848	 0,650374559987193 
849	 0,651226945025806 
850	 0,651622913432916 
851	 0,651227197352095 
852	 0,650267580254485 
853	 0,649811988241964 
854	 0,650354602682527 
855	 0,650781986540993 
856	 0,650719451731814 
857	 0,649871061613608 
858	 0,649621528234932 
859	 0,650048555406002 
860	 0,650254151155999 
861	 0,649964855514762 
862	 0,649146859666845 
863	 0,648625817174595 
864	 0,648728427391445 
865	 0,649702644131603 
866	 0,64976857388564 
867	 0,648998753497744 
868	 0,648993297832169 
869	 0,649393382011408 
870	 0,649904054670104 
871	 0,649694680759977 
872	 0,649291674240264 
873	 0,649398426625625 
874	 0,648866726219823 
875	 0,648049894956817 
876	 0,648654576280814 
877	 0,649209275440948 
878	 0,649079112533364 
879	 0,648525860847329 
880	 0,648152235243597 
881	 0,648559260137138 
882	 0,649215801232659 
883	 0,649754616031358 
884	 0,649515975973203 
885	 0,649469855327149 
886	 0,649838332294128 
887	 0,649732958425927 
888	 0,649651933529999 
889	 0,65002192545516 
890	 0,649537412497751 
891	 0,648682825098494 
892	 0,649033307217828 
893	 0,649265064055659 
894	 0,648907043998118 
895	 0,647788194071976 
896	 0,647364073656334 
897	 0,648566738195763 
898	 0,648914494234432 
899	 0,648458856392731 
900	 0,648024906822793 
901	 0,647665406874619 
902	 0,647588520276919 
903	 0,648300592290198 
904	 0,64906132738202 
905	 0,64926019542759 
906	 0,648221841116401 
907	 0,647165165583113 
908	 0,647877857054037 
909	 0,64792181152141 
910	 0,647213121820164 
911	 0,647521571406138 
912	 0,647560447898558 
913	 0,646935409854873 
914	 0,647117551031422 
915	 0,647396302881274 
916	 0,646906384943047 
917	 0,647056495997889 
918	 0,647498606845792 
919	 0,646563781724039 
920	 0,646258756183308 
921	 0,646835902670865 
922	 0,645843994954342 
923	 0,645162779327836 
924	 0,646176123419141 
925	 0,645612990693324 
926	 0,644303121283149 
927	 0,644686443494107 
928	 0,644743912914512 
929	 0,64415378408259 
930	 0,643834045617019 
931	 0,643837624594555 
932	 0,644004898956114 
933	 0,643061903201762 
934	 0,64163038683036 
935	 0,640720886032578 
936	 0,641240986195892 
937	 0,642351512751198 
938	 0,641068246280206 
939	 0,639943594373185 
940	 0,639770956985995 
941	 0,639212007055898 
942	 0,638836048160596 
943	 0,639118051180732 
944	 0,639157103476644 
945	 0,638617409457753 
946	 0,637187014255334 
947	 0,636119658293094 
948	 0,635535225981529 
949	 0,634277462694374 
950	 0,63323026391128 
951	 0,632871999817148 
952	 0,632899422614896 
953	 0,632613935585038 
954	 0,63128445276138 
955	 0,630172184949073 
956	 0,629474660438543 
957	 0,62892183731525 
958	 0,628566518311996 
959	 0,62842686204161 
960	 0,628681245136104 
961	 0,628593877395261 
962	 0,627660356985275 
963	 0,626550794898663 
964	 0,625776127507835 
965	 0,625900199079531 
966	 0,626779058484566 
967	 0,62736424604519 
968	 0,624498370289979 
969	 0,622863020972794 
970	 0,623836870868747 
971	 0,622735322987107 
972	 0,621644329916242 
973	 0,622462908934273 
974	 0,62161758938086 
975	 0,620548613583561 
976	 0,622829352523466 
977	 0,624307106820073 
978	 0,624001907762515 
979	 0,622812906117272 
980	 0,621997906605985 
981	 0,622245074505038 
982	 0,623035299268238 
983	 0,623757241898988 
984	 0,623909987936389 
985	 0,624915558762663 
986	 0,625726170576032 
987	 0,623891200896767 
988	 0,622275836257325 
989	 0,621787992548027 
990	 0,622102074469202 
991	 0,623102490496368 
992	 0,624706845243516 
993	 0,627469792238983 
994	 0,628801850015523 
995	 0,626352597650795 
996	 0,624845401184097 
997	 0,62501070209034 
998	 0,626500958622284 
999	 0,625242465580923 
1000	 0,622268539164481 
1001	 0,626222791356398 
1002	 0,627189053560411 
1003	 0,621844583937605 
1004	 0,621948636983649 
1005	 0,625001873393067 
1006	 0,627366420690402 
1007	 0,626741848728951 
1008	 0,624820477417255 
1009	 0,625416947190356 
1010	 0,626268971275152 
1011	 0,626637992506748 
1012	 0,625895775430744 
1013	 0,626280472660952 
1014	 0,62808432122672 
1015	 0,627293651844634 
1016	 0,626113490960655 
1017	 0,626551239911321 
1018	 0,627417940660632 
1019	 0,627652616068825 
1020	 0,626023181155617 
1021	 0,628973661469025 
1022	 0,633856775137283 
1023	 0,629154357957387 
1024	 0,625341282431555 
1025	 0,62583755492248 
1026	 0,627825049383688 
1027	 0,629955381290002 
1028	 0,631074379316498 
1029	 0,630737383241836 
1030	 0,628650112033042 
1031	 0,625276783077335 
1032	 0,631690824282793 
1033	 0,640971491941703 
1034	 0,635041473116797 
1035	 0,631054645802608 
1036	 0,632301177568894 
1037	 0,632784245319292 
1038	 0,629328180543326 
1039	 0,622630826514588 
1040	 0,624541412844538 
1041	 0,627968974044426 
1042	 0,627013940315463 
1043	 0,628283825051045 
1044	 0,630632900385466 
1045	 0,631579626607473 
1046	 0,637180233548136 
1047	 0,641362072767577 
1048	 0,627541660388517 
1049	 0,616942767040944 
1050	 0,61654566031732 
1051	 0,623326043028972 
1052	 0,629587707071114 
1053	 0,629802110599195 
1054	 0,620197909572657 
1055	 0,612297487257754 
1056	 0,61538713616814 
1057	 0,620335454219527 
1058	 0,625947085585775 
1059	 0,631711583424452 
1060	 0,623552839242021 
1061	 0,612872235716293 
1062	 0,633096929868269 
1063	 0,62983150649931 
1064	 0,602462694812122 
1065	 0,609548161631513 
1066	 0,619608478357126 
1067	 0,61980705202577 
1068	 0,620172466030617 
1069	 0,620718997752589 
1070	 0,620739499445134 
1071	 0,614918906895472 
1072	 0,615180642592416 
1073	 0,633334929457585 
1074	 0,626499207186778 
1075	 0,605829199283565 
