Wavelength	AURAY00470.asd
325	 0,193433006022096 
326	 0,210302708443972 
327	 0,155450430503 
328	 4,54704393191323E-02 
329	 0,14003424570012 
330	 0,234661574349965 
331	 0,202872524316777 
332	 0,130435791166646 
333	 7,36821423113639E-02 
334	 0,175060687756221 
335	 0,242648331896467 
336	 0,216978177566952 
337	 0,117530672538474 
338	 3,67721990395193E-02 
339	 0,061095499258982 
340	 9,33080911083043E-02 
341	 0,111503371110744 
342	 0,118614056543797 
343	 0,120725675116511 
344	 0,117311886149776 
345	 0,104574701184994 
346	 6,49948560220902E-02 
347	-0,021119192410344 
348	-2,99619057558837E-02 
349	 2,54759059595492E-02 
350	 0,040866136915522 
351	 5,11197331133669E-02 
352	 6,26366171704228E-02 
353	 0,040301359589585 
354	 1,97533324583959E-02 
355	 4,81273365425108E-02 
356	 5,17615737191558E-02 
357	 2,55893972218682E-02 
358	-7,64886013820421E-03 
359	-1,95967719811331E-02 
360	 6,79056358591143E-04 
361	 4,48603632460135E-02 
362	 7,73685029298394E-02 
363	 5,49457805853322E-02 
364	 3,23743032182144E-02 
365	 2,77541419961697E-02 
366	 5,71054569254684E-02 
367	 6,75702446075138E-02 
368	 0,033459415327504 
369	 4,82727726510604E-02 
370	 8,62382128435019E-02 
371	 8,71900222549382E-02 
372	 5,97230543614055E-02 
373	 2,00269140170245E-02 
374	 2,21346878764422E-02 
375	 4,13125327090055E-02 
376	 5,58094021355082E-02 
377	 2,66555634246757E-02 
378	-8,38819258249661E-03 
379	 5,41186494708961E-02 
380	 0,0740278662632 
381	 0,032352977900617 
382	 3,39367823600629E-02 
383	 4,94033955308396E-02 
384	 4,49524486618379E-02 
385	 3,40887148501974E-02 
386	 2,80061336627337E-02 
387	 5,09602193842696E-02 
388	 6,40359777151973E-02 
389	 5,45679173899154E-02 
390	 3,88270237111595E-02 
391	 2,73785493204145E-02 
392	 3,04097012749236E-02 
393	 0,038469079576491 
394	 4,44713302774237E-02 
395	 3,79382962241264E-02 
396	 2,53503297993669E-02 
397	 1,44326625333255E-02 
398	 2,51768936261327E-02 
399	 4,04585119250077E-02 
400	 3,36325465729798E-02 
401	 2,65860983037952E-02 
402	 2,52269498768878E-02 
403	 0,029556360422 
404	 3,12525734266473E-02 
405	 2,61043089221752E-02 
406	 3,12357583948473E-02 
407	 3,75775976992662E-02 
408	 1,97447878588326E-02 
409	 1,65056138179424E-02 
410	 3,21640671486988E-02 
411	 3,16947687485219E-02 
412	 2,51660420239323E-02 
413	 2,32791596996569E-02 
414	 2,08970419053726E-02 
415	 1,90638345670938E-02 
416	 2,17602025528855E-02 
417	 2,65070595959674E-02 
418	 3,04217993084392E-02 
419	 0,024360617639286 
420	 1,58962312363529E-02 
421	 1,55427378769845E-02 
422	 1,91820855036264E-02 
423	 2,30353822929316E-02 
424	 1,84475114198651E-02 
425	 1,37259315707644E-02 
426	 1,41759659069284E-02 
427	 2,00517631454098E-02 
428	 2,63382005264118E-02 
429	 2,44547280536461E-02 
430	 2,16263682152431E-02 
431	 2,02313011200546E-02 
432	 2,06351607169218E-02 
433	 2,05130093384551E-02 
434	 1,80687780624273E-02 
435	 1,86569022467966E-02 
436	 2,12769112054357E-02 
437	 2,08992596828017E-02 
438	 2,09861058159599E-02 
439	 2,25192358901767E-02 
440	 2,33006231343647E-02 
441	 2,26338750567657E-02 
442	 0,019917754978729 
443	 1,86582407659501E-02 
444	 1,91533004938622E-02 
445	 1,87196865050183E-02 
446	 1,98764799394786E-02 
447	 2,34115234304199E-02 
448	 2,22921746795768E-02 
449	 1,89901275451213E-02 
450	 1,99872004454124E-02 
451	 1,95469457873757E-02 
452	 0,017396566715943 
453	 2,01886681708965E-02 
454	 2,34173856104877E-02 
455	 2,28243662868763E-02 
456	 0,02263523144569 
457	 2,28091767611071E-02 
458	 2,09179132784027E-02 
459	 1,97167707200086E-02 
460	 2,01766001855836E-02 
461	 1,99427150069838E-02 
462	 0,019895909704961 
463	 2,14727774886702E-02 
464	 2,30250279482558E-02 
465	 0,023574003856708 
466	 2,15288079255442E-02 
467	 1,93033609571615E-02 
468	 1,85473375637761E-02 
469	 1,77165544857103E-02 
470	 1,77264165838846E-02 
471	 2,10790619149889E-02 
472	 2,24424455830245E-02 
473	 2,06543105722715E-02 
474	 1,93110532576048E-02 
475	 1,93044404385489E-02 
476	 2,11818776817689E-02 
477	 2,29760950306807E-02 
478	 2,36477794965721E-02 
479	 2,16961056412468E-02 
480	 2,02784415073146E-02 
481	 2,08863474860117E-02 
482	 2,21160512270083E-02 
483	 2,26197589779631E-02 
484	 2,07073568909262E-02 
485	 1,89043570075706E-02 
486	 0,018268291664708 
487	 1,99087267556209E-02 
488	 2,06297544822649E-02 
489	 1,83075132561428E-02 
490	 1,75022367221171E-02 
491	 1,78600584007697E-02 
492	 1,66600764656671E-02 
493	 0,016101213232934 
494	 1,68965276592742E-02 
495	 1,87690703324305E-02 
496	 1,98683785554136E-02 
497	 1,82382825361672E-02 
498	 1,77421669565426E-02 
499	 1,88068799623632E-02 
500	 2,00059713860071E-02 
501	 2,02712492317576E-02 
502	 0,019049251850652 
503	 1,71690967885503E-02 
504	 0,016121015174051 
505	 1,82856963399782E-02 
506	 1,97402451736362E-02 
507	 1,96877647400806E-02 
508	 2,05105753869073E-02 
509	 2,12555277205973E-02 
510	 2,09995506395717E-02 
511	 1,99055741402001E-02 
512	 1,87408749937069E-02 
513	 1,93528246924817E-02 
514	 1,98536846261999E-02 
515	 1,95266210709384E-02 
516	 1,96087702315407E-02 
517	 1,95988551472961E-02 
518	 1,86136436966347E-02 
519	 1,85822657760944E-02 
520	 0,019573730152848 
521	 1,98465592005819E-02 
522	 0,020412405210822 
523	 2,17784388321902E-02 
524	 2,11406084263835E-02 
525	 1,92849009152875E-02 
526	 1,87492717702736E-02 
527	 1,92363008406655E-02 
528	 2,03211080748785E-02 
529	 1,99457829912716E-02 
530	 1,92025032251672E-02 
531	 0,019510304845014 
532	 2,04679365626482E-02 
533	 2,15542743992935E-02 
534	 2,16184545095225E-02 
535	 2,10302559976343E-02 
536	 2,01361147838355E-02 
537	 1,97841963363194E-02 
538	 1,98802903034112E-02 
539	 2,00499326519538E-02 
540	 1,97728982334304E-02 
541	 0,019121244649376 
542	 0,019239807773553 
543	 0,019864462673382 
544	 2,06323239620693E-02 
545	 2,07647062718608E-02 
546	 2,02569324402389E-02 
547	 0,019446532882102 
548	 1,94627605140385E-02 
549	 2,05565876163681E-02 
550	 1,99656794972733E-02 
551	 1,90296568743249E-02 
552	 2,03596371275939E-02 
553	 2,07408832951366E-02 
554	 1,98328958224508E-02 
555	 2,02454095391113E-02 
556	 2,04582156560288E-02 
557	 1,92949740808189E-02 
558	 1,90061864383192E-02 
559	 1,93814566057273E-02 
560	 1,88885833277648E-02 
561	 1,81378746876937E-02 
562	 1,75549851172086E-02 
563	 1,81660008571207E-02 
564	 1,92129093225825E-02 
565	 1,95979611036589E-02 
566	 1,94623247430616E-02 
567	 1,89451960600593E-02 
568	 1,82747624443888E-02 
569	 1,85174019152595E-02 
570	 2,01915266645648E-02 
571	 2,05628638010933E-02 
572	 0,019972892100668 
573	 2,00476585403042E-02 
574	 0,02093856799652 
575	 2,22674741735585E-02 
576	 2,14547445334919E-02 
577	 0,020341008176819 
578	 0,02116848697331 
579	 2,22797614871813E-02 
580	 2,31093106093294E-02 
581	 0,023195088233884 
582	 2,29763178024716E-02 
583	 2,28542403401447E-02 
584	 2,37965222700227E-02 
585	 2,49101410548967E-02 
586	 2,44121559000587E-02 
587	 2,40394236208203E-02 
588	 2,41752799215744E-02 
589	 0,023836799436024 
590	 2,39765300602674E-02 
591	 2,53723873055912E-02 
592	 2,52125612951376E-02 
593	 2,39094183259384E-02 
594	 2,41371425345418E-02 
595	 2,45937575848898E-02 
596	 2,46830281764823E-02 
597	 2,45665561864089E-02 
598	 2,41142821040107E-02 
599	 0,023087242941906 
600	 2,29343860058664E-02 
601	 2,36544309266495E-02 
602	 2,33785534899634E-02 
603	 2,34293440489358E-02 
604	 2,46770216226118E-02 
605	 0,024344319963022 
606	 2,29189910846428E-02 
607	 2,26854610741448E-02 
608	 2,28106513131316E-02 
609	 2,29780830016858E-02 
610	 2,29160495798262E-02 
611	 2,27071305639163E-02 
612	 2,24946381845618E-02 
613	 2,28631272043225E-02 
614	 2,33811254956366E-02 
615	 2,20688728352663E-02 
616	 2,09888837443277E-02 
617	 2,13605044605334E-02 
618	 2,12372844052829E-02 
619	 2,08007878929483E-02 
620	 2,09761440436323E-02 
621	 2,11368518555207E-02 
622	 2,11515930603705E-02 
623	 2,14447038793134E-02 
624	 2,16047852768295E-02 
625	 2,12150399375723E-02 
626	 2,09448359543914E-02 
627	 2,09839295800316E-02 
628	 2,14224867222786E-02 
629	 2,18526920459977E-02 
630	 2,20108996025364E-02 
631	 2,18039875515333E-02 
632	 2,14957573927158E-02 
633	 2,15012477640041E-02 
634	 0,021832823706767 
635	 2,23046523142377E-02 
636	 2,20580405761939E-02 
637	 2,20516690015092E-02 
638	 2,30447542444023E-02 
639	 2,37336797691812E-02 
640	 2,39115103298964E-02 
641	 2,36795601045108E-02 
642	 2,35068763115744E-02 
643	 0,023637682640013 
644	 2,39998766925385E-02 
645	 2,45183218381635E-02 
646	 2,51097637565414E-02 
647	 2,50796806829765E-02 
648	 2,45527884636448E-02 
649	 2,46439229599349E-02 
650	 2,46704306587538E-02 
651	 0,024249231042128 
652	 2,43984175548757E-02 
653	 2,45732489650786E-02 
654	 2,33036521175975E-02 
655	 2,24812801184582E-02 
656	 2,26077532232642E-02 
657	 2,27422536113761E-02 
658	 2,25462225355077E-02 
659	 2,17592287804143E-02 
660	 2,11483220448961E-02 
661	 0,020807157166053 
662	 0,020428372236922 
663	 2,01614904530717E-02 
664	 0,020046313225487 
665	 1,98865651100381E-02 
666	 1,95994501744463E-02 
667	 1,90582206542872E-02 
668	 0,019328890007051 
669	 2,01363637438751E-02 
670	 1,90587439560688E-02 
671	 1,82154767442067E-02 
672	 1,92121416590819E-02 
673	 1,94695271970802E-02 
674	 1,89921972985772E-02 
675	 1,87763870319435E-02 
676	 1,92560659148799E-02 
677	 2,02446979420222E-02 
678	 1,94605623212091E-02 
679	 0,01844093280152 
680	 1,92009939483128E-02 
681	 0,019785711608492 
682	 1,98079739813482E-02 
683	 0,01954977226359 
684	 1,94128856236695E-02 
685	 1,96517409806806E-02 
686	 2,00551263171986E-02 
687	 2,06075520213086E-02 
688	 2,13796486063537E-02 
689	 2,17282283655458E-02 
690	 2,17170738028396E-02 
691	 2,24174553005148E-02 
692	 2,37773079753562E-02 
693	 2,56662131588688E-02 
694	 2,74846105549671E-02 
695	 2,93206398728535E-02 
696	 3,16994996601808E-02 
697	 3,44930895513984E-02 
698	 3,77022052173989E-02 
699	 4,13626551574889E-02 
700	 4,58274636722637E-02 
701	 5,15300044258489E-02 
702	 5,70848503930959E-02 
703	 6,24946782620719E-02 
704	 6,91196488778253E-02 
705	 7,61786024085706E-02 
706	 8,31679252631157E-02 
707	 9,03481502520955E-02 
708	 9,77950337416842E-02 
709	 0,105631366514982 
710	 0,113295031721455 
711	 0,120713644439925 
712	 0,128496150057684 
713	 0,136166000714934 
714	 0,143285662307938 
715	 0,150448740851303 
716	 0,157646779406205 
717	 0,164618008085154 
718	 0,171102138354919 
719	 0,17701530288785 
720	 0,182727655808015 
721	 0,18825710166339 
722	 0,193581217243253 
723	 0,19845297931018 
724	 0,202885775030507 
725	 0,207226527175297 
726	 0,210936215847816 
727	 0,213807355013005 
728	 0,216935991924926 
729	 0,220283767715359 
730	 0,223520774518602 
731	 0,226254123098797 
732	 0,228425279193192 
733	 0,230447716712531 
734	 0,232314825432294 
735	 0,234013665879788 
736	 0,235556038686936 
737	 0,236986864642391 
738	 0,238356676507104 
739	 0,239876936980702 
740	 0,241514800011497 
741	 0,242647472212959 
742	 0,243408408748459 
743	 0,244023800845112 
744	 0,244752772317346 
745	 0,245669685545842 
746	 0,24683531974606 
747	 0,247549011934955 
748	 0,247553672571092 
749	 0,247995135415173 
750	 0,24873933112335 
751	 0,249363600971152 
752	 0,249788838278254 
753	 0,250034512728394 
754	 0,250297433080456 
755	 0,250684807344249 
756	 0,251249359666343 
757	 0,251714881686449 
758	 0,25206741761704 
759	 0,252399068069099 
760	 0,252549357973582 
761	 0,252538101946967 
762	 0,252634824421356 
763	 0,252969442867722 
764	 0,253598758900459 
765	 0,253725239998019 
766	 0,253460873765729 
767	 0,253504628449252 
768	 0,253610883606903 
769	 0,253726381869117 
770	 0,253995185671916 
771	 0,254293354069502 
772	 0,254469220027967 
773	 0,254783709773792 
774	 0,25508433849816 
775	 0,254702423603817 
776	 0,254464403381485 
777	 0,254770605634482 
778	 0,255111558688771 
779	 0,255327314206171 
780	 0,255280933690471 
781	 0,255167178751927 
782	 0,255094781008147 
783	 0,255183191108039 
784	 0,255428560918722 
785	 0,255765611026506 
786	 0,25572229871358 
787	 0,255457061260627 
788	 0,255363687578657 
789	 0,255398332279424 
790	 0,255573015815866 
791	 0,255943003972638 
792	 0,256243005457895 
793	 0,256258217823972 
794	 0,256136862358469 
795	 0,255889938498546 
796	 0,255421969518857 
797	 0,255363537945461 
798	 0,255775607819046 
799	 0,255747750374367 
800	 0,255800237867753 
801	 0,256386145221848 
802	 0,256216250578733 
803	 0,255548596417392 
804	 0,255645906860066 
805	 0,255776181853525 
806	 0,255777810249391 
807	 0,256155352109895 
808	 0,256655700238155 
809	 0,256975402192381 
810	 0,257289810088583 
811	 0,257457665410329 
812	 0,256912790513237 
813	 0,25684990911219 
814	 0,257600479265624 
815	 0,257772796916323 
816	 0,25752980543907 
817	 0,257234834656441 
818	 0,257538117121581 
819	 0,258226268723212 
820	 0,258203266887467 
821	 0,25793164577906 
822	 0,257714109030373 
823	 0,258060645254695 
824	 0,258393191049379 
825	 0,257926106884288 
826	 0,258240219429794 
827	 0,259116675103356 
828	 0,258606551162011 
829	 0,258199563936448 
830	 0,258556713192788 
831	 0,25852140415503 
832	 0,258381016181855 
833	 0,258680073668522 
834	 0,258807849636378 
835	 0,25867272528705 
836	 0,258456389801781 
837	 0,25842917864021 
838	 0,258698692084816 
839	 0,258848587129129 
840	 0,258866557139992 
841	 0,25881202266845 
842	 0,258668209561769 
843	 0,258526186206093 
844	 0,258698847640354 
845	 0,258682848961914 
846	 0,258303730614305 
847	 0,258439693741564 
848	 0,258772089309991 
849	 0,258718625095599 
850	 0,258949416470657 
851	 0,259249955308823 
852	 0,2583204903815 
853	 0,257744512631295 
854	 0,258274724064681 
855	 0,258580698589136 
856	 0,258649463049339 
857	 0,258677518200945 
858	 0,258473995692183 
859	 0,258157721353289 
860	 0,25818219124101 
861	 0,258406559103296 
862	 0,258652189817462 
863	 0,258255734794395 
864	 0,25783940267235 
865	 0,258277120669831 
866	 0,258289961858055 
867	 0,257921517239604 
868	 0,258334875134442 
869	 0,258347918176244 
870	 0,257689198051773 
871	 0,258347770414368 
872	 0,259295229139615 
873	 0,259120119918674 
874	 0,259115267817306 
875	 0,259347993988378 
876	 0,259168697141359 
877	 0,259116769762185 
878	 0,259369676908305 
879	 0,259590443797775 
880	 0,25958658104849 
881	 0,259213606210235 
882	 0,258945323919277 
883	 0,259108323215834 
884	 0,260389024821876 
885	 0,261013443725624 
886	 0,260459707673924 
887	 0,25979781889397 
888	 0,259747260912475 
889	 0,260775141944511 
890	 0,260810330956091 
891	 0,260216721855489 
892	 0,260732411994648 
893	 0,260506099643557 
894	 0,259454367855927 
895	 0,259866845317023 
896	 0,260621769025941 
897	 0,260792366185853 
898	 0,260966607793621 
899	 0,261039552104488 
900	 0,260658338730177 
901	 0,261055206705224 
902	 0,262090766326158 
903	 0,26191409738546 
904	 0,261339982703574 
905	 0,260911452686188 
906	 0,260431231951081 
907	 0,260215659536581 
908	 0,260696507102189 
909	 0,260868046423451 
910	 0,260615919648406 
911	 0,260526827623184 
912	 0,260094643730075 
913	 0,259285257062103 
914	 0,25923187234058 
915	 0,25956588567117 
916	 0,259761565144522 
917	 0,260051243307364 
918	 0,260240287372548 
919	 0,259820487278648 
920	 0,25907066515415 
921	 0,258346810721266 
922	 0,258660309296886 
923	 0,259268870153848 
924	 0,259413077406045 
925	 0,258425806622788 
926	 0,25709346238587 
927	 0,257031810667052 
928	 0,256760732918261 
929	 0,255972815585516 
930	 0,255075135471971 
931	 0,25461788977687 
932	 0,254765081694114 
933	 0,254293990308883 
934	 0,25332625224058 
935	 0,252232056525933 
936	 0,251525684374364 
937	 0,25111855272542 
938	 0,250389256229963 
939	 0,249523319186911 
940	 0,248659136060722 
941	 0,248237776735902 
942	 0,247645727642288 
943	 0,246391903883867 
944	 0,245463601032039 
945	 0,244798775736584 
946	 0,243986922179903 
947	 0,242959417848929 
948	 0,241682679212178 
949	 0,240080780597338 
950	 0,239078017853513 
951	 0,238883592910142 
952	 0,237066622103387 
953	 0,235370210614606 
954	 0,236002387974851 
955	 0,234137766031359 
956	 0,230704022033171 
957	 0,230814250871668 
958	 0,230666139743188 
959	 0,229233423490899 
960	 0,22801582939548 
961	 0,227113987022615 
962	 0,226524806173932 
963	 0,225788062269709 
964	 0,225133720454179 
965	 0,22500385124092 
966	 0,224438885895192 
967	 0,223540270894843 
968	 0,223399459400513 
969	 0,223336447724206 
970	 0,223017148155 
971	 0,222283072653337 
972	 0,221788021550307 
973	 0,222033460147444 
974	 0,221594618817586 
975	 0,221205755897085 
976	 0,222610859413726 
977	 0,222748740581626 
978	 0,221703576904906 
979	 0,222837701100455 
980	 0,224223945422929 
981	 0,224720373896752 
982	 0,223680693371517 
983	 0,223058129967239 
984	 0,224707414365957 
985	 0,225942932851902 
986	 0,225823183298901 
987	 0,223631857785486 
988	 0,221004804151786 
989	 0,219646194038438 
990	 0,223454847815056 
991	 0,225776893089404 
992	 0,224261789664941 
993	 0,228353948702261 
994	 0,231884243226646 
995	 0,228356545608834 
996	 0,228155100109727 
997	 0,230338184209545 
998	 0,229253440402444 
999	 0,22986310332631 
1000	 0,232291352333907 
1001	 0,232270055811337 
1002	 0,231101393048257 
1003	 0,229934807234756 
1004	 0,23111146886457 
1005	 0,233476433990716 
1006	 0,235332224265572 
1007	 0,232725658852804 
1008	 0,229749560805312 
1009	 0,23464347635191 
1010	 0,237724760696273 
1011	 0,236824775840548 
1012	 0,233600283585435 
1013	 0,233740298848354 
1014	 0,23834732914561 
1015	 0,237900279636035 
1016	 0,237409954086313 
1017	 0,240997598915016 
1018	 0,242676433326523 
1019	 0,24265661986635 
1020	 0,242528807533654 
1021	 0,243346460834035 
1022	 0,244689978861774 
1023	 0,244567231214145 
1024	 0,244252265517887 
1025	 0,244206875390885 
1026	 0,244277134685918 
1027	 0,245064521765748 
1028	 0,246579046130659 
1029	 0,246237521862325 
1030	 0,244969510254031 
1031	 0,244305133291376 
1032	 0,24577461985121 
1033	 0,247819454223576 
1034	 0,246673177058446 
1035	 0,246293376167521 
1036	 0,247526121983207 
1037	 0,249296959971773 
1038	 0,250150996314777 
1039	 0,250022034697859 
1040	 0,253011719070123 
1041	 0,255484145793748 
1042	 0,254729472522856 
1043	 0,256338977350031 
1044	 0,257192872318663 
1045	 0,252688687171357 
1046	 0,260784647080702 
1047	 0,274030416880413 
1048	 0,266708544579817 
1049	 0,25693385636395 
1050	 0,251827663615854 
1051	 0,254386390593484 
1052	 0,256265914031521 
1053	 0,254446066059368 
1054	 0,2592826226909 
1055	 0,262139393969222 
1056	 0,256792056785851 
1057	 0,258833066242777 
1058	 0,264173131838926 
1059	 0,263889672239813 
1060	 0,257095113734841 
1061	 0,25181615869968 
1062	 0,266648556624043 
1063	 0,273993887152865 
1064	 0,268161283523769 
1065	 0,261867660443046 
1066	 0,261687570099976 
1067	 0,26788044149489 
1068	 0,261720547598507 
1069	 0,257080311129558 
1070	 0,263667389867982 
1071	 0,265591756340568 
1072	 0,268825351078853 
1073	 0,280412757731473 
1074	 0,268224448052493 
1075	 0,246934378082677 
