Wavelength	AURAY00518.asd
325	-0,189377128968073 
326	 6,46921851382818E-02 
327	 0,147659744853719 
328	-4,29752297299187E-02 
329	 7,21613125814613E-02 
330	 0,227898156619753 
331	 0,239815433785981 
332	 0,190272021526661 
333	 0,104966191475131 
334	 2,68253304750327E-02 
335	 6,48106995664412E-02 
336	 0,179467335216773 
337	 0,109065131125597 
338	-2,68947055138821E-03 
339	-0,011900054633098 
340	 4,39535400532787E-02 
341	 0,100645885841075 
342	 4,84219771690314E-02 
343	 8,15543022583392E-03 
344	 2,04321900067926E-02 
345	 4,41353099589033E-02 
346	 3,10788237080702E-02 
347	-5,70439800297123E-02 
348	-7,83238532588843E-02 
349	-0,022676345212664 
350	 5,46752474176626E-02 
351	 8,19011681279353E-02 
352	 4,10137206797365E-02 
353	-2,80252628545323E-02 
354	-5,83558953769279E-02 
355	 2,31609488289354E-02 
356	 5,34311879414709E-02 
357	 2,33103946306444E-02 
358	-1,69701095731169E-02 
359	-1,61649762887736E-02 
360	 3,64980446263492E-02 
361	 5,31280579216253E-02 
362	 4,44010394159911E-02 
363	 3,83065075505432E-02 
364	 0,032393248537692 
365	 3,37846980256293E-02 
366	 6,97394916511178E-02 
367	 8,28413127490019E-02 
368	 4,27677879894062E-02 
369	 3,07242963740385E-02 
370	 3,57930001318635E-02 
371	 1,85101451720319E-02 
372	 1,58070000762895E-03 
373	-5,79554232413094E-03 
374	 5,68367632038181E-03 
375	 1,62735939473963E-02 
376	 1,34163698169681E-02 
377	 1,97061181213424E-02 
378	 3,55782383892358E-02 
379	 5,43903298603664E-02 
380	 5,50990557945445E-02 
381	 3,69052083203269E-02 
382	 2,39661352736187E-02 
383	 2,25263863823771E-02 
384	 3,46723633177332E-02 
385	 3,07876352299621E-02 
386	 1,93467389287604E-02 
387	 3,91952420829936E-02 
388	 4,73269949996123E-02 
389	 3,39509974097751E-02 
390	 3,88063672099952E-02 
391	 4,90264983300914E-02 
392	 4,58341499792054E-02 
393	 4,33338263723109E-02 
394	 4,16380215003443E-02 
395	 3,14798078321005E-02 
396	 2,00734863593825E-02 
397	 1,42940501334562E-02 
398	 2,39312226580993E-02 
399	 3,82189711520051E-02 
400	 0,041545121733328 
401	 4,02204831533174E-02 
402	 3,70954019669633E-02 
403	 3,80278895242906E-02 
404	 3,40432681897375E-02 
405	 2,15124553018713E-02 
406	 0,027945074971186 
407	 4,13455752918477E-02 
408	 2,83878081133858E-02 
409	 2,40384355153557E-02 
410	 3,37509269149931E-02 
411	 3,31656140337213E-02 
412	 2,90259239898606E-02 
413	 0,028471585339301 
414	 2,69071783719364E-02 
415	 2,58911758703605E-02 
416	 3,12784652723677E-02 
417	 3,61355427022281E-02 
418	 3,65221585181131E-02 
419	 2,80195050619787E-02 
420	 1,99866346633421E-02 
421	 0,024575086086545 
422	 2,96358397013454E-02 
423	 3,23377644833081E-02 
424	 0,03463611241458 
425	 3,33560927237007E-02 
426	 2,75979405935967E-02 
427	 2,58220021684031E-02 
428	 2,79584297022297E-02 
429	 3,22551074877633E-02 
430	 3,09466167914604E-02 
431	 2,43324477783828E-02 
432	 2,49616525360375E-02 
433	 2,70514440406683E-02 
434	 2,54141711468035E-02 
435	 2,80902828821639E-02 
436	 3,26755998978576E-02 
437	 2,96892388174442E-02 
438	 2,74132422756455E-02 
439	 2,85888074448851E-02 
440	 2,78634449356378E-02 
441	 2,75129998622621E-02 
442	 3,09160004263866E-02 
443	 2,99420113632135E-02 
444	 2,57162112959596E-02 
445	 2,86470974011521E-02 
446	 3,25178838476913E-02 
447	 0,033276682598802 
448	 3,14759883380793E-02 
449	 2,91076613630958E-02 
450	 2,96458714249944E-02 
451	 0,030829653056814 
452	 3,16263581985669E-02 
453	 3,08597624593309E-02 
454	 0,029599083092761 
455	 0,029044805703021 
456	 3,17342723231542E-02 
457	 3,54742431324918E-02 
458	 0,033722410020925 
459	 3,00218712208166E-02 
460	 2,66526264436319E-02 
461	 2,74162847119751E-02 
462	 2,94701104721279E-02 
463	 0,028567620130353 
464	 2,90063539504004E-02 
465	 0,030770477594728 
466	 0,030402625090634 
467	 2,90672838535696E-02 
468	 2,77191438203181E-02 
469	 2,71230399598234E-02 
470	 2,76128829359437E-02 
471	 2,97756152173811E-02 
472	 0,030117648792901 
473	 2,86414170750198E-02 
474	 3,18209961164363E-02 
475	 0,034130940518513 
476	 3,02767139516633E-02 
477	 3,03482191138919E-02 
478	 0,033102561409143 
479	 2,87647733161337E-02 
480	 2,67667143943937E-02 
481	 0,030618624903333 
482	 0,031685501788881 
483	 3,07032962417613E-02 
484	 3,01408791205828E-02 
485	 2,94641736417703E-02 
486	 2,87658138590131E-02 
487	 2,86248555346132E-02 
488	 2,79204507195916E-02 
489	 2,60909913381178E-02 
490	 2,69161749576211E-02 
491	 2,87080873646039E-02 
492	 2,58525206471481E-02 
493	 2,51941042396415E-02 
494	 2,81801869540583E-02 
495	 2,87960867647131E-02 
496	 2,82965617267635E-02 
497	 0,028592423121641 
498	 2,75909331315382E-02 
499	 2,61560037111663E-02 
500	 0,028154431067971 
501	 3,03304980694245E-02 
502	 3,06509055062568E-02 
503	 2,85944787149657E-02 
504	 2,64815560649642E-02 
505	 2,84652493256945E-02 
506	 2,99570159982925E-02 
507	 2,98825910407228E-02 
508	 3,00477005574166E-02 
509	 3,04113906321122E-02 
510	 3,08174847336878E-02 
511	 2,99632124061039E-02 
512	 2,88870015209567E-02 
513	 3,12121226535473E-02 
514	 3,20429800732499E-02 
515	 2,97457512425511E-02 
516	 2,86424984795551E-02 
517	 2,86377371405467E-02 
518	 0,028910896222355 
519	 3,00807023571396E-02 
520	 3,15884177787866E-02 
521	 3,11149388681622E-02 
522	 0,030814152411586 
523	 3,20670884326162E-02 
524	 0,031930667553844 
525	 0,030731782042677 
526	 3,00762877674966E-02 
527	 3,02550684462066E-02 
528	 3,10824408730373E-02 
529	 3,05961616256691E-02 
530	 0,029950102191145 
531	 3,06051927416356E-02 
532	 3,07454293157894E-02 
533	 3,03535781746372E-02 
534	 3,08048780377335E-02 
535	 3,08469004983125E-02 
536	 2,99240413602558E-02 
537	 2,98972447540046E-02 
538	 3,04755306478711E-02 
539	 0,030653474812224 
540	 3,08971596913818E-02 
541	 3,12324432514864E-02 
542	 3,13093260158374E-02 
543	 3,11189253086082E-02 
544	 3,06900642391369E-02 
545	 3,03129875874523E-02 
546	 3,01935227232775E-02 
547	 3,06055545784459E-02 
548	 3,14912254256413E-02 
549	 0,032529898798221 
550	 3,19417065934134E-02 
551	 3,07047146377174E-02 
552	 3,06295675660046E-02 
553	 3,06091393884889E-02 
554	 3,05527410055256E-02 
555	 3,13785689773173E-02 
556	 0,031820787107123 
557	 3,09261212010072E-02 
558	 3,06202210429884E-02 
559	 3,07256082328294E-02 
560	 2,97819330134318E-02 
561	 2,92684162834708E-02 
562	 2,96309079503177E-02 
563	 2,96392329461525E-02 
564	 2,95813397757565E-02 
565	 2,99853443129723E-02 
566	 3,00621351808538E-02 
567	 2,97462850777342E-02 
568	 2,94985265644042E-02 
569	 2,95222489744962E-02 
570	 2,99350849196991E-02 
571	 3,03770412212919E-02 
572	 3,06698404808603E-02 
573	 3,04729786703198E-02 
574	 3,10594710387889E-02 
575	 3,24878011620627E-02 
576	 3,24312674490123E-02 
577	 3,21933559548846E-02 
578	 3,33796126427588E-02 
579	 3,40958236217284E-02 
580	 0,0341459844311 
581	 3,43146477939546E-02 
582	 0,034465020635037 
583	 3,46081055945628E-02 
584	 3,53402384114615E-02 
585	 0,036099057663431 
586	 3,57546525539337E-02 
587	 3,57169419778648E-02 
588	 3,62902945047949E-02 
589	 3,67007863524479E-02 
590	 3,71115112802763E-02 
591	 3,76678164674776E-02 
592	 3,76823971946522E-02 
593	 3,73236684603721E-02 
594	 3,73539758620793E-02 
595	 0,037690307158338 
596	 3,82058416979676E-02 
597	 3,82547416954279E-02 
598	 3,79737704132543E-02 
599	 3,76829684527711E-02 
600	 3,72886762638668E-02 
601	 3,68542820380844E-02 
602	 3,64929519427552E-02 
603	 3,67114004690068E-02 
604	 3,77463093929414E-02 
605	 3,75850169307076E-02 
606	 3,66122111043344E-02 
607	 3,66273950338188E-02 
608	 3,67813145721022E-02 
609	 3,67569957479253E-02 
610	 3,64895328201842E-02 
611	 3,60234523603821E-02 
612	 3,54300593189835E-02 
613	 0,0354136524089 
614	 3,57206034923164E-02 
615	 3,48875174255717E-02 
616	 3,39950525135585E-02 
617	 3,37605797380034E-02 
618	 0,033845532855779 
619	 3,40875471114042E-02 
620	 3,43188200084316E-02 
621	 3,41161374071713E-02 
622	 3,36240718653958E-02 
623	 3,43931172003385E-02 
624	 3,49930394625847E-02 
625	 3,39457735441482E-02 
626	 3,34870474618728E-02 
627	 3,38717302312612E-02 
628	 3,43477486844156E-02 
629	 3,48651975667947E-02 
630	 3,52852070352964E-02 
631	 3,51572709769221E-02 
632	 3,47948797192105E-02 
633	 3,47800602684738E-02 
634	 3,47397360040489E-02 
635	 3,46534326160285E-02 
636	 3,47229094128374E-02 
637	 3,52862222483365E-02 
638	 3,65277676242151E-02 
639	 3,71337210974215E-02 
640	 3,71390521356905E-02 
641	 3,73516396143807E-02 
642	 3,72493668308679E-02 
643	 3,68412130025416E-02 
644	 3,72379875930639E-02 
645	 3,80842449192173E-02 
646	 0,038791286647001 
647	 3,87807209461411E-02 
648	 3,81799696433531E-02 
649	 3,80752057778701E-02 
650	 3,78599171987378E-02 
651	 3,72209114782979E-02 
652	 0,037248596307628 
653	 3,74503113414073E-02 
654	 0,036473490083451 
655	 3,57285604002709E-02 
656	 3,55344087479773E-02 
657	 3,49464961029072E-02 
658	 3,43039201908972E-02 
659	 3,39835023884755E-02 
660	 3,31449044210389E-02 
661	 3,20248456606958E-02 
662	 3,18132426637965E-02 
663	 3,15954930439148E-02 
664	 3,09691344008426E-02 
665	 3,06034695549386E-02 
666	 3,03094657675057E-02 
667	 0,02964361962333 
668	 2,96965817894078E-02 
669	 3,02899852677388E-02 
670	 2,93793312422771E-02 
671	 2,87491348369263E-02 
672	 2,97059578978333E-02 
673	 2,95188293245015E-02 
674	 2,85291769120878E-02 
675	 2,86712977406357E-02 
676	 2,90908507908862E-02 
677	 2,93523811439513E-02 
678	 2,86193347094718E-02 
679	 2,80658926476366E-02 
680	 0,029130636173958 
681	 2,97199227737358E-02 
682	 0,029642372119029 
683	 2,99927192815029E-02 
684	 3,03831779053245E-02 
685	 3,06169811431027E-02 
686	 3,09372779537394E-02 
687	 3,13717634055972E-02 
688	 3,18661512259491E-02 
689	 3,28480519975867E-02 
690	 3,43594390559238E-02 
691	 3,58184831269984E-02 
692	 3,77949212376075E-02 
693	 4,07701282555507E-02 
694	 4,38098215350511E-02 
695	 4,69386710695969E-02 
696	 5,05172284218998E-02 
697	 5,52640693796729E-02 
698	 6,14059190137855E-02 
699	 6,79698006966129E-02 
700	 7,51557225495065E-02 
701	 8,33465935450415E-02 
702	 9,18063143932023E-02 
703	 0,100525685943659 
704	 0,110333103364783 
705	 0,120213498268286 
706	 0,129552814918681 
707	 0,139201742381385 
708	 0,148978705792767 
709	 0,158336001833583 
710	 0,167625783704002 
711	 0,176868515159077 
712	 0,185706856070072 
713	 0,194113526542529 
714	 0,202080139005469 
715	 0,20964560118979 
716	 0,216841907643901 
717	 0,223679638589804 
718	 0,230284001411035 
719	 0,23662911133336 
720	 0,24226231826358 
721	 0,2474003857565 
722	 0,252379096536692 
723	 0,256621966070128 
724	 0,260286216790444 
725	 0,264345335831319 
726	 0,268037617957761 
727	 0,270930983600161 
728	 0,273521228685248 
729	 0,276084065255352 
730	 0,278989935772541 
731	 0,281555922632618 
732	 0,283569821358432 
733	 0,285140883572311 
734	 0,286537402703885 
735	 0,288013553457646 
736	 0,289715885599823 
737	 0,291476782275767 
738	 0,292871073890631 
739	 0,293847858743399 
740	 0,294550956292593 
741	 0,295939356321912 
742	 0,297407362463239 
743	 0,298175251666149 
744	 0,298936072962954 
745	 0,299866149535231 
746	 0,301066637468874 
747	 0,30193854126743 
748	 0,302212664213718 
749	 0,302515700572284 
750	 0,303002934722847 
751	 0,303777825953963 
752	 0,30452242174196 
753	 0,305121251953647 
754	 0,305539891979859 
755	 0,305983730904951 
756	 0,306599850582388 
757	 0,307269489832394 
758	 0,307858241944456 
759	 0,308151311921425 
760	 0,308308354675742 
761	 0,308451978135603 
762	 0,308841719046564 
763	 0,309262357774851 
764	 0,309506060054643 
765	 0,309746396271759 
766	 0,31010282876975 
767	 0,31086551804214 
768	 0,311271026218326 
769	 0,311142357096655 
770	 0,311413858290386 
771	 0,311944254333722 
772	 0,312467482320403 
773	 0,313007047924374 
774	 0,313383332200856 
775	 0,313044503060257 
776	 0,312922433091606 
777	 0,313459399093961 
778	 0,314004153425634 
779	 0,314290354298088 
780	 0,314048783010473 
781	 0,314096177748551 
782	 0,314512528905198 
783	 0,314678412032593 
784	 0,314879313943853 
785	 0,315285143534436 
786	 0,31570997395293 
787	 0,315992093116388 
788	 0,31590396683391 
789	 0,31571765997616 
790	 0,315651335185802 
791	 0,316165598605803 
792	 0,316675390116102 
793	 0,316716059047837 
794	 0,316741749232824 
795	 0,316739192678366 
796	 0,316479847899531 
797	 0,316472460508737 
798	 0,316825416753509 
799	 0,317114579577657 
800	 0,317392865415936 
801	 0,317716255431369 
802	 0,317885124226657 
803	 0,317961515503756 
804	 0,31820276352347 
805	 0,318391261006994 
806	 0,318499531758526 
807	 0,318759255008811 
808	 0,319263367072562 
809	 0,320053973112689 
810	 0,32040128394991 
811	 0,320290000104874 
812	 0,320066077165297 
813	 0,32026782162196 
814	 0,32099012669578 
815	 0,321150112526134 
816	 0,321035162393228 
817	 0,321110819870351 
818	 0,321564195633596 
819	 0,32223287660002 
820	 0,322510741363316 
821	 0,322582082975264 
822	 0,322620614003734 
823	 0,323214343002657 
824	 0,323747749254651 
825	 0,323382851693019 
826	 0,323280106961229 
827	 0,323642407664875 
828	 0,324169788184824 
829	 0,324590896247784 
830	 0,324767000136837 
831	 0,324952583532232 
832	 0,325188266335421 
833	 0,325488297502156 
834	 0,325451133399145 
835	 0,32524682761573 
836	 0,325809662852178 
837	 0,326139132072491 
838	 0,325799303373805 
839	 0,325829989156226 
840	 0,326117186820128 
841	 0,326333016829039 
842	 0,326301614671719 
843	 0,32616427845074 
844	 0,326551114078967 
845	 0,327034774398154 
846	 0,327353958154161 
847	 0,327523709336326 
848	 0,327547254398176 
849	 0,327435097828489 
850	 0,327745259230927 
851	 0,328262907383479 
852	 0,327706861562733 
853	 0,327581095805435 
854	 0,328504345620282 
855	 0,328645286400893 
856	 0,328418258030013 
857	 0,328665423733936 
858	 0,328723189747492 
859	 0,328625727624395 
860	 0,32898494147608 
861	 0,329263438329506 
862	 0,329211661982961 
863	 0,329153596391329 
864	 0,329268701548152 
865	 0,329729270538386 
866	 0,330015259516771 
867	 0,330124516934413 
868	 0,330480631620311 
869	 0,330777478958809 
870	 0,330941077131038 
871	 0,331520721115633 
872	 0,331888980029641 
873	 0,331286596107223 
874	 0,330976823821826 
875	 0,331150840736315 
876	 0,331463289808619 
877	 0,331736118856043 
878	 0,331986361839661 
879	 0,332985178425338 
880	 0,333773225012358 
881	 0,333336650509006 
882	 0,333114116954452 
883	 0,333489755694642 
884	 0,334772427660568 
885	 0,33534203255506 
886	 0,334812254839604 
887	 0,334717582284868 
888	 0,334944135562206 
889	 0,335250934673242 
890	 0,335033689722673 
891	 0,334635548997858 
892	 0,335067658326979 
893	 0,335407774948799 
894	 0,335450606071452 
895	 0,335649603288265 
896	 0,336170838525727 
897	 0,33700649706178 
898	 0,336915076914452 
899	 0,336402061714774 
900	 0,336706069069646 
901	 0,337120716048307 
902	 0,337446091031848 
903	 0,337706957714434 
904	 0,337850074032027 
905	 0,337832381466263 
906	 0,337542932533419 
907	 0,337409152735437 
908	 0,338022538406168 
909	 0,338241684897382 
910	 0,337960334466583 
911	 0,33781918418675 
912	 0,337659983282002 
913	 0,337440030141372 
914	 0,337137988937667 
915	 0,337282304200544 
916	 0,338359960966672 
917	 0,338614743320261 
918	 0,33814130602023 
919	 0,33820797913239 
920	 0,33782355753789 
921	 0,336956731467654 
922	 0,336890560120261 
923	 0,337405273254065 
924	 0,338121625257871 
925	 0,337806407631268 
926	 0,336833552760934 
927	 0,336280104853997 
928	 0,335575990555212 
929	 0,334719554647845 
930	 0,334133979891184 
931	 0,333828496608001 
932	 0,333765531649033 
933	 0,333721584622056 
934	 0,333473126954918 
935	 0,332794598883392 
936	 0,331857700868057 
937	 0,330852441275879 
938	 0,33014720360676 
939	 0,329493727430725 
940	 0,328858347716088 
941	 0,328618010310469 
942	 0,328177385246105 
943	 0,327051158755706 
944	 0,326079990961274 
945	 0,325161043062704 
946	 0,323838995969305 
947	 0,322630335879801 
948	 0,321578321348781 
949	 0,320355874561934 
950	 0,318638278063131 
951	 0,316559917204215 
952	 0,316413334108347 
953	 0,316292455766265 
954	 0,313701166761697 
955	 0,310258758342282 
956	 0,307664429347054 
957	 0,309561579697388 
958	 0,309740886264056 
959	 0,306793459497616 
960	 0,305201438084235 
961	 0,304756787008691 
962	 0,304952985702501 
963	 0,3038136298236 
964	 0,302429406757624 
965	 0,302872296497239 
966	 0,303393870423311 
967	 0,303315287574132 
968	 0,301833664327965 
969	 0,301323368245942 
970	 0,302376285453052 
971	 0,301981941092476 
972	 0,30153128332852 
973	 0,302257500524956 
974	 0,301337392237866 
975	 0,300285549450234 
976	 0,302593581522708 
977	 0,303484327081418 
978	 0,302412295425905 
979	 0,302281795502598 
980	 0,302896528630427 
981	 0,303931506071253 
982	 0,303834436382788 
983	 0,303494354711377 
984	 0,303948417764885 
985	 0,304831232318275 
986	 0,305921603923146 
987	 0,307075535169298 
988	 0,305606838045339 
989	 0,302494493493289 
990	 0,303910458190653 
991	 0,306667975149849 
992	 0,308752288117192 
993	 0,309322118880215 
994	 0,30944443500825 
995	 0,310234873320691 
996	 0,309804203674421 
997	 0,309117839609617 
998	 0,310591081620955 
999	 0,312232227327856 
1000	 0,313923194564686 
1001	 0,318043346311566 
1002	 0,318602783602066 
1003	 0,314269895713285 
1004	 0,316109103034456 
1005	 0,320024589546222 
1006	 0,321129770697382 
1007	 0,32067888525216 
1008	 0,319568999870908 
1009	 0,319098484324206 
1010	 0,319631130881906 
1011	 0,320816192332819 
1012	 0,32099662210061 
1013	 0,321769737056648 
1014	 0,323201561737433 
1015	 0,321622275455149 
1016	 0,321771608963311 
1017	 0,326997611188592 
1018	 0,329333549515807 
1019	 0,329104627904757 
1020	 0,328601992031701 
1021	 0,329061451462688 
1022	 0,330305280345779 
1023	 0,330816545610079 
1024	 0,330275042366631 
1025	 0,329332233480852 
1026	 0,331472515221623 
1027	 0,333586307531717 
1028	 0,333647578182136 
1029	 0,333396126857014 
1030	 0,333576636291048 
1031	 0,334891482466954 
1032	 0,338462648673459 
1033	 0,342069063517854 
1034	 0,340948786192245 
1035	 0,341618151066943 
1036	 0,342998039544306 
1037	 0,333801780486065 
1038	 0,330430594962441 
1039	 0,338141978843364 
1040	 0,340376612851823 
1041	 0,339207980561083 
1042	 0,337529263861398 
1043	 0,338834230954346 
1044	 0,340555274362553 
1045	 0,338806065291874 
1046	 0,344614092101534 
1047	 0,353035445244366 
1048	 0,347386061304455 
1049	 0,344148921503321 
1050	 0,345648074243909 
1051	 0,339903379761168 
1052	 0,33419340391699 
1053	 0,333051727204127 
1054	 0,339030876234358 
1055	 0,343772587331459 
1056	 0,340853161329368 
1057	 0,33889472024604 
1058	 0,340555591306137 
1059	 0,347279805153699 
1060	 0,349832858841534 
1061	 0,349482428771621 
1062	 0,354307486841727 
1063	 0,356536566435787 
1064	 0,354263352367135 
1065	 0,350222892790556 
1066	 0,343203349395888 
1067	 0,334638844210793 
1068	 0,333180181616197 
1069	 0,339214872455289 
1070	 0,349339810491021 
1071	 0,343029938924665 
1072	 0,33746270513636 
1073	 0,352837971688343 
1074	 0,346441619128619 
1075	 0,327891339045499 
