Wavelength	AURAY00663.asd
325	 0,302621330974263 
326	 0,337464765717554 
327	 0,278666832839676 
328	 0,151961620767305 
329	 0,241023281964783 
330	 0,341970186021679 
331	 0,319239030256043 
332	 0,191532382778671 
333	 4,07230479471765E-02 
334	 0,108582188287359 
335	 0,204402700951545 
336	 0,248992829701727 
337	 0,22440338051373 
338	 0,154911010623876 
339	 7,24446953072885E-02 
340	 8,82291716480679E-02 
341	 0,158701521191789 
342	 0,167805832084379 
343	 0,150779922330441 
344	 0,130238876882926 
345	 0,181798376435618 
346	 0,202301636020251 
347	 0,102001869659556 
348	 6,44512863330376E-02 
349	 0,108252264535734 
350	 0,172344366022992 
351	 0,18860676130543 
352	 0,142684857164393 
353	 9,97668245731531E-02 
354	 7,82777343009493E-02 
355	 9,46151752743375E-02 
356	 9,86082779798163E-02 
357	 8,52675473995724E-02 
358	 6,89890857425785E-02 
359	 6,64137639315019E-02 
360	 0,082323236999929 
361	 0,100095942990639 
362	 0,107844018460581 
363	 9,29482021749915E-02 
364	 9,27557428676285E-02 
365	 0,109679534455621 
366	 0,120270880122878 
367	 0,119378885372917 
368	 0,106250543682747 
369	 0,106095147892642 
370	 0,114136259578691 
371	 0,116868340805591 
372	 0,112026585692843 
373	 0,101061799532134 
374	 9,31721683529751E-02 
375	 9,36799291746944E-02 
376	 0,103539847830788 
377	 8,50556253196035E-02 
378	 6,16519058141546E-02 
379	 0,101777109371123 
380	 0,120551510060222 
381	 0,102044556435453 
382	 8,41922643551742E-02 
383	 8,05438220577925E-02 
384	 9,86294980562103E-02 
385	 9,47307015940915E-02 
386	 7,71692886582829E-02 
387	 8,95015646693259E-02 
388	 0,101683238390307 
389	 0,104070848231296 
390	 0,107856668920103 
391	 0,110436622992134 
392	 0,107913776537007 
393	 0,104484418821706 
394	 0,101754191260507 
395	 0,101941370997316 
396	 9,45508777061199E-02 
397	 7,80495820926152E-02 
398	 8,02776375419152E-02 
399	 0,091060936867108 
400	 9,20019179790481E-02 
401	 9,34046370282913E-02 
402	 9,59807379523177E-02 
403	 9,45949491851752E-02 
404	 8,91089748015931E-02 
405	 8,13487138522453E-02 
406	 9,05162430725456E-02 
407	 0,104755961077737 
408	 0,093777447504543 
409	 8,92661924501854E-02 
410	 9,59178959816696E-02 
411	 8,92313305622928E-02 
412	 8,21953125781226E-02 
413	 8,72033548898266E-02 
414	 8,93439875270085E-02 
415	 8,74064812249408E-02 
416	 8,52504943968359E-02 
417	 8,51147990619296E-02 
418	 8,71064936051231E-02 
419	 8,48153245568658E-02 
420	 8,24649176380615E-02 
421	 8,61576833922804E-02 
422	 8,50589106760812E-02 
423	 8,01603450319257E-02 
424	 8,32397984659382E-02 
425	 8,54611992279257E-02 
426	 8,20697675076606E-02 
427	 7,98809729035089E-02 
428	 8,01906317289083E-02 
429	 8,38658961387733E-02 
430	 8,47896084402995E-02 
431	 8,25954471057011E-02 
432	 8,48278804229776E-02 
433	 8,67398300942973E-02 
434	 8,42507056034206E-02 
435	 8,44117797065274E-02 
436	 0,086213845439163 
437	 8,34445875305905E-02 
438	 8,23283268840706E-02 
439	 8,49487743689647E-02 
440	 8,77804178857423E-02 
441	 8,95534020567944E-02 
442	 8,91798189371199E-02 
443	 8,68901937068368E-02 
444	 8,47494649649978E-02 
445	 8,94071033618394E-02 
446	 9,17027592999929E-02 
447	 8,69485294590247E-02 
448	 0,087118580140465 
449	 9,05527336010968E-02 
450	 9,11724931620977E-02 
451	 9,08868007307859E-02 
452	 8,99753568570995E-02 
453	 8,72814239101666E-02 
454	 8,63133267201431E-02 
455	 8,99418984592176E-02 
456	 9,05656890220332E-02 
457	 8,87862149823655E-02 
458	 9,06645554908412E-02 
459	 9,05039528943636E-02 
460	 8,71433891393358E-02 
461	 8,93555221288182E-02 
462	 9,26836396791155E-02 
463	 9,02388799404422E-02 
464	 8,97936392051288E-02 
465	 9,20514388661242E-02 
466	 9,28309145778042E-02 
467	 9,19759624439872E-02 
468	 8,95416961669338E-02 
469	 8,66010230537819E-02 
470	 8,54068100828738E-02 
471	 9,02387238681757E-02 
472	 9,22833151807424E-02 
473	 9,01767381037048E-02 
474	 9,32519079207132E-02 
475	 9,52357042283189E-02 
476	 9,00713534708016E-02 
477	 9,07331542676712E-02 
478	 9,53935060640734E-02 
479	 9,12200313415941E-02 
480	 8,88027370483441E-02 
481	 9,21146207521628E-02 
482	 9,18225231653701E-02 
483	 0,090129129143052 
484	 9,17327938606523E-02 
485	 9,16732173699689E-02 
486	 8,95575645166156E-02 
487	 8,89658621568045E-02 
488	 8,88800197743845E-02 
489	 8,85006066352639E-02 
490	 8,83910934495297E-02 
491	 8,81426043013244E-02 
492	 8,65175363798431E-02 
493	 8,56143819077783E-02 
494	 8,60070478179664E-02 
495	 8,61272048775812E-02 
496	 8,64679872913263E-02 
497	 0,08768418936158 
498	 8,75687222208339E-02 
499	 8,65831924452671E-02 
500	 0,087775506825958 
501	 8,87709046783372E-02 
502	 8,83062081707926E-02 
503	 8,74598293134246E-02 
504	 8,73265554046738E-02 
505	 8,96045389888713E-02 
506	 9,11043979290102E-02 
507	 9,13521268303463E-02 
508	 9,30919332133689E-02 
509	 9,43783878795957E-02 
510	 9,35514436903848E-02 
511	 9,38088530509341E-02 
512	 9,52253034181001E-02 
513	 0,096548495337709 
514	 9,67940692749649E-02 
515	 9,57917373549647E-02 
516	 9,59093703966923E-02 
517	 0,096061105332914 
518	 9,43095475272329E-02 
519	 9,52623001646057E-02 
520	 9,83363848112446E-02 
521	 9,69615928717242E-02 
522	 9,57015183533681E-02 
523	 9,76785980644079E-02 
524	 9,87926913097004E-02 
525	 9,84167560443708E-02 
526	 9,63213834889961E-02 
527	 9,56473330050265E-02 
528	 9,70573140769452E-02 
529	 9,70891286727274E-02 
530	 9,68232355013111E-02 
531	 9,77703728340083E-02 
532	 9,82599733775802E-02 
533	 9,81360926786787E-02 
534	 9,81598241199733E-02 
535	 9,81523253973563E-02 
536	 9,79809747987533E-02 
537	 9,72963283492839E-02 
538	 0,096667603021956 
539	 9,72311342242557E-02 
540	 9,74940464856388E-02 
541	 9,72239354005485E-02 
542	 9,77104389414275E-02 
543	 9,82306399800305E-02 
544	 9,80493787550843E-02 
545	 9,78634872159524E-02 
546	 9,78418457470837E-02 
547	 9,79447196457666E-02 
548	 9,85175863862233E-02 
549	 9,95121058305348E-02 
550	 9,93869380071139E-02 
551	 9,89121383991635E-02 
552	 9,95980225461803E-02 
553	 9,93501318611028E-02 
554	 9,82519112600148E-02 
555	 9,91999231754661E-02 
556	 9,98321739082562E-02 
557	 9,82968835414389E-02 
558	 9,75286569075111E-02 
559	 9,75376724391065E-02 
560	 9,69760308860182E-02 
561	 9,63601137559987E-02 
562	 0,095871305342622 
563	 9,53705083930206E-02 
564	 9,51903046122901E-02 
565	 9,57699478795171E-02 
566	 9,59075279103456E-02 
567	 9,54973514427039E-02 
568	 9,52774232104598E-02 
569	 9,55938970162205E-02 
570	 0,096640021760626 
571	 9,77313819126322E-02 
572	 0,09865132328128 
573	 9,91431627436349E-02 
574	 0,100276306720395 
575	 0,1021124114882 
576	 0,102794149011555 
577	 0,103219719583028 
578	 0,104520537480453 
579	 0,105615791552195 
580	 0,106590056163393 
581	 0,108515392713762 
582	 0,110185056889491 
583	 0,110954026608607 
584	 0,111598472913378 
585	 0,112358588989351 
586	 0,11347954207448 
587	 0,114456011353974 
588	 0,115070285707339 
589	 0,115081553214418 
590	 0,115415954559026 
591	 0,116852279178005 
592	 0,117465038489479 
593	 0,117336565483883 
594	 0,117800353413779 
595	 0,118238652683858 
596	 0,118375449189448 
597	 0,118304867673542 
598	 0,118010958517259 
599	 0,1174331800656 
600	 0,117392260920019 
601	 0,117729202148331 
602	 0,116794444661216 
603	 0,115996983458093 
604	 0,116363310049008 
605	 0,116044717449377 
606	 0,1150527703593 
607	 0,114086790512735 
608	 0,113708367551029 
609	 0,113980077631513 
610	 0,113713937599151 
611	 0,11296148723503 
612	 0,111931265759295 
613	 0,111376649144807 
614	 0,111186335965161 
615	 0,110208718872066 
616	 0,109378062089849 
617	 0,109257994574769 
618	 0,109098656689066 
619	 0,108892557901555 
620	 0,108858004426082 
621	 0,108800200323567 
622	 0,10871175553146 
623	 0,108896775212656 
624	 0,109087401980733 
625	 0,108994494802346 
626	 0,10865907529973 
627	 0,108346858980673 
628	 0,108708572356978 
629	 0,109417364408139 
630	 0,110217644150005 
631	 0,110629223373943 
632	 0,110882827606221 
633	 0,111470080540257 
634	 0,111756829310016 
635	 0,111823435809134 
636	 0,112666736446518 
637	 0,113877254321621 
638	 0,115061155048953 
639	 0,116190490191271 
640	 0,117188853915056 
641	 0,117983644555987 
642	 0,118484341343354 
643	 0,118735095063545 
644	 0,119200413995916 
645	 0,119781344778135 
646	 0,120291289001232 
647	 0,120405371890153 
648	 0,120113054485016 
649	 0,119740461108807 
650	 0,119224967744563 
651	 0,118538373746004 
652	 0,11785704445822 
653	 0,116947873288689 
654	 0,115236561705676 
655	 0,113664240064147 
656	 0,112585290471707 
657	 0,112041037303881 
658	 0,110916605690227 
659	 0,108147365783327 
660	 0,106019353812201 
661	 0,104601521689844 
662	 0,102384133543842 
663	 0,100756954713593 
664	 0,100226105850905 
665	 9,91765073718311E-02 
666	 9,76803663621675E-02 
667	 9,61147570684246E-02 
668	 9,54043195714575E-02 
669	 9,54016268207245E-02 
670	 0,094260467296461 
671	 9,33259601070017E-02 
672	 0,093605252086697 
673	 0,093231070245682 
674	 9,23982607386214E-02 
675	 9,23341097612382E-02 
676	 9,25346046163145E-02 
677	 9,27167192268305E-02 
678	 0,092245015953646 
679	 9,18798201474988E-02 
680	 9,25649682815597E-02 
681	 9,31111329371565E-02 
682	 9,34285969725851E-02 
683	 9,41278190639391E-02 
684	 9,51477144067826E-02 
685	 9,64579148980149E-02 
686	 9,79513726964195E-02 
687	 9,97921253713666E-02 
688	 0,102253070414044 
689	 0,10540249860147 
690	 0,109161485117486 
691	 0,112908735882522 
692	 0,11752822380269 
693	 0,12380020514004 
694	 0,130970727609454 
695	 0,138586659900444 
696	 0,145772270090515 
697	 0,154162533342607 
698	 0,164262650616799 
699	 0,174309155776685 
700	 0,185138853299754 
701	 0,198027275602604 
702	 0,210332807020866 
703	 0,221701433352556 
704	 0,233611506830232 
705	 0,245550083050518 
706	 0,257143946628577 
707	 0,268126642024401 
708	 0,278859619631181 
709	 0,290162893500719 
710	 0,30050859722098 
711	 0,309587466961908 
712	 0,31830102724012 
713	 0,326928723850833 
714	 0,335633635243918 
715	 0,343502631442386 
716	 0,35050866369207 
717	 0,356985515674107 
718	 0,363438852701177 
719	 0,369954350897361 
720	 0,375491839854321 
721	 0,380454923679952 
722	 0,385485569685777 
723	 0,3899143097623 
724	 0,393726893604133 
725	 0,397382648896692 
726	 0,400791140919655 
727	 0,403920540202334 
728	 0,406879298958063 
729	 0,4096469287739 
730	 0,412147223483639 
731	 0,4146446559483 
732	 0,417057653882512 
733	 0,418592330565971 
734	 0,420129805518073 
735	 0,422409067848539 
736	 0,424481392945497 
737	 0,426002521746041 
738	 0,426436673167816 
739	 0,427454586667971 
740	 0,429492728482879 
741	 0,430878641069345 
742	 0,43188230834902 
743	 0,432974368753347 
744	 0,433818363463539 
745	 0,434553242759112 
746	 0,435806110981617 
747	 0,436931108474502 
748	 0,437616223429304 
749	 0,438366126841666 
750	 0,43910280535933 
751	 0,439616011515538 
752	 0,440058757562752 
753	 0,440519137805674 
754	 0,44106076237844 
755	 0,441909332852867 
756	 0,443140849393854 
757	 0,443886453801697 
758	 0,444223241980721 
759	 0,444589077157093 
760	 0,445067765800691 
761	 0,445657324558841 
762	 0,446085814518088 
763	 0,446418712897014 
764	 0,446752393139812 
765	 0,447395548810611 
766	 0,44820492475085 
767	 0,448684526149743 
768	 0,448972513239287 
769	 0,449168626696819 
770	 0,449538650592362 
771	 0,45002134369675 
772	 0,45051073358571 
773	 0,450955476372343 
774	 0,451278913786339 
775	 0,451263044738874 
776	 0,451480047847563 
777	 0,45216643633204 
778	 0,452682662319595 
779	 0,452981097473403 
780	 0,453105461647189 
781	 0,453468583488805 
782	 0,453986491583861 
783	 0,453893316364657 
784	 0,453842305968331 
785	 0,454249187101255 
786	 0,454681777448107 
787	 0,455129462633959 
788	 0,455697625261587 
789	 0,456157544445898 
790	 0,456357309010299 
791	 0,455958641801661 
792	 0,455824997273922 
793	 0,45657112583526 
794	 0,456959843439466 
795	 0,457002166495536 
796	 0,457178257387566 
797	 0,457428890102828 
798	 0,457741877730988 
799	 0,458049201390579 
800	 0,458384185273262 
801	 0,458757220120155 
802	 0,458781746345887 
803	 0,45865358581802 
804	 0,459063293332041 
805	 0,459381947534949 
806	 0,459467452463338 
807	 0,459824376952807 
808	 0,460414509399211 
809	 0,461143665727479 
810	 0,461822726907983 
811	 0,462270665922189 
812	 0,46213214148872 
813	 0,462052420711419 
814	 0,462264555808117 
815	 0,462193006956037 
816	 0,462248989352144 
817	 0,462947831153728 
818	 0,463587069216874 
819	 0,46383257921357 
820	 0,463137560540888 
821	 0,46295064807014 
822	 0,463826726127232 
823	 0,464331177749815 
824	 0,46442952895093 
825	 0,464286804789836 
826	 0,464425871359381 
827	 0,464871384873946 
828	 0,465270893050249 
829	 0,465361805177975 
830	 0,465118312311366 
831	 0,465434630872327 
832	 0,465964412690335 
833	 0,46610594850067 
834	 0,466043086210194 
835	 0,465940948464773 
836	 0,466184778977535 
837	 0,466533590726554 
838	 0,466784119038789 
839	 0,466510973834333 
840	 0,466229762164961 
841	 0,466713752142803 
842	 0,467044220512144 
843	 0,467069307529335 
844	 0,467037594804248 
845	 0,467410126979095 
846	 0,468264844792567 
847	 0,468219126574859 
848	 0,467740691642539 
849	 0,467703297947114 
850	 0,468228842313182 
851	 0,468986187071385 
852	 0,468683414442764 
853	 0,468698190609214 
854	 0,469601177747371 
855	 0,469761095239721 
856	 0,469616081814028 
857	 0,470004631375482 
858	 0,470039703726127 
859	 0,469780576532931 
860	 0,470123631911786 
861	 0,470314563006002 
862	 0,470056321723499 
863	 0,470054474876665 
864	 0,470525936879932 
865	 0,471616319291254 
866	 0,471866800805564 
867	 0,471266927978644 
868	 0,470918180912508 
869	 0,470851494714156 
870	 0,471018876146945 
871	 0,470710622060637 
872	 0,470550871253127 
873	 0,471323270579724 
874	 0,471794486678614 
875	 0,471761628553911 
876	 0,47143941041473 
877	 0,471482748692008 
878	 0,47206853716016 
879	 0,472317814588805 
880	 0,472354533152909 
881	 0,472395268219788 
882	 0,472417049359012 
883	 0,472596198987594 
884	 0,473477883959395 
885	 0,473762298163773 
886	 0,473233906738431 
887	 0,473475157264595 
888	 0,474011422191951 
889	 0,474281745247021 
890	 0,474126826055621 
891	 0,473829479433722 
892	 0,474098309897529 
893	 0,474250746692008 
894	 0,474106665107593 
895	 0,473783646146883 
896	 0,474110675906851 
897	 0,47551915343014 
898	 0,475731813708742 
899	 0,475276054676072 
900	 0,475748438803524 
901	 0,476249873881806 
902	 0,476494636791285 
903	 0,476343434232482 
904	 0,476223407709089 
905	 0,476347343777281 
906	 0,476027382591927 
907	 0,47581202377057 
908	 0,476563123332774 
909	 0,476565712590485 
910	 0,475783880302976 
911	 0,475423723820422 
912	 0,475629693693666 
913	 0,476265852901759 
914	 0,475798274476046 
915	 0,475592844044526 
916	 0,477175467112384 
917	 0,477785856439333 
918	 0,477352848448299 
919	 0,477163445933678 
920	 0,477068458633739 
921	 0,477010572974131 
922	 0,476585000236207 
923	 0,476574438193557 
924	 0,477444757377343 
925	 0,477052203127974 
926	 0,475889641444653 
927	 0,47547354883437 
928	 0,475245582600982 
929	 0,474895520684254 
930	 0,473653435103809 
931	 0,473079207972575 
932	 0,473913696375771 
933	 0,474575288139054 
934	 0,474347022562786 
935	 0,472664303609277 
936	 0,47214292943727 
937	 0,47264945605139 
938	 0,472008452846837 
939	 0,471193192992972 
940	 0,47059052799408 
941	 0,470349029130527 
942	 0,47017229826761 
943	 0,469778047301818 
944	 0,469262152187787 
945	 0,468624808105399 
946	 0,467878752166434 
947	 0,466652188025268 
948	 0,46513547422801 
949	 0,46439255531395 
950	 0,463614240856558 
951	 0,462437638495449 
952	 0,461799048670852 
953	 0,461282551308347 
954	 0,460270903427359 
955	 0,458582159383075 
956	 0,456721932537467 
957	 0,456062397972767 
958	 0,455591343049044 
959	 0,455047771403377 
960	 0,455007683420636 
961	 0,454710717963609 
962	 0,453682106065132 
963	 0,453060082729794 
964	 0,453059779082877 
965	 0,453727682172811 
966	 0,452107441862936 
967	 0,449254002180341 
968	 0,450895111012487 
969	 0,452087263076633 
970	 0,450996494803795 
971	 0,450053885907777 
972	 0,449692893124932 
973	 0,450121739009074 
974	 0,45044406433121 
975	 0,451042536005959 
976	 0,45294502472389 
977	 0,452978861850599 
978	 0,451606800993595 
979	 0,4538211939355 
980	 0,45501277307314 
981	 0,45341006262503 
982	 0,453208764962689 
983	 0,453214722428986 
984	 0,452153740281155 
985	 0,453882958933469 
986	 0,456819287386251 
987	 0,456756110486181 
988	 0,454933791548377 
989	 0,452990615557042 
990	 0,455427575061595 
991	 0,457898133163815 
992	 0,45812166281385 
993	 0,457366896010691 
994	 0,458284778276378 
995	 0,462834643131464 
996	 0,461600739084492 
997	 0,457856967300686 
998	 0,461306548631666 
999	 0,464434304940919 
1000	 0,465229588163277 
1001	 0,464831406337128 
1002	 0,463305070306199 
1003	 0,461391448034724 
1004	 0,461852735885983 
1005	 0,465074372907579 
1006	 0,470401166149365 
1007	 0,469265557179516 
1008	 0,465459204005231 
1009	 0,468281134921315 
1010	 0,470912422606344 
1011	 0,471562445588048 
1012	 0,470326965432439 
1013	 0,470492664936782 
1014	 0,472613107888978 
1015	 0,470830153699342 
1016	 0,469469572469867 
1017	 0,472255448333715 
1018	 0,47663161772047 
1019	 0,478484929834381 
1020	 0,47262534581995 
1021	 0,473603840189948 
1022	 0,48027378131981 
1023	 0,479255761638402 
1024	 0,479235216177176 
1025	 0,481455712144423 
1026	 0,478310528270494 
1027	 0,475443194864782 
1028	 0,476764268007064 
1029	 0,481005410524165 
1030	 0,483133423904841 
1031	 0,478523981344077 
1032	 0,481679771291181 
1033	 0,489167867336294 
1034	 0,488394653245183 
1035	 0,487044399051837 
1036	 0,486455983898537 
1037	 0,48346584489521 
1038	 0,482252986770157 
1039	 0,484016224189608 
1040	 0,483053104597481 
1041	 0,484719300718953 
1042	 0,49193384389915 
1043	 0,489781835683656 
1044	 0,484818216682357 
1045	 0,488444390736532 
1046	 0,492827352596438 
1047	 0,495605166870443 
1048	 0,496036382851843 
1049	 0,491552416984853 
1050	 0,484826126133852 
1051	 0,487643322023905 
1052	 0,491290212807713 
1053	 0,491400798944278 
1054	 0,489827854984251 
1055	 0,493148555420561 
1056	 0,504487946672449 
1057	 0,502366199150206 
1058	 0,495242300285786 
1059	 0,498994432334636 
1060	 0,500904457084482 
1061	 0,498878822345376 
1062	 0,493762250860088 
1063	 0,496666584705909 
1064	 0,506698079276902 
1065	 0,509094423483048 
1066	 0,503372863832081 
1067	 0,491808814642566 
1068	 0,488319788572757 
1069	 0,492077747161214 
1070	 0,499092093786825 
1071	 0,49219590117542 
1072	 0,488237718830948 
1073	 0,505915254410549 
1074	 0,489977568851127 
1075	 0,464794201506665 
