Wavelength	AURAY00198.asd
325	-7,96274471192986E-02 
326	 0,156773833353759 
327	 0,200797100104212 
328	-1,72035190287704E-03 
329	 0,021355005239081 
330	 0,115782268015658 
331	 0,145556526864154 
332	 8,10922615365582E-02 
333	-7,78975404223734E-03 
334	 8,24433101575772E-02 
335	 0,182521280792222 
336	 0,223750034843091 
337	 0,192389883804741 
338	 0,11595731751023 
339	 0,028540511498607 
340	 2,74579522854434E-02 
341	 6,87857372184404E-02 
342	 1,44819116531899E-02 
343	 3,35770893782006E-02 
344	 0,147009693393871 
345	 0,125524544520271 
346	 5,25252546857254E-02 
347	 1,03121729037061E-02 
348	 3,26462453686792E-03 
349	 3,00824471124143E-02 
350	 8,21037438683063E-02 
351	 8,69801298511236E-02 
352	 3,31974152051618E-02 
353	 5,16129877402779E-03 
354	 1,21114022168322E-02 
355	 5,09210467120436E-02 
356	 4,35837848875536E-02 
357	-1,98235702249975E-05 
358	-5,36092932641595E-03 
359	 7,5532681170932E-03 
360	 2,81154025415228E-02 
361	 5,53830465690679E-02 
362	 0,07685340431784 
363	 7,83143427581485E-02 
364	 6,25715185810281E-02 
365	 4,10308849397078E-02 
366	 4,97428169527042E-02 
367	 5,23563008157776E-02 
368	 3,12673912975126E-02 
369	 5,20269803279108E-02 
370	 8,28310789306963E-02 
371	 5,96557889812064E-02 
372	 2,27989128982302E-02 
373	-4,18184779965729E-03 
374	 2,02389076935056E-02 
375	 4,21082475283805E-02 
376	 2,44997136308978E-02 
377	 0,012498472083419 
378	 1,70762537918252E-02 
379	 4,29662956505063E-02 
380	 5,90770740020925E-02 
381	 5,98145838124748E-02 
382	 6,22179622094105E-02 
383	 5,29186215529273E-02 
384	 2,17775392852318E-02 
385	 2,88726095470892E-02 
386	 6,12175060625509E-02 
387	 0,056860097075611 
388	 4,92502717960647E-02 
389	 4,65983894163847E-02 
390	 2,21259295425524E-02 
391	 2,15375393009628E-03 
392	 1,88104417536295E-02 
393	 3,44832034232958E-02 
394	 3,99962605244505E-02 
395	 3,90842839380532E-02 
396	 0,032400852608905 
397	 2,28077831762607E-02 
398	 2,19132995326708E-02 
399	 2,64948423053745E-02 
400	 3,06179283638472E-02 
401	 2,75260723786681E-02 
402	 2,05294231468066E-02 
403	 2,93874423341528E-02 
404	 3,66303382771162E-02 
405	 3,18257446177962E-02 
406	 3,49962265735006E-02 
407	 3,98340483439842E-02 
408	 2,62164579591093E-02 
409	 2,27754474463283E-02 
410	 3,38411637844377E-02 
411	 3,91518944322515E-02 
412	 3,76639207119898E-02 
413	 2,98203694191567E-02 
414	 2,50058143005592E-02 
415	 2,48100960483906E-02 
416	 2,76977087952698E-02 
417	 3,10137735769133E-02 
418	 3,28214699673021E-02 
419	 3,10650887573964E-02 
420	 2,69247748043972E-02 
421	 2,21304334372337E-02 
422	 0,02055700773758 
423	 2,31337473578106E-02 
424	 2,99277194933347E-02 
425	 0,034589194250275 
426	 3,36603549298896E-02 
427	 3,23776105963964E-02 
428	 3,16623435111379E-02 
429	 3,17695040717083E-02 
430	 3,09416728870597E-02 
431	 2,94457648577981E-02 
432	 3,09947554255912E-02 
433	 3,21859621334706E-02 
434	 3,00471970372828E-02 
435	 0,027748493185207 
436	 2,58882946564367E-02 
437	 2,36456944463018E-02 
438	 0,024221076230022 
439	 2,81591708595535E-02 
440	 3,08583339483511E-02 
441	 3,09031921088484E-02 
442	 2,71563226578294E-02 
443	 2,78070250820062E-02 
444	 3,21444372236182E-02 
445	 3,01839311832494E-02 
446	 2,94709424784006E-02 
447	 3,38028261350779E-02 
448	 3,35342785342058E-02 
449	 3,03663086136553E-02 
450	 2,98605842053597E-02 
451	 2,95140834360542E-02 
452	 2,89412545347646E-02 
453	 0,029288307010542 
454	 2,97945914413835E-02 
455	 2,98837573567277E-02 
456	 3,31550178778508E-02 
457	 3,69633846245213E-02 
458	 3,28954944125681E-02 
459	 2,78411647289407E-02 
460	 2,54933794153595E-02 
461	 2,80611778107979E-02 
462	 0,031732897535586 
463	 3,12975268223946E-02 
464	 3,08108986790171E-02 
465	 3,11043526478548E-02 
466	 3,15899265933022E-02 
467	 3,14913642829616E-02 
468	 0,030502506395482 
469	 3,06398485070433E-02 
470	 3,20488565323095E-02 
471	 3,47731863779113E-02 
472	 3,47108421240479E-02 
473	 3,17671307588747E-02 
474	 3,28233368439458E-02 
475	 3,41332136616102E-02 
476	 3,18580367622223E-02 
477	 3,09434460287065E-02 
478	 3,13760921555085E-02 
479	 2,98991411557969E-02 
480	 3,01210977073211E-02 
481	 3,29738785385791E-02 
482	 0,03263828386922 
483	 3,09617945262727E-02 
484	 3,15691276512852E-02 
485	 0,031269351742875 
486	 2,99110929778783E-02 
487	 3,00304261441408E-02 
488	 3,04765456195903E-02 
489	 3,03691340480232E-02 
490	 3,05390603796574E-02 
491	 3,03760869038927E-02 
492	 2,76397299854468E-02 
493	 2,81041185597054E-02 
494	 3,22678651693813E-02 
495	 3,09850276001396E-02 
496	 2,79698782901959E-02 
497	 2,81468678625275E-02 
498	 2,96731146702934E-02 
499	 0,031542618332166 
500	 3,21641619238495E-02 
501	 3,16182958004223E-02 
502	 3,01056630368967E-02 
503	 2,86125216933402E-02 
504	 2,81128480927079E-02 
505	 3,00097065428109E-02 
506	 3,16660459301161E-02 
507	 3,23092091968029E-02 
508	 3,27238634550518E-02 
509	 3,28680890478147E-02 
510	 3,27034696525992E-02 
511	 3,23831538618868E-02 
512	 3,22210787391389E-02 
513	 3,31538266760282E-02 
514	 3,27673968512958E-02 
515	 3,05563399943734E-02 
516	 3,05919316313416E-02 
517	 3,15357096860429E-02 
518	 3,09125462270614E-02 
519	 3,16824573230213E-02 
520	 3,37497606683991E-02 
521	 3,42761026097501E-02 
522	 3,40200952036356E-02 
523	 3,36031111021263E-02 
524	 3,32389514293655E-02 
525	 3,28958578560934E-02 
526	 3,22934580469179E-02 
527	 3,19337405142774E-02 
528	 3,19019234510787E-02 
529	 3,14397896615862E-02 
530	 3,14976943150644E-02 
531	 3,31732043693007E-02 
532	 3,40002324427296E-02 
533	 3,36081333022605E-02 
534	 3,27268673589582E-02 
535	 3,22579498981937E-02 
536	 3,26715423916507E-02 
537	 3,26765529909576E-02 
538	 3,27132474904668E-02 
539	 0,034088530688838 
540	 3,40649704971212E-02 
541	 3,24038634144123E-02 
542	 3,20959839080086E-02 
543	 3,27419679929322E-02 
544	 3,37265730537782E-02 
545	 3,37495500075296E-02 
546	 3,30277626446892E-02 
547	 3,28765292034452E-02 
548	 3,35659868405337E-02 
549	 3,49314775662423E-02 
550	 3,46082312852691E-02 
551	 3,37216691901826E-02 
552	 0,034479480677619 
553	 3,43713829177958E-02 
554	 0,033415664675604 
555	 3,47340821856775E-02 
556	 3,56025232264644E-02 
557	 3,39349044069017E-02 
558	 3,37700641748328E-02 
559	 3,46180578129886E-02 
560	 3,32785736675758E-02 
561	 0,032366244337213 
562	 3,28045940687751E-02 
563	 3,33783544338064E-02 
564	 3,39171779338056E-02 
565	 3,43623778702441E-02 
566	 0,034133760876178 
567	 3,33941711739905E-02 
568	 3,31489368312928E-02 
569	 3,33415086018495E-02 
570	 3,38998199052888E-02 
571	 3,45208932390494E-02 
572	 3,49877288085741E-02 
573	 0,034907888262323 
574	 3,54375633603779E-02 
575	 3,65932771259709E-02 
576	 3,60626043235573E-02 
577	 3,54546273367598E-02 
578	 3,66970665206717E-02 
579	 0,037080325466235 
580	 3,66424188998142E-02 
581	 3,75484070831765E-02 
582	 3,82692190978298E-02 
583	 3,80518592818027E-02 
584	 3,81715078066118E-02 
585	 3,86842336400136E-02 
586	 0,039414317667372 
587	 3,98977916626644E-02 
588	 4,00522431855633E-02 
589	 4,03457494689383E-02 
590	 4,06087217106086E-02 
591	 4,06537529346513E-02 
592	 4,02275066778046E-02 
593	 3,97435828426525E-02 
594	 4,05232075906685E-02 
595	 0,040910821922734 
596	 4,02581741757223E-02 
597	 3,99069751197212E-02 
598	 3,98240855649712E-02 
599	 3,97115579204937E-02 
600	 4,02032881849645E-02 
601	 4,09605389424463E-02 
602	 4,00065027923725E-02 
603	 3,91984379790679E-02 
604	 3,99403373529308E-02 
605	 0,040359265270746 
606	 4,02862963070896E-02 
607	 4,00772132319809E-02 
608	 4,00862886108057E-02 
609	 4,03705217270041E-02 
610	 4,02802696699031E-02 
611	 3,99320469487113E-02 
612	 3,95421089593437E-02 
613	 3,94610048288625E-02 
614	 3,95513207359109E-02 
615	 3,89723684635071E-02 
616	 3,85506289876605E-02 
617	 3,87814904779871E-02 
618	 3,90309243382327E-02 
619	 3,90605175131685E-02 
620	 0,038562288046068 
621	 3,83140657964248E-02 
622	 3,85384634288036E-02 
623	 3,88510161027173E-02 
624	 3,91747641127146E-02 
625	 3,94320763940888E-02 
626	 3,89691448714416E-02 
627	 3,82190422081089E-02 
628	 3,87596976424996E-02 
629	 3,96619939592344E-02 
630	 4,03120311696451E-02 
631	 4,00191373998062E-02 
632	 3,94834617898195E-02 
633	 3,99918763295032E-02 
634	 4,00643013725872E-02 
635	 3,95710730369969E-02 
636	 3,97550146486584E-02 
637	 4,03007892187737E-02 
638	 4,08654119420253E-02 
639	 4,09360643644023E-02 
640	 4,08543042253941E-02 
641	 4,18284563784011E-02 
642	 4,24515390101889E-02 
643	 4,22743701707732E-02 
644	 4,23771769280712E-02 
645	 0,04259573980134 
646	 0,042590653286425 
647	 0,042399746712565 
648	 4,21853968608267E-02 
649	 0,042528684208375 
650	 4,26082129078137E-02 
651	 4,19954122178108E-02 
652	 4,22348537871365E-02 
653	 4,27553867191499E-02 
654	 4,18710568198894E-02 
655	 4,14140821988549E-02 
656	 4,17967986078791E-02 
657	 4,19036915941438E-02 
658	 4,15548957562475E-02 
659	 4,06568949543003E-02 
660	 3,96509340461639E-02 
661	 3,88211955130057E-02 
662	 3,86074544153329E-02 
663	 3,83377180880162E-02 
664	 3,77530029630821E-02 
665	 3,77265734498806E-02 
666	 3,77997803022629E-02 
667	 3,70806678859434E-02 
668	 3,70819683501755E-02 
669	 3,77427228314651E-02 
670	 3,70185231058684E-02 
671	 3,63321569913975E-02 
672	 3,67982621163068E-02 
673	 3,70326723694267E-02 
674	 3,69666651476034E-02 
675	 3,69876988540579E-02 
676	 3,72678686532671E-02 
677	 3,76893303669964E-02 
678	 3,70896000276917E-02 
679	 3,64895701368718E-02 
680	 3,71840354487818E-02 
681	 3,77224815045131E-02 
682	 3,78196845164557E-02 
683	 3,76934677059553E-02 
684	 3,78043121505028E-02 
685	 3,83766575180236E-02 
686	 3,87273319730433E-02 
687	 3,89780925231314E-02 
688	 3,95043062319874E-02 
689	 4,01149915510279E-02 
690	 4,08692619055195E-02 
691	 0,042110025542155 
692	 4,38869514447063E-02 
693	 0,046162663130204 
694	 4,78525717472588E-02 
695	 4,93682786486967E-02 
696	 5,22893086522524E-02 
697	 5,55462946785419E-02 
698	 5,87964850892089E-02 
699	 6,26265188059547E-02 
700	 6,70484271820507E-02 
701	 0,072011560833405 
702	 7,69231808746188E-02 
703	 8,17919839745955E-02 
704	 0,087268197505394 
705	 9,30902192976902E-02 
706	 9,89873609632845E-02 
707	 0,104292968712303 
708	 0,10922141746062 
709	 0,114362145341501 
710	 0,119463192092184 
711	 0,124398816088999 
712	 0,128898362991775 
713	 0,133230510990045 
714	 0,137646574090209 
715	 0,141960144266086 
716	 0,146039548343632 
717	 0,149663773323572 
718	 0,152937451465051 
719	 0,156007586584148 
720	 0,159507326998752 
721	 0,162711745628002 
722	 0,164643710755544 
723	 0,166839071883096 
724	 0,16932535089152 
725	 0,170837215721589 
726	 0,172092694194763 
727	 0,173563741933937 
728	 0,175100587129063 
729	 0,17681109360121 
730	 0,178971176272929 
731	 0,180451384080739 
732	 0,181062220659429 
733	 0,181664247269881 
734	 0,182409662717526 
735	 0,183391699830817 
736	 0,184419458779311 
737	 0,185273170722253 
738	 0,185461509922555 
739	 0,185926294471552 
740	 0,18690059857256 
741	 0,187421539018364 
742	 0,187762169882422 
743	 0,188322836931135 
744	 0,188761389792805 
745	 0,189079908217465 
746	 0,18952833977185 
747	 0,18988200441227 
748	 0,190047374299033 
749	 0,190253684779314 
750	 0,190553961597881 
751	 0,190989716985497 
752	 0,191227595564109 
753	 0,191274795100033 
754	 0,191520951238092 
755	 0,191902193125705 
756	 0,192342421748226 
757	 0,192598236505198 
758	 0,192795360601897 
759	 0,193342399564057 
760	 0,193301466815479 
761	 0,192662599930571 
762	 0,192831803071303 
763	 0,193455207820503 
764	 0,194091933356021 
765	 0,194335781096488 
766	 0,194257958006028 
767	 0,19433315082224 
768	 0,194177816499055 
769	 0,193831530499404 
770	 0,194292162945075 
771	 0,195014067038681 
772	 0,195264128154947 
773	 0,195428579349223 
774	 0,195477826827435 
775	 0,195013876255803 
776	 0,194894130349025 
777	 0,195449721299136 
778	 0,195559732473443 
779	 0,195359545720693 
780	 0,195232675135621 
781	 0,19547082890099 
782	 0,195957378199823 
783	 0,195919873189927 
784	 0,195929451404859 
785	 0,19630973301342 
786	 0,196420598294945 
787	 0,196328480492734 
788	 0,196307421702876 
789	 0,196336342198891 
790	 0,196414398440608 
791	 0,196478772576222 
792	 0,196680526620869 
793	 0,197088114080388 
794	 0,197145543439339 
795	 0,196859579590537 
796	 0,196385406081642 
797	 0,19641087937464 
798	 0,197005792564907 
799	 0,197192111508094 
800	 0,197192800754471 
801	 0,197258641186231 
802	 0,197185993945195 
803	 0,197117020771852 
804	 0,197512906515666 
805	 0,197767014447883 
806	 0,197687955734894 
807	 0,197580185396337 
808	 0,197613032953158 
809	 0,197934827794124 
810	 0,19842673314213 
811	 0,198799055832418 
812	 0,198313156226933 
813	 0,198061774288664 
814	 0,198422003393104 
815	 0,198493095047574 
816	 0,198525541192732 
817	 0,19888609613325 
818	 0,198762717955413 
819	 0,198352083401516 
820	 0,198820851014286 
821	 0,199162177083456 
822	 0,198952342495473 
823	 0,19878173291037 
824	 0,198733672392499 
825	 0,198834907880521 
826	 0,199066108230945 
827	 0,199360014839908 
828	 0,199566161601671 
829	 0,199716690709857 
830	 0,199781538570745 
831	 0,199493134686649 
832	 0,199105079237799 
833	 0,198989253414328 
834	 0,199274372773555 
835	 0,199731695344072 
836	 0,19948378123707 
837	 0,199369243585927 
838	 0,199748326720331 
839	 0,199663428730102 
840	 0,199577927774133 
841	 0,2002741593596 
842	 0,20044054445168 
843	 0,200008982597677 
844	 0,199928235638709 
845	 0,199776004345631 
846	 0,199460397784283 
847	 0,19997239836377 
848	 0,200551598233246 
849	 0,200006912458626 
850	 0,200049982193946 
851	 0,200627101292987 
852	 0,200014572852843 
853	 0,199752464612266 
854	 0,200493921434644 
855	 0,200533784831503 
856	 0,200318937183978 
857	 0,200708800506377 
858	 0,200634397432588 
859	 0,200196743982761 
860	 0,200603241972024 
861	 0,200795601933838 
862	 0,200287289290984 
863	 0,199671868651908 
864	 0,199548296470514 
865	 0,200557734394859 
866	 0,200824940523032 
867	 0,200264582973294 
868	 0,200120038688888 
869	 0,199983650112405 
870	 0,199812304641676 
871	 0,200347241835338 
872	 0,201101848481428 
873	 0,201421758437614 
874	 0,201574871128749 
875	 0,201490632197924 
876	 0,200764992606258 
877	 0,200363790726715 
878	 0,200614036748712 
879	 0,200621106701921 
880	 0,200670223549326 
881	 0,201108461893995 
882	 0,201260627456188 
883	 0,201221417194749 
884	 0,201679464885688 
885	 0,201743265167003 
886	 0,201259480577979 
887	 0,20117689915751 
888	 0,201334478373242 
889	 0,201491904763378 
890	 0,201296187011654 
891	 0,200848017547163 
892	 0,200455805940297 
893	 0,20064308756139 
894	 0,201362062974877 
895	 0,201522862348676 
896	 0,201560147270232 
897	 0,201809615159492 
898	 0,201889824191928 
899	 0,201609211883561 
900	 0,200663161478853 
901	 0,201125808228227 
902	 0,202651307185985 
903	 0,201538476416802 
904	 0,200466393940975 
905	 0,200992393967335 
906	 0,201179012480141 
907	 0,200925604443385 
908	 0,200427941190931 
909	 0,200199328974038 
910	 0,200443342852968 
911	 0,201399092980106 
912	 0,201755664564988 
913	 0,201136298451735 
914	 0,20150990749799 
915	 0,202127508636193 
916	 0,202006250880733 
917	 0,202186198128905 
918	 0,202548698131503 
919	 0,202265537345292 
920	 0,202128115727378 
921	 0,202281902260077 
922	 0,201981122496825 
923	 0,20185476620384 
924	 0,202293730379406 
925	 0,201447989048479 
926	 0,200347484826384 
927	 0,201388963793278 
928	 0,201529997112833 
929	 0,200422173569385 
930	 0,200130675020772 
931	 0,200121856466949 
932	 0,200075845321892 
933	 0,200093554653738 
934	 0,199773835594116 
935	 0,19867305105138 
936	 0,198823538189593 
937	 0,199774025360807 
938	 0,198858388732585 
939	 0,198178177024729 
940	 0,198464856843466 
941	 0,19922029042362 
942	 0,199464289659515 
943	 0,198407962307563 
944	 0,196768258182739 
945	 0,195722122671652 
946	 0,197209611959178 
947	 0,197068431598428 
948	 0,195067742894708 
949	 0,195140484543478 
950	 0,195553978239585 
951	 0,19526814765567 
952	 0,194340850964892 
953	 0,19352620469919 
954	 0,193659393555084 
955	 0,192642767585559 
956	 0,191210054670537 
957	 0,192503655182829 
958	 0,19302702340906 
959	 0,192078321578501 
960	 0,192492734533945 
961	 0,192690361964428 
962	 0,191552800988794 
963	 0,190605019100804 
964	 0,190610696106687 
965	 0,192320716759233 
966	 0,192104016499029 
967	 0,18999144868043 
968	 0,189024979858785 
969	 0,188867324118855 
970	 0,189378009086118 
971	 0,190117734320688 
972	 0,190786699974869 
973	 0,191026617006794 
974	 0,189537274979957 
975	 0,187811007353666 
976	 0,188790650788218 
977	 0,189752334854894 
978	 0,190220456340389 
979	 0,191526513341223 
980	 0,191706172283098 
981	 0,19038280230958 
982	 0,191608323405768 
983	 0,192523404449474 
984	 0,190252923984272 
985	 0,190052233072563 
986	 0,191508205877696 
987	 0,192063695081676 
988	 0,189931452567605 
989	 0,186447875825713 
990	 0,188674515045653 
991	 0,189856857287432 
992	 0,187651618077013 
993	 0,191279337854452 
994	 0,194395872363428 
995	 0,190474996992867 
996	 0,191868331050346 
997	 0,195674621026065 
998	 0,191791301352432 
999	 0,191236050406471 
1000	 0,195046638986972 
1001	 0,195623868105622 
1002	 0,194157320368108 
1003	 0,191992089455673 
1004	 0,193589549224385 
1005	 0,195531375587089 
1006	 0,194413170653659 
1007	 0,194825440678505 
1008	 0,195913328506401 
1009	 0,194869361130118 
1010	 0,194001574590753 
1011	 0,193961382280645 
1012	 0,194666488069696 
1013	 0,195718777670082 
1014	 0,19654005888002 
1015	 0,195631865626306 
1016	 0,194236403612278 
1017	 0,193920897870775 
1018	 0,197862051461041 
1019	 0,202410350940678 
1020	 0,201562769067496 
1021	 0,199154670026925 
1022	 0,19669796207455 
1023	 0,195002093566426 
1024	 0,19705586918653 
1025	 0,202022614737282 
1026	 0,201565936085117 
1027	 0,199400635479861 
1028	 0,198318141028466 
1029	 0,198406069698889 
1030	 0,19836326594907 
1031	 0,196975443223803 
1032	 0,200176810571862 
1033	 0,205324690488296 
1034	 0,20492453013095 
1035	 0,204620381814118 
1036	 0,204573893389116 
1037	 0,199508262382178 
1038	 0,195663611953603 
1039	 0,196692966025545 
1040	 0,204126942934411 
1041	 0,208860109889827 
1042	 0,204316773518443 
1043	 0,202343730712229 
1044	 0,20254440852881 
1045	 0,202208073055275 
1046	 0,205143266579373 
1047	 0,208387715107528 
1048	 0,203605461955118 
1049	 0,199390184613554 
1050	 0,199375100362176 
1051	 0,205919887379325 
1052	 0,209341536502888 
1053	 0,205591276961606 
1054	 0,203120677087767 
1055	 0,20409554194067 
1056	 0,208981052906071 
1057	 0,210163551570075 
1058	 0,209535188304923 
1059	 0,211162135669327 
1060	 0,207883899957749 
1061	 0,202645934937645 
1062	 0,205116038395514 
1063	 0,209126508567928 
1064	 0,211685004798063 
1065	 0,210425594896219 
1066	 0,205647573271443 
1067	 0,199179240228092 
1068	 0,198517965110124 
1069	 0,204585571172015 
1070	 0,214585080471284 
1071	 0,208469191019059 
1072	 0,203263272971519 
1073	 0,218923595325472 
1074	 0,213285892109671 
1075	 0,194798703738309 
