Wavelength	AURAY00061.asd
325	 0,064797044500025 
326	 0,277094652559337 
327	 0,256562287035588 
328	-1,31753779878876E-02 
329	 0,168192389276496 
330	 0,382916222676612 
331	 0,357530784109743 
332	 0,279647485463318 
333	 0,203337388636287 
334	 0,237305425274485 
335	 0,243563999450242 
336	 0,195163942893403 
337	 0,154187227234204 
338	 0,14954297699147 
339	 0,202353750818742 
340	 0,198923173431527 
341	 0,160018249622074 
342	 0,169848414828129 
343	 0,17159683197283 
344	 0,150071933044944 
345	 0,134590225079359 
346	 0,125987889728513 
347	 0,120477935758153 
348	 0,116393049105046 
349	 0,118260379485253 
350	 0,13946793788028 
351	 0,143964616899272 
352	 0,126116947945059 
353	 0,12951306617499 
354	 0,140564367039487 
355	 0,136694881566012 
356	 0,149835688198308 
357	 0,165340611415545 
358	 0,109723806858545 
359	 0,097432628918828 
360	 0,163359353538347 
361	 0,180786565354371 
362	 0,164614338639886 
363	 0,153565629851919 
364	 0,149936506115008 
365	 0,154561075959014 
366	 0,163363093902822 
367	 0,170591126963846 
368	 0,172882205040974 
369	 0,175432030820033 
370	 0,179425035618008 
371	 0,187076344540576 
372	 0,180699813260678 
373	 0,162182509901674 
374	 0,159902806340947 
375	 0,166081953722831 
376	 0,173613869493502 
377	 0,169761947163157 
378	 0,165247484197059 
379	 0,191790373766609 
380	 0,194879801670945 
381	 0,169516811875916 
382	 0,168067403221298 
383	 0,176603257545678 
384	 0,178858088633189 
385	 0,187463147685212 
386	 0,200501320080309 
387	 0,210109196288869 
388	 0,208930418557691 
389	 0,197282380697629 
390	 0,194442462254939 
391	 0,189512301048433 
392	 0,168102170764237 
393	 0,163157490408672 
394	 0,174240425862847 
395	 0,180875106054721 
396	 0,178379325251869 
397	 0,166633449409431 
398	 0,167210885489615 
399	 0,175306575513758 
400	 0,180628229296948 
401	 0,189612588965391 
402	 0,197434916151143 
403	 0,181601909266387 
404	 0,170572146217774 
405	 0,181392979479102 
406	 0,186288271533398 
407	 0,184175986801772 
408	 0,180165098107108 
409	 0,18406279642289 
410	 0,193719856755593 
411	 0,185469696168598 
412	 0,175796508251704 
413	 0,180140305551254 
414	 0,178651509057478 
415	 0,17316054345937 
416	 0,176892815764767 
417	 0,182694242381066 
418	 0,187044765295817 
419	 0,188709020978612 
420	 0,187879921002451 
421	 0,184974711828195 
422	 0,183971349557272 
423	 0,185117864492446 
424	 0,185647079417946 
425	 0,185992579890321 
426	 0,1864141752905 
427	 0,186803763789377 
428	 0,187582100054334 
429	 0,18977555381411 
430	 0,189495323766823 
431	 0,186809449958827 
432	 0,187380609221491 
433	 0,188086766981713 
434	 0,186292209243202 
435	 0,188150015450664 
436	 0,192219220762368 
437	 0,192473435793937 
438	 0,191655028412913 
439	 0,190876511891915 
440	 0,190092675176671 
441	 0,19007394204373 
442	 0,191727749066232 
443	 0,190879017354828 
444	 0,188266632126656 
445	 0,189388209527453 
446	 0,192974638571893 
447	 0,197612724935039 
448	 0,198976926158959 
449	 0,197495930369659 
450	 0,195061013479625 
451	 0,193711779819745 
452	 0,194013379476639 
453	 0,193962773572724 
454	 0,195399950376604 
455	 0,199797943144227 
456	 0,202395269617317 
457	 0,202060288378829 
458	 0,19835550242782 
459	 0,195225684409772 
460	 0,194767282297679 
461	 0,196963524714959 
462	 0,19882556160942 
463	 0,196530009849116 
464	 0,19603191804887 
465	 0,197968336463036 
466	 0,199169084974136 
467	 0,199325911731984 
468	 0,198549609606717 
469	 0,200107151273608 
470	 0,202756910776522 
471	 0,203029020165323 
472	 0,204213068075638 
473	 0,206430532685808 
474	 0,205442294068926 
475	 0,20313195676502 
476	 0,201650080334045 
477	 0,20359543352904 
478	 0,206709585610488 
479	 0,203182761450896 
480	 0,200687777065915 
481	 0,202374790646462 
482	 0,202525317393485 
483	 0,202445065591837 
484	 0,205007272905383 
485	 0,205521805380641 
486	 0,203581530787867 
487	 0,202739606749783 
488	 0,202256751631174 
489	 0,201638314563694 
490	 0,202392551644974 
491	 0,203332999401939 
492	 0,200910374233184 
493	 0,200663153070869 
494	 0,20336882170357 
495	 0,201881396203322 
496	 0,199422206550423 
497	 0,200156777154258 
498	 0,200957737743189 
499	 0,201583508452531 
500	 0,203575251347394 
501	 0,20533286454566 
502	 0,205649376995165 
503	 0,202255305470965 
504	 0,199341064430133 
505	 0,20484110275922 
506	 0,207759173123213 
507	 0,206054670973188 
508	 0,206419335363782 
509	 0,207583110539973 
510	 0,208155095616125 
511	 0,20831555634194 
512	 0,2083549782377 
513	 0,209007591813554 
514	 0,209593599746576 
515	 0,209889896759563 
516	 0,210565088744398 
517	 0,211041399314587 
518	 0,210399559864516 
519	 0,21114311229833 
520	 0,212953350024782 
521	 0,212255167992395 
522	 0,211426858965065 
523	 0,212134335496436 
524	 0,212601308503105 
525	 0,212433992079138 
526	 0,211104466397804 
527	 0,211176975896119 
528	 0,212996022968029 
529	 0,213003206762208 
530	 0,212456403057271 
531	 0,213082465284809 
532	 0,213708239727912 
533	 0,213822842178857 
534	 0,212618606088587 
535	 0,211613711744323 
536	 0,211723567241372 
537	 0,212200836616729 
538	 0,212939865671041 
539	 0,214071812022746 
540	 0,214338400472512 
541	 0,213546428441544 
542	 0,212818617096184 
543	 0,2124532834479 
544	 0,21266527204243 
545	 0,213291104136469 
546	 0,213896779649154 
547	 0,213274700311881 
548	 0,213533320030878 
549	 0,215350361597795 
550	 0,215627546065187 
551	 0,215188260038881 
552	 0,215869921949993 
553	 0,216414417348486 
554	 0,216519569474807 
555	 0,216458669278181 
556	 0,216069430713787 
557	 0,215302849048613 
558	 0,215325463638701 
559	 0,215855005881035 
560	 0,215763151963354 
561	 0,214974288764827 
562	 0,21371926783022 
563	 0,213628842496872 
564	 0,214286956719687 
565	 0,214946756451434 
566	 0,214897691820446 
567	 0,214090765846403 
568	 0,212928047392037 
569	 0,212925287228862 
570	 0,214934312623115 
571	 0,216047353342896 
572	 0,216450287909243 
573	 0,217610991496312 
574	 0,219111079034458 
575	 0,220598436634476 
576	 0,220865142755383 
577	 0,221159739164364 
578	 0,222929005725979 
579	 0,22417710870067 
580	 0,22473305107581 
581	 0,225573184818453 
582	 0,226349293232807 
583	 0,226952682370743 
584	 0,228052979303823 
585	 0,229173415940504 
586	 0,22933925148597 
587	 0,229537959904444 
588	 0,230100949705296 
589	 0,230962486213376 
590	 0,231961192203288 
591	 0,232892624595824 
592	 0,232758440006067 
593	 0,23219233789771 
594	 0,23343673433991 
595	 0,23482802660378 
596	 0,235486387807354 
597	 0,23520102700497 
598	 0,234603895968291 
599	 0,234662689732756 
600	 0,234617160778264 
601	 0,234250780130957 
602	 0,233454242711809 
603	 0,233010246260046 
604	 0,233440178192662 
605	 0,233231086731883 
606	 0,232550628945873 
607	 0,232506250622156 
608	 0,232350317934819 
609	 0,23180859537132 
610	 0,230891780768014 
611	 0,230173096492555 
612	 0,230333260351582 
613	 0,230055858976895 
614	 0,229292164724473 
615	 0,229092078083046 
616	 0,228729891922178 
617	 0,227850952599272 
618	 0,227581832407949 
619	 0,227791809738444 
620	 0,227919272758803 
621	 0,227935885528052 
622	 0,227890744146304 
623	 0,228240508594171 
624	 0,228577542013482 
625	 0,228471073734142 
626	 0,228317866052192 
627	 0,228271101080482 
628	 0,228484552393044 
629	 0,228755741605246 
630	 0,229018761782253 
631	 0,229673309924916 
632	 0,230332912643965 
633	 0,23031872552791 
634	 0,23013958127855 
635	 0,230198534039721 
636	 0,231448199517228 
637	 0,2326099028708 
638	 0,232670933904821 
639	 0,233513635922905 
640	 0,234905081087919 
641	 0,235427477692888 
642	 0,235734974924661 
643	 0,236076009167798 
644	 0,236388925039635 
645	 0,236785226516193 
646	 0,237402170383665 
647	 0,237997658238263 
648	 0,238184806116909 
649	 0,236918395597854 
650	 0,235623517849799 
651	 0,235217190892855 
652	 0,234575026163004 
653	 0,233746617551944 
654	 0,2331662409108 
655	 0,232550725477746 
656	 0,231834715533273 
657	 0,231233424846713 
658	 0,230389721656685 
659	 0,22893722319863 
660	 0,227126965862788 
661	 0,225322222308498 
662	 0,224255085417845 
663	 0,223502164114469 
664	 0,222802992634759 
665	 0,222024334731744 
666	 0,22104494255145 
667	 0,219674346105901 
668	 0,219094428242039 
669	 0,219333643915465 
670	 0,219026767137112 
671	 0,218667494683092 
672	 0,218631099838803 
673	 0,218160877041604 
674	 0,217499053887778 
675	 0,217471741025458 
676	 0,217765713048111 
677	 0,218165556827341 
678	 0,21809023545381 
679	 0,217998479091194 
680	 0,218485708299086 
681	 0,219068523059078 
682	 0,219674606972867 
683	 0,220429061628909 
684	 0,221325433759419 
685	 0,222360242634472 
686	 0,223479493407203 
687	 0,224770872820421 
688	 0,226352822952501 
689	 0,228443707422844 
690	 0,231250780707175 
691	 0,235169035602654 
692	 0,239654388672969 
693	 0,24424193334966 
694	 0,24959431493732 
695	 0,255840089435857 
696	 0,262878101725909 
697	 0,270877564731029 
698	 0,279857807266919 
699	 0,289450656129634 
700	 0,29963482492658 
701	 0,310444969704919 
702	 0,32141673405051 
703	 0,332452204787682 
704	 0,343870868236313 
705	 0,355300630740722 
706	 0,366476620887064 
707	 0,377485581222844 
708	 0,388180225857357 
709	 0,398286143233498 
710	 0,408077508139342 
711	 0,417594097790651 
712	 0,426581719379407 
713	 0,434994250253371 
714	 0,442832342798399 
715	 0,45065356414812 
716	 0,458293563516699 
717	 0,464981706404338 
718	 0,471398584310565 
719	 0,477760983257164 
720	 0,483642003518781 
721	 0,488840942661187 
722	 0,493168978235059 
723	 0,497394581010255 
724	 0,501533809422263 
725	 0,504876599236211 
726	 0,507917186960177 
727	 0,510986286694211 
728	 0,514038754733684 
729	 0,516913794243851 
730	 0,519354364041921 
731	 0,521442721010552 
732	 0,52319528045776 
733	 0,524487749009058 
734	 0,525848847705154 
735	 0,527719507098238 
736	 0,529688804333277 
737	 0,531365741308168 
738	 0,531991089467911 
739	 0,532537452519602 
740	 0,533438783401102 
741	 0,534709219086317 
742	 0,535948730897492 
743	 0,536696232095365 
744	 0,537149625176765 
745	 0,537598345035932 
746	 0,538832112914851 
747	 0,539724689260509 
748	 0,539723025563128 
749	 0,539595316712074 
750	 0,5396780755245 
751	 0,540330401600406 
752	 0,540725027343588 
753	 0,540796091389262 
754	 0,541208990237193 
755	 0,541899557766954 
756	 0,542747634138543 
757	 0,543182716109419 
758	 0,543241259822514 
759	 0,543182073059046 
760	 0,54321311417896 
761	 0,543417875713351 
762	 0,543694792420487 
763	 0,543964281750546 
764	 0,54414918652493 
765	 0,544135770448494 
766	 0,544111755626903 
767	 0,544717003576022 
768	 0,544729380555553 
769	 0,543971295116383 
770	 0,544477567957043 
771	 0,545299398131819 
772	 0,545148638717259 
773	 0,545497687819279 
774	 0,546207041670046 
775	 0,545792905478365 
776	 0,545617612225641 
777	 0,546229160693772 
778	 0,546145376731733 
779	 0,545767314427124 
780	 0,545919821631934 
781	 0,545950748568783 
782	 0,545811414045272 
783	 0,545914286106194 
784	 0,546111797294966 
785	 0,546290333815388 
786	 0,546367790752052 
787	 0,546424271825593 
788	 0,546641455619817 
789	 0,54670356939084 
790	 0,546537126017859 
791	 0,546246577974161 
792	 0,546058550415225 
793	 0,546142613617644 
794	 0,546326519498439 
795	 0,546408697364819 
796	 0,545999929630582 
797	 0,54587518662944 
798	 0,546181410634616 
799	 0,546191631765947 
800	 0,546240427378324 
801	 0,546630783636894 
802	 0,546667398328931 
803	 0,546347046291974 
804	 0,545946128239397 
805	 0,54579340353388 
806	 0,546003728019243 
807	 0,546268133647263 
808	 0,54656668944857 
809	 0,546894127310882 
810	 0,547145075012818 
811	 0,5472038935225 
812	 0,546774969864507 
813	 0,546587261891208 
814	 0,546887643069359 
815	 0,547004385658877 
816	 0,547033038657178 
817	 0,547152437846231 
818	 0,547161372478555 
819	 0,54706405866517 
820	 0,546961641475612 
821	 0,547037651718648 
822	 0,547385991364138 
823	 0,547997093746221 
824	 0,548363026541924 
825	 0,547874467365743 
826	 0,547723007880763 
827	 0,548000370432585 
828	 0,547967564357217 
829	 0,548037018047389 
830	 0,548344982272327 
831	 0,548321332179413 
832	 0,548304116614979 
833	 0,548823698503714 
834	 0,548890172131287 
835	 0,548521320492608 
836	 0,548625576080248 
837	 0,548727513532889 
838	 0,54862252234091 
839	 0,548780733843647 
840	 0,548884887940437 
841	 0,548434247949589 
842	 0,548148867271754 
843	 0,54816752244722 
844	 0,548215508789943 
845	 0,548625976414114 
846	 0,549380142834745 
847	 0,54909725984999 
848	 0,548458678005965 
849	 0,54862861407334 
850	 0,548761230956133 
851	 0,548678093801603 
852	 0,548451984534101 
853	 0,548366368821937 
854	 0,548584190123041 
855	 0,549057414350964 
856	 0,549340217990426 
857	 0,548863544257541 
858	 0,548829544382508 
859	 0,549272364733076 
860	 0,549294035279129 
861	 0,549185417748839 
862	 0,549055169421756 
863	 0,548598788645942 
864	 0,548285430053412 
865	 0,548728246962031 
866	 0,548775860841241 
867	 0,548414570471501 
868	 0,548469051569597 
869	 0,548721921854969 
870	 0,548998364766793 
871	 0,548840316970723 
872	 0,548616536687801 
873	 0,54880498797254 
874	 0,548807531585677 
875	 0,548562917194279 
876	 0,548227875087972 
877	 0,548151297662852 
878	 0,548455420746635 
879	 0,548811235403792 
880	 0,549080037349765 
881	 0,549151295578245 
882	 0,549154996270926 
883	 0,549170025261719 
884	 0,549249855090306 
885	 0,549751561537894 
886	 0,550543653929969 
887	 0,550263496308927 
888	 0,549913104005105 
889	 0,550384685285677 
890	 0,549657116498496 
891	 0,548353404064304 
892	 0,548593097328762 
893	 0,548839993025765 
894	 0,548682508458013 
895	 0,54863360694488 
896	 0,548445340434037 
897	 0,548039129498032 
898	 0,548713060648581 
899	 0,549603496789081 
900	 0,548820925725121 
901	 0,548503207542449 
902	 0,549021663453743 
903	 0,549400259610508 
904	 0,549312100258073 
905	 0,548667912240924 
906	 0,548459519635339 
907	 0,548569479464792 
908	 0,548638020416157 
909	 0,548533328610806 
910	 0,548293707627931 
911	 0,548250514965047 
912	 0,547896081524453 
913	 0,547171378211647 
914	 0,547129561715336 
915	 0,547540431047419 
916	 0,548015744398307 
917	 0,548395826747101 
918	 0,548345019904974 
919	 0,54707896665157 
920	 0,546413360970531 
921	 0,546755373908905 
922	 0,546491060455534 
923	 0,546357775333183 
924	 0,546803659521033 
925	 0,5453018837642 
926	 0,543458715719993 
927	 0,544881400945376 
928	 0,545258001670246 
929	 0,543976768484 
930	 0,543560992539295 
931	 0,543528759003004 
932	 0,543523184343249 
933	 0,543024248554645 
934	 0,542498161830459 
935	 0,542600429805336 
936	 0,542751075136093 
937	 0,542230974349618 
938	 0,539179910569602 
939	 0,537553759862246 
940	 0,538478259141878 
941	 0,538910214308219 
942	 0,538901395950301 
943	 0,538624884975558 
944	 0,537985599826287 
945	 0,537005798766081 
946	 0,535757088601635 
947	 0,534176037793642 
948	 0,532544383076508 
949	 0,531712957773842 
950	 0,531491369820091 
951	 0,531620738767996 
952	 0,53150895140665 
953	 0,53052746901045 
954	 0,528131848244367 
955	 0,52594214879684 
956	 0,524825144598282 
957	 0,526239490706392 
958	 0,525646350445959 
959	 0,522451092036945 
960	 0,522007111370341 
961	 0,522383512827659 
962	 0,521972435452973 
963	 0,521442226760318 
964	 0,521039629573309 
965	 0,521033187669831 
966	 0,520460255269298 
967	 0,519408696511654 
968	 0,518843113771317 
969	 0,518845396535096 
970	 0,519196257449045 
971	 0,518419957301081 
972	 0,517746338785926 
973	 0,518181774928108 
974	 0,517076510946354 
975	 0,515529614311786 
976	 0,516211479851895 
977	 0,517191716810083 
978	 0,517837742945889 
979	 0,518088407083135 
980	 0,517540879801135 
981	 0,516389691874263 
982	 0,516754383239909 
983	 0,517740241708033 
984	 0,518265925127731 
985	 0,518977707209256 
986	 0,519441477513936 
987	 0,518748998444662 
988	 0,517142872848353 
989	 0,515438017192787 
990	 0,515766895983532 
991	 0,517760904527853 
992	 0,520581003648026 
993	 0,520972140007594 
994	 0,520603993681524 
995	 0,521385722409456 
996	 0,520775607457491 
997	 0,519891080398162 
998	 0,521669150695348 
999	 0,523227204222565 
1000	 0,523988277314027 
1001	 0,525511011759365 
1002	 0,524914600382495 
1003	 0,521692042165266 
1004	 0,521485730885104 
1005	 0,523264565724103 
1006	 0,525213724941498 
1007	 0,523747828419036 
1008	 0,521489557549939 
1009	 0,524159505960546 
1010	 0,525029996093858 
1011	 0,523844889107551 
1012	 0,526094274305395 
1013	 0,527399805552287 
1014	 0,526150726554259 
1015	 0,524520195162972 
1016	 0,524209935164771 
1017	 0,526371111844561 
1018	 0,528983187006635 
1019	 0,530505786249007 
1020	 0,52925156883125 
1021	 0,529541256223932 
1022	 0,530953779238161 
1023	 0,529096698456003 
1024	 0,528455035358945 
1025	 0,529978232703925 
1026	 0,530504061592857 
1027	 0,530398148692612 
1028	 0,530040452426996 
1029	 0,530368372265172 
1030	 0,529754895051001 
1031	 0,526657683645669 
1032	 0,527581339715818 
1033	 0,53148639154494 
1034	 0,533692453679621 
1035	 0,534650312522697 
1036	 0,533763465955915 
1037	 0,528874549296791 
1038	 0,525734272576069 
1039	 0,527116425800164 
1040	 0,530419956110398 
1041	 0,534673791900436 
1042	 0,53804152630647 
1043	 0,532800056905416 
1044	 0,526028140187249 
1045	 0,528402555923038 
1046	 0,53117224302371 
1047	 0,533285757418478 
1048	 0,537444584273287 
1049	 0,536312169749848 
1050	 0,530349817817698 
1051	 0,529488310082906 
1052	 0,533102129083553 
1053	 0,538871561920782 
1054	 0,535157580126841 
1055	 0,53206796475532 
1056	 0,537346333103361 
1057	 0,534729511418661 
1058	 0,530533083318981 
1059	 0,536107039279563 
1060	 0,535051782178645 
1061	 0,529810994572932 
1062	 0,534265507123585 
1063	 0,532673371056663 
1064	 0,524364199608992 
1065	 0,522904498502267 
1066	 0,529637650851968 
1067	 0,539471729766097 
1068	 0,52176899967512 
1069	 0,502937709834202 
1070	 0,504844964396596 
1071	 0,519651236043614 
1072	 0,535892028723701 
1073	 0,541101185848583 
1074	 0,533770484220415 
1075	 0,522679676724639 
