Wavelength	AURAY00049.asd
325	 2,40384191484422E-02 
326	 4,73412584936748E-02 
327	 4,61660439598321E-02 
328	 3,41832524441585E-03 
329	 5,43791050116282E-02 
330	 0,125580694684747 
331	 0,163827237163234 
332	 0,129235355066188 
333	 4,82071657798586E-02 
334	-4,66902642649783E-03 
335	 5,82314586244995E-02 
336	 0,189905505536362 
337	 0,131740235875583 
338	 3,65602824723184E-02 
339	 4,91380949650016E-02 
340	 2,79249146949695E-02 
341	-0,015471884013513 
342	-2,08649827274097E-02 
343	 7,09123832204396E-03 
344	 5,62347519820112E-02 
345	 7,06388521671288E-02 
346	 4,91961064044129E-02 
347	-4,95169328977249E-03 
348	-3,55601941240933E-02 
349	-2,48629270758486E-02 
350	 0,02717050652023 
351	 5,93044450061866E-02 
352	 4,99971227826177E-02 
353	-4,97790237088975E-04 
354	-4,10604889603961E-02 
355	-6,91568644659684E-03 
356	 6,7802023179587E-03 
357	-4,90633363068689E-03 
358	-7,53449723376316E-03 
359	 2,71723700571838E-03 
360	 2,80808323996308E-02 
361	 7,49961342198856E-02 
362	 0,100565225658134 
363	 4,91220905132949E-02 
364	 0,026969474218668 
365	 4,58089079591467E-02 
366	 5,44304365382027E-02 
367	 4,30230205888734E-02 
368	 1,12347126892147E-02 
369	 0,019064903815387 
370	 4,49773403039205E-02 
371	 0,040815105502531 
372	 2,51556282492909E-02 
373	 1,19990464966635E-02 
374	 3,95347345953547E-02 
375	 5,25831533130712E-02 
376	 1,46455401970835E-02 
377	-7,23145177941051E-03 
378	-1,36656997709889E-03 
379	 2,81723311607313E-02 
380	 3,81048879123499E-02 
381	 2,49824890977263E-02 
382	 3,68673227719856E-02 
383	 5,06728898900788E-02 
384	 4,26558258219502E-02 
385	 2,41451557655331E-02 
386	 1,18240499356384E-02 
387	 4,53075759746127E-02 
388	 5,54737830217783E-02 
389	 2,76136703319824E-02 
390	 3,58853501589925E-02 
391	 0,053145912088181 
392	 4,07741324830656E-02 
393	 3,88566311449282E-02 
394	 4,65540104098471E-02 
395	 3,71118288716212E-02 
396	 2,17491339184172E-02 
397	 1,04386195233636E-02 
398	 1,86799079878129E-02 
399	 0,033275092571292 
400	 3,42642763640076E-02 
401	 2,79339480549733E-02 
402	 1,98908014884154E-02 
403	 2,44830778515587E-02 
404	 3,01515135807487E-02 
405	 2,93614241421795E-02 
406	 3,01408715474516E-02 
407	 3,04466236937624E-02 
408	 2,27683779353763E-02 
409	 2,26178199743367E-02 
410	 3,13159340856293E-02 
411	 3,37355291365914E-02 
412	 3,16896106510366E-02 
413	 2,76152590604585E-02 
414	 0,021286687831351 
415	 1,74511440306574E-02 
416	 2,79727482471385E-02 
417	 3,38330871989587E-02 
418	 2,84781447980354E-02 
419	 2,46013694602882E-02 
420	 2,27778316338657E-02 
421	 0,022122989953743 
422	 2,77561718079265E-02 
423	 3,54137178762244E-02 
424	 2,84863314423289E-02 
425	 2,09272033545297E-02 
426	 2,09522121441599E-02 
427	 0,022045639757287 
428	 2,44767455174151E-02 
429	 3,08319763223387E-02 
430	 3,23155839200169E-02 
431	 2,83142164420708E-02 
432	 0,028888988303126 
433	 2,91064580164033E-02 
434	 2,47135698393505E-02 
435	 2,46339092580981E-02 
436	 2,75844053237675E-02 
437	 2,61024068712192E-02 
438	 2,51522314928618E-02 
439	 2,62886294515844E-02 
440	 2,67697374266613E-02 
441	 2,64357125615559E-02 
442	 0,025390211643341 
443	 2,56303429872193E-02 
444	 2,69504698358803E-02 
445	 2,63488165699255E-02 
446	 2,82329159501126E-02 
447	 3,41454043232468E-02 
448	 3,30114864863139E-02 
449	 2,76776746158886E-02 
450	 2,59752662980617E-02 
451	 2,69175249531753E-02 
452	 2,93359240608489E-02 
453	 2,84752009416674E-02 
454	 2,70712384462885E-02 
455	 2,78697012646782E-02 
456	 3,07114901430228E-02 
457	 3,33104560075251E-02 
458	 2,97174063291885E-02 
459	 2,68798955256845E-02 
460	 2,75375437756378E-02 
461	 2,78027748466825E-02 
462	 2,79586634658415E-02 
463	 2,88789116364152E-02 
464	 2,85854760329447E-02 
465	 2,73330872884744E-02 
466	 2,75418215878846E-02 
467	 2,88362946281746E-02 
468	 0,030612094526664 
469	 3,01172508765514E-02 
470	 2,81488867769729E-02 
471	 0,026862602975775 
472	 0,027185193802816 
473	 2,89012371041564E-02 
474	 2,89473149561119E-02 
475	 2,86819134288101E-02 
476	 2,96113395789754E-02 
477	 3,17613516722406E-02 
478	 3,37229195237281E-02 
479	 3,17231585372706E-02 
480	 3,01853648397131E-02 
481	 3,08319686913544E-02 
482	 2,93517919282895E-02 
483	 0,027923041965267 
484	 3,03632678060361E-02 
485	 3,15178624331875E-02 
486	 0,030878859753321 
487	 3,28403568197779E-02 
488	 3,24360422251297E-02 
489	 2,67644653568008E-02 
490	 2,71856745130917E-02 
491	 3,12144476164757E-02 
492	 2,86132750817572E-02 
493	 2,79347312080147E-02 
494	 3,06652367651231E-02 
495	 2,83494738646586E-02 
496	 2,54294061362354E-02 
497	 0,027470727346653 
498	 2,83844200355334E-02 
499	 2,77556963268478E-02 
500	 0,028715496646756 
501	 2,97236659490425E-02 
502	 2,97914785150377E-02 
503	 2,80277287164693E-02 
504	 2,65152611251032E-02 
505	 2,91016043911853E-02 
506	 3,09278082969732E-02 
507	 3,09800646675089E-02 
508	 3,19490066975074E-02 
509	 3,25175583084765E-02 
510	 3,15188932760787E-02 
511	 3,06877721086852E-02 
512	 3,05932521178142E-02 
513	 0,032029584720752 
514	 3,20534218725591E-02 
515	 2,99105277964859E-02 
516	 0,029947141657763 
517	 3,07729705571921E-02 
518	 2,98077779752056E-02 
519	 0,030109670082508 
520	 3,17275292717989E-02 
521	 3,21363179809274E-02 
522	 3,19218168778992E-02 
523	 3,15868921087442E-02 
524	 0,031526323880468 
525	 3,16350865445497E-02 
526	 3,13923345814553E-02 
527	 3,16389609248841E-02 
528	 3,24248111287177E-02 
529	 3,24446699876672E-02 
530	 3,20571415154724E-02 
531	 3,17949723468115E-02 
532	 3,30574071099376E-02 
533	 3,49288290056299E-02 
534	 3,35603068781567E-02 
535	 3,22518109375741E-02 
536	 3,27625413511596E-02 
537	 3,21367617676078E-02 
538	 3,12307166361935E-02 
539	 3,24054265289636E-02 
540	 3,27590880479873E-02 
541	 3,18462766628858E-02 
542	 3,19733542404645E-02 
543	 3,27170161277744E-02 
544	 3,35102588765447E-02 
545	 3,37104594214147E-02 
546	 3,32906375525612E-02 
547	 3,25201633555535E-02 
548	 3,21984985173341E-02 
549	 3,26846973637374E-02 
550	 0,03322040759182 
551	 3,36491290432812E-02 
552	 3,39110111033218E-02 
553	 3,37455554126585E-02 
554	 3,33227737840116E-02 
555	 3,35892089559078E-02 
556	 3,39404910536814E-02 
557	 3,38735166352135E-02 
558	 3,39051895631125E-02 
559	 3,38970982053021E-02 
560	 3,32275517515635E-02 
561	 3,27294337910711E-02 
562	 3,27840265100825E-02 
563	 3,33239201234797E-02 
564	 3,39493248705513E-02 
565	 3,41626135104741E-02 
566	 0,034165539093032 
567	 3,40435506494026E-02 
568	 3,38092049615733E-02 
569	 3,40525779211958E-02 
570	 3,50616294984254E-02 
571	 3,53293497367449E-02 
572	 3,51127436273898E-02 
573	 3,55330889572182E-02 
574	 3,58224205941048E-02 
575	 3,58106638165335E-02 
576	 3,59534901035038E-02 
577	 3,62881556101826E-02 
578	 3,68053907775503E-02 
579	 3,69830408708563E-02 
580	 3,70190081274149E-02 
581	 3,80738818298639E-02 
582	 3,84886810753122E-02 
583	 3,75164463736958E-02 
584	 3,72093790284853E-02 
585	 0,037724091374611 
586	 3,88800423292497E-02 
587	 3,94634349952507E-02 
588	 3,92673796732342E-02 
589	 3,94422251350048E-02 
590	 3,97203498029206E-02 
591	 3,97840894413336E-02 
592	 3,92201910191361E-02 
593	 3,84863249027206E-02 
594	 3,90637309324208E-02 
595	 3,95395487656776E-02 
596	 0,039318693151836 
597	 3,92695225675082E-02 
598	 3,92162051342502E-02 
599	 3,87720080784051E-02 
600	 3,81743524829066E-02 
601	 3,76158572753076E-02 
602	 3,73629225986812E-02 
603	 0,037777578897964 
604	 0,038955872606617 
605	 3,86462144288162E-02 
606	 3,75179405171032E-02 
607	 3,82130813659889E-02 
608	 3,88203028762732E-02 
609	 0,0387224611533 
610	 3,86848979162422E-02 
611	 3,85746202212886E-02 
612	 3,81619973797887E-02 
613	 3,80521725622498E-02 
614	 3,81969454942969E-02 
615	 3,79657335536225E-02 
616	 3,74118943855622E-02 
617	 3,66573718989583E-02 
618	 3,63797908438313E-02 
619	 0,03650363631524 
620	 3,66509140441286E-02 
621	 3,69440145112104E-02 
622	 3,74332811053489E-02 
623	 3,83509812525358E-02 
624	 3,90161872560226E-02 
625	 3,87509283151293E-02 
626	 3,83146527128305E-02 
627	 3,80081039683321E-02 
628	 0,038048720561359 
629	 3,85506042419569E-02 
630	 3,93781484073868E-02 
631	 3,91485181311296E-02 
632	 3,85641997472114E-02 
633	 3,90298780935269E-02 
634	 3,93612251819386E-02 
635	 3,93963438805754E-02 
636	 3,99222632941535E-02 
637	 4,04608076392537E-02 
638	 4,06076475165289E-02 
639	 4,07695048279569E-02 
640	 4,10850429543163E-02 
641	 4,17669248969956E-02 
642	 4,21577042012241E-02 
643	 0,042112390782419 
644	 4,25647582900345E-02 
645	 4,32673047457408E-02 
646	 4,37895567399551E-02 
647	 4,40135802852708E-02 
648	 4,40558793443635E-02 
649	 4,44879344270601E-02 
650	 4,48430682920215E-02 
651	 4,48141697039521E-02 
652	 4,46364620064302E-02 
653	 4,44488672609646E-02 
654	 4,44284359768293E-02 
655	 4,45334367032633E-02 
656	 4,47074599299501E-02 
657	 4,48588757443522E-02 
658	 0,04458253175563 
659	 4,35189853554863E-02 
660	 4,28657048372093E-02 
661	 4,26797314486294E-02 
662	 4,21874870065391E-02 
663	 4,21824218887494E-02 
664	 0,042791536134556 
665	 4,20351579829643E-02 
666	 4,06798881085901E-02 
667	 4,02299785498028E-02 
668	 4,04571876161997E-02 
669	 4,09711702625438E-02 
670	 0,040395521849758 
671	 3,98544423167303E-02 
672	 4,01956417059027E-02 
673	 0,0398861292965 
674	 0,039240316467108 
675	 3,96556204082905E-02 
676	 4,00540564136317E-02 
677	 4,00746137903601E-02 
678	 0,040026359675908 
679	 4,01240490764818E-02 
680	 0,040583336998616 
681	 4,04908200867195E-02 
682	 4,00401081415677E-02 
683	 4,05464744977469E-02 
684	 4,11939448192739E-02 
685	 4,14888027578058E-02 
686	 4,15854673066993E-02 
687	 0,041704653125827 
688	 0,042167413779797 
689	 4,29884439212477E-02 
690	 4,41538348156863E-02 
691	 4,55162411949393E-02 
692	 4,70225579670361E-02 
693	 4,86489651445319E-02 
694	 5,06964885758581E-02 
695	 5,30027793764309E-02 
696	 5,48097699708118E-02 
697	 5,76873599914104E-02 
698	 6,20893372816214E-02 
699	 6,63094056398066E-02 
700	 7,05765721559574E-02 
701	 0,075403163904524 
702	 8,04766293896696E-02 
703	 8,57213951081117E-02 
704	 9,12136286217974E-02 
705	 9,68330987974032E-02 
706	 0,102444061208188 
707	 0,107636256237834 
708	 0,112773736681963 
709	 0,118683151008899 
710	 0,124170282391162 
711	 0,128930432143052 
712	 0,133454441478667 
713	 0,137883512884009 
714	 0,142326308080193 
715	 0,146771310850433 
716	 0,150951786107342 
717	 0,154137898102526 
718	 0,157413874197413 
719	 0,161090522445807 
720	 0,164009485215746 
721	 0,166544620110472 
722	 0,169306825720658 
723	 0,171713536132568 
724	 0,173759413430672 
725	 0,175934921703592 
726	 0,177738483089429 
727	 0,178942742882098 
728	 0,180274296065743 
729	 0,181916932843989 
730	 0,184058789761219 
731	 0,185518486372988 
732	 0,186053910808447 
733	 0,186362565623929 
734	 0,186987710333335 
735	 0,1883405660919 
736	 0,189795590847007 
737	 0,190905455957976 
738	 0,190868376527986 
739	 0,190954840286272 
740	 0,191608170677254 
741	 0,19218079024546 
742	 0,192653463146614 
743	 0,193061883772315 
744	 0,193387468352952 
745	 0,193722080859961 
746	 0,194401169277563 
747	 0,194802064992663 
748	 0,194656556697616 
749	 0,194645255787806 
750	 0,194842303815807 
751	 0,195219867765246 
752	 0,195661410236885 
753	 0,195993221567402 
754	 0,195762595999681 
755	 0,195510043363229 
756	 0,195647512663765 
757	 0,196039524657582 
758	 0,196500211873766 
759	 0,196724884732148 
760	 0,196779603272405 
761	 0,196714739154259 
762	 0,196681202457972 
763	 0,196689963239326 
764	 0,196737657461251 
765	 0,196753799469852 
766	 0,196720377166384 
767	 0,196632397001862 
768	 0,196504601356132 
769	 0,196422013772227 
770	 0,196800099498156 
771	 0,197186753627006 
772	 0,197031376090708 
773	 0,197174699572102 
774	 0,197582727458042 
775	 0,197530637388643 
776	 0,197535009835723 
777	 0,197822111112016 
778	 0,198033951867972 
779	 0,19804083763271 
780	 0,197718911497671 
781	 0,19743709088358 
782	 0,197384028152233 
783	 0,197841116274796 
784	 0,198026473863849 
785	 0,197540844593636 
786	 0,197739746019686 
787	 0,198233415037346 
788	 0,197985374920918 
789	 0,197719058677308 
790	 0,197673804535525 
791	 0,197930603488694 
792	 0,198052518609069 
793	 0,197747555935345 
794	 0,197866500256737 
795	 0,198209562686371 
796	 0,19803171843285 
797	 0,197942583359785 
798	 0,198058924736037 
799	 0,197889810872202 
800	 0,197854286588493 
801	 0,198328102977183 
802	 0,198695437186195 
803	 0,198783867998312 
804	 0,198457793143221 
805	 0,198212047171272 
806	 0,198257691447456 
807	 0,198434484409629 
808	 0,198855259032222 
809	 0,199597464318573 
810	 0,199616167491645 
811	 0,199044498464989 
812	 0,198786398369819 
813	 0,199135062738812 
814	 0,200023555357213 
815	 0,200081003786116 
816	 0,199750615376311 
817	 0,199714422985326 
818	 0,199990055769785 
819	 0,200345557776563 
820	 0,200005043397361 
821	 0,19979446122469 
822	 0,200078700010226 
823	 0,200468238915503 
824	 0,200621507264834 
825	 0,200177122213179 
826	 0,200275079413328 
827	 0,200865409352731 
828	 0,200851956775923 
829	 0,200804553612441 
830	 0,200978732069295 
831	 0,201028422796977 
832	 0,201083559147369 
833	 0,201361321516751 
834	 0,201365263910548 
835	 0,201147857007024 
836	 0,201326789036061 
837	 0,201400657810801 
838	 0,20113435874055 
839	 0,200906666387397 
840	 0,200762014957821 
841	 0,20069581393418 
842	 0,200851434646798 
843	 0,201096760968419 
844	 0,200881241895138 
845	 0,20073512362004 
846	 0,200974796173022 
847	 0,201656122442541 
848	 0,202049504654097 
849	 0,201162046539848 
850	 0,201235514351053 
851	 0,202172943837232 
852	 0,20171075121389 
853	 0,200905719202878 
854	 0,200471776183414 
855	 0,201141084176453 
856	 0,201835290051711 
857	 0,201004164460023 
858	 0,200529993513739 
859	 0,200735398043432 
860	 0,201106118910171 
861	 0,201244199526746 
862	 0,200977297914593 
863	 0,200781371411976 
864	 0,200910283688455 
865	 0,201591603644973 
866	 0,201491443167772 
867	 0,200739030596299 
868	 0,200750267219854 
869	 0,200884333834978 
870	 0,200930459934918 
871	 0,201470848218024 
872	 0,201996770974308 
873	 0,201876825720109 
874	 0,202145378141738 
875	 0,202565999052879 
876	 0,201741609435356 
877	 0,20119019804963 
878	 0,201520219760105 
879	 0,20214123703524 
880	 0,202488977325497 
881	 0,202084038233164 
882	 0,202469337374716 
883	 0,203413530632803 
884	 0,203539028156082 
885	 0,203208043416117 
886	 0,202655995520642 
887	 0,202444015844916 
888	 0,202653002749983 
889	 0,203243833472406 
890	 0,203355325817782 
891	 0,203011644368302 
892	 0,202586801618884 
893	 0,202690804166587 
894	 0,203315314321968 
895	 0,203411271343033 
896	 0,203102206277189 
897	 0,202588923223665 
898	 0,202491545855148 
899	 0,202690984387498 
900	 0,202746730049253 
901	 0,203343609152111 
902	 0,204213377517546 
903	 0,203697867764838 
904	 0,203195056291686 
905	 0,203449444603231 
906	 0,202768033254923 
907	 0,202243617742151 
908	 0,203642805744784 
909	 0,204293641116536 
910	 0,203813300000349 
911	 0,20315584042475 
912	 0,203065051425397 
913	 0,203718359381111 
914	 0,203561990430282 
915	 0,203216444513381 
916	 0,203518715285402 
917	 0,20434106931199 
918	 0,205053415529602 
919	 0,204146346674111 
920	 0,203293631032878 
921	 0,203087434562953 
922	 0,203136420332396 
923	 0,203368594713801 
924	 0,203617759440309 
925	 0,202820481239997 
926	 0,201708480493409 
927	 0,201878924692448 
928	 0,202307652663149 
929	 0,202496453769161 
930	 0,201679861579808 
931	 0,201344574416472 
932	 0,202091310519753 
933	 0,201492706338894 
934	 0,200623884678211 
935	 0,201141358484643 
936	 0,200807475297903 
937	 0,199873284559059 
938	 0,200605322004578 
939	 0,200482224877278 
940	 0,199035122442661 
941	 0,199077834610125 
942	 0,199450006697027 
943	 0,199046090703793 
944	 0,199005122239062 
945	 0,198973334830466 
946	 0,197983233559343 
947	 0,197226563224818 
948	 0,196852638798132 
949	 0,195982569847639 
950	 0,195379374176366 
951	 0,195450377566413 
952	 0,195943336820894 
953	 0,195984032064518 
954	 0,194625773101159 
955	 0,192769071487607 
956	 0,191418336476483 
957	 0,192673297639491 
958	 0,192930424241062 
959	 0,19165046202497 
960	 0,192818391924423 
961	 0,193700010788902 
962	 0,192335230713998 
963	 0,191364186364845 
964	 0,190989902525448 
965	 0,190921166693557 
966	 0,190655108353984 
967	 0,189953329610039 
968	 0,188371801015483 
969	 0,1879925871195 
970	 0,189445817759799 
971	 0,190782096769734 
972	 0,191435578511208 
973	 0,190990330027539 
974	 0,188993492552605 
975	 0,18774252448572 
976	 0,19132057100626 
977	 0,193013440909645 
978	 0,191750867842639 
979	 0,190864760484612 
980	 0,19055638509745 
981	 0,190958973082184 
982	 0,191843586840852 
983	 0,191358903638963 
984	 0,188113224219179 
985	 0,188110749804738 
986	 0,190410381686068 
987	 0,191029870668366 
988	 0,190238961620002 
989	 0,188840972345316 
990	 0,189681111420671 
991	 0,191117295908375 
992	 0,192244668910385 
993	 0,193405030132229 
994	 0,194403007877432 
995	 0,194975501772717 
996	 0,194617791319164 
997	 0,193445680064331 
998	 0,191735879606104 
999	 0,192207966915952 
1000	 0,194890914055924 
1001	 0,1972410151643 
1002	 0,197040971901057 
1003	 0,193982218888841 
1004	 0,193477878706424 
1005	 0,194720528550882 
1006	 0,196146785545184 
1007	 0,194190479683015 
1008	 0,191789107971734 
1009	 0,195139133638965 
1010	 0,197318295540511 
1011	 0,196473642909568 
1012	 0,192521077792238 
1013	 0,19276690961678 
1014	 0,198420000314866 
1015	 0,196953721704693 
1016	 0,194413776619356 
1017	 0,196388286846275 
1018	 0,200534929202507 
1019	 0,201583310741463 
1020	 0,192627813636346 
1021	 0,192732138911552 
1022	 0,200679560534841 
1023	 0,199832377926007 
1024	 0,198823660837923 
1025	 0,199521980268087 
1026	 0,19781849958145 
1027	 0,195364892135655 
1028	 0,193917800223295 
1029	 0,196911781885356 
1030	 0,200009901899072 
1031	 0,198277844748459 
1032	 0,199514470188762 
1033	 0,20251375132096 
1034	 0,201824301561504 
1035	 0,202162638256204 
1036	 0,203643495533611 
1037	 0,202264289027426 
1038	 0,199524073530531 
1039	 0,197337210701047 
1040	 0,201264557780388 
1041	 0,203807263314983 
1042	 0,199772795105297 
1043	 0,202371107888318 
1044	 0,205522234045173 
1045	 0,199192869153578 
1046	 0,199525926299359 
1047	 0,205968853993793 
1048	 0,209299160390285 
1049	 0,203719119207153 
1050	 0,193269679192951 
1051	 0,200478096304124 
1052	 0,206082776866408 
1053	 0,202127635363574 
1054	 0,204390615689112 
1055	 0,205027419185403 
1056	 0,198151203729108 
1057	 0,19845278256525 
1058	 0,202808458182421 
1059	 0,203736669943039 
1060	 0,200371276592823 
1061	 0,196123781881632 
1062	 0,199322562097085 
1063	 0,200625823839249 
1064	 0,199300118708931 
1065	 0,204348066200705 
1066	 0,203617016781284 
1067	 0,194695005187015 
1068	 0,196215822243421 
1069	 0,198303042451724 
1070	 0,194650732350952 
1071	 0,202328140080457 
1072	 0,21210131475839 
1073	 0,211329720353651 
1074	 0,203750657694941 
1075	 0,195193454478011 
