Wavelength	AURAY00697.asd
325	 0,148883017337405 
326	 0,348053433555292 
327	 0,322862665963083 
328	 4,86733709106676E-02 
329	 0,165064274578957 
330	 0,33644735588692 
331	 0,326473741045612 
332	 0,264209993195596 
333	 0,178235526438524 
334	 0,114115991271701 
335	 0,145700021597617 
336	 0,235686868007811 
337	 0,168629656324998 
338	 8,03163789691506E-02 
339	 0,103843634640403 
340	 0,182787653063808 
341	 0,239166236639366 
342	 0,132877667166248 
343	 9,42081893426432E-02 
344	 0,178978291876805 
345	 0,180244846375039 
346	 0,122892947510037 
347	 3,81107187001455E-02 
348	-2,15446433230705E-02 
349	-1,75478520561423E-02 
350	 0,095098989229142 
351	 0,142383885688437 
352	 8,48949329365205E-02 
353	 6,57991907633712E-02 
354	 0,063930380905625 
355	 4,02654172164233E-02 
356	 0,031363734961637 
357	 3,70573325970293E-02 
358	 0,045395345833423 
359	 4,08523409133974E-02 
360	 2,63344229101269E-02 
361	 7,33459386621595E-02 
362	 0,124669996946283 
363	 9,64757103015223E-02 
364	 7,32068796409266E-02 
365	 7,35625151419047E-02 
366	 9,21968895234526E-02 
367	 9,28464591812456E-02 
368	 5,92129465141944E-02 
369	 6,95938871894639E-02 
370	 9,74193426853946E-02 
371	 8,27758155812031E-02 
372	 5,12131253009671E-02 
373	 2,32672011571976E-02 
374	 4,85226289006857E-02 
375	 7,53365851397026E-02 
376	 6,79282891956964E-02 
377	 6,03434344451683E-02 
378	 6,13908755938099E-02 
379	 7,79920379982454E-02 
380	 8,03943867980376E-02 
381	 6,65913734790487E-02 
382	 0,07158246806772 
383	 7,51255120904868E-02 
384	 5,78525557570667E-02 
385	 5,61076261449649E-02 
386	 6,76117917067047E-02 
387	 7,06167221279503E-02 
388	 6,26676763127461E-02 
389	 4,77841325312488E-02 
390	 5,69139813215153E-02 
391	 6,97309183885688E-02 
392	 5,97745937883923E-02 
393	 5,31481685321886E-02 
394	 5,34824276084824E-02 
395	 5,48053366952589E-02 
396	 4,81579929942076E-02 
397	 3,33011790283297E-02 
398	 4,38388765241237E-02 
399	 6,07402222087362E-02 
400	 0,052659874128067 
401	 4,09722409823382E-02 
402	 3,43300436201975E-02 
403	 4,37294899821734E-02 
404	 4,74648923478786E-02 
405	 0,033589412053188 
406	 3,45383050698974E-02 
407	 4,36073569744725E-02 
408	 0,036733136347578 
409	 3,71380821575379E-02 
410	 4,71168930588678E-02 
411	 4,67721311664477E-02 
412	 4,17610418000261E-02 
413	 3,80931831795619E-02 
414	 3,20197110866624E-02 
415	 2,70640064217746E-02 
416	 3,22521523741036E-02 
417	 4,03321418119084E-02 
418	 4,63498332687339E-02 
419	 4,28019369997843E-02 
420	 0,03481442942561 
421	 2,96347408216266E-02 
422	 3,33451333848582E-02 
423	 4,20782004261023E-02 
424	 3,94731920908638E-02 
425	 3,29736639203337E-02 
426	 2,79296200627197E-02 
427	 0,029308436826381 
428	 3,38732767228954E-02 
429	 3,46804234887208E-02 
430	 3,50859007509544E-02 
431	 3,57961253083124E-02 
432	 3,63482909943088E-02 
433	 0,035779645197188 
434	 3,35246966161125E-02 
435	 3,42252466856075E-02 
436	 3,68989213314542E-02 
437	 3,70986273970494E-02 
438	 3,64164040299351E-02 
439	 3,54493279701756E-02 
440	 3,42463280334108E-02 
441	 3,32052553127945E-02 
442	 3,27654555499099E-02 
443	 3,18932817402855E-02 
444	 3,09041588784058E-02 
445	 3,14729919934514E-02 
446	 3,29699667247558E-02 
447	 3,48545347453982E-02 
448	 3,64563343192902E-02 
449	 3,71586504742804E-02 
450	 3,61183963842519E-02 
451	 3,43784017961484E-02 
452	 3,30175853190125E-02 
453	 3,46152715051974E-02 
454	 3,68639677868798E-02 
455	 3,75170975048188E-02 
456	 3,75027783146502E-02 
457	 3,68083280809675E-02 
458	 3,48566921992904E-02 
459	 0,033255387877648 
460	 0,03285248940891 
461	 3,36018863064493E-02 
462	 3,45330776574772E-02 
463	 3,44206377743141E-02 
464	 3,42372407656681E-02 
465	 3,45239212451915E-02 
466	 3,65701632515763E-02 
467	 3,71252776596116E-02 
468	 3,45491292444918E-02 
469	 3,50408480925975E-02 
470	 0,037252078729053 
471	 3,68372745613733E-02 
472	 3,52545249434497E-02 
473	 3,38766629159701E-02 
474	 3,76347467721109E-02 
475	 3,95087424578375E-02 
476	 3,30115795287002E-02 
477	 0,032589093734646 
478	 3,69795083773587E-02 
479	 0,03394751843828 
480	 3,22937827795625E-02 
481	 3,52902360158951E-02 
482	 3,54863033484433E-02 
483	 3,46173157214502E-02 
484	 3,64213261267836E-02 
485	 3,65000242958619E-02 
486	 3,46486729022847E-02 
487	 3,48497291927906E-02 
488	 3,43684769036041E-02 
489	 3,15933341836008E-02 
490	 3,31522125209742E-02 
491	 3,63860776203826E-02 
492	 3,24660854399418E-02 
493	 3,08497906016397E-02 
494	 3,34818581371759E-02 
495	 3,17213820591719E-02 
496	 2,89895071185387E-02 
497	 2,97842388247573E-02 
498	 3,11221288802781E-02 
499	 3,23093932782493E-02 
500	 3,36605243146934E-02 
501	 3,36889280097231E-02 
502	 3,19015363351685E-02 
503	 3,12613645704067E-02 
504	 3,20693289082481E-02 
505	 3,42993961591445E-02 
506	 3,44352757450168E-02 
507	 3,24107499280753E-02 
508	 3,29267498909386E-02 
509	 0,0347516771628 
510	 0,036445056730876 
511	 3,56700434040263E-02 
512	 3,36666027761015E-02 
513	 3,48800961606855E-02 
514	 3,61895677474788E-02 
515	 3,61944688360515E-02 
516	 3,51113716724643E-02 
517	 3,39594396214885E-02 
518	 3,40350467442608E-02 
519	 3,55041015340716E-02 
520	 3,76121432608081E-02 
521	 3,77700938795499E-02 
522	 3,73251736405375E-02 
523	 3,72724138515092E-02 
524	 3,69471464320491E-02 
525	 3,65024308447166E-02 
526	 3,64387124889787E-02 
527	 3,64207828275513E-02 
528	 3,63339802852165E-02 
529	 3,61960865563431E-02 
530	 3,60806631891044E-02 
531	 3,60730923778978E-02 
532	 3,69276995397509E-02 
533	 3,80344723963252E-02 
534	 0,037039284190515 
535	 3,59398380371042E-02 
536	 3,58752852841221E-02 
537	 3,55929697174484E-02 
538	 3,53846940845279E-02 
539	 3,61274086812046E-02 
540	 3,64840534230906E-02 
541	 3,61764133595628E-02 
542	 3,60103499777929E-02 
543	 3,61688246878272E-02 
544	 3,67309550172442E-02 
545	 3,63702419053312E-02 
546	 3,54862116749343E-02 
547	 3,59957047977802E-02 
548	 3,64653546204974E-02 
549	 3,62554993393826E-02 
550	 0,036041811036726 
551	 3,61051668707727E-02 
552	 3,68045500896682E-02 
553	 3,66533463976213E-02 
554	 3,57561499631536E-02 
555	 3,64851490035234E-02 
556	 3,69610188880808E-02 
557	 3,57373577150316E-02 
558	 3,56382661931243E-02 
559	 3,61482252944744E-02 
560	 3,45692842309135E-02 
561	 3,34586362573061E-02 
562	 3,37093312571575E-02 
563	 3,39097774451171E-02 
564	 3,40587090910895E-02 
565	 3,43308116408926E-02 
566	 3,43897399918759E-02 
567	 3,42250063900397E-02 
568	 3,41136320138347E-02 
569	 3,40295768566494E-02 
570	 3,40056424438953E-02 
571	 3,44571163515625E-02 
572	 3,52351900438799E-02 
573	 3,58084596796736E-02 
574	 3,70948576220368E-02 
575	 3,89438913564766E-02 
576	 3,88782403985276E-02 
577	 3,86856868687969E-02 
578	 4,05039255425907E-02 
579	 4,14845698599321E-02 
580	 4,16193916665292E-02 
581	 4,30151466184341E-02 
582	 4,42600358193095E-02 
583	 4,46434745695985E-02 
584	 4,52122536739332E-02 
585	 0,046028316265201 
586	 4,70117552040423E-02 
587	 4,74128318320402E-02 
588	 4,72606174576457E-02 
589	 4,77662648659651E-02 
590	 4,86821937518661E-02 
591	 4,96594149257749E-02 
592	 0,049610519016996 
593	 4,89079515317369E-02 
594	 0,049156638894148 
595	 4,95449949038102E-02 
596	 4,97546061589285E-02 
597	 5,02875706414114E-02 
598	 5,05174145718301E-02 
599	 4,94478792809834E-02 
600	 4,88342371676461E-02 
601	 4,88906183546011E-02 
602	 4,82234824530304E-02 
603	 4,77954723140425E-02 
604	 4,82671791265276E-02 
605	 4,79533365377873E-02 
606	 4,69508146217686E-02 
607	 4,60369856633507E-02 
608	 4,60939905931693E-02 
609	 4,71373250753582E-02 
610	 4,69405052771263E-02 
611	 4,60894897787042E-02 
612	 4,55546344821558E-02 
613	 4,51888846425787E-02 
614	 4,48569932481238E-02 
615	 4,40743331241611E-02 
616	 4,34408771817093E-02 
617	 4,33224277511398E-02 
618	 0,043221661204391 
619	 4,31157336070059E-02 
620	 4,31571653302955E-02 
621	 4,28454764165016E-02 
622	 4,22856537584771E-02 
623	 4,28588473880103E-02 
624	 4,34373052079431E-02 
625	 4,28350712876003E-02 
626	 0,042601613377276 
627	 4,28516775371474E-02 
628	 4,28851169920025E-02 
629	 4,30050119810628E-02 
630	 4,33540557880229E-02 
631	 4,38559151113518E-02 
632	 4,43992376786196E-02 
633	 4,48573730255811E-02 
634	 4,47643052528505E-02 
635	 4,43820554564804E-02 
636	 4,52921178779603E-02 
637	 4,65275365601487E-02 
638	 4,72250952568481E-02 
639	 4,78071377668225E-02 
640	 4,83780669357906E-02 
641	 0,049062282706919 
642	 0,049647927186855 
643	 5,00426416650873E-02 
644	 5,02179890002089E-02 
645	 5,05779560964985E-02 
646	 0,051639932411839 
647	 5,18755815341863E-02 
648	 5,12100739642397E-02 
649	 5,08300176825724E-02 
650	 5,05781924155977E-02 
651	 5,03219375347093E-02 
652	 4,98485989739214E-02 
653	 4,90319466627353E-02 
654	 0,047630688003138 
655	 4,65823591354164E-02 
656	 4,60904208327384E-02 
657	 4,54058454783386E-02 
658	 0,044281366840262 
659	 4,25478431854428E-02 
660	 4,10897755621667E-02 
661	 4,00212496792731E-02 
662	 3,89948398671031E-02 
663	 3,80699523402714E-02 
664	 3,72517705786692E-02 
665	 3,64651973207253E-02 
666	 3,56961288029878E-02 
667	 3,49149007028292E-02 
668	 3,45804374895856E-02 
669	 3,45982214768686E-02 
670	 3,40759315976815E-02 
671	 3,34727193720163E-02 
672	 3,31699077360627E-02 
673	 3,28397325157412E-02 
674	 3,26247233488608E-02 
675	 0,033030657359186 
676	 3,33633915959107E-02 
677	 3,32789480739339E-02 
678	 3,24474119984275E-02 
679	 3,19219241702511E-02 
680	 3,29402203079265E-02 
681	 3,34594887606742E-02 
682	 3,33132359619808E-02 
683	 3,36092670336378E-02 
684	 3,41081961713465E-02 
685	 3,47320210077248E-02 
686	 3,58531890808039E-02 
687	 3,73043147376834E-02 
688	 3,86762853182459E-02 
689	 4,05317423751205E-02 
690	 4,30436323996405E-02 
691	 4,59688194218051E-02 
692	 4,96844090051346E-02 
693	 5,44981700752284E-02 
694	 5,96739980638237E-02 
695	 0,065343167457587 
696	 7,20826729979294E-02 
697	 8,00240950711456E-02 
698	 8,91998806755068E-02 
699	 9,91502947155998E-02 
700	 0,110002684971047 
701	 0,121988178735137 
702	 0,134146785914917 
703	 0,14642193033815 
704	 0,159694683580411 
705	 0,173367511866621 
706	 0,187019657292009 
707	 0,200769245967007 
708	 0,214299451142531 
709	 0,227083332125503 
710	 0,239229614571655 
711	 0,250926375144619 
712	 0,262786271613049 
713	 0,274284347111848 
714	 0,284925984405684 
715	 0,295248196580587 
716	 0,30515154373739 
717	 0,314109710343654 
718	 0,322526371165892 
719	 0,330546951231173 
720	 0,338017914688056 
721	 0,344836139655928 
722	 0,350897467180362 
723	 0,356449869270902 
724	 0,361698079834879 
725	 0,367049508025654 
726	 0,371867626718737 
727	 0,375821825272402 
728	 0,379672646858379 
729	 0,383309284925282 
730	 0,386327776809841 
731	 0,389199262781534 
732	 0,391967082401957 
733	 0,394047851734694 
734	 0,396121920258549 
735	 0,398736757880638 
736	 0,400811289225801 
737	 0,402359157382469 
738	 0,403918710843543 
739	 0,405334884502419 
740	 0,406629164508216 
741	 0,40811191719578 
742	 0,409531172730693 
743	 0,410572256422718 
744	 0,411372655333325 
745	 0,412192150376119 
746	 0,41378148138943 
747	 0,414951709206959 
748	 0,415170985141702 
749	 0,415647205765411 
750	 0,41636801502329 
751	 0,417079375578942 
752	 0,417715765135887 
753	 0,418283538213942 
754	 0,418939946623835 
755	 0,419541091417838 
756	 0,419989985958093 
757	 0,420416996777793 
758	 0,420846741199052 
759	 0,421284988832587 
760	 0,421678532899468 
761	 0,422035931543702 
762	 0,422487583395392 
763	 0,42291562185256 
764	 0,423208223503774 
765	 0,423457514012662 
766	 0,423747365481565 
767	 0,424253805509357 
768	 0,424689315515471 
769	 0,42496314311934 
770	 0,425315947117212 
771	 0,4256401358645 
772	 0,425793792765779 
773	 0,426085357452522 
774	 0,426421112735546 
775	 0,426253373641728 
776	 0,426264312096841 
777	 0,426748363032602 
778	 0,427063220081071 
779	 0,427220301158898 
780	 0,427347116092061 
781	 0,427587621638056 
782	 0,427855313894145 
783	 0,427663519499201 
784	 0,427522344331518 
785	 0,427741492534702 
786	 0,427856040764317 
787	 0,427921868449918 
788	 0,42816614994663 
789	 0,428274546092177 
790	 0,428207101803901 
791	 0,42819414807852 
792	 0,428322543803768 
793	 0,428599478897515 
794	 0,428378712586527 
795	 0,427911041954714 
796	 0,427956890342776 
797	 0,428057356151275 
798	 0,428072145387313 
799	 0,428055748376485 
800	 0,428083414476783 
801	 0,428201927608959 
802	 0,428030761000722 
803	 0,427724868834915 
804	 0,427829992465412 
805	 0,428094786478864 
806	 0,428382426608532 
807	 0,428404393290982 
808	 0,428605267162705 
809	 0,429441842987989 
810	 0,430049349266046 
811	 0,430278561277833 
812	 0,430247801766724 
813	 0,430329601027461 
814	 0,430658458773171 
815	 0,430826018988822 
816	 0,431022015176051 
817	 0,431499219994132 
818	 0,431848522493955 
819	 0,432040003996614 
820	 0,432270627361075 
821	 0,432580681651266 
822	 0,432958579809143 
823	 0,433209255207689 
824	 0,433194006900147 
825	 0,432783387716285 
826	 0,432854201110889 
827	 0,433387546655504 
828	 0,433567213732406 
829	 0,43378845349978 
830	 0,434184500659642 
831	 0,434325853261622 
832	 0,434262475341166 
833	 0,43412936714961 
834	 0,434077461904506 
835	 0,434105344947763 
836	 0,434035175333725 
837	 0,433927605878529 
838	 0,4339151904278 
839	 0,434716739715702 
840	 0,435427944379974 
841	 0,434703938949006 
842	 0,434741917714127 
843	 0,435563122442515 
844	 0,435296120912306 
845	 0,434953577092464 
846	 0,435078922394795 
847	 0,435329940672661 
848	 0,435575096495321 
849	 0,435682357128735 
850	 0,43587068635786 
851	 0,435944537876663 
852	 0,434989194579766 
853	 0,434538525290955 
854	 0,43531370004462 
855	 0,435965139327709 
856	 0,436237749308279 
857	 0,436023781263072 
858	 0,435917937223915 
859	 0,435995016167015 
860	 0,435921952447431 
861	 0,435855841046993 
862	 0,43589517642866 
863	 0,43601436475487 
864	 0,436537677440473 
865	 0,437840748133018 
866	 0,437804711050574 
867	 0,436635216078776 
868	 0,436540482953101 
869	 0,436828679189194 
870	 0,437148917971952 
871	 0,437199143935058 
872	 0,437393179153964 
873	 0,438228838822688 
874	 0,438371317837348 
875	 0,438055887084345 
876	 0,438950226753091 
877	 0,439235663633746 
878	 0,438453471987174 
879	 0,438664367289568 
880	 0,439242518812198 
881	 0,439357505290895 
882	 0,439506503003099 
883	 0,439764018704213 
884	 0,440131778054773 
885	 0,440305009137004 
886	 0,44022882679607 
887	 0,440269698944921 
888	 0,440419723190473 
889	 0,440612804999409 
890	 0,440329576130906 
891	 0,439956450634626 
892	 0,440598751703649 
893	 0,440683104496297 
894	 0,439985065791214 
895	 0,43989809942506 
896	 0,440269231003627 
897	 0,4408749328703 
898	 0,441209228769229 
899	 0,441133855101322 
900	 0,440541148678535 
901	 0,440897079449118 
902	 0,44203975395928 
903	 0,441675211303659 
904	 0,441030819031176 
905	 0,440904571997357 
906	 0,440940186075039 
907	 0,441151010041936 
908	 0,441590828947871 
909	 0,441492592539562 
910	 0,440844210237406 
911	 0,44014467949718 
912	 0,440113807554753 
913	 0,440853260274401 
914	 0,440605588554773 
915	 0,440120953888158 
916	 0,440379995332243 
917	 0,440625528783585 
918	 0,440779292594095 
919	 0,44114212961376 
920	 0,440755294404577 
921	 0,439547745607131 
922	 0,438827385036055 
923	 0,43861482113111 
924	 0,438776679522827 
925	 0,438350069092183 
926	 0,437609243738109 
927	 0,437382635082412 
928	 0,43670425304083 
929	 0,435533168917005 
930	 0,434725382964156 
931	 0,434010225683084 
932	 0,433275052791548 
933	 0,432838281155013 
934	 0,432600900603714 
935	 0,432375790639128 
936	 0,431606965538875 
937	 0,430328369115591 
938	 0,429022591765852 
939	 0,427765610010958 
940	 0,426630279015021 
941	 0,425629735854885 
942	 0,424699186138674 
943	 0,423801539496202 
944	 0,423288578104215 
945	 0,422765440341117 
946	 0,421433620239098 
947	 0,420155639910704 
948	 0,418810590431689 
949	 0,416011903427559 
950	 0,413268133970172 
951	 0,411561973805753 
952	 0,411190953654189 
953	 0,410719170916174 
954	 0,408443132372045 
955	 0,405595262860709 
956	 0,403027101887224 
957	 0,402183326193742 
958	 0,401510980660597 
959	 0,400525161309122 
960	 0,399761992892903 
961	 0,399298705137139 
962	 0,399066866910211 
963	 0,398203111619469 
964	 0,396927106437387 
965	 0,39576884213923 
966	 0,395173990239445 
967	 0,39497016231229 
968	 0,394188412962508 
969	 0,393417233020363 
970	 0,39312374314611 
971	 0,394454503778124 
972	 0,395217103461727 
973	 0,393542154748741 
974	 0,391720835374822 
975	 0,391616413316979 
976	 0,395815699233499 
977	 0,39600569118993 
978	 0,39228359908496 
979	 0,393572981283765 
980	 0,395738342596356 
981	 0,39658353864088 
982	 0,396040364313358 
983	 0,395305392808066 
984	 0,395633886242616 
985	 0,396601657366917 
986	 0,39773987928401 
987	 0,398399602683095 
988	 0,397426969786678 
989	 0,395854935118326 
990	 0,398524097612688 
991	 0,401345506738939 
992	 0,402342391539623 
993	 0,404361148795705 
994	 0,404833562165911 
995	 0,401451472444469 
996	 0,401597689464014 
997	 0,404187737175851 
998	 0,404291532863967 
999	 0,405450796326619 
1000	 0,408225348220133 
1001	 0,411904197940261 
1002	 0,411837580901063 
1003	 0,40706769368842 
1004	 0,406612010325821 
1005	 0,40900650856611 
1006	 0,411780212236753 
1007	 0,412151652345573 
1008	 0,411515881167669 
1009	 0,413293488657524 
1010	 0,416746547357427 
1011	 0,420188666847269 
1012	 0,418843190746604 
1013	 0,418613737342826 
1014	 0,420901210661377 
1015	 0,417928343716846 
1016	 0,416090166015477 
1017	 0,420653333116322 
1018	 0,426263844542313 
1019	 0,427876887286704 
1020	 0,419658691258562 
1021	 0,419717704111005 
1022	 0,426830112683336 
1023	 0,424354935752849 
1024	 0,425057349762604 
1025	 0,431060991309281 
1026	 0,432545329899945 
1027	 0,431245608086834 
1028	 0,429106148144122 
1029	 0,430324046910956 
1030	 0,431363944745622 
1031	 0,428164637750804 
1032	 0,430021603447377 
1033	 0,435316220854615 
1034	 0,437171925802706 
1035	 0,438619237728339 
1036	 0,439565910899895 
1037	 0,437124923977136 
1038	 0,435601756731783 
1039	 0,436999888579264 
1040	 0,439924058240227 
1041	 0,440972969889364 
1042	 0,438025133525889 
1043	 0,437145548067844 
1044	 0,438269744900703 
1045	 0,440133863060206 
1046	 0,444132831809356 
1047	 0,448553117019619 
1048	 0,449623629329536 
1049	 0,447619296404818 
1050	 0,44303391125189 
1051	 0,436617175048387 
1052	 0,433893553370504 
1053	 0,436596193066605 
1054	 0,435748389216396 
1055	 0,436096318533326 
1056	 0,441662794090629 
1057	 0,447744740619794 
1058	 0,450828175640414 
1059	 0,447480000971249 
1060	 0,447945562314955 
1061	 0,450338045792083 
1062	 0,444692305094315 
1063	 0,444157249197408 
1064	 0,449914663711207 
1065	 0,451194873244913 
1066	 0,452717544775952 
1067	 0,454466795430893 
1068	 0,444532349852709 
1069	 0,441731183486605 
1070	 0,455600291752724 
1071	 0,444312462562696 
1072	 0,433059891778338 
1073	 0,452951816595639 
1074	 0,442910977771769 
1075	 0,420807930651624 
