Wavelength	AURAY00495.asd
325	-0,102969313469333 
326	 0,174546890532021 
327	 0,263517688144528 
328	 9,06024028980237E-02 
329	 0,046868051828567 
330	 8,72265999703145E-02 
331	 0,134478994023156 
332	 0,100761242731659 
333	 3,26911665181486E-02 
334	 8,57125873884515E-02 
335	 0,153066415348944 
336	 0,180695451705836 
337	 9,80428187845041E-02 
338	 4,71187137910939E-02 
339	 0,150142921391725 
340	 0,135338927505492 
341	 4,88034409116492E-02 
342	 8,42105800679669E-02 
343	 7,66610441228389E-02 
344	 4,25311062648936E-04 
345	 5,04646332380152E-02 
346	 8,81395483138233E-02 
347	-1,39503711887399E-02 
348	-3,34603141470542E-02 
349	 3,27406256839121E-02 
350	 7,33702084576369E-02 
351	 7,39684086585155E-02 
352	 0,038295358116306 
353	 2,79974259004845E-02 
354	 2,89434158528939E-02 
355	 1,75071520602875E-02 
356	 3,94263536204768E-03 
357	-8,08801665179899E-03 
358	-7,76860482638366E-03 
359	 6,73088762862854E-04 
360	 1,49429438327793E-02 
361	 3,83252544996785E-02 
362	 5,36105877540202E-02 
363	 3,86083739058732E-02 
364	 3,46195942237345E-02 
365	 4,49387665384362E-02 
366	 4,47284732907026E-02 
367	 0,038679473701312 
368	 3,03969748705904E-02 
369	 2,32849957123293E-02 
370	 2,33115775134119E-02 
371	 4,01074396620466E-02 
372	 0,036396431592814 
373	 1,53071680425427E-02 
374	 4,02414726534052E-02 
375	 5,55729904523137E-02 
376	 0,023668202714942 
377	 6,46921024910419E-03 
378	 1,13597822881512E-02 
379	 2,69443021556956E-02 
380	 3,54812000583131E-02 
381	 3,47019964643887E-02 
382	 4,17006161182098E-02 
383	 4,43022662210703E-02 
384	 3,14330911426434E-02 
385	 2,25042336235156E-02 
386	 2,34365693650403E-02 
387	 0,038056518169998 
388	 0,056866500701968 
389	 7,02885554140062E-02 
390	 4,72198227296627E-02 
391	 1,98774176973612E-02 
392	 2,81551611222387E-02 
393	 3,92653948554249E-02 
394	 4,44273203678135E-02 
395	 4,43178538647317E-02 
396	 0,033090021593783 
397	 1,44840957058187E-02 
398	 3,30629509510611E-02 
399	 5,96271556256201E-02 
400	 0,046886109966563 
401	 3,53242035906345E-02 
402	 0,033997754420047 
403	 0,034695857242896 
404	 3,77398091326743E-02 
405	 4,24716842901779E-02 
406	 4,15942019727674E-02 
407	 3,46451714479561E-02 
408	 0,020241169999988 
409	 2,41658824932303E-02 
410	 4,49692867359906E-02 
411	 4,09193052637539E-02 
412	 3,12417982580533E-02 
413	 0,034818086116382 
414	 3,33884014900817E-02 
415	 2,86861437893103E-02 
416	 3,29609126865224E-02 
417	 0,037331596914688 
418	 3,76364401705424E-02 
419	 3,22686227555155E-02 
420	 2,79502849877539E-02 
421	 3,33295796909444E-02 
422	 3,36284993691194E-02 
423	 2,85633792250589E-02 
424	 2,87586461112309E-02 
425	 3,01734549726775E-02 
426	 3,05382416661883E-02 
427	 3,21295335938646E-02 
428	 3,42180709288955E-02 
429	 3,52243533362888E-02 
430	 3,50450311412418E-02 
431	 3,45115405992533E-02 
432	 3,76985888149042E-02 
433	 3,95858225540375E-02 
434	 3,60190327730814E-02 
435	 3,41914202310699E-02 
436	 3,48256117408321E-02 
437	 3,63699843898356E-02 
438	 3,62704703345429E-02 
439	 3,42723998262113E-02 
440	 3,64094415084299E-02 
441	 3,90342258109828E-02 
442	 3,70052575735157E-02 
443	 3,54212294469087E-02 
444	 3,58445006234137E-02 
445	 3,92040191838845E-02 
446	 4,15188377263582E-02 
447	 4,05653067148153E-02 
448	 4,06218805804811E-02 
449	 4,10346671838158E-02 
450	 3,95042517669362E-02 
451	 3,70315526598044E-02 
452	 3,50474470973045E-02 
453	 3,83846850585977E-02 
454	 4,07519290238628E-02 
455	 3,67931791234209E-02 
456	 3,96249275222265E-02 
457	 4,64329092486978E-02 
458	 4,35079555313228E-02 
459	 3,91231575822113E-02 
460	 3,70393000061987E-02 
461	 3,72045139232631E-02 
462	 0,038385226753628 
463	 0,038887187013499 
464	 4,02807944149118E-02 
465	 4,17229328847978E-02 
466	 3,90751515533045E-02 
467	 3,71448464219074E-02 
468	 3,90217326515885E-02 
469	 4,13567158662076E-02 
470	 4,32519660106773E-02 
471	 4,43537032570695E-02 
472	 4,25930848893762E-02 
473	 3,88461446211571E-02 
474	 4,06929197815485E-02 
475	 4,22216124586023E-02 
476	 3,77205678208776E-02 
477	 0,03910945314454 
478	 4,46698617213025E-02 
479	 4,31230750685447E-02 
480	 4,12437765855979E-02 
481	 4,19331474742913E-02 
482	 4,22412503053079E-02 
483	 4,21154477793011E-02 
484	 4,19177283191253E-02 
485	 4,11798425894645E-02 
486	 0,04050245816006 
487	 4,27822905107058E-02 
488	 4,37196299121659E-02 
489	 4,06067714636687E-02 
490	 4,16722070697144E-02 
491	 4,42271345368829E-02 
492	 3,84401670978495E-02 
493	 3,57825218948248E-02 
494	 3,92279405967398E-02 
495	 4,12863096671762E-02 
496	 4,16442375793763E-02 
497	 0,040662531449866 
498	 4,06669893518281E-02 
499	 4,21987706492454E-02 
500	 4,53676614429462E-02 
501	 4,68008277009359E-02 
502	 4,47532100938326E-02 
503	 4,16464685547641E-02 
504	 3,98743685809124E-02 
505	 4,29416821982959E-02 
506	 4,55138407371464E-02 
507	 4,60793953946301E-02 
508	 4,61487108209471E-02 
509	 4,59578316592085E-02 
510	 4,56878844092304E-02 
511	 4,52851969771124E-02 
512	 4,51501981397686E-02 
513	 4,63673201459003E-02 
514	 4,73015135998334E-02 
515	 4,71749546031935E-02 
516	 4,61472282294992E-02 
517	 4,51395840826888E-02 
518	 4,53229312902403E-02 
519	 4,63342095474467E-02 
520	 4,77169791874152E-02 
521	 4,83910789449583E-02 
522	 4,87137753434057E-02 
523	 4,88906242401957E-02 
524	 4,80225838301187E-02 
525	 0,046867516102509 
526	 4,72207726107599E-02 
527	 0,048429525633379 
528	 4,99658163223183E-02 
529	 0,050447657018777 
530	 5,01940627231183E-02 
531	 0,049721061832882 
532	 0,050028711906672 
533	 5,08787517325124E-02 
534	 5,06975920669194E-02 
535	 5,04429278689986E-02 
536	 5,06627812568405E-02 
537	 5,09117832080993E-02 
538	 5,11502732600814E-02 
539	 0,051403700019764 
540	 5,17742678466155E-02 
541	 5,21621079077016E-02 
542	 5,19351283134553E-02 
543	 5,18562514178718E-02 
544	 5,26107394849693E-02 
545	 5,21116521546895E-02 
546	 5,08066847821813E-02 
547	 5,10235975201601E-02 
548	 0,051854089272162 
549	 5,27346585374196E-02 
550	 5,28938458196322E-02 
551	 0,052808102048535 
552	 5,34064956746921E-02 
553	 5,32628028325696E-02 
554	 5,26332925988208E-02 
555	 5,42847927151233E-02 
556	 5,56330290315151E-02 
557	 5,46045583309315E-02 
558	 5,36042864227267E-02 
559	 5,31609996068197E-02 
560	 5,34418295560004E-02 
561	 5,36447291642669E-02 
562	 0,053481228498221 
563	 5,34782674678178E-02 
564	 5,37716834955321E-02 
565	 5,44718689208473E-02 
566	 5,51000226983123E-02 
567	 5,53389720978093E-02 
568	 5,44955609814526E-02 
569	 5,42463574861549E-02 
570	 5,56062204706307E-02 
571	 5,61073775278773E-02 
572	 5,59752841201283E-02 
573	 0,056496349374294 
574	 5,77308097508299E-02 
575	 5,92388800188283E-02 
576	 5,84491544813047E-02 
577	 5,74677780840662E-02 
578	 0,058801450766647 
579	 5,94326531135867E-02 
580	 5,92014075410049E-02 
581	 5,99545502571958E-02 
582	 6,01214598658837E-02 
583	 5,91451679897938E-02 
584	 6,00353922499713E-02 
585	 6,17390915125524E-02 
586	 6,17443392738587E-02 
587	 6,15817864588336E-02 
588	 6,17686561885573E-02 
589	 6,25342228463237E-02 
590	 6,32289630530081E-02 
591	 6,32565376378866E-02 
592	 6,32705512381326E-02 
593	 0,06327288616116 
594	 6,27642312155554E-02 
595	 6,28598608810822E-02 
596	 6,38488086090741E-02 
597	 6,38492358064906E-02 
598	 6,33277310719483E-02 
599	 6,32686353516744E-02 
600	 6,36214142654636E-02 
601	 6,40783300189585E-02 
602	 6,33393195552944E-02 
603	 6,29580177645462E-02 
604	 6,40018008921748E-02 
605	 6,37071862327824E-02 
606	 6,25107200769348E-02 
607	 6,25666854995842E-02 
608	 6,30708784372227E-02 
609	 6,36685624142344E-02 
610	 6,39588613567558E-02 
611	 6,39009121072812E-02 
612	 6,35134941696275E-02 
613	 6,31870898019571E-02 
614	 6,28773642865617E-02 
615	 6,19176210336564E-02 
616	 0,061400400094724 
617	 6,19091773245078E-02 
618	 6,18313381993014E-02 
619	 0,061504585197826 
620	 6,20999886022806E-02 
621	 6,25892079606708E-02 
622	 6,26599706641327E-02 
623	 6,25023019970749E-02 
624	 6,26050601754654E-02 
625	 6,34085031603717E-02 
626	 6,35987508967348E-02 
627	 6,31200444621456E-02 
628	 6,25829012863292E-02 
629	 0,062552768328219 
630	 6,32501874144489E-02 
631	 6,37783408812596E-02 
632	 6,39239510230588E-02 
633	 6,35506025678838E-02 
634	 6,30178076102037E-02 
635	 6,27144509102212E-02 
636	 6,35572611510479E-02 
637	 6,46156768330861E-02 
638	 6,50823288854105E-02 
639	 6,55892951746975E-02 
640	 0,065988955064075 
641	 0,065591251462233 
642	 6,53736538257741E-02 
643	 0,065740547238814 
644	 6,63616971481253E-02 
645	 6,69836057649366E-02 
646	 6,73277920772159E-02 
647	 6,75797592595235E-02 
648	 6,76614762395728E-02 
649	 6,71152126988953E-02 
650	 0,066689240624442 
651	 6,68401327839808E-02 
652	 0,066814012704888 
653	 6,65018002999305E-02 
654	 6,59053194086121E-02 
655	 6,53865635777764E-02 
656	 6,50788013877167E-02 
657	 6,49144906192338E-02 
658	 6,45584524075714E-02 
659	 6,36976414774045E-02 
660	 6,30850627665127E-02 
661	 0,062698905095631 
662	 6,18789231766345E-02 
663	 6,14454442007751E-02 
664	 6,16712402782927E-02 
665	 6,13807798036812E-02 
666	 6,07185988332605E-02 
667	 6,01046068708014E-02 
668	 6,00091913198152E-02 
669	 6,03054279202734E-02 
670	 5,98387827939886E-02 
671	 5,93964418972867E-02 
672	 5,95909844484998E-02 
673	 5,95809307206135E-02 
674	 5,94063864061011E-02 
675	 5,95005041691943E-02 
676	 5,97430195385937E-02 
677	 5,99844455258675E-02 
678	 5,95563058315799E-02 
679	 5,93015783983291E-02 
680	 6,02535730397686E-02 
681	 6,08314171684128E-02 
682	 6,08896336251528E-02 
683	 6,12446949896192E-02 
684	 6,16883359709732E-02 
685	 6,21167130017238E-02 
686	 6,25962384352055E-02 
687	 6,32323811873626E-02 
688	 6,41720477609788E-02 
689	 6,54540520680911E-02 
690	 6,69225602411434E-02 
691	 6,77428211150956E-02 
692	 6,91441920421355E-02 
693	 0,072141331500211 
694	 7,46144746718672E-02 
695	 7,65550336494176E-02 
696	 7,89974064935229E-02 
697	 8,18150699063095E-02 
698	 0,084929674808495 
699	 8,79216781517229E-02 
700	 9,10720944430843E-02 
701	 9,47922724799255E-02 
702	 9,83857910003657E-02 
703	 0,101795329162336 
704	 0,105581925466972 
705	 0,109109531181407 
706	 0,112017980205328 
707	 0,115003245251839 
708	 0,11792819757676 
709	 0,120334496908952 
710	 0,122699367696691 
711	 0,125129288488745 
712	 0,127326487619598 
713	 0,129464157856463 
714	 0,131693071719902 
715	 0,13365507229171 
716	 0,135387829680948 
717	 0,137221979309232 
718	 0,138691601892159 
719	 0,139704579246406 
720	 0,140947351352929 
721	 0,142252861222204 
722	 0,143324206514568 
723	 0,144279587158702 
724	 0,145158744253044 
725	 0,146023487502024 
726	 0,146753899106097 
727	 0,147298709218405 
728	 0,14781471827407 
729	 0,148488945723157 
730	 0,149631359560447 
731	 0,150512602646547 
732	 0,150905084833534 
733	 0,150928064165261 
734	 0,15105336717173 
735	 0,151673141731317 
736	 0,152439314335983 
737	 0,153081559866043 
738	 0,153098617516343 
739	 0,153141633596829 
740	 0,153497911932503 
741	 0,15424396014137 
742	 0,154751510640482 
743	 0,154324450204528 
744	 0,154488173010751 
745	 0,155279065020625 
746	 0,155676434940533 
747	 0,155936876268148 
748	 0,156160656377257 
749	 0,156192498857426 
750	 0,15615391200946 
751	 0,15623671048271 
752	 0,156546871755112 
753	 0,156980868554845 
754	 0,157013992745206 
755	 0,157076781783695 
756	 0,157466541017535 
757	 0,157808626718279 
758	 0,158067101894358 
759	 0,158302404488824 
760	 0,158441356434298 
761	 0,158516798113419 
762	 0,15875263542693 
763	 0,159095836935228 
764	 0,159467271593155 
765	 0,159613454866226 
766	 0,159630660087095 
767	 0,159963739040041 
768	 0,159950883694382 
769	 0,159525177704478 
770	 0,159872347891757 
771	 0,160501358623116 
772	 0,160725054867339 
773	 0,161115982903351 
774	 0,161536636367422 
775	 0,161178033409404 
776	 0,160962616456012 
777	 0,161336369159114 
778	 0,161768200972976 
779	 0,161958775699592 
780	 0,161568736907989 
781	 0,161425826746935 
782	 0,161709155907031 
783	 0,162169203659908 
784	 0,162512741795022 
785	 0,162546183158714 
786	 0,16246035777251 
787	 0,162389447879379 
788	 0,162503286108473 
789	 0,162713058889906 
790	 0,162974067525632 
791	 0,163235035140803 
792	 0,163459765959034 
793	 0,16360447726979 
794	 0,163519087867935 
795	 0,16333173518454 
796	 0,16332638629502 
797	 0,163568587730667 
798	 0,163995954632353 
799	 0,164155689262234 
800	 0,16430637281122 
801	 0,16468834434629 
802	 0,164854138329747 
803	 0,164860933088399 
804	 0,16509090030142 
805	 0,165195884563856 
806	 0,165083399493222 
807	 0,164915603574655 
808	 0,164994342176899 
809	 0,165592967703518 
810	 0,166049172955879 
811	 0,166161408634754 
812	 0,16575601672012 
813	 0,165659022965642 
814	 0,166133470148716 
815	 0,166279107961921 
816	 0,166343789775586 
817	 0,166701641854992 
818	 0,166820139065624 
819	 0,166793699347871 
820	 0,167339371147368 
821	 0,167463873698499 
822	 0,166909857493716 
823	 0,167329415598678 
824	 0,167923647651724 
825	 0,167483552788304 
826	 0,167452971718536 
827	 0,167906869405278 
828	 0,167968599543365 
829	 0,167931517157626 
830	 0,167940940670829 
831	 0,167914979366529 
832	 0,168095667588837 
833	 0,168802207546411 
834	 0,168821455541897 
835	 0,168259801689395 
836	 0,16856577986926 
837	 0,168723591121453 
838	 0,168294613573363 
839	 0,168261032011233 
840	 0,168440464144492 
841	 0,16842369078342 
842	 0,168484207980209 
843	 0,168665084161336 
844	 0,168885542991586 
845	 0,169213873886706 
846	 0,169594318530378 
847	 0,169447876672136 
848	 0,169054746899492 
849	 0,168893764192449 
850	 0,16907619334754 
851	 0,169409723988285 
852	 0,169145677340031 
853	 0,168825730454716 
854	 0,168799718094541 
855	 0,169224421033931 
856	 0,169799504952186 
857	 0,170096516182167 
858	 0,170161509018045 
859	 0,170028626597403 
860	 0,16974845503934 
861	 0,169717881418746 
862	 0,170045231307786 
863	 0,169825474974275 
864	 0,169720871030121 
865	 0,170673830099021 
866	 0,170790053150408 
867	 0,170046785200819 
868	 0,169785421486528 
869	 0,169716222618583 
870	 0,169833453539466 
871	 0,170814063397716 
872	 0,171625670044594 
873	 0,171029998371147 
874	 0,170588679304715 
875	 0,170592355438838 
876	 0,170765750265424 
877	 0,171009180299978 
878	 0,171249481251277 
879	 0,171506342406598 
880	 0,171621618922549 
881	 0,171462485959803 
882	 0,171673755011576 
883	 0,172199470522371 
884	 0,172586958640465 
885	 0,172657445123717 
886	 0,172438836326176 
887	 0,17254840970136 
888	 0,17274206942157 
889	 0,172741197882222 
890	 0,172507417821989 
891	 0,172059919436816 
892	 0,171407545536862 
893	 0,171160043367303 
894	 0,171436569515763 
895	 0,171632230451794 
896	 0,172065443793607 
897	 0,1729104215358 
898	 0,173321127343386 
899	 0,173349555674105 
900	 0,173321197628064 
901	 0,17377886168625 
902	 0,174463548970784 
903	 0,173705445707687 
904	 0,173119085975813 
905	 0,173640138152867 
906	 0,174059100473326 
907	 0,174119399685027 
908	 0,173687887038114 
909	 0,173837105829081 
910	 0,174466307242603 
911	 0,174422795333511 
912	 0,173913422261083 
913	 0,17323499580211 
914	 0,173492930643072 
915	 0,174123694370136 
916	 0,174391940259683 
917	 0,174682226808033 
918	 0,175106911698487 
919	 0,175959142689745 
920	 0,175799442491019 
921	 0,174426563767328 
922	 0,173239378275606 
923	 0,173750557163856 
924	 0,176600053816486 
925	 0,175799065490343 
926	 0,173457994876148 
927	 0,175201469823595 
928	 0,17573016571861 
929	 0,174392164384962 
930	 0,174401013176842 
931	 0,174761044109987 
932	 0,174926390454797 
933	 0,175391972450765 
934	 0,175642703559889 
935	 0,175027980195767 
936	 0,175255576969428 
937	 0,176000750104222 
938	 0,175253529927188 
939	 0,174223931358632 
940	 0,173605673132382 
941	 0,174440283206429 
942	 0,174974748067528 
943	 0,173837860709325 
944	 0,174168132664491 
945	 0,175368734437898 
946	 0,175386478666978 
947	 0,174978677366968 
948	 0,174477574805757 
949	 0,174388506243135 
950	 0,174271494166128 
951	 0,173902204651984 
952	 0,173560799813997 
953	 0,173378021222466 
954	 0,173463344526573 
955	 0,173613297612153 
956	 0,173793042318525 
957	 0,174023377944464 
958	 0,174439126285508 
959	 0,174991126071444 
960	 0,175372620529822 
961	 0,175081370808949 
962	 0,17402133251482 
963	 0,174529721703831 
964	 0,175787088108609 
965	 0,176043241915357 
966	 0,175653925760377 
967	 0,174834814433906 
968	 0,174039107813651 
969	 0,173370434666163 
970	 0,17292349047343 
971	 0,172561210589411 
972	 0,173012604353822 
973	 0,174625727087659 
974	 0,173643278599043 
975	 0,172250572493319 
976	 0,175442739344551 
977	 0,177400552153604 
978	 0,177040613360357 
979	 0,17657368605609 
980	 0,176518991829305 
981	 0,176989732273834 
982	 0,176599108650311 
983	 0,175703955599747 
984	 0,174922327865145 
985	 0,175986029622054 
986	 0,177541600867045 
987	 0,176439470968876 
988	 0,1747417800281 
989	 0,173544378099776 
990	 0,17424891078947 
991	 0,175734513608559 
992	 0,177221353348833 
993	 0,178299707849116 
994	 0,179006669910772 
995	 0,179350697926365 
996	 0,177958084298359 
997	 0,176226108967208 
998	 0,177157891995567 
999	 0,179549118639644 
1000	 0,182050729697762 
1001	 0,181582702926764 
1002	 0,180271898783374 
1003	 0,179559259140167 
1004	 0,180898992504625 
1005	 0,181701111057611 
1006	 0,179513048624364 
1007	 0,176917519245995 
1008	 0,175953571649071 
1009	 0,179152319665471 
1010	 0,182579374727865 
1011	 0,184234956681562 
1012	 0,181720251931024 
1013	 0,180585532876878 
1014	 0,182575040539051 
1015	 0,182057125720796 
1016	 0,182034838137591 
1017	 0,184669823465956 
1018	 0,184144892675468 
1019	 0,181421835743431 
1020	 0,179254081022535 
1021	 0,180663879800922 
1022	 0,183641841915366 
1023	 0,179920665571017 
1024	 0,18076782090195 
1025	 0,186967113373213 
1026	 0,183634307695009 
1027	 0,179757560137672 
1028	 0,1813044142486 
1029	 0,183884426597414 
1030	 0,185493646622771 
1031	 0,184781470039077 
1032	 0,188991145765884 
1033	 0,194119280020892 
1034	 0,189401529148118 
1035	 0,186670060107522 
1036	 0,188505378731907 
1037	 0,191737892158745 
1038	 0,19152496494146 
1039	 0,186657449972921 
1040	 0,184518329827629 
1041	 0,1839109200824 
1042	 0,183606191882993 
1043	 0,184659908252239 
1044	 0,184642522715061 
1045	 0,180578645395205 
1046	 0,184337413690511 
1047	 0,190903086710189 
1048	 0,182482157674587 
1049	 0,177474563209934 
1050	 0,180430122345005 
1051	 0,185281029139261 
1052	 0,186607587659266 
1053	 0,183146450250975 
1054	 0,186123484985528 
1055	 0,190600038320503 
1056	 0,19163830360601 
1057	 0,189564462413664 
1058	 0,187424094593805 
1059	 0,189256457323647 
1060	 0,188365986764445 
1061	 0,186253509661833 
1062	 0,189455994055792 
1063	 0,193276509583529 
1064	 0,196461436310781 
1065	 0,201524021171502 
1066	 0,200439643423557 
1067	 0,190515874768249 
1068	 0,178175393597074 
1069	 0,172241612896103 
1070	 0,178479803941368 
1071	 0,191037849035016 
1072	 0,202074460638416 
1073	 0,203382635638729 
1074	 0,192888882525703 
1075	 0,180826656797431 
