Wavelength	AURAY00459.asd
325	 3,91979943981872E-02 
326	 0,221713849966638 
327	 0,215103005168157 
328	-4,28857154845658E-02 
329	 1,98062817858877E-02 
330	 0,166061510991385 
331	 0,208661479615045 
332	 0,200438033527156 
333	 0,162265042163904 
334	 0,125634201433497 
335	 0,15071923633683 
336	 0,213177411182911 
337	 0,153171805818476 
338	 7,00804971313353E-02 
339	 6,35449334593014E-02 
340	 0,104219821147771 
341	 0,148532946157116 
342	 0,123194548346657 
343	 0,123518387996017 
344	 0,170881355472521 
345	 0,186281029253587 
346	 0,161744418088836 
347	 9,47943213125053E-02 
348	 4,50910608986067E-02 
349	 4,25318255150281E-02 
350	 0,112946395721091 
351	 0,131248919016005 
352	 7,11134669172682E-02 
353	 4,72786102482565E-02 
354	 5,61871847592383E-02 
355	 7,75424200698723E-02 
356	 9,90470551410764E-02 
357	 0,107764467666341 
358	 6,44246604094461E-02 
359	 0,036070539702348 
360	 5,15669225474491E-02 
361	 9,14258489641202E-02 
362	 0,126378349725454 
363	 0,122529995194554 
364	 0,113060253694067 
365	 0,105881824419687 
366	 9,80742281209671E-02 
367	 8,96752716551073E-02 
368	 8,12835838728238E-02 
369	 7,77816743674086E-02 
370	 7,97526122351453E-02 
371	 8,76475775073096E-02 
372	 8,49608032074653E-02 
373	 7,32563810917804E-02 
374	 0,081088001025984 
375	 8,93500815329078E-02 
376	 8,39595301194245E-02 
377	 6,78175216666583E-02 
378	 5,99317256942704E-02 
379	 0,102674579883707 
380	 0,110659220198893 
381	 7,75010985850708E-02 
382	 9,64615763472686E-02 
383	 0,118009340237222 
384	 9,27713362148667E-02 
385	 7,55260679495649E-02 
386	 7,65549116589406E-02 
387	 0,095613898560945 
388	 0,107595936999404 
389	 0,103767115818589 
390	 9,51078519742607E-02 
391	 8,72420205282539E-02 
392	 8,53976547524009E-02 
393	 9,32399769762264E-02 
394	 0,104293645051058 
395	 0,102266316152649 
396	 8,85093325747921E-02 
397	 6,99236551704097E-02 
398	 8,37703290162514E-02 
399	 0,10490605501635 
400	 9,24604462400683E-02 
401	 8,45425304500671E-02 
402	 8,71016015524277E-02 
403	 8,28819967757965E-02 
404	 8,33707101650181E-02 
405	 9,43807475738525E-02 
406	 9,50219059499681E-02 
407	 8,64237656248279E-02 
408	 7,53256896546103E-02 
409	 7,58470262289817E-02 
410	 8,77213024156987E-02 
411	 8,96775269069577E-02 
412	 8,57059298621448E-02 
413	 8,06700065263293E-02 
414	 7,75083405837639E-02 
415	 7,67208211651463E-02 
416	 7,67824504104992E-02 
417	 8,02623497200422E-02 
418	 8,58388173356061E-02 
419	 0,081064368415342 
420	 7,17237935818498E-02 
421	 6,64264973550645E-02 
422	 7,19976128063303E-02 
423	 8,37236344714284E-02 
424	 8,17832764669615E-02 
425	 7,77500846933502E-02 
426	 7,84965920710353E-02 
427	 7,98720684884862E-02 
428	 0,080752017414753 
429	 8,01427115257418E-02 
430	 7,81773011011641E-02 
431	 7,61719585529934E-02 
432	 7,92028493067159E-02 
433	 8,29864088742939E-02 
434	 8,36101296532444E-02 
435	 8,24119687146547E-02 
436	 8,02856788233742E-02 
437	 7,82783062086095E-02 
438	 7,86519230663768E-02 
439	 8,13397149304144E-02 
440	 7,96104048436841E-02 
441	 7,69630030670538E-02 
442	 7,84642539955321E-02 
443	 7,94461189697346E-02 
444	 7,95210325381722E-02 
445	 8,09597204000467E-02 
446	 8,41419891529924E-02 
447	 8,84730988067481E-02 
448	 8,69599358323674E-02 
449	 8,29537000066251E-02 
450	 8,44172357248782E-02 
451	 8,55006443402116E-02 
452	 8,53099652289269E-02 
453	 8,81483022780874E-02 
454	 9,03991820459227E-02 
455	 8,88517603955538E-02 
456	 8,97381136451488E-02 
457	 9,14420521967022E-02 
458	 8,60278917430742E-02 
459	 0,082727604631438 
460	 0,084918053614835 
461	 8,59420342213262E-02 
462	 8,67161730925856E-02 
463	 0,08935921069746 
464	 8,93424174670895E-02 
465	 0,086979075960184 
466	 0,087207544604037 
467	 8,85469815962462E-02 
468	 8,96744886088829E-02 
469	 8,78801393434182E-02 
470	 8,55729836424986E-02 
471	 8,85648557562857E-02 
472	 8,87892792149237E-02 
473	 8,54389722743925E-02 
474	 8,80774656442932E-02 
475	 9,09267341732917E-02 
476	 8,81618287496655E-02 
477	 8,70669874953907E-02 
478	 8,79602275694913E-02 
479	 8,70878491530902E-02 
480	 0,088053571333572 
481	 9,16309229229803E-02 
482	 9,13330162156899E-02 
483	 8,92788620584609E-02 
484	 8,95929374853677E-02 
485	 8,86632843155065E-02 
486	 8,67428449545449E-02 
487	 8,85220682929799E-02 
488	 8,92689017971677E-02 
489	 8,57023748440114E-02 
490	 8,31449182319306E-02 
491	 8,19651044682221E-02 
492	 8,06171715179569E-02 
493	 8,04522388050215E-02 
494	 8,18457173912738E-02 
495	 8,45836830456988E-02 
496	 8,63326567309338E-02 
497	 8,46198444006821E-02 
498	 8,33765553154416E-02 
499	 0,083541344546701 
500	 8,49532675055766E-02 
501	 8,60529756748321E-02 
502	 8,58536349350931E-02 
503	 8,41355776125397E-02 
504	 8,28735743910466E-02 
505	 8,55164026515396E-02 
506	 8,77205186639994E-02 
507	 8,86725901248652E-02 
508	 9,13498767749821E-02 
509	 9,30915969935859E-02 
510	 9,16772840459017E-02 
511	 0,091624424396252 
512	 9,31397731410837E-02 
513	 9,46354974834259E-02 
514	 9,46908196785336E-02 
515	 9,31422316047025E-02 
516	 9,35920648990941E-02 
517	 0,095039681419798 
518	 9,55766987925972E-02 
519	 9,61275599580143E-02 
520	 9,68516362175107E-02 
521	 9,76643601726058E-02 
522	 9,82673957530216E-02 
523	 9,84425457266739E-02 
524	 0,098385663196999 
525	 9,80589811874675E-02 
526	 9,70617233459703E-02 
527	 9,71477568674937E-02 
528	 9,84806818855613E-02 
529	 9,83380908942285E-02 
530	 9,75623270776641E-02 
531	 9,73547729128518E-02 
532	 9,80871048297978E-02 
533	 9,92854919721817E-02 
534	 9,92894769103114E-02 
535	 9,87619799956201E-02 
536	 9,81720872850576E-02 
537	 9,78968356886654E-02 
538	 9,79973641836259E-02 
539	 9,85835910127126E-02 
540	 9,78991931158748E-02 
541	 0,096246510566804 
542	 0,097641177298972 
543	 9,97929513976492E-02 
544	 0,100292779724405 
545	 0,100162210361703 
546	 9,97336515040377E-02 
547	 9,92383215532564E-02 
548	 9,95285878656317E-02 
549	 0,100745110607502 
550	 0,100568702202215 
551	 0,099846145520003 
552	 0,100319475991615 
553	 0,100538655149368 
554	 0,100308737163212 
555	 0,100624114031787 
556	 0,100544726208524 
557	 9,93539568962752E-02 
558	 9,84112965423164E-02 
559	 9,77324169683391E-02 
560	 9,66532531003937E-02 
561	 9,55427009563555E-02 
562	 9,47172858119743E-02 
563	 9,50671938532941E-02 
564	 9,55464745769241E-02 
565	 9,47033553782225E-02 
566	 9,43724646982121E-02 
567	 9,47059518176556E-02 
568	 9,43749850565806E-02 
569	 9,44949572656681E-02 
570	 9,57944234294797E-02 
571	 9,72870801826473E-02 
572	 9,86566620951029E-02 
573	 9,94589034608463E-02 
574	 0,101439936095295 
575	 0,104674103877272 
576	 0,106038629010147 
577	 0,107001112955282 
578	 0,109412794849744 
579	 0,111475201991945 
580	 0,11290545188457 
581	 0,114017442703363 
582	 0,115526348033602 
583	 0,117721745044407 
584	 0,119192671123137 
585	 0,120223752151463 
586	 0,121690482462837 
587	 0,122901869412397 
588	 0,12379297463437 
589	 0,125050596264274 
590	 0,126043147855107 
591	 0,126219800090957 
592	 0,126879570801151 
593	 0,127928811229238 
594	 0,12835817147008 
595	 0,128786652541738 
596	 0,12939020605369 
597	 0,129488814219441 
598	 0,129131718566162 
599	 0,128469531723816 
600	 0,128426514221144 
601	 0,128797688990533 
602	 0,127596279031318 
603	 0,126479304056267 
604	 0,12667332375726 
605	 0,126212936692376 
606	 0,125018695085625 
607	 0,12363376144572 
608	 0,122698170125965 
609	 0,122411586676558 
610	 0,122135317216797 
611	 0,121460964003799 
612	 0,119982445154927 
613	 0,119066447634123 
614	 0,118607467901148 
615	 0,116974600102666 
616	 0,115387214804646 
617	 0,114646910260819 
618	 0,114192641724051 
619	 0,114120481963344 
620	 0,114913042855621 
621	 0,114814152704802 
622	 0,11366217099988 
623	 0,113853162216526 
624	 0,114417220666987 
625	 0,114224830610963 
626	 0,113699326603316 
627	 0,113268291267024 
628	 0,113870468225043 
629	 0,114721511765996 
630	 0,115366739617541 
631	 0,115803538817685 
632	 0,116083468688825 
633	 0,116274684763724 
634	 0,116841956316817 
635	 0,117912335433793 
636	 0,11935986463638 
637	 0,120639130230087 
638	 0,121336826939331 
639	 0,122345761975143 
640	 0,123540501116988 
641	 0,124157601441369 
642	 0,124808361633711 
643	 0,125742117117323 
644	 0,126896809152859 
645	 0,12795681431252 
646	 0,128539903219375 
647	 0,128514674757221 
648	 0,127912262493314 
649	 0,12693753217841 
650	 0,125956609220736 
651	 0,125222543171568 
652	 0,12474801305595 
653	 0,123753342405994 
654	 0,120584634763549 
655	 0,117923177786619 
656	 0,116455911978451 
657	 0,114562429864111 
658	 0,112097166101207 
659	 0,109057736168505 
660	 0,10678768660445 
661	 0,105024898308123 
662	 0,101974834222532 
663	 9,93735159354067E-02 
664	 9,79409591219338E-02 
665	 9,61302387037693E-02 
666	 9,40168484749855E-02 
667	 9,19494708136607E-02 
668	 9,08483266011037E-02 
669	 9,05862784194273E-02 
670	 8,94267017229753E-02 
671	 8,85074033903253E-02 
672	 8,86655129562133E-02 
673	 8,81194777059365E-02 
674	 0,087123630614012 
675	 8,69819752036274E-02 
676	 8,72964594676747E-02 
677	 8,77227529151436E-02 
678	 8,70269730042798E-02 
679	 8,64269823488948E-02 
680	 8,74573968154191E-02 
681	 8,85271133352939E-02 
682	 8,93080356705183E-02 
683	 8,99715659084242E-02 
684	 9,10757942798663E-02 
685	 9,28841699524374E-02 
686	 9,43777243191317E-02 
687	 9,62049324346213E-02 
688	 9,97128324783028E-02 
689	 0,103702807549521 
690	 0,108066681353599 
691	 0,11378311951578 
692	 0,12072144096459 
693	 0,128703245365658 
694	 0,137274016303166 
695	 0,146641088372627 
696	 0,157457777972696 
697	 0,169683096181278 
698	 0,183245946080073 
699	 0,197645893438157 
700	 0,212846063877936 
701	 0,228892894793593 
702	 0,24479858509374 
703	 0,260386931386483 
704	 0,276319419683207 
705	 0,29210490457105 
706	 0,307349003672803 
707	 0,321675595836584 
708	 0,335440327455178 
709	 0,349441991957974 
710	 0,362612991457173 
711	 0,374691301147634 
712	 0,386088611704045 
713	 0,396892398695847 
714	 0,407149089559855 
715	 0,416540324329894 
716	 0,42515363838423 
717	 0,433310501359481 
718	 0,441010439454106 
719	 0,448253986988337 
720	 0,454995316993478 
721	 0,461084829130503 
722	 0,466349815597643 
723	 0,47143393106577 
724	 0,476385682432566 
725	 0,4808129531623 
726	 0,484504833865713 
727	 0,48743616839744 
728	 0,490455083572799 
729	 0,493587246726168 
730	 0,496662691992844 
731	 0,499275470220117 
732	 0,50132103396786 
733	 0,502989422495596 
734	 0,504556647755893 
735	 0,506270141584286 
736	 0,508224854526208 
737	 0,510058024785806 
738	 0,510840802375535 
739	 0,511477263354725 
740	 0,512354031600847 
741	 0,513453574693613 
742	 0,514527826893992 
743	 0,51529257174229 
744	 0,516047793556131 
745	 0,516967226335683 
746	 0,518486748254794 
747	 0,51937003949398 
748	 0,519111082146698 
749	 0,51933224684404 
750	 0,51991347598714 
751	 0,52034718362919 
752	 0,520792368716167 
753	 0,52129247291774 
754	 0,521925950565534 
755	 0,522460037927113 
756	 0,522737833770649 
757	 0,522982280665293 
758	 0,523252266708631 
759	 0,523608813752301 
760	 0,523733159962812 
761	 0,52367017104867 
762	 0,524149581168958 
763	 0,52467264437151 
764	 0,524762063900464 
765	 0,525013001156739 
766	 0,525409681557299 
767	 0,525661905197149 
768	 0,525636923696 
769	 0,525399770123769 
770	 0,525651512741693 
771	 0,526157241891146 
772	 0,526559997179018 
773	 0,52663777047989 
774	 0,526443744013397 
775	 0,526302532538704 
776	 0,526321156336595 
777	 0,52654369122589 
778	 0,526799450325347 
779	 0,526871195466045 
780	 0,526480800893346 
781	 0,526397912836758 
782	 0,52663684478863 
783	 0,526357485705262 
784	 0,52637346124342 
785	 0,52710105540835 
786	 0,527273582455608 
787	 0,527057700655852 
788	 0,527104366125809 
789	 0,52682397852569 
790	 0,526300377952856 
791	 0,526519814015612 
792	 0,526907709348439 
793	 0,526969034974322 
794	 0,526824553762359 
795	 0,52656623514328 
796	 0,526342861709879 
797	 0,526222131066312 
798	 0,526226826243154 
799	 0,526278670529491 
800	 0,526369315748486 
801	 0,526475638581704 
802	 0,526334563965274 
803	 0,526036511179666 
804	 0,525910989471835 
805	 0,525892008727864 
806	 0,525974304812011 
807	 0,526149903994709 
808	 0,526452122875306 
809	 0,526909220058249 
810	 0,527452711139274 
811	 0,527850031203119 
812	 0,527472424776655 
813	 0,527389114953571 
814	 0,527975509377361 
815	 0,528436715038943 
816	 0,528601871156488 
817	 0,528373851628808 
818	 0,528373795271737 
819	 0,528583119799561 
820	 0,528376319800754 
821	 0,52860433194833 
822	 0,529491993970066 
823	 0,529750541752137 
824	 0,529561721037167 
825	 0,529343458789134 
826	 0,529338626059686 
827	 0,529516603842412 
828	 0,529514125342816 
829	 0,529477985090208 
830	 0,52946963142531 
831	 0,52936457382841 
832	 0,529331632241252 
833	 0,529605454216032 
834	 0,529910759298459 
835	 0,530099150805214 
836	 0,530012127369755 
837	 0,529613181125037 
838	 0,529045419682385 
839	 0,529328280503369 
840	 0,529949847413964 
841	 0,530033104975797 
842	 0,529913520386801 
843	 0,529643835266105 
844	 0,529074811566928 
845	 0,528907900490746 
846	 0,529452637352286 
847	 0,529863967293517 
848	 0,530089993967212 
849	 0,530215020051863 
850	 0,530273587006014 
851	 0,530258329085117 
852	 0,530110365183354 
853	 0,52980461345474 
854	 0,529444190926941 
855	 0,52979745252722 
856	 0,530209920627061 
857	 0,529696097967415 
858	 0,529447045399334 
859	 0,529672810929641 
860	 0,530107932510102 
861	 0,530244959092561 
862	 0,529851739307631 
863	 0,529325058899557 
864	 0,529291287175257 
865	 0,530444980481133 
866	 0,530715585978225 
867	 0,530111486573443 
868	 0,530285579147628 
869	 0,53060141575163 
870	 0,530760109204912 
871	 0,530718063896971 
872	 0,530772966830811 
873	 0,531256318722292 
874	 0,531032911794041 
875	 0,53033426498097 
876	 0,530536679457069 
877	 0,530801203002096 
878	 0,530860815181073 
879	 0,531337315762377 
880	 0,531591109957108 
881	 0,53099518687862 
882	 0,531604965539469 
883	 0,533040715112877 
884	 0,533265623316867 
885	 0,533097947734393 
886	 0,532834236642734 
887	 0,532578777474753 
888	 0,532518210832196 
889	 0,532758945815151 
890	 0,532534812283535 
891	 0,532114867004004 
892	 0,532419451014623 
893	 0,532510974991235 
894	 0,532267049795738 
895	 0,532575510045947 
896	 0,532907886245787 
897	 0,532848230622804 
898	 0,532782127071576 
899	 0,532735142480094 
900	 0,53263529358519 
901	 0,532733118397 
902	 0,53308858156938 
903	 0,533638926484761 
904	 0,534182004224241 
905	 0,534486857483657 
906	 0,534004597908204 
907	 0,533224398048961 
908	 0,532919189871061 
909	 0,533122879415532 
910	 0,533412524526715 
911	 0,53235621261364 
912	 0,531596647685164 
913	 0,531878314638382 
914	 0,532528716229001 
915	 0,532821587964368 
916	 0,53210610509207 
917	 0,532173742300269 
918	 0,532816683907141 
919	 0,532523654631763 
920	 0,532465514799417 
921	 0,53275480652334 
922	 0,531979433794771 
923	 0,531264938161302 
924	 0,531447663467576 
925	 0,530618979262486 
926	 0,529355742883792 
927	 0,529238409270131 
928	 0,528856118768994 
929	 0,528076881636153 
930	 0,527888061106143 
931	 0,527898197261112 
932	 0,527811156735645 
933	 0,527402524560063 
934	 0,526672177863272 
935	 0,525692672334174 
936	 0,525215821993731 
937	 0,524998757209212 
938	 0,523835961578812 
939	 0,52271339546253 
940	 0,521919251067525 
941	 0,520828449540827 
942	 0,519999642710183 
943	 0,519800729528789 
944	 0,518412432485394 
945	 0,516666133253613 
946	 0,516690479329979 
947	 0,516168044742658 
948	 0,514572410696242 
949	 0,512596860125386 
950	 0,510717026525373 
951	 0,509200578277525 
952	 0,50763790397582 
953	 0,506433092989338 
954	 0,506023308275819 
955	 0,504231732921664 
956	 0,50176670421611 
957	 0,501829957561609 
958	 0,50092768511336 
959	 0,49859495251366 
960	 0,498479393103242 
961	 0,498944028083145 
962	 0,498582747081989 
963	 0,497391674550825 
964	 0,496362981355394 
965	 0,496981675385511 
966	 0,496131105745811 
967	 0,494114614617369 
968	 0,494295242776782 
969	 0,49509704718534 
970	 0,495482155647493 
971	 0,493740662080121 
972	 0,492118402906716 
973	 0,49262197531851 
974	 0,492871376356667 
975	 0,492903552403794 
976	 0,493481808486269 
977	 0,494309850273735 
978	 0,49520206171274 
979	 0,49600869933887 
980	 0,495928938329118 
981	 0,494820121548901 
982	 0,49423375208515 
983	 0,494345894689217 
984	 0,495130149967688 
985	 0,495903944300941 
986	 0,496290511052796 
987	 0,495930141211666 
988	 0,495312996416006 
989	 0,494793910772445 
990	 0,494587713186701 
991	 0,496417337953633 
992	 0,500228864667743 
993	 0,500258701712493 
994	 0,499384113211452 
995	 0,501005864777051 
996	 0,503003097004658 
997	 0,504332732048074 
998	 0,503710060499488 
999	 0,503346698598587 
1000	 0,503916428718584 
1001	 0,505340764975549 
1002	 0,505770924037842 
1003	 0,504695247221919 
1004	 0,505099463918953 
1005	 0,506378305502418 
1006	 0,507576681875643 
1007	 0,507291861807038 
1008	 0,50720341028361 
1009	 0,51078958271366 
1010	 0,508593280034945 
1011	 0,5027959144363 
1012	 0,508978839234249 
1013	 0,514955003122794 
1014	 0,515423101749083 
1015	 0,513597411704935 
1016	 0,512860562776393 
1017	 0,515361981104563 
1018	 0,514344758994175 
1019	 0,512110833982624 
1020	 0,513464557991037 
1021	 0,516379253648555 
1022	 0,518804896263751 
1023	 0,516182003443159 
1024	 0,51729501427365 
1025	 0,522824215346627 
1026	 0,520727164638093 
1027	 0,52008834496239 
1028	 0,525299648796077 
1029	 0,521559920443285 
1030	 0,515417265759758 
1031	 0,516098128810332 
1032	 0,521156992292182 
1033	 0,526638609232025 
1034	 0,525571617201118 
1035	 0,524762614205992 
1036	 0,525676828482721 
1037	 0,526627100309663 
1038	 0,524580004130929 
1039	 0,520500916587998 
1040	 0,52734426931097 
1041	 0,532603158192768 
1042	 0,526453550960638 
1043	 0,521633835647479 
1044	 0,519938538525759 
1045	 0,521312329368203 
1046	 0,52539012063552 
1047	 0,529118913153032 
1048	 0,526570050359605 
1049	 0,52289260312222 
1050	 0,519891007046275 
1051	 0,515918820987862 
1052	 0,519690783448401 
1053	 0,531391741164682 
1054	 0,525915526304588 
1055	 0,517374139294859 
1056	 0,519118963095542 
1057	 0,525880426941734 
1058	 0,532790205547655 
1059	 0,533842193844844 
1060	 0,529586005414581 
1061	 0,52704396559801 
1062	 0,542118149473315 
1063	 0,543079536501224 
1064	 0,528215239761002 
1065	 0,528482340882382 
1066	 0,529373892059724 
1067	 0,524415336183023 
1068	 0,513435047813268 
1069	 0,510446775515206 
1070	 0,523328817396721 
1071	 0,531274923817705 
1072	 0,53258818496642 
1073	 0,528124426673065 
1074	 0,514333550935944 
1075	 0,502774321646489 
