Wavelength	AURAY00588.asd
325	-2,21045299444227E-02 
326	 9,80050928006318E-02 
327	 9,02823261746355E-02 
328	-7,30492188483433E-02 
329	 0,047823864652815 
330	 0,201938861184894 
331	 0,218692768058099 
332	 0,133082163181987 
333	 1,63197827998261E-02 
334	 0,06428300244285 
335	 0,117798042649046 
336	 0,117948373196563 
337	 4,20330606005402E-02 
338	-3,03383497308971E-03 
339	 7,69360792753418E-02 
340	 0,11709645024178 
341	 9,63187496669184E-02 
342	 1,96496459948782E-02 
343	 1,77445458583195E-02 
344	 0,112703733244902 
345	 0,11347499124571 
346	 7,64217591335017E-02 
347	 6,16987653577257E-02 
348	 2,49741689714554E-02 
349	-7,47098276105831E-03 
350	 3,65397078419187E-02 
351	 5,61163737477216E-02 
352	 2,69291337306325E-02 
353	 1,91460932472462E-02 
354	 3,43988126775191E-02 
355	 6,23134545760279E-02 
356	 6,17008302850921E-02 
357	 3,92202257055067E-02 
358	 3,99220717714679E-02 
359	 3,08229993473272E-02 
360	 4,33546618762327E-03 
361	 1,57479045680685E-02 
362	 4,48320167781561E-02 
363	 5,81764164690293E-02 
364	 4,39277003305146E-02 
365	 1,70017183554915E-02 
366	 4,44988691335478E-02 
367	 0,054611926516075 
368	 1,07054408101109E-02 
369	 2,25109111620228E-02 
370	 5,87010556017684E-02 
371	 4,33480882233223E-02 
372	 3,13239055000877E-02 
373	 3,44340819162551E-02 
374	 3,64164762031265E-02 
375	 3,20835781400868E-02 
376	 1,83208365416022E-02 
377	 3,5713190257775E-03 
378	 4,52377113701241E-03 
379	 5,46477112819698E-02 
380	 6,82251466486465E-02 
381	 0,03689272211054 
382	 4,18431444278953E-02 
383	 5,44153901302794E-02 
384	 4,39260250462457E-02 
385	 0,04244535869833 
386	 4,99951990516503E-02 
387	 0,051030119884523 
388	 5,54147220256272E-02 
389	 0,063259731945722 
390	 5,38349107388768E-02 
391	 4,33527850160874E-02 
392	 0,052311247245314 
393	 5,62652068126521E-02 
394	 5,18466804090571E-02 
395	 4,64481704340052E-02 
396	 3,60457074655777E-02 
397	 2,32105049168827E-02 
398	 3,41377196928475E-02 
399	 5,12986796094764E-02 
400	 0,04681774094156 
401	 3,92800662166896E-02 
402	 3,51488608422598E-02 
403	 3,98269491589355E-02 
404	 4,31013387784515E-02 
405	 3,88253173811598E-02 
406	 3,79147689266769E-02 
407	 0,037679242822024 
408	 0,027825539092796 
409	 2,95745878927339E-02 
410	 4,33468932801741E-02 
411	 0,042877386772248 
412	 3,70695910603313E-02 
413	 3,52886444256739E-02 
414	 3,59658721491357E-02 
415	 3,75224249006045E-02 
416	 0,035781721300014 
417	 3,77066951117136E-02 
418	 4,37825283415368E-02 
419	 3,88100039303663E-02 
420	 3,31588579059633E-02 
421	 4,15751516955352E-02 
422	 4,44208100189645E-02 
423	 4,00065483598972E-02 
424	 3,86588507376306E-02 
425	 3,65841620069744E-02 
426	 3,22095995194025E-02 
427	 3,17584866198698E-02 
428	 3,42891982871144E-02 
429	 3,69760876824368E-02 
430	 3,69712586941649E-02 
431	 3,45716735309686E-02 
432	 3,57820243437063E-02 
433	 3,67490585504934E-02 
434	 3,42382041390615E-02 
435	 3,54609248197673E-02 
436	 3,89914615346278E-02 
437	 3,79978653940473E-02 
438	 3,71182247397427E-02 
439	 3,78569326288349E-02 
440	 3,73600322602982E-02 
441	 3,76185943374741E-02 
442	 4,13769366098766E-02 
443	 4,16295553847567E-02 
444	 3,86749998412359E-02 
445	 3,91483258930544E-02 
446	 4,17215782624812E-02 
447	 4,50044258788063E-02 
448	 4,47444620049117E-02 
449	 4,19819207639863E-02 
450	 3,95507749706677E-02 
451	 3,93951131197272E-02 
452	 4,16313453242474E-02 
453	 4,31383654771504E-02 
454	 4,39727394316604E-02 
455	 4,44147724876201E-02 
456	 4,63827551217627E-02 
457	 4,85105471975356E-02 
458	 4,63663394685854E-02 
459	 4,36194167587324E-02 
460	 4,19564734947119E-02 
461	 4,04346096226777E-02 
462	 4,06020311785513E-02 
463	 4,45073120669698E-02 
464	 4,63858912641738E-02 
465	 4,55690381420665E-02 
466	 4,57781207423852E-02 
467	 0,04497924488149 
468	 4,23395091991346E-02 
469	 0,042660572757433 
470	 4,50206657525866E-02 
471	 4,64980792601355E-02 
472	 4,57870635284531E-02 
473	 4,36492434820785E-02 
474	 4,66075868630311E-02 
475	 4,91307551310649E-02 
476	 0,045887478212585 
477	 4,67593695596942E-02 
478	 5,03429347424038E-02 
479	 4,67077158624677E-02 
480	 4,55352345384584E-02 
481	 5,00158720663708E-02 
482	 4,83309509555343E-02 
483	 4,52021545675197E-02 
484	 4,94207064581692E-02 
485	 4,95205187215384E-02 
486	 4,51076931604424E-02 
487	 4,70583622004705E-02 
488	 4,85735168146194E-02 
489	 4,49756299174302E-02 
490	 4,49656489491339E-02 
491	 4,72412797240037E-02 
492	 4,52698469784331E-02 
493	 0,045544778960629 
494	 4,89551065767405E-02 
495	 4,78484471542118E-02 
496	 4,54364418133025E-02 
497	 4,59241286018815E-02 
498	 4,64496009767072E-02 
499	 4,68627293859423E-02 
500	 4,87629555238625E-02 
501	 5,00640466440055E-02 
502	 0,049641595533504 
503	 0,048382914769648 
504	 4,80030425968825E-02 
505	 5,13457864950082E-02 
506	 0,05336870054732 
507	 5,29642551738487E-02 
508	 5,27491020644929E-02 
509	 5,25091467640285E-02 
510	 5,20262315028121E-02 
511	 5,25098410090272E-02 
512	 5,37688209075215E-02 
513	 5,49926940312963E-02 
514	 5,49166500321119E-02 
515	 5,33560068713288E-02 
516	 5,31791419858067E-02 
517	 5,36571455546394E-02 
518	 0,053303860094903 
519	 5,42181889506297E-02 
520	 5,61434057581639E-02 
521	 5,64437973494525E-02 
522	 5,60910731693461E-02 
523	 5,58719452793375E-02 
524	 5,60214300580966E-02 
525	 5,63314091823071E-02 
526	 5,61664611837013E-02 
527	 0,056106749968377 
528	 5,63665410930087E-02 
529	 5,69186353780515E-02 
530	 5,75366483805663E-02 
531	 5,79699251225258E-02 
532	 5,85479760076642E-02 
533	 5,90667124581437E-02 
534	 5,87781036492811E-02 
535	 5,80496581640698E-02 
536	 5,72315416991637E-02 
537	 0,057043713144522 
538	 5,75391513555347E-02 
539	 5,86537814568895E-02 
540	 5,95212160468831E-02 
541	 5,98629177294746E-02 
542	 0,059944275860388 
543	 6,02752885228851E-02 
544	 6,12750251784472E-02 
545	 6,15785070418454E-02 
546	 6,11576198597476E-02 
547	 6,06991251754771E-02 
548	 6,04555858749901E-02 
549	 6,05996639275006E-02 
550	 6,09974795487717E-02 
551	 6,16940278789142E-02 
552	 6,28338824123338E-02 
553	 6,33514648132402E-02 
554	 0,063056727764753 
555	 6,25558147787785E-02 
556	 6,23359089394701E-02 
557	 6,27261003412017E-02 
558	 6,27425036834014E-02 
559	 6,24287643444736E-02 
560	 6,23414077431774E-02 
561	 6,23312517251795E-02 
562	 6,24455798286096E-02 
563	 6,32437475837084E-02 
564	 6,39642615952235E-02 
565	 6,35666942809379E-02 
566	 6,36959796396834E-02 
567	 6,42896518581519E-02 
568	 6,33365499464809E-02 
569	 6,32388640771944E-02 
570	 6,54124953312736E-02 
571	 0,066120666448553 
572	 0,065792684566834 
573	 6,66713351090741E-02 
574	 0,067798739125591 
575	 6,86050253709936E-02 
576	 6,76530887414851E-02 
577	 0,067000247027154 
578	 0,068978259334666 
579	 6,98319631817535E-02 
580	 6,94324830487967E-02 
581	 7,02582902968309E-02 
582	 7,10020331580539E-02 
583	 0,071062655406107 
584	 7,17291591891778E-02 
585	 7,27113275758298E-02 
586	 7,32380198099546E-02 
587	 7,36263178561391E-02 
588	 7,39076537869402E-02 
589	 0,073742620359794 
590	 7,40096904863147E-02 
591	 7,54134290077595E-02 
592	 7,54447287154026E-02 
593	 7,45375561216992E-02 
594	 7,53059366817486E-02 
595	 7,60474291317128E-02 
596	 7,60233069604013E-02 
597	 7,58884306395274E-02 
598	 7,56200605656947E-02 
599	 7,50690620825922E-02 
600	 7,49007489698255E-02 
601	 7,50552111735797E-02 
602	 7,43530494604512E-02 
603	 7,41806981792955E-02 
604	 7,54688335160613E-02 
605	 7,55887168141823E-02 
606	 7,48188905448921E-02 
607	 7,49884054553111E-02 
608	 7,51114800091394E-02 
609	 7,49488500914695E-02 
610	 7,51618835180459E-02 
611	 7,53175091308428E-02 
612	 0,074833455405416 
613	 7,45784492175495E-02 
614	 7,45611426739399E-02 
615	 0,074060526854604 
616	 0,073401652905466 
617	 7,29207708110466E-02 
618	 7,35885512892393E-02 
619	 7,46148769015853E-02 
620	 7,42043764103697E-02 
621	 7,35548395766991E-02 
622	 7,32934212263193E-02 
623	 7,44829098287082E-02 
624	 7,54881423974934E-02 
625	 7,46391140466368E-02 
626	 7,40183477568923E-02 
627	 7,39894664114281E-02 
628	 7,41490089594328E-02 
629	 0,074554470619247 
630	 0,075130302708466 
631	 0,075320828735721 
632	 7,52773498706999E-02 
633	 7,53716766218244E-02 
634	 0,075165013792657 
635	 7,48718101889389E-02 
636	 7,57933578872928E-02 
637	 7,69378250413988E-02 
638	 7,74069850739703E-02 
639	 7,73182801700762E-02 
640	 7,70553467718781E-02 
641	 7,75883646675864E-02 
642	 7,77876020395873E-02 
643	 0,077443566614112 
644	 7,82237860913558E-02 
645	 7,92419375634504E-02 
646	 7,91729016060021E-02 
647	 7,91271699094094E-02 
648	 0,079266961891383 
649	 7,92000668565277E-02 
650	 7,88976158946918E-02 
651	 7,83993394171838E-02 
652	 7,82709198489989E-02 
653	 7,82892761519128E-02 
654	 7,78282473673331E-02 
655	 7,72594058292912E-02 
656	 7,67700427147056E-02 
657	 7,67159801974981E-02 
658	 7,63854516329341E-02 
659	 7,50687942636605E-02 
660	 7,39794625208589E-02 
661	 7,33182197387578E-02 
662	 7,27318254045432E-02 
663	 7,25826338729558E-02 
664	 0,07286302207489 
665	 7,22994768636612E-02 
666	 7,13081688367976E-02 
667	 7,07535901169224E-02 
668	 7,05212477704021E-02 
669	 0,070448905365184 
670	 6,99053649247969E-02 
671	 6,94934923269097E-02 
672	 6,96591603269964E-02 
673	 6,94986293134477E-02 
674	 6,91857986078776E-02 
675	 6,95175810708157E-02 
676	 6,99816066802774E-02 
677	 7,02723733806937E-02 
678	 6,97535853980561E-02 
679	 6,94500088282814E-02 
680	 7,06007043298901E-02 
681	 7,10877743139363E-02 
682	 7,08613712371303E-02 
683	 7,14456037179718E-02 
684	 7,21890474862992E-02 
685	 7,27543871576814E-02 
686	 7,35772213452749E-02 
687	 7,46358875858704E-02 
688	 0,075793263874728 
689	 7,70781972020148E-02 
690	 7,85053276283676E-02 
691	 8,00783132581734E-02 
692	 8,18935551939908E-02 
693	 8,40456466919158E-02 
694	 8,66814832092824E-02 
695	 0,089507927256454 
696	 9,16365002276795E-02 
697	 9,43332454915716E-02 
698	 9,79419751017886E-02 
699	 0,101057173597524 
700	 0,104002509662026 
701	 0,107362885639994 
702	 0,111019741149349 
703	 0,114645974971082 
704	 0,117307153956758 
705	 0,119890599145645 
706	 0,122906895819769 
707	 0,125514499892151 
708	 0,127855696423772 
709	 0,130416918620115 
710	 0,132800590907871 
711	 0,134880599935521 
712	 0,136654574846841 
713	 0,138332549558322 
714	 0,14010837433492 
715	 0,141976088724987 
716	 0,143665615257942 
717	 0,144404907199541 
718	 0,145434346453182 
719	 0,147123867801037 
720	 0,148209766832127 
721	 0,148987315373262 
722	 0,149981802931596 
723	 0,151008315325748 
724	 0,151969655690185 
725	 0,152729958117553 
726	 0,153138593220679 
727	 0,153206085173675 
728	 0,153781663282536 
729	 0,154646764290488 
730	 0,155197084583143 
731	 0,155650332831773 
732	 0,156054845941212 
733	 0,156360182337543 
734	 0,156767158493854 
735	 0,15742612427013 
736	 0,157976360015788 
737	 0,158307900767845 
738	 0,1583254684899 
739	 0,158318118693365 
740	 0,158434723929935 
741	 0,15870356379939 
742	 0,159058423300229 
743	 0,159414530260689 
744	 0,159656577869257 
745	 0,159824477278151 
746	 0,160172424834156 
747	 0,160364156541238 
748	 0,160275038309653 
749	 0,160395752666739 
750	 0,160636827630757 
751	 0,160769001021057 
752	 0,160854476733722 
753	 0,160944522669608 
754	 0,161153456143129 
755	 0,16148047728442 
756	 0,161900428240171 
757	 0,1622072829785 
758	 0,162431750932278 
759	 0,162756476320629 
760	 0,16266320638255 
761	 0,162249112376807 
762	 0,162760768415234 
763	 0,163443613530677 
764	 0,163541454334378 
765	 0,163521099152829 
766	 0,163575932080486 
767	 0,164056107510696 
768	 0,164098118342768 
769	 0,163594038401604 
770	 0,164103808867281 
771	 0,164831798869955 
772	 0,164713908482998 
773	 0,164961901586339 
774	 0,165509768163655 
775	 0,165324787085052 
776	 0,165051673236994 
777	 0,165059054923202 
778	 0,165434747189785 
779	 0,165751737242728 
780	 0,165375829594446 
781	 0,165237271844176 
782	 0,165504552172227 
783	 0,165791691437744 
784	 0,166124859696303 
785	 0,166473805698664 
786	 0,166542421346805 
787	 0,166382451192613 
788	 0,166127727894595 
789	 0,166305066759701 
790	 0,16692246543028 
791	 0,167297583026294 
792	 0,167368273043967 
793	 0,167135607256729 
794	 0,16698860944883 
795	 0,167024741362772 
796	 0,167290636999355 
797	 0,167480259487023 
798	 0,167501061213972 
799	 0,167496282323233 
800	 0,167592875460665 
801	 0,167886600770922 
802	 0,168132270144101 
803	 0,168225464380798 
804	 0,167999256245999 
805	 0,167947503466484 
806	 0,168223218372782 
807	 0,168437520052519 
808	 0,168763736481986 
809	 0,169382820234019 
810	 0,169640487997409 
811	 0,169528963683714 
812	 0,169427934547891 
813	 0,169350564706876 
814	 0,169318236800764 
815	 0,169236947962891 
816	 0,169281288506912 
817	 0,169647200278907 
818	 0,169660683267926 
819	 0,169493546528722 
820	 0,17023347308194 
821	 0,170492337459079 
822	 0,169841883070419 
823	 0,170177127516786 
824	 0,170694201837086 
825	 0,170148593333644 
826	 0,17019286474609 
827	 0,170798030745339 
828	 0,170562616551886 
829	 0,170433576721312 
830	 0,170813966524989 
831	 0,170924580896378 
832	 0,170920111645714 
833	 0,171120031646025 
834	 0,171223048811428 
835	 0,171156550514126 
836	 0,170951183922116 
837	 0,170619258774355 
838	 0,170270831532063 
839	 0,170508677868152 
840	 0,170959572495392 
841	 0,17101056325279 
842	 0,170956278944489 
843	 0,170906589587875 
844	 0,171021080741419 
845	 0,170975289899885 
846	 0,170706014290554 
847	 0,171117403543526 
848	 0,171660128705983 
849	 0,171438392548697 
850	 0,171543456493656 
851	 0,17195105317927 
852	 0,171653471065134 
853	 0,17134633756385 
854	 0,171425840894666 
855	 0,171821906951363 
856	 0,172127938919514 
857	 0,171818191809351 
858	 0,171700851282859 
859	 0,171835505243679 
860	 0,171651477226752 
861	 0,17185868465165 
862	 0,172564625544572 
863	 0,171885874654729 
864	 0,171045478404319 
865	 0,171842255158078 
866	 0,172454130157333 
867	 0,172509707274205 
868	 0,172239472887004 
869	 0,172146526577857 
870	 0,172387798811281 
871	 0,172127616120796 
872	 0,171914712599587 
873	 0,172456723521291 
874	 0,172528662437509 
875	 0,172184530023319 
876	 0,17239663836646 
877	 0,172558920661565 
878	 0,172508876914932 
879	 0,172881339280646 
880	 0,17298755673619 
881	 0,172153312923656 
882	 0,172660810751718 
883	 0,173974081022026 
884	 0,173476114265782 
885	 0,172809754364338 
886	 0,172578503460659 
887	 0,172710524051205 
888	 0,172990551989191 
889	 0,173192246488859 
890	 0,173251456964703 
891	 0,173124925375366 
892	 0,172740125070163 
893	 0,172484971593005 
894	 0,172540351596358 
895	 0,173011326926794 
896	 0,173357776988276 
897	 0,173206669059574 
898	 0,173299443421104 
899	 0,173521405776109 
900	 0,173420347135256 
901	 0,174168815031621 
902	 0,17534643256575 
903	 0,174096610592835 
904	 0,173091107880764 
905	 0,173810182351003 
906	 0,173644399062013 
907	 0,173184584664024 
908	 0,173687109087693 
909	 0,174325592281581 
910	 0,174740962077919 
911	 0,174491897097675 
912	 0,174212733776711 
913	 0,174205301596241 
914	 0,174197381934154 
915	 0,174153233732849 
916	 0,1741125516353 
917	 0,175447794027981 
918	 0,177039362382121 
919	 0,175373972242237 
920	 0,173996020387783 
921	 0,17405953885172 
922	 0,174402996229858 
923	 0,175165950725485 
924	 0,17627249080635 
925	 0,175609788718988 
926	 0,174315095788719 
927	 0,175072293612467 
928	 0,175047754606769 
929	 0,173979238574306 
930	 0,173898856224279 
931	 0,174150896508568 
932	 0,17427552669844 
933	 0,173921097628245 
934	 0,1735033524238 
935	 0,173608629198293 
936	 0,174237575475251 
937	 0,174827645835962 
938	 0,17368545082595 
939	 0,173342191014167 
940	 0,174428478886476 
941	 0,174709518286628 
942	 0,174681753157268 
943	 0,174889562582715 
944	 0,175269859820302 
945	 0,175250549177048 
946	 0,173761105107611 
947	 0,172973467798231 
948	 0,173501191055912 
949	 0,175259780350751 
950	 0,17532903118488 
951	 0,172747141486439 
952	 0,173100780826164 
953	 0,174670425019988 
954	 0,174660701718115 
955	 0,173781418346636 
956	 0,172971421251709 
957	 0,174536163162917 
958	 0,174638674351297 
959	 0,172863230853272 
960	 0,174010382365682 
961	 0,174826458669315 
962	 0,173079237795604 
963	 0,172811793382994 
964	 0,173369626100109 
965	 0,172900008340557 
966	 0,173430153180519 
967	 0,174543680765726 
968	 0,173353231420724 
969	 0,172968215209567 
970	 0,174190847999906 
971	 0,173689383136889 
972	 0,172600221554558 
973	 0,172206584564204 
974	 0,172696032246761 
975	 0,173565593425228 
976	 0,173834939270805 
977	 0,174187463248928 
978	 0,174728704267257 
979	 0,175381901529681 
980	 0,175089734436612 
981	 0,173751289533536 
982	 0,174053798856084 
983	 0,174640038505416 
984	 0,174057132544718 
985	 0,174741514406363 
986	 0,17600126587894 
987	 0,175730060413661 
988	 0,175190097953583 
989	 0,174702442960963 
990	 0,173860634550783 
991	 0,174185348063211 
992	 0,176080122203482 
993	 0,176878333243097 
994	 0,177235048734247 
995	 0,177982730733004 
996	 0,177735840714499 
997	 0,176944948078255 
998	 0,17684458755174 
999	 0,178112430652121 
1000	 0,180426083567405 
1001	 0,182415481107542 
1002	 0,181553521686906 
1003	 0,177664058696632 
1004	 0,177665812993694 
1005	 0,17889410391916 
1006	 0,178333678153109 
1007	 0,178465958093568 
1008	 0,179307447507114 
1009	 0,18024418508193 
1010	 0,180382577951343 
1011	 0,179663463112314 
1012	 0,178642247295558 
1013	 0,179005846698772 
1014	 0,180661156504353 
1015	 0,178612686829797 
1016	 0,177244122167106 
1017	 0,180231925225107 
1018	 0,184716792345399 
1019	 0,18566013792415 
1020	 0,176704099509686 
1021	 0,176364308838292 
1022	 0,183681280564026 
1023	 0,183142425350548 
1024	 0,181049279720589 
1025	 0,179732179356421 
1026	 0,180770883104567 
1027	 0,181020012319251 
1028	 0,179057855999973 
1029	 0,18100515713657 
1030	 0,182487191421607 
1031	 0,178365845589423 
1032	 0,178379714408598 
1033	 0,180858283625914 
1034	 0,178411591829997 
1035	 0,180807971064514 
1036	 0,187539176726936 
1037	 0,188286739038041 
1038	 0,183792627379361 
1039	 0,177303429707651 
1040	 0,183386829477058 
1041	 0,189516348689433 
1042	 0,185771305417336 
1043	 0,186063110746299 
1044	 0,18740962102276 
1045	 0,183550700464586 
1046	 0,180662732454728 
1047	 0,181386076356191 
1048	 0,188887780633304 
1049	 0,186938601952512 
1050	 0,175842517365799 
1051	 0,176980822143702 
1052	 0,180423917091041 
1053	 0,181739503330668 
1054	 0,186314690718907 
1055	 0,18677817061856 
1056	 0,178797968666822 
1057	 0,181115293850006 
1058	 0,188828472473561 
1059	 0,19085844448366 
1060	 0,182223485441399 
1061	 0,17161180999318 
1062	 0,181242054270919 
1063	 0,184265672589579 
1064	 0,178130901938261 
1065	 0,185667264581916 
1066	 0,187477068774253 
1067	 0,177591671305028 
1068	 0,173171274805529 
1069	 0,174235479715128 
1070	 0,178409145861579 
1071	 0,174073973446588 
1072	 0,171899354321919 
1073	 0,184721970399248 
1074	 0,193538661724674 
1075	 0,193981466046534 
