Wavelength	AURAY00392.asd
325	 0,244005090419607 
326	 0,427705380121737 
327	 0,4471821742324 
328	 0,246214526483629 
329	 0,331345038206956 
330	 0,471651465776397 
331	 0,498251644522149 
332	 0,480740829518743 
333	 0,430286166786077 
334	 0,352491361821745 
335	 0,3462883335386 
336	 0,403322309252521 
337	 0,377703500114849 
338	 0,317140933866449 
339	 0,273603158457113 
340	 0,252131570878424 
341	 0,249956130716168 
342	 0,256679883879171 
343	 0,253990086944858 
344	 0,246973819330326 
345	 0,312811604253615 
346	 0,343801667033839 
347	 0,249273597459501 
348	 0,224447111621354 
349	 0,270895026639888 
350	 0,277592732308407 
351	 0,281602151324455 
352	 0,287117117336167 
353	 0,243587266394738 
354	 0,204243608501151 
355	 0,241298234460725 
356	 0,260685213068352 
357	 0,255621398128089 
358	 0,256916937549782 
359	 0,243218550964303 
360	 0,216875785158915 
361	 0,258588151428727 
362	 0,316905490351984 
363	 0,31471343227595 
364	 0,288797037168552 
365	 0,258572123064845 
366	 0,26044184285047 
367	 0,261229127339085 
368	 0,244245347385764 
369	 0,263026455568212 
370	 0,292611977367073 
371	 0,28216397642487 
372	 0,274375118139468 
373	 0,2781693118104 
374	 0,277840578581669 
375	 0,274520721127142 
376	 0,269110952871699 
377	 0,257514030508889 
378	 0,258334563968888 
379	 0,31509499981916 
380	 0,334588461572537 
381	 0,301758259728469 
382	 0,27092374972979 
383	 0,258338243459692 
384	 0,272907926028065 
385	 0,285008126929545 
386	 0,286662821095006 
387	 0,274081583180907 
388	 0,266511590308058 
389	 0,27087446710517 
390	 0,280706827912567 
391	 0,28935999070234 
392	 0,289983878215394 
393	 0,290274691506658 
394	 0,290318612610835 
395	 0,285275536132382 
396	 0,277184676395922 
397	 0,269766732561133 
398	 0,275915014448114 
399	 0,283513018786174 
400	 0,273441915499531 
401	 0,269614236411119 
402	 0,27468754303778 
403	 0,274581476737683 
404	 0,272122764749732 
405	 0,269983655189947 
406	 0,274033076569987 
407	 0,27882341150175 
408	 0,270612684493986 
409	 0,269543633203333 
410	 0,277573909294959 
411	 0,274694286604838 
412	 0,271413439386129 
413	 0,277444099090708 
414	 0,27286991984774 
415	 0,262238725562957 
416	 0,264845263778191 
417	 0,270896230774563 
418	 0,274969749423815 
419	 0,270714111095654 
420	 0,264127991926783 
421	 0,263499634578128 
422	 0,266726778971031 
423	 0,270574060912916 
424	 0,26667095943832 
425	 0,261733020385484 
426	 0,260190587002382 
427	 0,262906504354615 
428	 0,267715135971222 
429	 0,271047485312037 
430	 0,270884432361908 
431	 0,2681250745608 
432	 0,270109113437246 
433	 0,271424213024639 
434	 0,26745191441942 
435	 0,265967511602999 
436	 0,267378546754353 
437	 0,269273348472434 
438	 0,269277225091793 
439	 0,267098288741573 
440	 0,268265560909643 
441	 0,269987944528466 
442	 0,268197895551108 
443	 0,268025976960352 
444	 0,269896184157883 
445	 0,27108457350163 
446	 0,271331068749199 
447	 0,270755160590114 
448	 0,271981844707077 
449	 0,274455857488183 
450	 0,276801652040225 
451	 0,275554555305201 
452	 0,27143571713975 
453	 0,272638783904388 
454	 0,27586900891704 
455	 0,277653131348703 
456	 0,27780060156552 
457	 0,276816220997841 
458	 0,276381194625442 
459	 0,275391686607468 
460	 0,27396847775528 
461	 0,275519550653315 
462	 0,277467659458153 
463	 0,276059574880872 
464	 0,275748157696607 
465	 0,277158592454965 
466	 0,278626993542455 
467	 0,279058055403169 
468	 0,277808991791393 
469	 0,276222998623988 
470	 0,275242140151963 
471	 0,276144478941622 
472	 0,27764062291901 
473	 0,278960938876856 
474	 0,278979636943025 
475	 0,278541761528296 
476	 0,278522996184258 
477	 0,278395961828763 
478	 0,277589820379628 
479	 0,274073931775603 
480	 0,273933165602293 
481	 0,278769512788879 
482	 0,277830185069402 
483	 0,274860766833093 
484	 0,277059005124062 
485	 0,277380214960193 
486	 0,275119399853921 
487	 0,274858336156494 
488	 0,275013104791453 
489	 0,274398562605255 
490	 0,274310267428011 
491	 0,274285459499515 
492	 0,272505616978162 
493	 0,272578094560727 
494	 0,274886914386857 
495	 0,274082189369399 
496	 0,272639517491362 
497	 0,273738309751325 
498	 0,273514658134216 
499	 0,272157364013035 
500	 0,272939488595651 
501	 0,273609774554157 
502	 0,273007281277188 
503	 0,272281106930041 
504	 0,272633161622767 
505	 0,27601278668705 
506	 0,278001569269262 
507	 0,277799232819955 
508	 0,278618749875824 
509	 0,279016681026991 
510	 0,277715867457641 
511	 0,277027867539369 
512	 0,277292446532289 
513	 0,278339625275543 
514	 0,278439176112201 
515	 0,277158053350838 
516	 0,277168733920785 
517	 0,278038885585026 
518	 0,278801969737162 
519	 0,278964372508283 
520	 0,278597568931361 
521	 0,278491890844492 
522	 0,27889163564346 
523	 0,279844316495296 
524	 0,280035184946237 
525	 0,27958415207887 
526	 0,279211624445129 
527	 0,279089563468806 
528	 0,279130848096293 
529	 0,27815753588299 
530	 0,27755346548242 
531	 0,278936499397476 
532	 0,279221302025842 
533	 0,278360805664242 
534	 0,27857440871332 
535	 0,278867550771251 
536	 0,278698801439904 
537	 0,2785786671847 
538	 0,278661562104418 
539	 0,279187588996134 
540	 0,279036166768248 
541	 0,278121292386267 
542	 0,277704690834444 
543	 0,277934407956 
544	 0,278809294481769 
545	 0,278728958365199 
546	 0,27793890735151 
547	 0,277998507921353 
548	 0,278749111058338 
549	 0,279891292644028 
550	 0,279692316768529 
551	 0,279190323847463 
552	 0,280341501201471 
553	 0,280783992978099 
554	 0,280256208238609 
555	 0,280623028202793 
556	 0,280796243618836 
557	 0,279934979516646 
558	 0,279687496726614 
559	 0,279811154366505 
560	 0,278907513215255 
561	 0,278004319482778 
562	 0,277633235997877 
563	 0,278239365885402 
564	 0,279045129454532 
565	 0,279003359775103 
566	 0,278641838716319 
567	 0,278222039515705 
568	 0,278081818210169 
569	 0,278304679753565 
570	 0,27894584346744 
571	 0,279897386481471 
572	 0,280989130405924 
573	 0,281930846603261 
574	 0,283047796549682 
575	 0,284300663150701 
576	 0,284861262405356 
577	 0,285600136879241 
578	 0,287504586455113 
579	 0,288754923606022 
580	 0,289297180382821 
581	 0,290316375922369 
582	 0,291522916113193 
583	 0,292666743121622 
584	 0,293014921248713 
585	 0,293033369986324 
586	 0,293736747639255 
587	 0,294103044032004 
588	 0,293964845541646 
589	 0,293908110923048 
590	 0,294250991947066 
591	 0,29520293731053 
592	 0,29559052060731 
593	 0,295509564305603 
594	 0,295924740295396 
595	 0,296328506685833 
596	 0,296492561501693 
597	 0,296495189781579 
598	 0,2964414553703 
599	 0,296474842138894 
600	 0,296498966230915 
601	 0,296379599841686 
602	 0,295649250128021 
603	 0,295173601105954 
604	 0,295554796770926 
605	 0,295454341793668 
606	 0,294738783989409 
607	 0,293579684364731 
608	 0,292818857868525 
609	 0,292765717534506 
610	 0,292926564071773 
611	 0,292820739619494 
612	 0,291936752635366 
613	 0,291025736053482 
614	 0,290350551182628 
615	 0,290033583143837 
616	 0,289783421981929 
617	 0,289407447116732 
618	 0,288964219660213 
619	 0,28867766187444 
620	 0,288997120359328 
621	 0,289139390399947 
622	 0,289039155641433 
623	 0,289845817190352 
624	 0,290514726520134 
625	 0,289969631159047 
626	 0,289874646322461 
627	 0,290309212714537 
628	 0,290338005349881 
629	 0,290662861408407 
630	 0,291490103519061 
631	 0,291619336578279 
632	 0,291507502106259 
633	 0,292112046823752 
634	 0,292774912456223 
635	 0,293366982770734 
636	 0,294117335517229 
637	 0,295022207262095 
638	 0,296043390006079 
639	 0,296794300942586 
640	 0,297377149497091 
641	 0,298286543253144 
642	 0,299009800508331 
643	 0,299359109434787 
644	 0,299547407845672 
645	 0,299785737072738 
646	 0,30030996167493 
647	 0,300936207946419 
648	 0,301359427693278 
649	 0,300776351439306 
650	 0,300031103057632 
651	 0,299667558222371 
652	 0,299028224937398 
653	 0,298228539202771 
654	 0,297699273675307 
655	 0,296982906635963 
656	 0,295987384997021 
657	 0,295053378264354 
658	 0,294094511116634 
659	 0,292993743500586 
660	 0,291531570670277 
661	 0,289987619748366 
662	 0,289346702787852 
663	 0,288312532618717 
664	 0,286451294039335 
665	 0,285726105503185 
666	 0,285470660471512 
667	 0,28428635567294 
668	 0,283344688242088 
669	 0,282819531146584 
670	 0,281990511136591 
671	 0,281472965661966 
672	 0,281697448460766 
673	 0,281543296635743 
674	 0,281043834221325 
675	 0,280686833329503 
676	 0,280880131252003 
677	 0,281545068444191 
678	 0,281141365622211 
679	 0,280700877147603 
680	 0,281574043445207 
681	 0,282405379920382 
682	 0,282940169197255 
683	 0,283375646571549 
684	 0,284191916989432 
685	 0,28562662705666 
686	 0,286965011025999 
687	 0,288389401432369 
688	 0,290368054351426 
689	 0,292742870385139 
690	 0,295619588967504 
691	 0,299386985424536 
692	 0,30410455982491 
693	 0,309800818641646 
694	 0,31630586675459 
695	 0,323526067847131 
696	 0,331324164993478 
697	 0,339814095642497 
698	 0,349064365968166 
699	 0,359086757118027 
700	 0,369837261355333 
701	 0,381263618029178 
702	 0,392988078263832 
703	 0,404772988339689 
704	 0,41652834832275 
705	 0,427920137218029 
706	 0,438780434369057 
707	 0,449730938171856 
708	 0,460605917588787 
709	 0,470937117379419 
710	 0,480865767176562 
711	 0,490413564607885 
712	 0,499492904621938 
713	 0,508127729036715 
714	 0,516340244291975 
715	 0,524125506318237 
716	 0,531406703909785 
717	 0,537959234089492 
718	 0,54408412561151 
719	 0,549946656639893 
720	 0,555670720224779 
721	 0,560984602821389 
722	 0,56553832049544 
723	 0,569781580926684 
724	 0,573781837823085 
725	 0,577345873920862 
726	 0,580569027177893 
727	 0,583498587631042 
728	 0,58589180618886 
729	 0,58813120363478 
730	 0,590952888434094 
731	 0,593465442449855 
732	 0,595361059499643 
733	 0,596625033680631 
734	 0,597697800197809 
735	 0,598983284397422 
736	 0,600534858443458 
737	 0,602056720017668 
738	 0,60280436546011 
739	 0,603349429293589 
740	 0,60399680538007 
741	 0,60510311353496 
742	 0,60620386517095 
743	 0,606731535107259 
744	 0,606825408020067 
745	 0,606905569822552 
746	 0,608146699205189 
747	 0,609282739954661 
748	 0,609595904025225 
749	 0,609318600565255 
750	 0,60899896431357 
751	 0,609411649319726 
752	 0,609887275194174 
753	 0,61018570170848 
754	 0,610114458588414 
755	 0,61025370675889 
756	 0,610933214645129 
757	 0,610972294210072 
758	 0,610691624986071 
759	 0,611150053735701 
760	 0,611375521865736 
761	 0,611142832057011 
762	 0,610933480652138 
763	 0,610845810721385 
764	 0,610941998619494 
765	 0,611069781201218 
766	 0,611177990011682 
767	 0,611258259465175 
768	 0,611182235791071 
769	 0,61096866456831 
770	 0,611002684568751 
771	 0,611231948111734 
772	 0,611544935696169 
773	 0,611691866731871 
774	 0,611595269460159 
775	 0,6112409791724 
776	 0,61086405880172 
777	 0,610641921811497 
778	 0,610782801347686 
779	 0,610940928223428 
780	 0,610587215331114 
781	 0,610292830477041 
782	 0,610153254573369 
783	 0,609889628889394 
784	 0,609754638617145 
785	 0,60990383179869 
786	 0,610222214770629 
787	 0,610378862664795 
788	 0,609847615140033 
789	 0,60915677945313 
790	 0,60858043678097 
791	 0,608397256890365 
792	 0,608449579036174 
793	 0,608558505838039 
794	 0,608407890785939 
795	 0,607982979541258 
796	 0,607326644821079 
797	 0,607144925533669 
798	 0,607484253418484 
799	 0,607256156080522 
800	 0,606847193180697 
801	 0,606655617013459 
802	 0,606216250578733 
803	 0,605796915869928 
804	 0,606299260358421 
805	 0,606662275319183 
806	 0,606579010488535 
807	 0,606762696638087 
808	 0,607043456003909 
809	 0,607191712845813 
810	 0,607328374798245 
811	 0,607408412623623 
812	 0,607231717191919 
813	 0,60713139908383 
814	 0,607219211906336 
815	 0,607178802625007 
816	 0,607155433159458 
817	 0,607340463669753 
818	 0,607276131013843 
819	 0,60704642450716 
820	 0,607172864590683 
821	 0,607538312704606 
822	 0,608046716059187 
823	 0,608481221224345 
824	 0,608659091934745 
825	 0,608404073598764 
826	 0,60846270714204 
827	 0,608792391184722 
828	 0,608588357089099 
829	 0,608525768546226 
830	 0,608878141792614 
831	 0,60895339982863 
832	 0,608952770502342 
833	 0,609245096914107 
834	 0,609589479091163 
835	 0,609849223344803 
836	 0,609781220619653 
837	 0,60975491953171 
838	 0,609935733737521 
839	 0,609929391493498 
840	 0,609836273081614 
841	 0,609858164562257 
842	 0,609672286914134 
843	 0,609295599371723 
844	 0,608978979618159 
845	 0,608987425981881 
846	 0,609390959334033 
847	 0,609554510238411 
848	 0,60951478683824 
849	 0,609444490582103 
850	 0,609022197993758 
851	 0,608332448345863 
852	 0,607795717615461 
853	 0,60762867526734 
854	 0,607905892688799 
855	 0,608212183419263 
856	 0,608340630188764 
857	 0,60810324996514 
858	 0,607587784819247 
859	 0,607100787802221 
860	 0,607585996119674 
861	 0,60755338059756 
862	 0,60643734452543 
863	 0,605930404535926 
864	 0,60631733328815 
865	 0,607670538095368 
866	 0,608121458997866 
867	 0,607565882608168 
868	 0,607175354446367 
869	 0,607243650483994 
870	 0,60782756357914 
871	 0,608029701930864 
872	 0,608127936257447 
873	 0,608539558457825 
874	 0,608400509895895 
875	 0,607823842452501 
876	 0,607594604299614 
877	 0,607726861917994 
878	 0,60819002653311 
879	 0,608659560270924 
880	 0,608886347862125 
881	 0,608678113536268 
882	 0,60874315020516 
883	 0,609092720059807 
884	 0,609267808503763 
885	 0,609878340701018 
886	 0,610908008416522 
887	 0,611217387242684 
888	 0,611140608419362 
889	 0,611033887928001 
890	 0,610323712375941 
891	 0,609531410388789 
892	 0,609957463724558 
893	 0,610351114802373 
894	 0,610361202001513 
895	 0,61043924383691 
896	 0,610473270901974 
897	 0,610405524882515 
898	 0,610596217680616 
899	 0,610936581029046 
900	 0,611140823561469 
901	 0,611284286677256 
902	 0,611253390609048 
903	 0,610544241241011 
904	 0,610081727358553 
905	 0,610383392904452 
906	 0,610540213829899 
907	 0,610621875004627 
908	 0,610887497042233 
909	 0,610918169899965 
910	 0,610643017488724 
911	 0,610128422970938 
912	 0,609895040221662 
913	 0,610084322836001 
914	 0,609794071065736 
915	 0,609519463349858 
916	 0,60985675293931 
917	 0,609962137576035 
918	 0,609812024725842 
919	 0,609899282813286 
920	 0,609252328032244 
921	 0,607970550759686 
922	 0,608118320548789 
923	 0,608567951444259 
924	 0,608310126468742 
925	 0,607887469703755 
926	 0,607378005237546 
927	 0,606796811176073 
928	 0,606146570376056 
929	 0,605571440990817 
930	 0,605580992929143 
931	 0,605424860549777 
932	 0,60474963733758 
933	 0,604392122031256 
934	 0,604402704195796 
935	 0,604687015792963 
936	 0,604285565294344 
937	 0,603223290703285 
938	 0,602182865472351 
939	 0,601496136380969 
940	 0,601259724740531 
941	 0,601039402039267 
942	 0,600673353221891 
943	 0,600098429179477 
944	 0,600030011395503 
945	 0,600077750167444 
946	 0,599345169081056 
947	 0,598073737417224 
948	 0,596386182364048 
949	 0,594382299535968 
950	 0,592851551993635 
951	 0,592232099796386 
952	 0,592200651011393 
953	 0,591923096458497 
954	 0,590502254720423 
955	 0,588813379860291 
956	 0,587576568128821 
957	 0,588234035400029 
958	 0,588002778891583 
959	 0,586231727678401 
960	 0,584901611088055 
961	 0,584000684954757 
962	 0,583465875923911 
963	 0,5831952356062 
964	 0,583156092901805 
965	 0,583330769637455 
966	 0,58345900315212 
967	 0,583222362532151 
968	 0,581857261208102 
969	 0,580889915364717 
970	 0,580894467141514 
971	 0,580907737154775 
972	 0,580811524837991 
973	 0,580477097650672 
974	 0,578921408584264 
975	 0,577759918221942 
976	 0,58006300134848 
977	 0,581665461596145 
978	 0,581675537916712 
979	 0,581595275328058 
980	 0,580821962525299 
981	 0,579544627931763 
982	 0,580225156463008 
983	 0,581287402503043 
984	 0,581079974030661 
985	 0,582311181943176 
986	 0,583866674820377 
987	 0,582748834906242 
988	 0,582031584844297 
989	 0,582112155158585 
990	 0,580993847251675 
991	 0,579504766688926 
992	 0,578820220640281 
993	 0,582925755836368 
994	 0,587103482113324 
995	 0,58636053594719 
996	 0,585239565083893 
997	 0,584722313969069 
998	 0,585043894117106 
999	 0,585203900392436 
1000	 0,585377428974605 
1001	 0,587795378169921 
1002	 0,587315111663734 
1003	 0,582859695362939 
1004	 0,584030292218077 
1005	 0,587876271661871 
1006	 0,590379018082088 
1007	 0,588116094971652 
1008	 0,585176098828627 
1009	 0,58977684216412 
1010	 0,5919371526415 
1011	 0,590478922440521 
1012	 0,590885506813331 
1013	 0,591322538315139 
1014	 0,591289661361168 
1015	 0,592074170791818 
1016	 0,592369460605133 
1017	 0,591320340597067 
1018	 0,592038101072742 
1019	 0,593062900575812 
1020	 0,591628491140697 
1021	 0,590358619240848 
1022	 0,590813196764904 
1023	 0,595912428369143 
1024	 0,596826968017939 
1025	 0,59277464257706 
1026	 0,595531987686112 
1027	 0,599988823428096 
1028	 0,602109020852706 
1029	 0,600721263422006 
1030	 0,597650222360857 
1031	 0,595539434051474 
1032	 0,598506862504607 
1033	 0,603734078556546 
1034	 0,603973514996984 
1035	 0,602226705459138 
1036	 0,600609404985019 
1037	 0,603577643348205 
1038	 0,605132135364011 
1039	 0,603093172680522 
1040	 0,602147699438177 
1041	 0,60277721861043 
1042	 0,604729914602216 
1043	 0,60472906495455 
1044	 0,601839421092022 
1045	 0,595987184666443 
1046	 0,600594851343477 
1047	 0,611827133045859 
1048	 0,614353937691041 
1049	 0,609267104073515 
1050	 0,600759484761658 
1051	 0,604519217941055 
1052	 0,601231324600954 
1053	 0,587106839208807 
1054	 0,599336532731761 
1055	 0,613373448236009 
1056	 0,608183796119243 
1057	 0,606696197811153 
1058	 0,6080623304973 
1059	 0,606697334935002 
1060	 0,598843565997121 
1061	 0,591881460825273 
1062	 0,604265894898097 
1063	 0,609569738092616 
1064	 0,603506525952412 
1065	 0,602308674483746 
1066	 0,603559176136577 
1067	 0,605778143126656 
1068	 0,605487422780263 
1069	 0,603605036244118 
1070	 0,601338594771152 
1071	 0,599624554148529 
1072	 0,599940364581236 
1073	 0,603352990769201 
1074	 0,603258312286636 
1075	 0,598798489693195 
