Wavelength	AURAY00294.asd
325	 0,101114778381588 
326	 0,304729223688332 
327	 0,25618839776515 
328	-8,33097892219254E-02 
329	-9,91898591837256E-02 
330	 1,93575971590544E-02 
331	 8,41010407066204E-02 
332	 6,53068167759495E-02 
333	-1,92511119005611E-04 
334	-5,99591196536292E-03 
335	 3,07043143470648E-02 
336	 8,03014378309069E-02 
337	 6,13498293109867E-02 
338	 3,55599116183258E-02 
339	 5,75609491067036E-02 
340	 0,023961360267125 
341	-2,62071852037679E-02 
342	 2,07488108338589E-02 
343	 4,48517027703155E-02 
344	 1,83105658363033E-02 
345	 5,80144243327064E-02 
346	 6,94426323478142E-02 
347	-0,033238631168236 
348	-4,90246829828315E-02 
349	 0,017108211592951 
350	 4,27917524786094E-02 
351	 3,91424304511528E-02 
352	 1,17495832087215E-02 
353	-2,32127447400438E-02 
354	-4,64211008981071E-02 
355	-3,45002555492539E-02 
356	-3,70339229151196E-02 
357	-0,046579726151537 
358	-7,10664542656018E-03 
359	 1,59033967695567E-02 
360	 3,42553066711114E-03 
361	 3,63007200799067E-02 
362	 6,87708502584136E-02 
363	 3,02215943204733E-02 
364	 3,06481139663813E-03 
365	 3,53030333012267E-03 
366	 1,65098584635523E-02 
367	 2,47736251112353E-02 
368	 1,96642844191791E-02 
369	 0,031992422981915 
370	 4,91523558449722E-02 
371	 0,046573533984144 
372	 2,07512431066076E-02 
373	-1,55851935645213E-02 
374	-9,85906461408804E-03 
375	 4,12568103827188E-03 
376	 9,3601528025718E-04 
377	-1,13603745192499E-02 
378	-1,60836163795108E-02 
379	 2,17209733055092E-02 
380	 0,036893521363625 
381	 2,11447921025931E-02 
382	 2,48660431844942E-02 
383	 2,98061069238377E-02 
384	 1,73658045463019E-02 
385	 2,01160926521756E-02 
386	 3,50205718831918E-02 
387	 3,96910879961214E-02 
388	 3,82329213911339E-02 
389	 3,35411029816452E-02 
390	 0,035487556022935 
391	 3,43410895389095E-02 
392	 1,80437905434798E-02 
393	 2,22535435743262E-02 
394	 3,93136968952786E-02 
395	 2,59136980386115E-02 
396	 9,76889670286344E-03 
397	 7,48532675880234E-03 
398	 1,40540070678875E-02 
399	 2,11673179940903E-02 
400	 1,81089036525468E-02 
401	 1,85705219701502E-02 
402	 0,023171433339869 
403	 2,07820497471969E-02 
404	 1,76273245927947E-02 
405	 1,79005004986935E-02 
406	 1,89808371987761E-02 
407	 1,96336795072415E-02 
408	 1,78275482994579E-02 
409	 1,80510519460432E-02 
410	 0,02050543244656 
411	 1,96058284416244E-02 
412	 1,91756454983768E-02 
413	 2,24624209635411E-02 
414	 1,70282697911093E-02 
415	 8,16581492053209E-03 
416	 1,39212660554124E-02 
417	 0,02122716437797 
418	 2,39303706523335E-02 
419	 2,06821459169887E-02 
420	 0,016138748311081 
421	 0,016350036829293 
422	 1,60757682749952E-02 
423	 1,50974412712677E-02 
424	 1,70805399792636E-02 
425	 1,73591454235303E-02 
426	 1,37239910222016E-02 
427	 1,23502455481487E-02 
428	 0,013218412340215 
429	 1,47029876300696E-02 
430	 1,63244427375157E-02 
431	 1,78372839996842E-02 
432	 2,01416400398257E-02 
433	 1,96403671393936E-02 
434	 1,37561165151752E-02 
435	 1,28898292626583E-02 
436	 1,61463746148281E-02 
437	 0,016328398246775 
438	 1,51842977337971E-02 
439	 1,41398158400022E-02 
440	 1,85440103358881E-02 
441	 2,27542933979928E-02 
442	 1,92954793357644E-02 
443	 1,56438275338004E-02 
444	 1,45529785202763E-02 
445	 1,85381433924884E-02 
446	 2,14509598319017E-02 
447	 1,98027546628555E-02 
448	 1,95127391698606E-02 
449	 1,99496287263485E-02 
450	 1,82367806649061E-02 
451	 1,79998789360783E-02 
452	 1,95506728653764E-02 
453	 0,018920281766847 
454	 0,018202157590006 
455	 1,93764113258717E-02 
456	 2,01161456320062E-02 
457	 2,01091574119662E-02 
458	 1,99523638438213E-02 
459	 1,88345083169211E-02 
460	 1,67252392311103E-02 
461	 1,51290067707911E-02 
462	 1,52717515878525E-02 
463	 1,84546784567269E-02 
464	 2,15749127329972E-02 
465	 2,30476430677162E-02 
466	 2,10836048666872E-02 
467	 1,84645170529533E-02 
468	 1,72437171854205E-02 
469	 1,71918906071735E-02 
470	 0,017866669219322 
471	 1,84241936231692E-02 
472	 1,92151974298248E-02 
473	 0,020244897193026 
474	 2,18542292755524E-02 
475	 2,10164707907679E-02 
476	 1,52514410514489E-02 
477	 1,58403910050645E-02 
478	 2,08615075265264E-02 
479	 1,82271108150591E-02 
480	 1,66002050468271E-02 
481	 0,01921502966265 
482	 1,89565231342054E-02 
483	 1,73050215212208E-02 
484	 1,74591070391029E-02 
485	 1,79304793675721E-02 
486	 1,83914715492618E-02 
487	 1,94303891706861E-02 
488	 1,85869838523399E-02 
489	 1,45568502283069E-02 
490	 1,42078426937304E-02 
491	 1,60203518278342E-02 
492	 1,33796387603075E-02 
493	 1,36836695974174E-02 
494	 1,79010782496394E-02 
495	 1,69761288285056E-02 
496	 1,43883981034972E-02 
497	 1,47715845200183E-02 
498	 1,47672669809047E-02 
499	 1,46118387009971E-02 
500	 0,017463245247186 
501	 1,91630415194461E-02 
502	 1,76252766672935E-02 
503	 1,62908381097107E-02 
504	 1,59600529600211E-02 
505	 1,72290812459301E-02 
506	 1,77690690394923E-02 
507	 1,72246864929922E-02 
508	 1,74883049286229E-02 
509	 1,81906062654371E-02 
510	 1,88785822971193E-02 
511	 1,88349020198916E-02 
512	 1,81653237231087E-02 
513	 1,73628069167816E-02 
514	 0,017443391886966 
515	 1,84434117085397E-02 
516	 1,74286290514077E-02 
517	 1,55276292179628E-02 
518	 1,45950667980093E-02 
519	 1,63777109353336E-02 
520	 1,97587296201421E-02 
521	 1,91726490942436E-02 
522	 1,80660557138611E-02 
523	 1,88440575130088E-02 
524	 1,86122692478326E-02 
525	 1,75728404084742E-02 
526	 1,69673525585116E-02 
527	 1,73283463196344E-02 
528	 1,84015390410707E-02 
529	 1,74545816639646E-02 
530	 1,63893521756737E-02 
531	 1,75628440765506E-02 
532	 1,91455575417519E-02 
533	 2,00526806412442E-02 
534	 0,018372922544004 
535	 1,67442755308396E-02 
536	 1,67516760533872E-02 
537	 1,72776766766652E-02 
538	 0,017836659236426 
539	 1,78875293949745E-02 
540	 1,75242027820207E-02 
541	 1,69503632900704E-02 
542	 1,68625694647558E-02 
543	 1,72511606215321E-02 
544	 1,79966476847349E-02 
545	 1,76161849253194E-02 
546	 1,65410055286915E-02 
547	 1,67761727409601E-02 
548	 1,75355279658779E-02 
549	 1,82683525607002E-02 
550	 1,78781497621251E-02 
551	 1,71769537125432E-02 
552	 1,76284050002736E-02 
553	 1,78666628423709E-02 
554	 1,77610637593628E-02 
555	 1,84870155082216E-02 
556	 1,88281418592533E-02 
557	 1,78955886687081E-02 
558	 0,018086600559476 
559	 1,86547963594978E-02 
560	 1,64198287989948E-02 
561	 1,50282349938656E-02 
562	 1,57808639904712E-02 
563	 1,66935644816887E-02 
564	 1,72918416532077E-02 
565	 1,72186583837811E-02 
566	 1,74782366309491E-02 
567	 0,017965736786317 
568	 1,73222674448757E-02 
569	 1,65733860154452E-02 
570	 1,65059621642835E-02 
571	 1,72497425538679E-02 
572	 1,82030320306897E-02 
573	 1,79755487200575E-02 
574	 1,82387456020444E-02 
575	 0,019248339811329 
576	 0,019118030005354 
577	 1,86412764638416E-02 
578	 1,88477262178557E-02 
579	 1,90846689763788E-02 
580	 1,93947274796266E-02 
581	 0,020507958346943 
582	 2,08070624043826E-02 
583	 1,96538872780096E-02 
584	 1,99246388231072E-02 
585	 2,09421029132653E-02 
586	 2,08129112042191E-02 
587	 2,09195070502079E-02 
588	 2,14949707506684E-02 
589	 2,18020195227711E-02 
590	 2,17783486162413E-02 
591	 2,14163742417122E-02 
592	 0,021020972152658 
593	 2,07814325923286E-02 
594	 2,09272866820276E-02 
595	 2,13814965717904E-02 
596	 2,19814101022576E-02 
597	 2,21045128211889E-02 
598	 0,021670649150311 
599	 2,06326744398707E-02 
600	 2,06087755978903E-02 
601	 2,15351779546241E-02 
602	 2,11071248539291E-02 
603	 2,08095830989767E-02 
604	 2,16841245151304E-02 
605	 2,12378083744197E-02 
606	 1,99341651974264E-02 
607	 1,98198854434073E-02 
608	 2,03731967412612E-02 
609	 2,11606831210047E-02 
610	 2,06599646797729E-02 
611	 0,019781161056701 
612	 1,98018229612137E-02 
613	 1,99281075123829E-02 
614	 0,019851833098882 
615	 1,90701516905506E-02 
616	 0,018793061928706 
617	 0,01965580456353 
618	 1,98727096534218E-02 
619	 1,95299260315216E-02 
620	 1,93337125707036E-02 
621	 1,90973718340537E-02 
622	 1,89221905020831E-02 
623	 0,019420420698243 
624	 1,99201528228509E-02 
625	 1,97243406408906E-02 
626	 1,96565142787692E-02 
627	 1,97724265225454E-02 
628	 1,96200817515163E-02 
629	 0,019833814677206 
630	 2,06050205416781E-02 
631	 2,08243545083805E-02 
632	 2,07014109403982E-02 
633	 2,08246764203686E-02 
634	 2,04144522271499E-02 
635	 1,96928291461503E-02 
636	 2,03766922659302E-02 
637	 2,14114910579672E-02 
638	 2,18428432756248E-02 
639	 2,19580816064999E-02 
640	 2,19346363310322E-02 
641	 2,20931284706669E-02 
642	 2,23722278842822E-02 
643	 2,27038196661002E-02 
644	 2,26758480144856E-02 
645	 2,29118155541565E-02 
646	 2,42592978089534E-02 
647	 2,44731623158441E-02 
648	 2,35742477120054E-02 
649	 2,37737751901193E-02 
650	 2,40117059378198E-02 
651	 2,36503508939113E-02 
652	 0,023761517831948 
653	 2,39481835372352E-02 
654	 2,30439370706727E-02 
655	 0,022470532543963 
656	 2,26374744687838E-02 
657	 2,30076364708451E-02 
658	 2,31415648815857E-02 
659	 0,022636477357997 
660	 2,18760627806652E-02 
661	 2,11704308155206E-02 
662	 2,11447945459115E-02 
663	 2,08682240536489E-02 
664	 2,00279792969835E-02 
665	 2,00333518523948E-02 
666	 2,04074371752484E-02 
667	 2,01657947638265E-02 
668	 0,019917707008879 
669	 1,97028394530981E-02 
670	 0,01895635687558 
671	 1,85127441124109E-02 
672	 1,89706251581257E-02 
673	 1,89673282686027E-02 
674	 1,86663879515828E-02 
675	 1,91282075659693E-02 
676	 1,92855028079259E-02 
677	 1,88532178920255E-02 
678	 1,85236970519442E-02 
679	 1,85320981631102E-02 
680	 0,019069702375989 
681	 1,94482014074082E-02 
682	 1,95269507767179E-02 
683	 1,94232988535125E-02 
684	 1,95838435342003E-02 
685	 2,01827156562828E-02 
686	 2,02658358060307E-02 
687	 2,00733314471428E-02 
688	 2,02064645512721E-02 
689	 2,09085512902309E-02 
690	 2,21193332870266E-02 
691	 2,31033732580335E-02 
692	 2,41632859554787E-02 
693	 2,55998233696572E-02 
694	 2,72771117300016E-02 
695	 2,92456557543066E-02 
696	 3,16363517259441E-02 
697	 3,43987700635276E-02 
698	 3,76045470704032E-02 
699	 4,16784060234762E-02 
700	 4,63444283846353E-02 
701	 5,12049209928895E-02 
702	 5,62827912878969E-02 
703	 6,15192987904607E-02 
704	 6,67426419737935E-02 
705	 7,25403934716172E-02 
706	 7,91798852682542E-02 
707	 8,56050748253224E-02 
708	 9,17347622393426E-02 
709	 9,77279193924181E-02 
710	 0,103830731588971 
711	 0,11000491523903 
712	 0,115624022366142 
713	 0,121105844120652 
714	 0,126826988685158 
715	 0,132146819813117 
716	 0,137018469536135 
717	 0,141597922906129 
718	 0,146232493734858 
719	 0,150941885761775 
720	 0,154869718049875 
721	 0,158294840336591 
722	 0,161679348645096 
723	 0,165002268358783 
724	 0,168183329422586 
725	 0,171000856019264 
726	 0,173236750349908 
727	 0,174875042718931 
728	 0,17689906509006 
729	 0,179131301274933 
730	 0,180997934479135 
731	 0,18269131381207 
732	 0,184199770250942 
733	 0,18529942167274 
734	 0,186204791431508 
735	 0,18713735693824 
736	 0,18836057062693 
737	 0,189676478156706 
738	 0,190473200844558 
739	 0,19118301734191 
740	 0,19196571531899 
741	 0,192826117707729 
742	 0,193397051269441 
743	 0,193280558818103 
744	 0,193576586979295 
745	 0,194378891361935 
746	 0,195179282620977 
747	 0,195642223272692 
748	 0,195638541452316 
749	 0,195802477159943 
750	 0,196128072661492 
751	 0,19648084983679 
752	 0,196690609035152 
753	 0,196723768639501 
754	 0,196609478233961 
755	 0,196807213252569 
756	 0,197575810493619 
757	 0,198053390480103 
758	 0,198143936904696 
759	 0,197936544139319 
760	 0,197841835761398 
761	 0,198004205653012 
762	 0,198266730948846 
763	 0,198510265647475 
764	 0,198629374118046 
765	 0,198652810135666 
766	 0,198677514387893 
767	 0,198985817051288 
768	 0,199001258046632 
769	 0,198629570545825 
770	 0,198736299040525 
771	 0,19912781570511 
772	 0,19948199493822 
773	 0,199728683236556 
774	 0,199746233782744 
775	 0,199210233035327 
776	 0,198972479414829 
777	 0,199405336208977 
778	 0,19966250523064 
779	 0,199655202890065 
780	 0,199404013104303 
781	 0,199413620842593 
782	 0,199634800311289 
783	 0,199291555552284 
784	 0,199125284227142 
785	 0,199544026308879 
786	 0,199575913684141 
787	 0,199406123082904 
788	 0,199638929986473 
789	 0,199509682337207 
790	 0,199021227205131 
791	 0,199134030203023 
792	 0,199408641954053 
793	 0,199448546140655 
794	 0,199171344802122 
795	 0,198769582110204 
796	 0,198663149982163 
797	 0,198771615289872 
798	 0,198981601941137 
799	 0,198836507160574 
800	 0,198742372505841 
801	 0,199070156586081 
802	 0,199227331663704 
803	 0,199185138777534 
804	 0,199164486820051 
805	 0,199137897056256 
806	 0,199130652315032 
807	 0,19921795175549 
808	 0,199453035723728 
809	 0,199868484620753 
810	 0,200177999178475 
811	 0,200260150237425 
812	 0,199910221311904 
813	 0,199952413419927 
814	 0,200533428146702 
815	 0,200130760570677 
816	 0,199623633739925 
817	 0,200170316676005 
818	 0,200256769028238 
819	 0,199889973145502 
820	 0,200138908040087 
821	 0,200396760409052 
822	 0,200471740504222 
823	 0,201128342952753 
824	 0,201511868795916 
825	 0,200491505360407 
826	 0,200640389136526 
827	 0,201847119279151 
828	 0,201696907890432 
829	 0,201385669139004 
830	 0,201477574741285 
831	 0,201413346009274 
832	 0,201443970884377 
833	 0,201964536968395 
834	 0,202124136302352 
835	 0,201916821621422 
836	 0,202064554341611 
837	 0,202304274327305 
838	 0,202434732479747 
839	 0,202051530795563 
840	 0,201674250336654 
841	 0,202076247882168 
842	 0,202476042131098 
843	 0,202571193598581 
844	 0,202014373839269 
845	 0,201816215977723 
846	 0,202457097408585 
847	 0,203036608732892 
848	 0,203139571509362 
849	 0,202367058432716 
850	 0,202211510208777 
851	 0,202629299154537 
852	 0,202082930037134 
853	 0,201497409929075 
854	 0,201413403243365 
855	 0,201786554682077 
856	 0,202362021131056 
857	 0,202798843924879 
858	 0,202628698023954 
859	 0,202038370295312 
860	 0,202046882241866 
861	 0,202009194595394 
862	 0,201640257827071 
863	 0,201265062186641 
864	 0,201288002615823 
865	 0,202150503358885 
866	 0,202438441566504 
867	 0,202089936608558 
868	 0,202024540421589 
869	 0,20216382866061 
870	 0,202446795121378 
871	 0,202617598730508 
872	 0,202571591670465 
873	 0,202246776622653 
874	 0,202498898983646 
875	 0,203054373370055 
876	 0,202502405251755 
877	 0,202259774441027 
878	 0,202814749308269 
879	 0,203272980307895 
880	 0,203440123034519 
881	 0,2032160244313 
882	 0,203151836882769 
883	 0,203361435155965 
884	 0,203873936260253 
885	 0,204025475096315 
886	 0,203624385600157 
887	 0,203126873888291 
888	 0,202876326888428 
889	 0,203148053009977 
890	 0,203690428236817 
891	 0,204002161107732 
892	 0,203069634154795 
893	 0,202699737010459 
894	 0,203253764618819 
895	 0,203384929522613 
896	 0,203332520570003 
897	 0,203347762138348 
898	 0,203724312737417 
899	 0,204088573077207 
900	 0,203663308920003 
901	 0,204006412383415 
902	 0,204941521312028 
903	 0,204071780204078 
904	 0,203132082990559 
905	 0,203176347914436 
906	 0,203125309764057 
907	 0,203203726378848 
908	 0,203884623853503 
909	 0,204117456923891 
910	 0,203741165866356 
911	 0,2030920221597 
912	 0,202748412879595 
913	 0,203001426239681 
914	 0,203581404960445 
915	 0,204037565696008 
916	 0,203919990924476 
917	 0,20363019511093 
918	 0,203462780139 
919	 0,204124158489038 
920	 0,203362402813931 
921	 0,201145103754798 
922	 0,201174776079518 
923	 0,202361948007713 
924	 0,203433742936586 
925	 0,202657192872523 
926	 0,201212570696174 
927	 0,201801906562565 
928	 0,201758300343976 
929	 0,200727315677616 
930	 0,200236322143089 
931	 0,200020601038074 
932	 0,19983597564551 
933	 0,199060411171759 
934	 0,198290343350198 
935	 0,198342977821422 
936	 0,197961774885301 
937	 0,197185657193511 
938	 0,197045213175127 
939	 0,196299801249898 
940	 0,19491821909393 
941	 0,195276934101436 
942	 0,195600036315835 
943	 0,194338329527672 
944	 0,193682027499265 
945	 0,193249976666904 
946	 0,191632306329571 
947	 0,190989001808276 
948	 0,191387424058913 
949	 0,190848702989681 
950	 0,189378687088844 
951	 0,187351642330932 
952	 0,187173816166783 
953	 0,187690556142029 
954	 0,187177549309837 
955	 0,185821654071082 
956	 0,184318732155911 
957	 0,184523361278559 
958	 0,183830688931109 
959	 0,182141052493326 
960	 0,183575907228504 
961	 0,184204425482306 
962	 0,181408839400475 
963	 0,18023691572166 
964	 0,18078771458933 
965	 0,182038473213138 
966	 0,182796750731672 
967	 0,182175751048157 
968	 0,178407155946345 
969	 0,176671403984947 
970	 0,178677775987705 
971	 0,180091196853473 
972	 0,180214002698164 
973	 0,178842407298504 
974	 0,177820937256858 
975	 0,177952471716771 
976	 0,180027087299904 
977	 0,179950393686943 
978	 0,17780515518071 
979	 0,178051148903384 
980	 0,179306287693553 
981	 0,180635658358562 
982	 0,181012113195197 
983	 0,180189702798997 
984	 0,178289767796073 
985	 0,178342934129069 
986	 0,179883584732557 
987	 0,180989293089515 
988	 0,179201617274552 
989	 0,17538583200379 
990	 0,175181596817411 
991	 0,177116024523949 
992	 0,180029869740719 
993	 0,182354365482727 
994	 0,183179500990304 
995	 0,182010062832382 
996	 0,18213894545646 
997	 0,182988077133286 
998	 0,182148199535962 
999	 0,181258535619677 
1000	 0,181137166046577 
1001	 0,18308896751494 
1002	 0,183675461538137 
1003	 0,181899458423458 
1004	 0,183120829168715 
1005	 0,184795424945602 
1006	 0,184218047526948 
1007	 0,18426223463855 
1008	 0,184673929515567 
1009	 0,184151847606547 
1010	 0,18492381855525 
1011	 0,186631632683561 
1012	 0,186203554035187 
1013	 0,185675123030151 
1014	 0,185736866134542 
1015	 0,184681644138284 
1016	 0,18524182894992 
1017	 0,189015336366685 
1018	 0,18896152704625 
1019	 0,186774244166888 
1020	 0,186534855115272 
1021	 0,188930679628276 
1022	 0,191207019842237 
1023	 0,184523472598745 
1024	 0,183742431418335 
1025	 0,191232747440604 
1026	 0,192776062456625 
1027	 0,189892041822065 
1028	 0,184947315132237 
1029	 0,185422401927423 
1030	 0,187663516016544 
1031	 0,186784947660478 
1032	 0,189659173474909 
1033	 0,19554793901596 
1034	 0,200708556460299 
1035	 0,199243999001976 
1036	 0,192646215322891 
1037	 0,191744856085184 
1038	 0,194512496059311 
1039	 0,198641221348657 
1040	 0,196410750220814 
1041	 0,196496393779752 
1042	 0,204324659258372 
1043	 0,20082050863371 
1044	 0,193386256816278 
1045	 0,195151348766015 
1046	 0,193952161434444 
1047	 0,189946040579688 
1048	 0,189356784964697 
1049	 0,18942444863372 
1050	 0,189756300674582 
1051	 0,192171804335878 
1052	 0,192343872657555 
1053	 0,189190388609956 
1054	 0,189984510672938 
1055	 0,192253013072586 
1056	 0,194072187141467 
1057	 0,201900122530492 
1058	 0,209511568123393 
1059	 0,207232018941648 
1060	 0,1993687434853 
1061	 0,19202753932282 
1062	 0,196420507684398 
1063	 0,195389386652013 
1064	 0,188795821723452 
1065	 0,195907078668563 
1066	 0,201202976362351 
1067	 0,197539184808624 
1068	 0,185536896949904 
1069	 0,184827013384982 
1070	 0,204738050202816 
1071	 0,203379875990636 
1072	 0,194915353289208 
1073	 0,200538934043662 
1074	 0,204271857704963 
1075	 0,201540844654517 
