Wavelength	AURAY00182.asd
325	 0,206932022912766 
326	 0,332731456895026 
327	 0,364030261165633 
328	 0,273787711372505 
329	 0,389378721664239 
330	 0,461680242977942 
331	 0,352701050991064 
332	 0,255522779289868 
333	 0,203396928157629 
334	 0,252668152062617 
335	 0,329538578519831 
336	 0,368298853703288 
337	 0,231278464670146 
338	 0,104778718590381 
339	 0,161502681851247 
340	 0,169182450089876 
341	 0,138512551814499 
342	 0,188711666466664 
343	 0,195022973132002 
344	 0,134924695286197 
345	 0,155779599481244 
346	 0,176923965376002 
347	 0,120948040030939 
348	 0,123159213066848 
349	 0,168599212520651 
350	 0,151928585550259 
351	 0,131348702153985 
352	 0,124119105452854 
353	 0,11470298788765 
354	 0,107129605775883 
355	 0,108572663383738 
356	 0,115376489881629 
357	 0,119144612944791 
358	 0,094578794695714 
359	 7,74549716377621E-02 
360	 8,58851962627207E-02 
361	 0,133225827829199 
362	 0,167621385234992 
363	 0,120729340188955 
364	 9,24347550261933E-02 
365	 0,100962075846168 
366	 0,122205361125113 
367	 0,134880547219826 
368	 0,126204617556525 
369	 0,113486324250298 
370	 0,111289297544464 
371	 0,140022205896921 
372	 0,144746541338002 
373	 0,118930432950706 
374	 0,109329125577689 
375	 0,105646410189429 
376	 0,100117442999881 
377	 0,114229561511976 
378	 0,137121252150225 
379	 0,136395331134657 
380	 0,137257736758129 
381	 0,143230118026905 
382	 0,132440076743577 
383	 0,123189185914555 
384	 0,132455439252703 
385	 0,135781128507582 
386	 0,130232041023923 
387	 0,118341546929061 
388	 0,120171309883808 
389	 0,138356047514398 
390	 0,142986804877438 
391	 0,136948104378464 
392	 0,127043606499386 
393	 0,121902167307617 
394	 0,122603407569759 
395	 0,125492028807826 
396	 0,124172823117937 
397	 0,116819136020425 
398	 0,118089509549899 
399	 0,12268218938221 
400	 0,12090651857632 
401	 0,11883818761484 
402	 0,118046113760892 
403	 0,119101191774509 
404	 0,117402633271959 
405	 0,111261671909342 
406	 0,116629267006199 
407	 0,12513989531974 
408	 0,114802053680306 
409	 0,108079793945957 
410	 0,110077603707722 
411	 0,110657292599207 
412	 0,110642993380927 
413	 0,111045724594519 
414	 0,106296354021619 
415	 0,101125738745427 
416	 0,110405555222628 
417	 0,114437923113654 
418	 0,107141335600564 
419	 0,104699241434795 
420	 0,104995511403078 
421	 0,103501956944977 
422	 0,102748897168832 
423	 0,102645740912405 
424	 0,100851858121069 
425	 0,101147697724385 
426	 0,105193594844128 
427	 0,106944072437772 
428	 0,106713416423966 
429	 0,106548462933933 
430	 0,107182281837653 
431	 0,108504749855883 
432	 0,108812354128346 
433	 0,108063442890244 
434	 0,106392120152131 
435	 0,105471710283542 
436	 0,105178091987066 
437	 0,104223418716367 
438	 0,103086522585216 
439	 0,102477820913512 
440	 0,105340008617382 
441	 0,108557339177419 
442	 0,108020724766591 
443	 0,107610469812097 
444	 0,108172395051641 
445	 0,109318011112088 
446	 0,109784842902334 
447	 0,10896396643068 
448	 0,10907559078885 
449	 0,1093948111293 
450	 0,107809077345267 
451	 0,107909788868523 
452	 0,110109885315939 
453	 0,110781087556438 
454	 0,111567120536402 
455	 0,113930109313867 
456	 0,114305904522613 
457	 0,112825067961463 
458	 0,111747029385841 
459	 0,109737772271987 
460	 0,107193412017888 
461	 0,109581976023771 
462	 0,112701879459068 
463	 0,110448230966777 
464	 0,10948238689512 
465	 0,110987624966274 
466	 0,113227644326386 
467	 0,114280459945968 
468	 0,112894250587641 
469	 0,110165059506312 
470	 0,108522789117256 
471	 0,112594574797834 
472	 0,1138642803862 
473	 0,111020425827456 
474	 0,112581533494608 
475	 0,114311213899836 
476	 0,111900413848126 
477	 0,112112931974491 
478	 0,114160212774096 
479	 0,111936027801137 
480	 0,110205829622655 
481	 0,111075819049644 
482	 0,112390666562047 
483	 0,1133765657737 
484	 0,113363407557261 
485	 0,111710285659818 
486	 0,109254111375314 
487	 0,10969032224147 
488	 0,109961900216069 
489	 0,107931263192772 
490	 0,107103056133239 
491	 0,107174533658287 
492	 0,105816674143081 
493	 0,106502535725477 
494	 0,10919676077028 
495	 0,106985908998186 
496	 0,104004257393585 
497	 0,105398803187415 
498	 0,1075416988 
499	 0,109290663768056 
500	 0,110076439647584 
501	 0,109830714846927 
502	 0,108666213417606 
503	 0,107352313210066 
504	 0,107178342581783 
505	 0,110225396603071 
506	 0,112139138329895 
507	 0,11221622725413 
508	 0,114017849862087 
509	 0,115317751789512 
510	 0,114184088847385 
511	 0,113945226287161 
512	 0,11498185214459 
513	 0,116642536523483 
514	 0,117802047352068 
515	 0,117898143846069 
516	 0,117089894643159 
517	 0,116665016160423 
518	 0,118321268701605 
519	 0,119644644160955 
520	 0,12030022219237 
521	 0,121773103353793 
522	 0,122744269579151 
523	 0,12228767504753 
524	 0,121290999665519 
525	 0,120323072896121 
526	 0,120160002505067 
527	 0,120576214243427 
528	 0,121149051092297 
529	 0,119979636338473 
530	 0,119064988339858 
531	 0,120777510360118 
532	 0,122215019203454 
533	 0,122453781783169 
534	 0,120862884205371 
535	 0,119598207631852 
536	 0,119921278747749 
537	 0,120487751111224 
538	 0,121005342572356 
539	 0,121385020401071 
540	 0,121062725872538 
541	 0,120250633061722 
542	 0,120647620053514 
543	 0,121617817352079 
544	 0,122417355371901 
545	 0,122537645463692 
546	 0,122085947162338 
547	 0,121536860334094 
548	 0,121847075463371 
549	 0,123271880498548 
550	 0,123869636682434 
551	 0,123852825150467 
552	 0,123944795998133 
553	 0,123634194385872 
554	 0,123072406593406 
555	 0,123420520973683 
556	 0,12340302648997 
557	 0,122040560224804 
558	 0,121105627949976 
559	 0,120589953277983 
560	 0,119537242645693 
561	 0,118822719197431 
562	 0,118671194472005 
563	 0,118034898545344 
564	 0,117733989716482 
565	 0,118954827170023 
566	 0,119474792585187 
567	 0,118868741012471 
568	 0,117622296656012 
569	 0,117526314488459 
570	 0,119680020254157 
571	 0,121534105823785 
572	 0,122834072090494 
573	 0,123896813369341 
574	 0,125944425003271 
575	 0,128942543507994 
576	 0,130138731226391 
577	 0,130943996706923 
578	 0,133121903057675 
579	 0,1350542199093 
580	 0,13652419004827 
581	 0,137975665017868 
582	 0,139532785890307 
583	 0,141243711009399 
584	 0,142789952818652 
585	 0,144001802809162 
586	 0,144621548093869 
587	 0,145909515290422 
588	 0,147816468042356 
589	 0,148176425507525 
590	 0,148460660271845 
591	 0,150030119860765 
592	 0,15061483933295 
593	 0,150403435689552 
594	 0,151165933822497 
595	 0,151807635744645 
596	 0,151860827500796 
597	 0,151750095315536 
598	 0,151521727124058 
599	 0,1511560525611 
600	 0,151226710064246 
601	 0,151479341579804 
602	 0,150251458658469 
603	 0,149049104579465 
604	 0,149005890600918 
605	 0,148521958654209 
606	 0,147505279377694 
607	 0,146347910454408 
608	 0,145474090650953 
609	 0,145032966368755 
610	 0,144652013364932 
611	 0,144127249896852 
612	 0,143261756030597 
613	 0,142227481270071 
614	 0,141192427261568 
615	 0,140518282665113 
616	 0,139798282657404 
617	 0,13882992186903 
618	 0,138234245246097 
619	 0,137905887606953 
620	 0,137436020245959 
621	 0,137257179895852 
622	 0,137399338257742 
623	 0,13731704983982 
624	 0,137288816053156 
625	 0,137611634000556 
626	 0,137624611255689 
627	 0,13747065874304 
628	 0,138005987719536 
629	 0,138477974985367 
630	 0,138561054834991 
631	 0,13883791692075 
632	 0,139493758743271 
633	 0,140746494271597 
634	 0,141400478429001 
635	 0,141434923649959 
636	 0,142285193969869 
637	 0,143695800175048 
638	 0,14535110906633 
639	 0,146615181178802 
640	 0,147457688552776 
641	 0,14811993793442 
642	 0,149026079121617 
643	 0,150236288189488 
644	 0,150874300483059 
645	 0,151180822155047 
646	 0,151580829895402 
647	 0,151596648339967 
648	 0,151221202811591 
649	 0,150926241851917 
650	 0,150107439806633 
651	 0,148467502562598 
652	 0,14727174862186 
653	 0,146159464124835 
654	 0,143927308623267 
655	 0,141971528917672 
656	 0,140589126423889 
657	 0,13882182921442 
658	 0,136524309177895 
659	 0,133641635786012 
660	 0,131026162041431 
661	 0,128754531667854 
662	 0,126341720681279 
663	 0,12415084768782 
664	 0,122338797726072 
665	 0,120681527357298 
666	 0,119057989906857 
667	 0,117291252818352 
668	 0,116201081206203 
669	 0,115729239586792 
670	 0,114600393620767 
671	 0,113739994420334 
672	 0,113817090914839 
673	 0,113288182650593 
674	 0,112322611388615 
675	 0,11192760741102 
676	 0,111965924094905 
677	 0,112188858094392 
678	 0,111256881980106 
679	 0,11057067940563 
680	 0,111876617496899 
681	 0,112670753397655 
682	 0,112810723372639 
683	 0,113767106823223 
684	 0,115272840936846 
685	 0,117134596614975 
686	 0,11884135617581 
687	 0,12097432808849 
688	 0,124655400064038 
689	 0,128869218926622 
690	 0,133419525081504 
691	 0,138736628281322 
692	 0,145063217897755 
693	 0,152581721686668 
694	 0,160778960217188 
695	 0,169768825227522 
696	 0,180062014741087 
697	 0,19133346830465 
698	 0,203424168165716 
699	 0,216209699331377 
700	 0,229649284186515 
701	 0,243729889757662 
702	 0,257698780322226 
703	 0,271436394121171 
704	 0,285552380589106 
705	 0,299381586264901 
706	 0,312496495823284 
707	 0,325283126542261 
708	 0,337662674437707 
709	 0,349404758568849 
710	 0,360554712955453 
711	 0,37113308581177 
712	 0,38112979001414 
713	 0,390498657783981 
714	 0,399218281947215 
715	 0,407638245147564 
716	 0,415724044639252 
717	 0,42319195920441 
718	 0,430072315542697 
719	 0,436363697818483 
720	 0,442062187346548 
721	 0,447291404031818 
722	 0,452206474750211 
723	 0,456454585069424 
724	 0,460185678486158 
725	 0,464169107363186 
726	 0,467719251390495 
727	 0,470475401181887 
728	 0,473145197930645 
729	 0,475740913195571 
730	 0,478088026917906 
731	 0,480387346772525 
732	 0,482534517264585 
733	 0,483824826606696 
734	 0,484860274138812 
735	 0,48621144141116 
736	 0,488011578693129 
737	 0,489745302281737 
738	 0,489991233230198 
739	 0,490540054390376 
740	 0,491948442057004 
741	 0,49313319649136 
742	 0,493988873952151 
743	 0,494501257768238 
744	 0,49466902218932 
745	 0,494785419484992 
746	 0,495651846323776 
747	 0,496590899435027 
748	 0,497199422665834 
749	 0,497511400396033 
750	 0,497608526095351 
751	 0,49760435041311 
752	 0,497812069944205 
753	 0,49827729494987 
754	 0,498777909786197 
755	 0,499150014103029 
756	 0,499305008750171 
757	 0,499635552916011 
758	 0,500005384758584 
759	 0,500030779792041 
760	 0,49983927412423 
761	 0,499580015650624 
762	 0,499678917745759 
763	 0,499992009976803 
764	 0,500332003859818 
765	 0,500317526674372 
766	 0,500113876362307 
767	 0,500394031537392 
768	 0,500487691263 
769	 0,500254773837079 
770	 0,500477199542589 
771	 0,500897124475652 
772	 0,501136606176528 
773	 0,501430710787244 
774	 0,501627643694915 
775	 0,501089677914899 
776	 0,500780015867187 
777	 0,501138159630367 
778	 0,501387635274597 
779	 0,501365599832076 
780	 0,500972280482765 
781	 0,500801346181662 
782	 0,50093650503642 
783	 0,50105290321487 
784	 0,500939625274668 
785	 0,500530940178571 
786	 0,500544503942168 
787	 0,500800316311463 
788	 0,500802818094168 
789	 0,500616446072553 
790	 0,500338735633074 
791	 0,500320532612449 
792	 0,500385094379688 
793	 0,500378880995887 
794	 0,500363397847339 
795	 0,500273611894034 
796	 0,499945591856907 
797	 0,49970170879501 
798	 0,499641638239298 
799	 0,499594327867195 
800	 0,49968607250704 
801	 0,499995912618832 
802	 0,499842452723823 
803	 0,499367437852917 
804	 0,499224432349259 
805	 0,499305604959571 
806	 0,49954200303311 
807	 0,499618261736585 
808	 0,499800430779054 
809	 0,500375196461631 
810	 0,500951151911929 
811	 0,501137280707906 
812	 0,500008868522156 
813	 0,499428161533414 
814	 0,500067397532588 
815	 0,500531581272557 
816	 0,500671915937178 
817	 0,500473709999018 
818	 0,500266448432082 
819	 0,500125844006356 
820	 0,499985547179104 
821	 0,499805401681926 
822	 0,499665442406462 
823	 0,500206301791381 
824	 0,500795101196768 
825	 0,500565159350176 
826	 0,500305581478299 
827	 0,500186876316629 
828	 0,500059163664995 
829	 0,500158781203233 
830	 0,500527829182853 
831	 0,500580915890092 
832	 0,50052823732947 
833	 0,500742995235753 
834	 0,500827708696507 
835	 0,500737988654666 
836	 0,500643231284886 
837	 0,500588475628649 
838	 0,500639283690365 
839	 0,501029781182472 
840	 0,50138427249277 
841	 0,501160086561115 
842	 0,500807849913753 
843	 0,500486978351229 
844	 0,500272213754232 
845	 0,50016717346243 
846	 0,500160887985842 
847	 0,500161225266725 
848	 0,500138210715455 
849	 0,50007059880729 
850	 0,500030528194621 
851	 0,500040093660115 
852	 0,500112047564191 
853	 0,500155669439009 
854	 0,50008980543254 
855	 0,499734330420097 
856	 0,49942225638805 
857	 0,499616713753176 
858	 0,499509988392461 
859	 0,499147616697145 
860	 0,499375424651637 
861	 0,499484353332644 
862	 0,499158958302169 
863	 0,498885979064834 
864	 0,498881894294218 
865	 0,499336040198701 
866	 0,49920320034472 
867	 0,498526443129713 
868	 0,498136068738022 
869	 0,498462553183583 
870	 0,499456900004849 
871	 0,499355018920855 
872	 0,498860956125048 
873	 0,499011905701357 
874	 0,499116978161943 
875	 0,49922659188265 
876	 0,500054271349746 
877	 0,499899204277306 
878	 0,498537099015127 
879	 0,499197821321013 
880	 0,500154741872182 
881	 0,499388885772754 
882	 0,499375349727223 
883	 0,50015638837861 
884	 0,500690026622347 
885	 0,500327406734037 
886	 0,499195258720463 
887	 0,499423026507642 
888	 0,500177567079689 
889	 0,500481356853244 
890	 0,499820626703858 
891	 0,498702154368491 
892	 0,498371297755459 
893	 0,498837076066253 
894	 0,499736406101996 
895	 0,499337003533667 
896	 0,499015260388605 
897	 0,499746968288362 
898	 0,499674425241074 
899	 0,498959517849131 
900	 0,498336504562277 
901	 0,498940724624931 
902	 0,500451055721237 
903	 0,50043626600239 
904	 0,499676941845436 
905	 0,498804833941915 
906	 0,498386198100677 
907	 0,498535314576081 
908	 0,499252389645866 
909	 0,499186871172209 
910	 0,498499413513994 
911	 0,498949896545885 
912	 0,499034696925351 
913	 0,498254257859963 
914	 0,498107478180865 
915	 0,498258672843284 
916	 0,498205835205138 
917	 0,498444692596199 
918	 0,498671085018916 
919	 0,497918741370737 
920	 0,497084097281289 
921	 0,496598727674923 
922	 0,496787870113076 
923	 0,496987670098116 
924	 0,496621723921428 
925	 0,495826777030513 
926	 0,495148918719582 
927	 0,495563866536188 
928	 0,494908077183348 
929	 0,493215658713745 
930	 0,493061972640022 
931	 0,492833361483342 
932	 0,491747573268541 
933	 0,491486770305552 
934	 0,491148249863876 
935	 0,489441026782512 
936	 0,48928184931518 
937	 0,490041964492114 
938	 0,488107025673357 
939	 0,485893283370416 
940	 0,48458579271822 
941	 0,485143161471678 
942	 0,48572441632307 
943	 0,484727387712076 
944	 0,483815163345847 
945	 0,483191990794066 
946	 0,482784208105656 
947	 0,481392112229946 
948	 0,479060862471542 
949	 0,477194904615661 
950	 0,476159771733627 
951	 0,475975824197053 
952	 0,475426451212896 
953	 0,474070833200143 
954	 0,471665272012972 
955	 0,470003626468157 
956	 0,469239511246963 
957	 0,468797927337476 
958	 0,467509889964387 
959	 0,465345171009736 
960	 0,464335842129074 
961	 0,464084198409426 
962	 0,464112538333575 
963	 0,46368453695684 
964	 0,463053721228001 
965	 0,462800146119271 
966	 0,462049601024791 
967	 0,460865855653679 
968	 0,460047811479649 
969	 0,459467749255187 
970	 0,459311655371929 
971	 0,460781014237581 
972	 0,461840884567825 
973	 0,460636271880826 
974	 0,458249168490689 
975	 0,456362306039055 
976	 0,45746420365904 
977	 0,459265585239468 
978	 0,460711232605524 
979	 0,460836756332058 
980	 0,460512460327656 
981	 0,460181830812346 
982	 0,459427117461221 
983	 0,459127854687462 
984	 0,460114974977928 
985	 0,461318273106566 
986	 0,462132574709655 
987	 0,46196709619521 
988	 0,460415259905695 
989	 0,458062002767566 
990	 0,456806110031766 
991	 0,458132005732593 
992	 0,461997494222046 
993	 0,463581073828588 
994	 0,463232097170467 
995	 0,462022472430313 
996	 0,462618185251126 
997	 0,464146290563229 
998	 0,463767010927062 
999	 0,464466694195941 
1000	 0,466497578656595 
1001	 0,468115540817283 
1002	 0,467415175211792 
1003	 0,464506081497203 
1004	 0,4659553501439 
1005	 0,468694778085563 
1006	 0,469121389080234 
1007	 0,466952812407216 
1008	 0,465492992529481 
1009	 0,470592504987555 
1010	 0,471060011321746 
1011	 0,467053992787614 
1012	 0,469558982266863 
1013	 0,472256978486881 
1014	 0,472247988790756 
1015	 0,469529874475521 
1016	 0,468246251366894 
1017	 0,471587072082444 
1018	 0,475523863906241 
1019	 0,47745824001189 
1020	 0,474637389164769 
1021	 0,473197117112961 
1022	 0,474529972112724 
1023	 0,478132506837426 
1024	 0,479485090617604 
1025	 0,477840905300986 
1026	 0,478718590055878 
1027	 0,478483305829792 
1028	 0,475691014152144 
1029	 0,478341782644645 
1030	 0,481412523711798 
1031	 0,478607804670716 
1032	 0,476955934319031 
1033	 0,478003576237557 
1034	 0,482145284852185 
1035	 0,481672218023773 
1036	 0,477723953679835 
1037	 0,482825796747044 
1038	 0,486066703627608 
1039	 0,483091709243985 
1040	 0,479859043352364 
1041	 0,479234862677462 
1042	 0,482626878568447 
1043	 0,483114393330333 
1044	 0,48209258526724 
1045	 0,482833217509353 
1046	 0,485861185621347 
1047	 0,488075572517933 
1048	 0,482461430937167 
1049	 0,473965730174832 
1050	 0,468767586484472 
1051	 0,482498021242944 
1052	 0,490017876552404 
1053	 0,481432364623421 
1054	 0,481494610326041 
1055	 0,483745946266101 
1056	 0,482316998557763 
1057	 0,487073465021216 
1058	 0,494442747841729 
1059	 0,497301629575983 
1060	 0,490859314652597 
1061	 0,482113443553757 
1062	 0,489441275302808 
1063	 0,487371165706479 
1064	 0,476309764976285 
1065	 0,486272101510104 
1066	 0,49327664980443 
1067	 0,488309321300435 
1068	 0,484905267794457 
1069	 0,484493263349939 
1070	 0,485975498684432 
1071	 0,474900152377286 
1072	 0,471046302902733 
1073	 0,495785155936856 
1074	 0,492877896851957 
1075	 0,473634488831412 
