Wavelength	AURAY00099.asd
325	 4,92730281236866E-02 
326	 0,171807127197462 
327	 0,259481805381354 
328	 0,24400184623131 
329	 0,275496434869279 
330	 0,315432688153939 
331	 0,336289451720469 
332	 0,330854493999753 
333	 0,300259790778122 
334	 0,235077331349397 
335	 0,286932370900692 
336	 0,422008044244987 
337	 0,343085708854443 
338	 0,241195334095817 
339	 0,294461833800683 
340	 0,290321219503276 
341	 0,239977330953777 
342	 0,234225516454281 
343	 0,243816361729078 
344	 0,260465425908964 
345	 0,286288671435236 
346	 0,295747716223529 
347	 0,269645141198024 
348	 0,240223347075093 
349	 0,229111751957562 
350	 0,263632906039358 
351	 0,271307857589505 
352	 0,238493764543118 
353	 0,242937191644329 
354	 0,262178237714015 
355	 0,257960930833548 
356	 0,246794135789167 
357	 0,227934950370276 
358	 0,187177765698663 
359	 0,189088178455928 
360	 0,249301960929566 
361	 0,274927714389598 
362	 0,279049199407694 
363	 0,294337453291176 
364	 0,286045094190716 
365	 0,263901003898255 
366	 0,289534009126105 
367	 0,302237597465146 
368	 0,270731998729748 
369	 0,284253369341235 
370	 0,31728135202688 
371	 0,309565798210778 
372	 0,292473720194232 
373	 0,27828300609602 
374	 0,279066721019388 
375	 0,282048584519179 
376	 0,27840731729606 
377	 0,282314577308459 
378	 0,294806988926086 
379	 0,313432955083577 
380	 0,317129157931108 
381	 0,305688596344602 
382	 0,306108050711573 
383	 0,311856498518473 
384	 0,314836576001763 
385	 0,313953238897697 
386	 0,313083558881646 
387	 0,324048389051722 
388	 0,328019823377926 
389	 0,321179546588767 
390	 0,325310473472045 
391	 0,327037227340013 
392	 0,309051264645847 
393	 0,308732694905187 
394	 0,322753369286605 
395	 0,319561318615506 
396	 0,307638285118289 
397	 0,295397425409685 
398	 0,303362010203059 
399	 0,318261771996355 
400	 0,318953124373284 
401	 0,314438931799733 
402	 0,309083443846128 
403	 0,310228728210797 
404	 0,312628818036021 
405	 0,312926578481414 
406	 0,316491288266971 
407	 0,319611715631065 
408	 0,312199316046149 
409	 0,313120494146542 
410	 0,322981289018874 
411	 0,317737630258553 
412	 0,31203553050769 
413	 0,319468802559658 
414	 0,317649353241787 
415	 0,309275274058394 
416	 0,311094589600687 
417	 0,313198450412428 
418	 0,312144037661215 
419	 0,312688442606972 
420	 0,312735813272611 
421	 0,309086930210643 
422	 0,312375370965407 
423	 0,320247620583 
424	 0,317401302560587 
425	 0,313202272399241 
426	 0,313187106558464 
427	 0,313456067040985 
428	 0,314240234907642 
429	 0,316984656856572 
430	 0,31791867887009 
431	 0,316934934876439 
432	 0,319140136281139 
433	 0,320680421114646 
434	 0,318203353997024 
435	 0,315383461488844 
436	 0,31429140587595 
437	 0,318511038254842 
438	 0,320474597174214 
439	 0,318075990525711 
440	 0,31964571940403 
441	 0,321592795082895 
442	 0,318569439263133 
443	 0,318041544289788 
444	 0,321118442778245 
445	 0,325444890245278 
446	 0,328098094789886 
447	 0,327293930542883 
448	 0,324824252750196 
449	 0,323342061917271 
450	 0,327349680250686 
451	 0,328528087830374 
452	 0,326119166029643 
453	 0,329347087393275 
454	 0,333872102793836 
455	 0,335274210410706 
456	 0,334175565326633 
457	 0,331768978441992 
458	 0,330601325115276 
459	 0,330402695878352 
460	 0,331116002541956 
461	 0,332437935197275 
462	 0,333511032233597 
463	 0,333335080651804 
464	 0,333257682918482 
465	 0,333591654116273 
466	 0,334409441418861 
467	 0,333729563707773 
468	 0,330831061840258 
469	 0,331604971218796 
470	 0,334800626146275 
471	 0,336407878287494 
472	 0,336972905876228 
473	 0,3368724926559 
474	 0,338123639911313 
475	 0,338058507470407 
476	 0,33428314267988 
477	 0,334452625532971 
478	 0,337397002592689 
479	 0,335192249414926 
480	 0,334177831002807 
481	 0,336560731506141 
482	 0,335880140226361 
483	 0,334044510431885 
484	 0,334831262753423 
485	 0,3347174719938 
486	 0,333424399036522 
487	 0,333531992154987 
488	 0,333613470447097 
489	 0,332692129681981 
490	 0,332879765443484 
491	 0,333213454951745 
492	 0,33010397371396 
493	 0,330624963055761 
494	 0,335362288475299 
495	 0,333006444435979 
496	 0,329321702062287 
497	 0,331619075832732 
498	 0,333135199090753 
499	 0,332967276640793 
500	 0,333241064684343 
501	 0,333091879164274 
502	 0,332321858224336 
503	 0,333054535904525 
504	 0,334681776880788 
505	 0,335555449367405 
506	 0,337635763438862 
507	 0,340591909045388 
508	 0,340727169608063 
509	 0,340128060961204 
510	 0,340744463078683 
511	 0,340564300628153 
512	 0,340037271001427 
513	 0,341174606623171 
514	 0,342535388207113 
515	 0,343446715232014 
516	 0,344030650746226 
517	 0,344267424086547 
518	 0,34410349828179 
519	 0,344738908837311 
520	 0,345855973330739 
521	 0,345089234014628 
522	 0,344350168632702 
523	 0,34496165168048 
524	 0,345258470345625 
525	 0,345200984976624 
526	 0,345340722415999 
527	 0,345275311818614 
528	 0,344913745632908 
529	 0,344431366253534 
530	 0,344185593739387 
531	 0,34454589479479 
532	 0,344702264903848 
533	 0,344471139103877 
534	 0,343820344990327 
535	 0,343744960936491 
536	 0,34464515320689 
537	 0,34446006485161 
538	 0,343825027992627 
539	 0,344490278043694 
540	 0,344545612151821 
541	 0,343824068803585 
542	 0,34433835158645 
543	 0,345168472115128 
544	 0,345336141207988 
545	 0,345375899993136 
546	 0,345414379562902 
547	 0,345397040452984 
548	 0,346019016804654 
549	 0,347336786954357 
550	 0,347193194467209 
551	 0,346502361905933 
552	 0,347055809732368 
553	 0,34766790431982 
554	 0,347980327384695 
555	 0,348028696352005 
556	 0,347628059314988 
557	 0,346698454298038 
558	 0,34617801655084 
559	 0,345957077376985 
560	 0,345240514255811 
561	 0,344677553756415 
562	 0,34448336293414 
563	 0,344238652672889 
564	 0,344090917315686 
565	 0,344281682316305 
566	 0,344342729677243 
567	 0,344186150555694 
568	 0,343882732938022 
569	 0,343969585806417 
570	 0,3448313487949 
571	 0,346241575185761 
572	 0,347770361283592 
573	 0,348501892018638 
574	 0,350138722534591 
575	 0,352951291114003 
576	 0,355016944183539 
577	 0,356662754727191 
578	 0,358404208774279 
579	 0,360190710167722 
580	 0,361931429170183 
581	 0,363353686641375 
582	 0,364524626920364 
583	 0,365511711872085 
584	 0,366339933488729 
585	 0,367464305560951 
586	 0,369725133942879 
587	 0,371340764645613 
588	 0,371920392967782 
589	 0,372422913261774 
590	 0,373373460632979 
591	 0,375136977528956 
592	 0,376043373210735 
593	 0,37623639985725 
594	 0,377171995349638 
595	 0,377633388112201 
596	 0,377231010710132 
597	 0,377358886757062 
598	 0,377544458287702 
599	 0,376850890817735 
600	 0,376426031485447 
601	 0,376338146785443 
602	 0,375406950383894 
603	 0,374914881886362 
604	 0,375686953056284 
605	 0,374857495405624 
606	 0,372915673585106 
607	 0,37216453956423 
608	 0,372019878480271 
609	 0,372124455081737 
610	 0,371369179182292 
611	 0,370441266693245 
612	 0,370303463828033 
613	 0,369531001179559 
614	 0,368089611868 
615	 0,366972640055661 
616	 0,366144623823482 
617	 0,365644789437992 
618	 0,36584642271351 
619	 0,366259435836313 
620	 0,36587262881826 
621	 0,365360721492759 
622	 0,365081818823774 
623	 0,365610546660623 
624	 0,366239771672427 
625	 0,366224982248955 
626	 0,366139859281917 
627	 0,366174794664733 
628	 0,366432624805649 
629	 0,367103299132825 
630	 0,368121051750491 
631	 0,368249798055681 
632	 0,368203588907749 
633	 0,36936815324851 
634	 0,370501389712564 
635	 0,371319629644494 
636	 0,372245403194208 
637	 0,373176487400933 
638	 0,374050308148175 
639	 0,375321598042494 
640	 0,376817696683678 
641	 0,377947419903769 
642	 0,378880430757433 
643	 0,37968864137158 
644	 0,380504999192532 
645	 0,381270843296031 
646	 0,381894569205608 
647	 0,382210911012873 
648	 0,382152538138952 
649	 0,381721935597993 
650	 0,380922189995377 
651	 0,379796662483707 
652	 0,378688672474742 
653	 0,377493547476213 
654	 0,375834844819571 
655	 0,374252236681131 
656	 0,372914269815518 
657	 0,371718757593934 
658	 0,370073455553886 
659	 0,36742039477834 
660	 0,364931379482334 
661	 0,362715859785821 
662	 0,360098250505271 
663	 0,3580857996664 
664	 0,357065879244388 
665	 0,355916898614362 
666	 0,354475241244057 
667	 0,352686625633613 
668	 0,351500079210749 
669	 0,35092416535334 
670	 0,349670247675514 
671	 0,348806627920062 
672	 0,349088686696679 
673	 0,348572373310688 
674	 0,34751187346071 
675	 0,347346288209744 
676	 0,347302736472336 
677	 0,34712793640404 
678	 0,346897190464652 
679	 0,346896269115228 
680	 0,347447535295909 
681	 0,348092052092372 
682	 0,348754859153368 
683	 0,349488083727177 
684	 0,350735679014532 
685	 0,352746808621923 
686	 0,355118042182721 
687	 0,357762060498161 
688	 0,36054289946268 
689	 0,364553426745909 
690	 0,369951944712392 
691	 0,375585379725895 
692	 0,382134432418382 
693	 0,390200352216788 
694	 0,398807147016114 
695	 0,407840217297083 
696	 0,417455310345727 
697	 0,427997667397554 
698	 0,439524570419126 
699	 0,451357282417692 
700	 0,463419450664905 
701	 0,475725876708803 
702	 0,487723885923821 
703	 0,499285252226355 
704	 0,510751449879847 
705	 0,521732893387195 
706	 0,531976551082224 
707	 0,541659005081555 
708	 0,550879233853009 
709	 0,559759557337519 
710	 0,568154659247033 
711	 0,575983998187494 
712	 0,583034066438295 
713	 0,589669830658647 
714	 0,596207258055181 
715	 0,602062954759301 
716	 0,607317225350575 
717	 0,61245329004864 
718	 0,617198642368775 
719	 0,621412447401157 
720	 0,624910408691428 
721	 0,628156898252129 
722	 0,631751962413954 
723	 0,634686488938766 
724	 0,63701327538295 
725	 0,639805215373121 
726	 0,642205148341133 
727	 0,643741564920788 
728	 0,645122870866735 
729	 0,646547604007469 
730	 0,648162272228699 
731	 0,649835481622553 
732	 0,651312803874802 
733	 0,651733806272008 
734	 0,652073264388059 
735	 0,653189150312072 
736	 0,654507872964947 
737	 0,655618113383257 
738	 0,655737320826014 
739	 0,655981778509255 
740	 0,656722178732603 
741	 0,657355135626863 
742	 0,657823776318958 
743	 0,658117217699657 
744	 0,65803157831847 
745	 0,65790504603306 
746	 0,658959759216729 
747	 0,659550915302385 
748	 0,658971723392032 
749	 0,659070319828185 
750	 0,659519281390388 
751	 0,659475705278462 
752	 0,659332234974872 
753	 0,6592916174003 
754	 0,659727555384453 
755	 0,660166905319168 
756	 0,660247194399626 
757	 0,660055642405511 
758	 0,659802161771775 
759	 0,659880280325447 
760	 0,659899606627256 
761	 0,659788287988579 
762	 0,659827647515441 
763	 0,659946145054602 
764	 0,660037342779332 
765	 0,65969274087779 
766	 0,659135081966926 
767	 0,659128717989311 
768	 0,659205227263035 
769	 0,659176217403799 
770	 0,659009286713299 
771	 0,65903499141001 
772	 0,659618865143796 
773	 0,659637278601149 
774	 0,659090376062793 
775	 0,658817018893491 
776	 0,658595538737548 
777	 0,6583655255403 
778	 0,658399261074295 
779	 0,658474209264558 
780	 0,658226965700868 
781	 0,658223966433819 
782	 0,658377394449712 
783	 0,657780638602556 
784	 0,657361741531269 
785	 0,657669379563284 
786	 0,657817305480777 
787	 0,657700407534317 
788	 0,657355629734996 
789	 0,657210897240211 
790	 0,657280206946621 
791	 0,656990424045321 
792	 0,656613465103333 
793	 0,656390705216301 
794	 0,656422712978252 
795	 0,656338586565639 
796	 0,655226199233533 
797	 0,654780609421977 
798	 0,655282788396579 
799	 0,655036453787636 
800	 0,654650727762054 
801	 0,654743328275125 
802	 0,654641737374028 
803	 0,654381667712949 
804	 0,654348607484099 
805	 0,654418911364784 
806	 0,654491222788103 
807	 0,654224664721881 
808	 0,654014435269067 
809	 0,654287388879804 
810	 0,654553630752512 
811	 0,654643073343566 
812	 0,654408694940702 
813	 0,654100632824762 
814	 0,653883075865108 
815	 0,653929577693826 
816	 0,654072716518702 
817	 0,654091377150013 
818	 0,653950587106822 
819	 0,653685093104235 
820	 0,653419074665352 
821	 0,653207900766001 
822	 0,653137713137493 
823	 0,653545703644375 
824	 0,65381683766604 
825	 0,653159714081047 
826	 0,653387671080762 
827	 0,654351714013612 
828	 0,654177057982456 
829	 0,653719146544934 
830	 0,653500525985901 
831	 0,653958618898135 
832	 0,654349510789406 
833	 0,653616838814499 
834	 0,653528344868139 
835	 0,654069251677031 
836	 0,653642666910557 
837	 0,653293002995158 
838	 0,653553343245384 
839	 0,65398482118092 
840	 0,654200781288902 
841	 0,653749101052892 
842	 0,653409666589153 
843	 0,653270545659657 
844	 0,652851418227703 
845	 0,652562829526151 
846	 0,652614562502529 
847	 0,652742981361777 
848	 0,652914253063413 
849	 0,653131310996919 
850	 0,652752085846107 
851	 0,651988065674741 
852	 0,651964217143511 
853	 0,652515181756448 
854	 0,653336717257201 
855	 0,65309374072789 
856	 0,652241033917742 
857	 0,651622810271247 
858	 0,651610861324987 
859	 0,652133328404586 
860	 0,652677601672733 
861	 0,652545737267915 
862	 0,65157751281194 
863	 0,651398097839337 
864	 0,651748286160076 
865	 0,652040265083332 
866	 0,6519171394089 
867	 0,651437430366854 
868	 0,651065626386812 
869	 0,651051409248834 
870	 0,651401048488995 
871	 0,651214815401011 
872	 0,651053748053298 
873	 0,651647378868752 
874	 0,65147382538889 
875	 0,650768066447859 
876	 0,651188649545969 
877	 0,651559917936503 
878	 0,651489223044593 
879	 0,651788163302084 
880	 0,65192161542725 
881	 0,651323925018963 
882	 0,651340533294032 
883	 0,65189460850555 
884	 0,652083160211132 
885	 0,652040225555129 
886	 0,651814369396892 
887	 0,651577863911473 
888	 0,651398654901535 
889	 0,651299140579786 
890	 0,650768199188833 
891	 0,65031416564621 
892	 0,651321165388552 
893	 0,651615835660376 
894	 0,65072908193741 
895	 0,650068763068734 
896	 0,649671505175991 
897	 0,649580003798892 
898	 0,65023224485979 
899	 0,65088659016736 
900	 0,650131075648508 
901	 0,649893543911272 
902	 0,650409866713744 
903	 0,650307129355377 
904	 0,650330792034874 
905	 0,650735834243757 
906	 0,649678971239455 
907	 0,64859752453234 
908	 0,649771575085721 
909	 0,650178074459691 
910	 0,6494949818286 
911	 0,649144342121746 
912	 0,649163068883414 
913	 0,649463921611573 
914	 0,649173056185979 
915	 0,648722085302237 
916	 0,648669156628298 
917	 0,648612141012917 
918	 0,648624154316777 
919	 0,6490917235528 
920	 0,649579629021997 
921	 0,649719530045918 
922	 0,64863666394265 
923	 0,647805515870608 
924	 0,648300941788501 
925	 0,647747229462165 
926	 0,646586672535 
927	 0,646297729261733 
928	 0,64607106995305 
929	 0,645685601989885 
930	 0,645040897428713 
931	 0,644977776875337 
932	 0,6456960015603 
933	 0,645035154561002 
934	 0,643686116156417 
935	 0,642875850579496 
936	 0,643184454652889 
937	 0,643950570231789 
938	 0,642856870790613 
939	 0,641966132541098 
940	 0,641857393525198 
941	 0,641200920875385 
942	 0,640457833242659 
943	 0,640061966692968 
944	 0,6395216536632 
945	 0,638830893877503 
946	 0,638100719205997 
947	 0,638081587327094 
948	 0,638263902473539 
949	 0,635906618245944 
950	 0,634069534050247 
951	 0,63429521972356 
952	 0,634228764628381 
953	 0,63382441507219 
954	 0,633319593277158 
955	 0,632458406056804 
956	 0,631567151815799 
957	 0,631674592230561 
958	 0,631151795183116 
959	 0,629791472708948 
960	 0,62952302969801 
961	 0,629028460432296 
962	 0,627532427669785 
963	 0,627789786973334 
964	 0,628618010522177 
965	 0,627679404019328 
966	 0,627079095417519 
967	 0,62699956774965 
968	 0,626380216729219 
969	 0,625648631559692 
970	 0,625143163501469 
971	 0,625603601166024 
972	 0,626215455555931 
973	 0,626080949145575 
974	 0,624099657775905 
975	 0,622250455205819 
976	 0,624307707283112 
977	 0,625169066674111 
978	 0,624154782078854 
979	 0,624156745791596 
980	 0,624473896106722 
981	 0,624784781176818 
982	 0,625224589345561 
983	 0,625165560870304 
984	 0,624134112014114 
985	 0,624266256392105 
986	 0,625225395152013 
987	 0,625626133627494 
988	 0,625052579268026 
989	 0,623706129836549 
990	 0,622754345627993 
991	 0,622516179737127 
992	 0,623477846637206 
993	 0,627359959137955 
994	 0,630678884184216 
995	 0,629825824909281 
996	 0,627086138369598 
997	 0,625035150831202 
998	 0,62776207364389 
999	 0,627726501691025 
1000	 0,625046199042238 
1001	 0,628881108528624 
1002	 0,629458698892244 
1003	 0,62375135609185 
1004	 0,624565126225222 
1005	 0,628087099331712 
1006	 0,629554958881056 
1007	 0,630029927169195 
1008	 0,629159440300392 
1009	 0,626222082641477 
1010	 0,62615171699928 
1011	 0,628519015183396 
1012	 0,626853325598449 
1013	 0,626799264416775 
1014	 0,629710921141706 
1015	 0,629287095572455 
1016	 0,627800639845491 
1017	 0,627660264218071 
1018	 0,629815988271738 
1019	 0,63170737165105 
1020	 0,629414424673125 
1021	 0,627668527115736 
1022	 0,627825923735439 
1023	 0,63025071664097 
1024	 0,632215007776292 
1025	 0,632067264216477 
1026	 0,627390238778342 
1027	 0,626561039721453 
1028	 0,633720882960982 
1029	 0,636796492276877 
1030	 0,634370952031087 
1031	 0,627498419780121 
1032	 0,630427492048699 
1033	 0,63785808634857 
1034	 0,633191079018532 
1035	 0,631229420011737 
1036	 0,633935723697236 
1037	 0,633683224914143 
1038	 0,63026731457022 
1039	 0,625482532166501 
1040	 0,628893608690505 
1041	 0,633749868196268 
1042	 0,633987921436046 
1043	 0,632135084853357 
1044	 0,630626994494705 
1045	 0,632220601859728 
1046	 0,632673194844854 
1047	 0,632424114382842 
1048	 0,635229369999144 
1049	 0,632269566845316 
1050	 0,624416864335179 
1051	 0,625236115955848 
1052	 0,62591175449367 
1053	 0,623371119598129 
1054	 0,627327555705712 
1055	 0,629200766342176 
1056	 0,623147395066553 
1057	 0,627191798376147 
1058	 0,636311695635176 
1059	 0,639553271378613 
1060	 0,633486371159686 
1061	 0,626669500925332 
1062	 0,641161597314099 
1063	 0,636330709520027 
1064	 0,612172343054703 
1065	 0,612279868517553 
1066	 0,625286903001511 
1067	 0,640018580210281 
1068	 0,623498162057717 
1069	 0,609975635478375 
1070	 0,623676570407143 
1071	 0,630372213452114 
1072	 0,631629472883676 
1073	 0,633369631709573 
1074	 0,629246726943783 
1075	 0,623508092950491 
