Wavelength	AURAY00512.asd
325	 0,125179648902121 
326	 0,356125658727889 
327	 0,381672000997038 
328	 0,143620012028477 
329	 0,133031766720335 
330	 0,200408064705504 
331	 0,210097346217896 
332	 0,232084312755165 
333	 0,243320161868112 
334	 0,15224861079686 
335	 0,145316262291454 
336	 0,219175341913205 
337	 0,12208660388268 
338	 2,21125588613847E-02 
339	 7,93477834356069E-02 
340	 0,122133174303565 
341	 0,127687562310631 
342	 0,116367215525671 
343	 0,13164977583639 
344	 0,171453368032141 
345	 0,136629661017916 
346	 0,063737201547685 
347	-1,65246492774702E-02 
348	 6,54386056462976E-04 
349	 8,39006373818345E-02 
350	 0,105899103773125 
351	 9,79521173981879E-02 
352	 7,33301400272809E-02 
353	 4,46742175769078E-02 
354	 3,34323308818883E-02 
355	 6,24432573716556E-02 
356	 6,85396775376476E-02 
357	 4,57641278337086E-02 
358	 8,92837922200934E-03 
359	-6,09544079657982E-03 
360	 1,26452640448918E-02 
361	 3,55932375415907E-02 
362	 5,66660328764282E-02 
363	 7,36542808977417E-02 
364	 7,49016737919111E-02 
365	 6,62270143880852E-02 
366	 8,02537785718621E-02 
367	 7,50168490627938E-02 
368	 3,26885648976409E-02 
369	 4,84171455632207E-02 
370	 8,73873087855771E-02 
371	 7,27880660958914E-02 
372	 4,42863258516125E-02 
373	 2,41265961985026E-02 
374	 5,59220801824786E-02 
375	 7,52037431138349E-02 
376	 3,88389791326047E-02 
377	 1,63444727417393E-02 
378	 2,08381599085581E-02 
379	 5,03130212289206E-02 
380	 6,49776533478096E-02 
381	 5,80149584793246E-02 
382	 5,50377026970315E-02 
383	 5,02534551276189E-02 
384	 3,73104984267794E-02 
385	 0,026979778482909 
386	 2,49880337264817E-02 
387	 3,97720072944443E-02 
388	 5,47360154944379E-02 
389	 6,28087839285462E-02 
390	 6,41841307994692E-02 
391	 6,07962956166428E-02 
392	 5,50539822839633E-02 
393	 5,49067697691431E-02 
394	 5,70248153018902E-02 
395	 0,045651810687712 
396	 3,49271805783448E-02 
397	 3,36390949716102E-02 
398	 0,037291062206446 
399	 4,31212155853785E-02 
400	 4,90415574281578E-02 
401	 0,043819399204886 
402	 3,16577863146618E-02 
403	 3,78796762020654E-02 
404	 4,92536989371027E-02 
405	 5,56246304929619E-02 
406	 0,053144263524791 
407	 4,25990800050183E-02 
408	 2,47029471166855E-02 
409	 2,04485969596761E-02 
410	 3,22223548674765E-02 
411	 4,03805445213035E-02 
412	 4,13533731069963E-02 
413	 3,33954614426459E-02 
414	 2,91876537480697E-02 
415	 2,91041337132944E-02 
416	 2,59068935898204E-02 
417	 2,85923023159095E-02 
418	 3,75448664783791E-02 
419	 3,36819563769856E-02 
420	 2,48276443555715E-02 
421	 2,30461945775499E-02 
422	 2,35045494038091E-02 
423	 2,47036976884409E-02 
424	 2,54967501533638E-02 
425	 2,48398304786876E-02 
426	 2,26511338938175E-02 
427	 2,36113030507238E-02 
428	 0,026826203596338 
429	 2,97369418852656E-02 
430	 3,13609159802399E-02 
431	 3,16091782386911E-02 
432	 3,24531465039997E-02 
433	 3,16556159835933E-02 
434	 2,76075404678587E-02 
435	 2,81240343334763E-02 
436	 3,12015220662838E-02 
437	 2,77278301510019E-02 
438	 2,60875888484436E-02 
439	 2,87785034547519E-02 
440	 2,96201289127814E-02 
441	 2,84254108611071E-02 
442	 2,56553175603199E-02 
443	 2,71965127040384E-02 
444	 3,22846788414031E-02 
445	 0,033445228200805 
446	 3,35947809089711E-02 
447	 3,41306213995547E-02 
448	 3,07170492899247E-02 
449	 2,68794863978016E-02 
450	 3,02830123736592E-02 
451	 3,11045482014504E-02 
452	 2,78496391522085E-02 
453	 2,84667721030297E-02 
454	 3,02754098456928E-02 
455	 3,04317783005739E-02 
456	 2,85923608426749E-02 
457	 2,60463263452921E-02 
458	 2,63284470174416E-02 
459	 2,64739312607573E-02 
460	 2,56775671415721E-02 
461	 2,72039204057877E-02 
462	 2,94057812252887E-02 
463	 2,98065649327929E-02 
464	 2,89705345531701E-02 
465	 2,75868774471011E-02 
466	 2,73976584637812E-02 
467	 2,76605010981856E-02 
468	 2,78984548568382E-02 
469	 2,86514653885509E-02 
470	 2,93005932342301E-02 
471	 0,028627286714078 
472	 2,70188988738375E-02 
473	 2,54444783942152E-02 
474	 2,79679074478887E-02 
475	 2,93815363598331E-02 
476	 2,48786970950447E-02 
477	 2,62647212635696E-02 
478	 3,14086148422669E-02 
479	 2,76080735101097E-02 
480	 2,45134222832245E-02 
481	 2,62528939256371E-02 
482	 0,027711219851503 
483	 2,83503118570213E-02 
484	 2,82352745572335E-02 
485	 2,76607722033309E-02 
486	 2,69682821225425E-02 
487	 2,70876383283641E-02 
488	 2,65287857931275E-02 
489	 2,43694099785805E-02 
490	 2,34467925081939E-02 
491	 2,33669511767577E-02 
492	 2,16593642727963E-02 
493	 2,25099662051576E-02 
494	 2,63106619831094E-02 
495	 2,71966903180775E-02 
496	 2,62385543611521E-02 
497	 2,51918296824869E-02 
498	 2,45301372303412E-02 
499	 2,45966997650499E-02 
500	 2,58438590848535E-02 
501	 2,68316319082133E-02 
502	 2,65975858821355E-02 
503	 2,44361402193358E-02 
504	 2,26125768738435E-02 
505	 2,53073018454942E-02 
506	 2,64177416042955E-02 
507	 2,49857395002404E-02 
508	 2,54186109696168E-02 
509	 2,64934414356212E-02 
510	 0,026962884327273 
511	 2,73819127778312E-02 
512	 2,78177940416517E-02 
513	 2,84206828660902E-02 
514	 2,82098362291923E-02 
515	 2,68462966436201E-02 
516	 2,49799366130869E-02 
517	 2,38275804211305E-02 
518	 2,48695424131243E-02 
519	 2,64854255114788E-02 
520	 2,78485237486431E-02 
521	 2,81468344887565E-02 
522	 2,74500381412327E-02 
523	 2,60628472789467E-02 
524	 2,65489483351018E-02 
525	 2,77553856777752E-02 
526	 2,58018225573499E-02 
527	 2,55809430347363E-02 
528	 2,79947557785135E-02 
529	 2,83596392999236E-02 
530	 2,74193877632528E-02 
531	 2,64551695285545E-02 
532	 2,67341921381906E-02 
533	 2,78260266285616E-02 
534	 0,027350792755487 
535	 2,65535346758633E-02 
536	 2,62114415291522E-02 
537	 2,62506977471464E-02 
538	 2,65370634495971E-02 
539	 2,68812397378336E-02 
540	 2,67582823279572E-02 
541	 2,62386130905788E-02 
542	 2,64666643647157E-02 
543	 2,70262839031585E-02 
544	 2,74242647138661E-02 
545	 2,71053304611614E-02 
546	 2,64327543564936E-02 
547	 2,67075796435633E-02 
548	 2,72576786866951E-02 
549	 2,76847797033999E-02 
550	 2,76678863669841E-02 
551	 2,73917562896041E-02 
552	 0,027215058154968 
553	 2,68834425570722E-02 
554	 2,65242161675078E-02 
555	 2,69531150983608E-02 
556	 2,70350165188354E-02 
557	 2,59454363818962E-02 
558	 2,58485141145426E-02 
559	 2,63906968198593E-02 
560	 2,56209392400343E-02 
561	 2,51329230825998E-02 
562	 2,54321394145043E-02 
563	 2,55240225232652E-02 
564	 2,53802911114522E-02 
565	 2,50856432077966E-02 
566	 2,50099058773558E-02 
567	 2,51383901677896E-02 
568	 2,49766767151898E-02 
569	 2,49521987920355E-02 
570	 2,53792282371502E-02 
571	 2,62470763392887E-02 
572	 2,71274797924454E-02 
573	 2,70057361199988E-02 
574	 2,78785951597178E-02 
575	 2,97571653289906E-02 
576	 2,87018739567644E-02 
577	 2,74091754996359E-02 
578	 2,91297338872189E-02 
579	 2,99574432625954E-02 
580	 2,96176529543394E-02 
581	 3,01862420237463E-02 
582	 3,05900681574584E-02 
583	 3,03915577754119E-02 
584	 3,11145827708674E-02 
585	 3,20592196347425E-02 
586	 3,16285714605325E-02 
587	 3,16006287776912E-02 
588	 3,23530598238077E-02 
589	 3,29444016119187E-02 
590	 3,35008457955582E-02 
591	 3,41313784910547E-02 
592	 3,39612983354862E-02 
593	 3,33600541072122E-02 
594	 3,38114395601046E-02 
595	 3,41262249797629E-02 
596	 3,38538704921821E-02 
597	 3,39510166388074E-02 
598	 3,40457696398316E-02 
599	 3,34348534828035E-02 
600	 3,30298367875472E-02 
601	 3,30154884382051E-02 
602	 3,29847648714171E-02 
603	 3,30581111087343E-02 
604	 0,033269770180509 
605	 3,28374557247173E-02 
606	 3,20817686878001E-02 
607	 3,20850738557965E-02 
608	 3,22257605227691E-02 
609	 3,22512989126802E-02 
610	 0,032099996989695 
611	 3,18277941616827E-02 
612	 3,15187179853695E-02 
613	 3,10598508014018E-02 
614	 3,05545021722059E-02 
615	 3,03879531088406E-02 
616	 3,02786575577907E-02 
617	 3,00395385807481E-02 
618	 2,96892868871424E-02 
619	 2,94393040476127E-02 
620	 2,97329912578904E-02 
621	 2,97897739533103E-02 
622	 2,95001664360263E-02 
623	 2,96909407605885E-02 
624	 3,00975144196655E-02 
625	 3,03878796260977E-02 
626	 3,03541849087136E-02 
627	 3,00743541830533E-02 
628	 2,98571487240422E-02 
629	 0,02999339252869 
630	 3,05388337237919E-02 
631	 3,06653775351514E-02 
632	 3,04648748749087E-02 
633	 3,02495831827868E-02 
634	 3,01081614062671E-02 
635	 3,01774398969416E-02 
636	 3,07542500436008E-02 
637	 0,031466273357847 
638	 3,19766289274532E-02 
639	 3,23289214545918E-02 
640	 3,25687635428855E-02 
641	 3,27658350418529E-02 
642	 3,31673940635293E-02 
643	 3,37746157041581E-02 
644	 3,38167409610071E-02 
645	 3,39824605336338E-02 
646	 3,52494592965232E-02 
647	 3,52938753826542E-02 
648	 0,034129366697819 
649	 3,39563244146079E-02 
650	 3,39490657223271E-02 
651	 0,033596947670891 
652	 3,36228705758972E-02 
653	 3,35381134499116E-02 
654	 0,032077701856606 
655	 3,11688772198846E-02 
656	 3,12869358293733E-02 
657	 3,12775745386866E-02 
658	 3,08452991664515E-02 
659	 2,97806950723884E-02 
660	 2,85330635487621E-02 
661	 2,74753762349854E-02 
662	 2,72338379166202E-02 
663	 2,72983476390738E-02 
664	 2,72928562194104E-02 
665	 2,66160032089683E-02 
666	 2,58578050817764E-02 
667	 2,60537194655089E-02 
668	 2,60301706765911E-02 
669	 2,55661068929414E-02 
670	 2,51057888265806E-02 
671	 2,50602647532201E-02 
672	 2,56782722973322E-02 
673	 2,59560332339948E-02 
674	 2,58084256494491E-02 
675	 2,54498210773889E-02 
676	 2,53813430789087E-02 
677	 2,55915387171116E-02 
678	 2,46553871834305E-02 
679	 2,38065158943272E-02 
680	 2,46068468855635E-02 
681	 0,025147122846695 
682	 2,52252050637005E-02 
683	 2,57429149421513E-02 
684	 0,026335769373481 
685	 2,67715067769968E-02 
686	 2,69170913282246E-02 
687	 2,71659064255941E-02 
688	 2,82332221844491E-02 
689	 2,93064420378551E-02 
690	 3,03129695691028E-02 
691	 3,19681142886845E-02 
692	 3,42032814878379E-02 
693	 3,69065334747016E-02 
694	 3,96831001971252E-02 
695	 4,27221121194994E-02 
696	 4,65955161774598E-02 
697	 0,051350366975693 
698	 5,70449533612421E-02 
699	 6,36621877905683E-02 
700	 7,08541334567422E-02 
701	 7,81936167412041E-02 
702	 8,65512643653154E-02 
703	 9,57860694050717E-02 
704	 0,104827357744274 
705	 0,114106346874683 
706	 0,12378825978994 
707	 0,132964560050265 
708	 0,141942186693484 
709	 0,151566176132869 
710	 0,160866769887402 
711	 0,169578245874151 
712	 0,178003552390221 
713	 0,186127613468979 
714	 0,193929710760879 
715	 0,20153651383755 
716	 0,208764735258675 
717	 0,215014572008554 
718	 0,221181141615488 
719	 0,227523164075503 
720	 0,233141857937637 
721	 0,23816691726759 
722	 0,242879621160363 
723	 0,247116647365719 
724	 0,250967731697524 
725	 0,254839817158452 
726	 0,258214800743799 
727	 0,260863418351254 
728	 0,263628911949376 
729	 0,266493807432854 
730	 0,269232322687569 
731	 0,271521836997312 
732	 0,273263594853788 
733	 0,274474524535518 
734	 0,275913363255987 
735	 0,27814555951446 
736	 0,279605589906273 
737	 0,280507506236242 
738	 0,282186743797863 
739	 0,28346873824016 
740	 0,284089967838804 
741	 0,285134150215638 
742	 0,286351031282756 
743	 0,287345141504552 
744	 0,287945855022829 
745	 0,288389465565465 
746	 0,289573533096392 
747	 0,290545812748179 
748	 0,290886905843288 
749	 0,291631927190737 
750	 0,292349735130006 
751	 0,292184679314691 
752	 0,292330310540088 
753	 0,293003633902694 
754	 0,293627908317392 
755	 0,29428849944878 
756	 0,295006658588908 
757	 0,295391815547197 
758	 0,295558629141566 
759	 0,295849270974316 
760	 0,296233741031803 
761	 0,29664514550597 
762	 0,29671168938781 
763	 0,296926801755704 
764	 0,29771874745748 
765	 0,298106111084813 
766	 0,298156771942439 
767	 0,298583219373232 
768	 0,298862345313845 
769	 0,298906075092537 
770	 0,299371037329529 
771	 0,300013663904275 
772	 0,300486493506977 
773	 0,301057511900036 
774	 0,301513911934191 
775	 0,301041045485361 
776	 0,300622233565689 
777	 0,300822064685708 
778	 0,301613351987996 
779	 0,302302633759404 
780	 0,301904578975974 
781	 0,301657412352276 
782	 0,301846232916419 
783	 0,30217399450057 
784	 0,302497816690558 
785	 0,302727485741674 
786	 0,303033153639906 
787	 0,303352163331573 
788	 0,303538264228255 
789	 0,30366184071615 
790	 0,303792739595358 
791	 0,304165237249023 
792	 0,304338481316323 
793	 0,304006093429358 
794	 0,3038585266628 
795	 0,303945326830713 
796	 0,304089354481751 
797	 0,304370635977441 
798	 0,30471329472172 
799	 0,304731656271663 
800	 0,304599993564724 
801	 0,304530721801083 
802	 0,304897939111306 
803	 0,305429399824673 
804	 0,305187675058475 
805	 0,305248091405109 
806	 0,305921730244571 
807	 0,306569051003737 
808	 0,307050636896107 
809	 0,307283124460862 
810	 0,307701677671611 
811	 0,30814561236389 
812	 0,307852977830411 
813	 0,307765279193791 
814	 0,308200455639491 
815	 0,308400130844794 
816	 0,308474651939451 
817	 0,308633289949636 
818	 0,30890834200419 
819	 0,30924038278174 
820	 0,309390732113511 
821	 0,309688348919545 
822	 0,310218903062312 
823	 0,310498248816892 
824	 0,310505286206759 
825	 0,310293384161391 
826	 0,310527250380803 
827	 0,311182620862814 
828	 0,311683656226214 
829	 0,311792112427137 
830	 0,311482431608279 
831	 0,311615507505639 
832	 0,311909279389859 
833	 0,311848772148251 
834	 0,311869542729146 
835	 0,312022884956597 
836	 0,312102135529375 
837	 0,312303442760892 
838	 0,312660733502448 
839	 0,312606160329222 
840	 0,312584163534877 
841	 0,313291221719062 
842	 0,313679582716697 
843	 0,31356650094116 
844	 0,313219232022853 
845	 0,313251496268431 
846	 0,313953638035336 
847	 0,314721953962865 
848	 0,315075628675722 
849	 0,314484803156274 
850	 0,314224976891681 
851	 0,314436683246997 
852	 0,314338853509982 
853	 0,314357459494896 
854	 0,314662022511228 
855	 0,3147877539104 
856	 0,314826683746545 
857	 0,314975604998108 
858	 0,31524644508328 
859	 0,315477410755251 
860	 0,315115705081235 
861	 0,314893660785888 
862	 0,31513585026402 
863	 0,315151011279423 
864	 0,315226182527918 
865	 0,315804932119938 
866	 0,315882427317593 
867	 0,31554857589875 
868	 0,315852158247385 
869	 0,316063694888802 
870	 0,316009588085867 
871	 0,316856976420808 
872	 0,317731406490203 
873	 0,317510242830734 
874	 0,317566223756869 
875	 0,317954649177774 
876	 0,317904886639016 
877	 0,317950184470383 
878	 0,318292825567093 
879	 0,318780607033966 
880	 0,319051325966575 
881	 0,318786311765057 
882	 0,318998498652918 
883	 0,319761730988949 
884	 0,320838834772171 
885	 0,321137923393852 
886	 0,320455526522679 
887	 0,320102305621633 
888	 0,320347580798323 
889	 0,321262344874337 
890	 0,321644907937113 
891	 0,321282696424497 
892	 0,320167662197293 
893	 0,31967075081435 
894	 0,32027197688421 
895	 0,321646168382067 
896	 0,32276193644804 
897	 0,322809988899401 
898	 0,32215679836629 
899	 0,321535913109809 
900	 0,322090206921522 
901	 0,322826723643705 
902	 0,323319184398489 
903	 0,323186666450165 
904	 0,323023641219269 
905	 0,323178742253306 
906	 0,32320481862542 
907	 0,323026431705017 
908	 0,322615821569789 
909	 0,323316173978923 
910	 0,324591179161729 
911	 0,32366100762284 
912	 0,322907374804287 
913	 0,323308719617444 
914	 0,323318134059634 
915	 0,323339060447571 
916	 0,323912195248122 
917	 0,324207116655618 
918	 0,324207858539778 
919	 0,32438034341128 
920	 0,324119740267285 
921	 0,323454758691255 
922	 0,323469856139507 
923	 0,323770148136774 
924	 0,323886949502197 
925	 0,322992147514965 
926	 0,321790332897994 
927	 0,32178776773312 
928	 0,32171952832448 
929	 0,32125288770974 
930	 0,320576389379582 
931	 0,319807926950265 
932	 0,319112795594952 
933	 0,319092581200894 
934	 0,318880107627311 
935	 0,317365811811639 
936	 0,317059555905617 
937	 0,31772910376491 
938	 0,317210375065476 
939	 0,315835678620215 
940	 0,314144565246247 
941	 0,314370933922373 
942	 0,314745704582423 
943	 0,313684298282883 
944	 0,313082673450419 
945	 0,312381300695845 
946	 0,309961345129135 
947	 0,308620422215099 
948	 0,308518651089292 
949	 0,306982545562555 
950	 0,30582680523089 
951	 0,305698899763603 
952	 0,303676664341626 
953	 0,301491169530079 
954	 0,301435019858329 
955	 0,299602694911619 
956	 0,296694937871335 
957	 0,296614897426496 
958	 0,29695992113011 
959	 0,296707534952509 
960	 0,295164599327106 
961	 0,293776592536026 
962	 0,293517617686475 
963	 0,292431063502814 
964	 0,291658212363693 
965	 0,293264304967235 
966	 0,292879123457922 
967	 0,290758772099838 
968	 0,291351204113251 
969	 0,291465439022236 
970	 0,29029317006891 
971	 0,290959554278187 
972	 0,292394220826879 
973	 0,293252810496326 
974	 0,291729947717532 
975	 0,289836927369846 
976	 0,291677125892131 
977	 0,292412330616232 
978	 0,291383009337386 
979	 0,291035178444341 
980	 0,291802312561558 
981	 0,293458935002955 
982	 0,293161647255838 
983	 0,292376658024108 
984	 0,292817695692969 
985	 0,293686357382532 
986	 0,294726323381083 
987	 0,295829527488318 
988	 0,294863140945261 
989	 0,292502413664186 
990	 0,293386299671889 
991	 0,294824531235482 
992	 0,295615210507629 
993	 0,297709850729413 
994	 0,300014524929735 
995	 0,301155068423289 
996	 0,300221183555352 
997	 0,298691881652595 
998	 0,299651891263568 
999	 0,301321061213399 
1000	 0,303205791998394 
1001	 0,305843116355041 
1002	 0,306375415129346 
1003	 0,304255706543055 
1004	 0,305393373214966 
1005	 0,307345199537886 
1006	 0,307294826986949 
1007	 0,306080802252259 
1008	 0,305632300033115 
1009	 0,308984507301102 
1010	 0,312535147115031 
1011	 0,314056300447441 
1012	 0,309651686724317 
1013	 0,308443149834722 
1014	 0,313038429446307 
1015	 0,313454952937982 
1016	 0,31287236571314 
1017	 0,314397784993099 
1018	 0,317243880217862 
1019	 0,318931768556174 
1020	 0,316087271378068 
1021	 0,317047718938295 
1022	 0,321199474606032 
1023	 0,321156128846382 
1024	 0,320941469635121 
1025	 0,321457827571125 
1026	 0,320399723308255 
1027	 0,321100325163176 
1028	 0,325178886340791 
1029	 0,327745758226119 
1030	 0,328120351528103 
1031	 0,326595157450879 
1032	 0,328275156184692 
1033	 0,331546808328948 
1034	 0,33103930729902 
1035	 0,330482823006649 
1036	 0,330801983366269 
1037	 0,331903477447219 
1038	 0,330089141092957 
1039	 0,325369282134489 
1040	 0,326950105171142 
1041	 0,329995630311749 
1042	 0,330082735749572 
1043	 0,328759430153857 
1044	 0,328276173525626 
1045	 0,331442475893034 
1046	 0,338930383112368 
1047	 0,345813125333298 
1048	 0,341530651873577 
1049	 0,334693009762561 
1050	 0,330049093553961 
1051	 0,333114071484129 
1052	 0,334902930697852 
1053	 0,332253725767757 
1054	 0,335741638822678 
1055	 0,34065094281505 
1056	 0,342133115981009 
1057	 0,337595443478311 
1058	 0,337577030619567 
1059	 0,355523376030685 
1060	 0,352664509778768 
1061	 0,337125195317026 
1062	 0,346990431976637 
1063	 0,352463473119188 
1064	 0,348089793354427 
1065	 0,347557236394483 
1066	 0,347711103018368 
1067	 0,346671348715928 
1068	 0,341908612715567 
1069	 0,333818010593766 
1070	 0,325693908697233 
1071	 0,334634079950719 
1072	 0,350297566713878 
1073	 0,357471125843278 
1074	 0,341727966634389 
1075	 0,320133604494499 
