Wavelength	AURAY00600.asd
325	 0,171228548671994 
326	 0,336925528003595 
327	 0,358321157624822 
328	 0,17554582709764 
329	 0,251552556927087 
330	 0,334090239455559 
331	 0,263002899422093 
332	 0,28873291166646 
333	 0,37397567215158 
334	 0,343013334049187 
335	 0,30463884679436 
336	 0,275596554715131 
337	 0,15734121169398 
338	 6,27740501930622E-02 
339	 0,102959242501532 
340	 0,18336713653587 
341	 0,238998558487829 
342	 0,189778915950273 
343	 0,145901848859442 
344	 0,144583571158239 
345	 0,141830907035712 
346	 0,116154443391646 
347	 4,94437816607697E-02 
348	 5,92454208631216E-02 
349	 0,124175189945984 
350	 0,136238187651769 
351	 0,115725988850897 
352	 0,075588147809546 
353	 5,16424621622108E-02 
354	 5,48934115592195E-02 
355	 9,02896446132209E-02 
356	 9,61338856791189E-02 
357	 7,17330048284553E-02 
358	 4,63956848857986E-02 
359	 3,89951263269578E-02 
360	 5,57653428154294E-02 
361	 8,27497846208222E-02 
362	 0,105733496966449 
363	 0,110251692171784 
364	 0,086004713595486 
365	 5,05740954567066E-02 
366	 7,32922860920581E-02 
367	 0,088649129665985 
368	 6,15930978754712E-02 
369	 7,81651329177919E-02 
370	 0,112083452720998 
371	 0,103972442717319 
372	 0,076034926035582 
373	 4,85866319405465E-02 
374	 7,76225569902028E-02 
375	 0,096941245487606 
376	 6,25239206418287E-02 
377	 5,50013344949314E-02 
378	 7,43303874853622E-02 
379	 0,085809788400509 
380	 8,93000250488695E-02 
381	 8,64045717250182E-02 
382	 0,088754753912996 
383	 8,60450929026776E-02 
384	 6,94605766538439E-02 
385	 6,80080107777068E-02 
386	 7,94076857046529E-02 
387	 8,29019933005708E-02 
388	 0,088167838812973 
389	 9,57834756738241E-02 
390	 9,09440021032074E-02 
391	 7,83043393156433E-02 
392	 6,48746468504558E-02 
393	 6,68807373111259E-02 
394	 0,078531993427489 
395	 7,45258187641451E-02 
396	 0,06402575397444 
397	 5,45063045497013E-02 
398	 5,77462907341527E-02 
399	 6,30682061421893E-02 
400	 0,052863385925826 
401	 5,67150906471583E-02 
402	 7,27565330545164E-02 
403	 0,066176325883991 
404	 5,53994085299765E-02 
405	 5,34666341726126E-02 
406	 5,91229772015685E-02 
407	 6,30100248390826E-02 
408	 4,34829383008838E-02 
409	 4,55914089255203E-02 
410	 7,09070098930155E-02 
411	 6,44296138372092E-02 
412	 5,09648183222223E-02 
413	 5,47245837096139E-02 
414	 4,71594474348062E-02 
415	 3,51696463222904E-02 
416	 0,048349513593416 
417	 0,059579480865058 
418	 5,80679085494866E-02 
419	 5,28428299177865E-02 
420	 4,66643911707097E-02 
421	 4,19365859867491E-02 
422	 4,37509048250678E-02 
423	 4,96022300337873E-02 
424	 4,78535434837847E-02 
425	 4,56812187167443E-02 
426	 4,70454560597264E-02 
427	 4,68372230192663E-02 
428	 4,59278026087433E-02 
429	 4,70830200362687E-02 
430	 4,74075936888424E-02 
431	 4,67814837062355E-02 
432	 4,93638238376562E-02 
433	 4,85798929808501E-02 
434	 3,94828624550249E-02 
435	 0,03946999720988 
436	 4,61251379998299E-02 
437	 4,54381201010414E-02 
438	 4,26242482260224E-02 
439	 4,04347521408249E-02 
440	 4,35342810889052E-02 
441	 0,047163759397881 
442	 4,49422799798325E-02 
443	 4,31403760841915E-02 
444	 4,32296109856287E-02 
445	 4,44312042898624E-02 
446	 4,65040641764537E-02 
447	 4,89822535500227E-02 
448	 4,99486975589589E-02 
449	 4,96364175881136E-02 
450	 4,89869162630243E-02 
451	 4,84241929738902E-02 
452	 4,81748408928442E-02 
453	 4,79463103897064E-02 
454	 0,048431565471317 
455	 5,01940684340849E-02 
456	 5,20052183996908E-02 
457	 5,29489359888273E-02 
458	 5,14925129389584E-02 
459	 4,97046630763917E-02 
460	 4,86049761206587E-02 
461	 4,79090590472473E-02 
462	 4,75902310581139E-02 
463	 0,047603982826202 
464	 4,75898336793594E-02 
465	 4,80719166864435E-02 
466	 5,17397755916709E-02 
467	 5,32697845190187E-02 
468	 4,96750406735277E-02 
469	 4,83758692243337E-02 
470	 4,91532784913979E-02 
471	 4,93820071061633E-02 
472	 4,89090284091118E-02 
473	 4,81620196614362E-02 
474	 5,02463756278674E-02 
475	 0,051301354217423 
476	 4,77684374902903E-02 
477	 4,83262764854228E-02 
478	 5,17250518469877E-02 
479	 4,92877543502911E-02 
480	 4,81142797863196E-02 
481	 5,07401082296126E-02 
482	 5,01477695070456E-02 
483	 4,85776321666229E-02 
484	 5,04009871559188E-02 
485	 5,06909840854553E-02 
486	 4,89864343383245E-02 
487	 4,89209129503416E-02 
488	 0,048276474875025 
489	 4,57114867738715E-02 
490	 4,62257146126385E-02 
491	 4,79044691024747E-02 
492	 4,41393616431611E-02 
493	 4,26282894674118E-02 
494	 4,51356910263582E-02 
495	 4,54752160945925E-02 
496	 4,48693387219594E-02 
497	 4,52118871049824E-02 
498	 4,55763927160255E-02 
499	 4,62409375680841E-02 
500	 4,89052083958869E-02 
501	 5,02809276366064E-02 
502	 4,86272477510529E-02 
503	 4,58417283302159E-02 
504	 4,40085490501026E-02 
505	 4,61546046170178E-02 
506	 4,87753344698171E-02 
507	 5,03873480248835E-02 
508	 4,99345327096937E-02 
509	 4,92889774818456E-02 
510	 5,00983605252201E-02 
511	 5,03757685207508E-02 
512	 5,02408143766866E-02 
513	 5,11473949456568E-02 
514	 0,051129043281665 
515	 4,97730692503772E-02 
516	 5,03575843682157E-02 
517	 5,12492194302726E-02 
518	 4,96782037801115E-02 
519	 5,01884208778261E-02 
520	 5,27944280515165E-02 
521	 5,33517962610159E-02 
522	 5,30959792698827E-02 
523	 5,29361752541514E-02 
524	 5,22213601195041E-02 
525	 5,11909150006152E-02 
526	 5,03332491679259E-02 
527	 5,03522828470475E-02 
528	 0,051298971412388 
529	 5,20405435032319E-02 
530	 5,20173139579364E-02 
531	 5,07511174918627E-02 
532	 0,050533521629116 
533	 5,13419496436851E-02 
534	 5,12877728536389E-02 
535	 0,051135216597785 
536	 0,051300250791812 
537	 5,13590176125194E-02 
538	 5,14600725865472E-02 
539	 5,20704555099046E-02 
540	 5,17529607508745E-02 
541	 5,05547204833795E-02 
542	 5,08762985711655E-02 
543	 5,15111592572959E-02 
544	 5,11882035631442E-02 
545	 5,06606620466893E-02 
546	 5,01754763121113E-02 
547	 4,98118795487944E-02 
548	 5,03684373366867E-02 
549	 5,19198917423453E-02 
550	 5,20741362608489E-02 
551	 5,15766225182614E-02 
552	 5,20568807125406E-02 
553	 5,18432643202145E-02 
554	 5,10487157642441E-02 
555	 5,20837801765404E-02 
556	 5,28017861359392E-02 
557	 5,15219442927638E-02 
558	 0,050956023345118 
559	 5,09072677872425E-02 
560	 4,94701910353114E-02 
561	 4,86569499985927E-02 
562	 4,90620133962777E-02 
563	 4,88855409932545E-02 
564	 4,86857550108655E-02 
565	 4,94111814999737E-02 
566	 4,95374146552732E-02 
567	 0,048949553772343 
568	 4,86075938328349E-02 
569	 4,87215970784114E-02 
570	 4,94440793156101E-02 
571	 5,06933289664403E-02 
572	 5,18924911805682E-02 
573	 5,17602819315685E-02 
574	 5,25835230196083E-02 
575	 5,46669167006519E-02 
576	 5,50152479126026E-02 
577	 5,49195208484658E-02 
578	 5,60373664430058E-02 
579	 5,69288533223368E-02 
580	 5,76385341180291E-02 
581	 5,93518868860565E-02 
582	 6,08371017277549E-02 
583	 0,061426050371263 
584	 6,18624897167985E-02 
585	 6,23211196109265E-02 
586	 6,29010246161814E-02 
587	 6,37048756007841E-02 
588	 6,46313523215448E-02 
589	 6,50817344547681E-02 
590	 6,55390302308457E-02 
591	 6,64258660681045E-02 
592	 6,65597967639711E-02 
593	 6,62995958107281E-02 
594	 6,73451914990076E-02 
595	 6,79710465360678E-02 
596	 0,067504577512799 
597	 6,72943900879497E-02 
598	 6,72351401028241E-02 
599	 6,69468544426728E-02 
600	 6,66369529418332E-02 
601	 6,62756145369726E-02 
602	 6,54402641797526E-02 
603	 6,50084153424207E-02 
604	 6,55321388863418E-02 
605	 6,48824160610037E-02 
606	 6,35765611242134E-02 
607	 6,37924686529495E-02 
608	 6,40887039592633E-02 
609	 6,38956245838075E-02 
610	 6,31763233244288E-02 
611	 6,24331638471312E-02 
612	 6,22819398488412E-02 
613	 6,19148529069249E-02 
614	 6,12478441370616E-02 
615	 6,07098048888799E-02 
616	 6,00710840230949E-02 
617	 5,92758339223402E-02 
618	 5,90992556698481E-02 
619	 5,92605271745185E-02 
620	 5,89693430774352E-02 
621	 0,058875375338301 
622	 5,91476702793046E-02 
623	 5,95715032434837E-02 
624	 5,99863883786409E-02 
625	 6,02258797041707E-02 
626	 5,98304344801728E-02 
627	 0,059165678116716 
628	 5,94746810164792E-02 
629	 6,01705320200555E-02 
630	 6,08591349502667E-02 
631	 6,09992761842258E-02 
632	 6,10088516305088E-02 
633	 6,16946266453588E-02 
634	 6,20032027096177E-02 
635	 6,19724310891301E-02 
636	 6,29982790114379E-02 
637	 6,43715540375475E-02 
638	 6,53950149709467E-02 
639	 6,55584072922039E-02 
640	 0,065333548128665 
641	 6,61876273359824E-02 
642	 6,68954259501018E-02 
643	 0,06708239129962 
644	 6,76055942034374E-02 
645	 6,83216587099865E-02 
646	 6,89517360914296E-02 
647	 0,069159825238534 
648	 6,89324140457683E-02 
649	 6,85858519297703E-02 
650	 6,81903099878407E-02 
651	 6,78050441958939E-02 
652	 6,75477433159358E-02 
653	 6,70154337590594E-02 
654	 0,065295962938428 
655	 0,063930843584697 
656	 6,33708729085025E-02 
657	 6,30072965234335E-02 
658	 6,21249256687391E-02 
659	 6,00806862312894E-02 
660	 5,82544043346226E-02 
661	 5,69331798337997E-02 
662	 5,59519109148805E-02 
663	 5,49101894816702E-02 
664	 0,053665036312099 
665	 5,29499081523047E-02 
666	 0,052327874378727 
667	 5,09489767555701E-02 
668	 5,04854633910901E-02 
669	 5,08777656225545E-02 
670	 4,98648510822259E-02 
671	 4,90079160705847E-02 
672	 4,94705313158406E-02 
673	 4,89546406550584E-02 
674	 0,047924992619334 
675	 4,84410696571996E-02 
676	 0,049160647002783 
677	 4,94765548222209E-02 
678	 4,88967023826007E-02 
679	 4,83249440958783E-02 
680	 4,88651769277784E-02 
681	 4,94622921050212E-02 
682	 4,99617327296342E-02 
683	 5,06775967209313E-02 
684	 5,16079773809419E-02 
685	 5,27189661587011E-02 
686	 5,36640207456488E-02 
687	 0,054727878132882 
688	 5,64339601361053E-02 
689	 0,05880483885695 
690	 6,18618358583771E-02 
691	 6,54619732189356E-02 
692	 6,97168568784602E-02 
693	 7,47188246951254E-02 
694	 8,01621109232615E-02 
695	 8,61664534715649E-02 
696	 9,30454971845043E-02 
697	 0,101148434429334 
698	 0,110503942808259 
699	 0,120171002633803 
700	 0,130359307788731 
701	 0,141469647274091 
702	 0,152662679101017 
703	 0,163886673073661 
704	 0,175938279978971 
705	 0,187984868079475 
706	 0,199489411533727 
707	 0,210905588275414 
708	 0,222129593817467 
709	 0,232871127188033 
710	 0,243297892904976 
711	 0,253403065965513 
712	 0,262843414025173 
713	 0,272022845147984 
714	 0,281280281915305 
715	 0,289826769442938 
716	 0,297601530330164 
717	 0,30482686276549 
718	 0,311706690902499 
719	 0,318364001350058 
720	 0,324907495251426 
721	 0,330836995433023 
722	 0,335528125459687 
723	 0,340122730148876 
724	 0,34469152879796 
725	 0,348399100753657 
726	 0,351765195223558 
727	 0,355121653174457 
728	 0,358269866250735 
729	 0,361257425521969 
730	 0,364247241371415 
731	 0,366643008157261 
732	 0,368397517655977 
733	 0,370140510175411 
734	 0,371790825302689 
735	 0,373284201457271 
736	 0,375019303346649 
737	 0,376704142456419 
738	 0,377383053247094 
739	 0,378258649144181 
740	 0,379668787888869 
741	 0,380688054264744 
742	 0,381460425326322 
743	 0,382236104923521 
744	 0,382715820963508 
745	 0,383225907728983 
746	 0,385033298694541 
747	 0,386321061547729 
748	 0,386241729333209 
749	 0,386449003451837 
750	 0,386847282671237 
751	 0,386955045886522 
752	 0,387445735092553 
753	 0,388235728129522 
754	 0,388276840650524 
755	 0,388372653841548 
756	 0,389081984846547 
757	 0,389764218964869 
758	 0,39025993878079 
759	 0,390469149869825 
760	 0,390565906379918 
761	 0,390692866207115 
762	 0,391173518941005 
763	 0,391575905110922 
764	 0,39151896905584 
765	 0,391805641753167 
766	 0,392339739931099 
767	 0,392491135383726 
768	 0,392416072816898 
769	 0,392328955577135 
770	 0,393153299573676 
771	 0,393950599023813 
772	 0,393567738782297 
773	 0,393638125390838 
774	 0,394195926589176 
775	 0,3941578347184 
776	 0,394020636128336 
777	 0,394040699369416 
778	 0,394150425043223 
779	 0,394272622822232 
780	 0,394302978987668 
781	 0,394275475487787 
782	 0,394248230081701 
783	 0,394357195979842 
784	 0,394639792235927 
785	 0,395036878666232 
786	 0,394852564220859 
787	 0,394460339278583 
788	 0,39470634813888 
789	 0,394831381329815 
790	 0,394709047397467 
791	 0,394811185364593 
792	 0,394870640427449 
793	 0,394679722874298 
794	 0,394499927910099 
795	 0,394336077112246 
796	 0,394085840671054 
797	 0,393915327417741 
798	 0,393881776707884 
799	 0,393864758314389 
800	 0,394195689623545 
801	 0,395096765616496 
802	 0,395193038893247 
803	 0,394666390310709 
804	 0,394631736229481 
805	 0,394794544853063 
806	 0,395105934956088 
807	 0,395686456343506 
808	 0,396208023433666 
809	 0,396336482129014 
810	 0,396616941925264 
811	 0,396922939100029 
812	 0,396521415955241 
813	 0,396377183769906 
814	 0,396812125662201 
815	 0,397026617482603 
816	 0,397080747332129 
817	 0,397135703007531 
818	 0,397422650175752 
819	 0,397827197915895 
820	 0,39784954097036 
821	 0,397783071668437 
822	 0,397786800075762 
823	 0,397957972153817 
824	 0,398001195981249 
825	 0,39754277575697 
826	 0,397668446269256 
827	 0,398383150770724 
828	 0,398879400315383 
829	 0,399051746887408 
830	 0,398896098249381 
831	 0,398928752948536 
832	 0,399200287317708 
833	 0,399683761153692 
834	 0,399728722127524 
835	 0,399378539420347 
836	 0,399329776243199 
837	 0,399484732592543 
838	 0,399778626282743 
839	 0,400082425617118 
840	 0,400305272901207 
841	 0,400358033777938 
842	 0,400079360551104 
843	 0,399651596767244 
844	 0,399723918467553 
845	 0,400051530830136 
846	 0,400440261928859 
847	 0,400627597462008 
848	 0,400494548689544 
849	 0,39993937675504 
850	 0,399986297331267 
851	 0,400515162113413 
852	 0,400163702825183 
853	 0,399915292327905 
854	 0,400225573344565 
855	 0,400331108281605 
856	 0,400228237327889 
857	 0,400032095071475 
858	 0,400051411478781 
859	 0,400255454057192 
860	 0,400246569656191 
861	 0,400301822357649 
862	 0,400498851073794 
863	 0,400349143099015 
864	 0,400195862269854 
865	 0,400534124214668 
866	 0,4007990819641 
867	 0,400891580042727 
868	 0,400942066661627 
869	 0,401008676588076 
870	 0,401142579609583 
871	 0,401390922256683 
872	 0,40173721695758 
873	 0,402141640717462 
874	 0,402062818720946 
875	 0,401781222395946 
876	 0,402521555840939 
877	 0,402833560340132 
878	 0,402311676461747 
879	 0,402462574918636 
880	 0,402765480428823 
881	 0,402576460396642 
882	 0,402740909926463 
883	 0,40338220962914 
884	 0,404552523993455 
885	 0,404780370850135 
886	 0,403849005177954 
887	 0,40372196031912 
888	 0,404318093104533 
889	 0,405320132455575 
890	 0,405299819938873 
891	 0,404542443458093 
892	 0,404239343463642 
893	 0,404373740923927 
894	 0,404844325656451 
895	 0,405054617427189 
896	 0,405033034568982 
897	 0,404873485282938 
898	 0,405056357519226 
899	 0,405458063478966 
900	 0,405694996052683 
901	 0,40625336584354 
902	 0,407019039947066 
903	 0,407201660437479 
904	 0,40682972103701 
905	 0,406071798112066 
906	 0,405917604045846 
907	 0,40604044856315 
908	 0,405786625501265 
909	 0,405995889391369 
910	 0,406561417175847 
911	 0,40661284029897 
912	 0,406166599524425 
913	 0,40548160359402 
914	 0,406051476145959 
915	 0,406806400811073 
916	 0,406468267127823 
917	 0,406559002896299 
918	 0,406834781540014 
919	 0,405856252022611 
920	 0,405275988020677 
921	 0,405484198144238 
922	 0,405222707719166 
923	 0,405318204128336 
924	 0,406264095434568 
925	 0,405505946016322 
926	 0,404050006930064 
927	 0,404461466333584 
928	 0,404335538772877 
929	 0,403236059578639 
930	 0,402009419687781 
931	 0,401608565355553 
932	 0,402312111937212 
933	 0,40182510218581 
934	 0,400880334169286 
935	 0,400733856261554 
936	 0,400228108568227 
937	 0,399404165900347 
938	 0,399124798644153 
939	 0,398523221852209 
940	 0,397520354973215 
941	 0,397495118485647 
942	 0,397422783974637 
943	 0,396400868639471 
944	 0,395537746832694 
945	 0,39492190475305 
946	 0,39442735779032 
947	 0,392969294220161 
948	 0,390689092092138 
949	 0,389429706822988 
950	 0,387746745656871 
951	 0,385231186208175 
952	 0,38480179028133 
953	 0,385395243859893 
954	 0,385300421091921 
955	 0,383645893657335 
956	 0,381354389736345 
957	 0,381464365208009 
958	 0,380927863113982 
959	 0,379247845604412 
960	 0,379374515613341 
961	 0,378845357193744 
962	 0,376261082137308 
963	 0,377043726035139 
964	 0,378769569368175 
965	 0,376694204178665 
966	 0,375409201640756 
967	 0,3755179597034 
968	 0,375170437091102 
969	 0,375269729391205 
970	 0,375840824504689 
971	 0,375105753639875 
972	 0,374537010988956 
973	 0,375299954387521 
974	 0,373701418818126 
975	 0,371875428425173 
976	 0,374667872750925 
977	 0,375525219036723 
978	 0,373777022493157 
979	 0,373615820928349 
980	 0,374581233445725 
981	 0,376175349229241 
982	 0,376737348043228 
983	 0,376456856675846 
984	 0,375808303149344 
985	 0,376119478326103 
986	 0,377082007328481 
987	 0,377613618865567 
988	 0,377368616359035 
989	 0,376459950017333 
990	 0,375520860125491 
991	 0,376056771458957 
992	 0,378600107303346 
993	 0,381202030328569 
994	 0,383210590818809 
995	 0,3841014513567 
996	 0,383377339616554 
997	 0,382580493558264 
998	 0,3848392050143 
999	 0,384930244627731 
1000	 0,383061284689012 
1001	 0,385776004579392 
1002	 0,386799968054981 
1003	 0,384368400668742 
1004	 0,388139454476486 
1005	 0,391524057608883 
1006	 0,388035083042227 
1007	 0,386556378483366 
1008	 0,387768049077551 
1009	 0,390067731289395 
1010	 0,390623461402226 
1011	 0,389218628944526 
1012	 0,388009103830802 
1013	 0,388400441270579 
1014	 0,390340528030983 
1015	 0,38924845303614 
1016	 0,389816460386114 
1017	 0,395203473208518 
1018	 0,395698122939454 
1019	 0,393790687585913 
1020	 0,39524176656146 
1021	 0,398652631265457 
1022	 0,401302780143026 
1023	 0,396288761275001 
1024	 0,394383861907497 
1025	 0,398248849141172 
1026	 0,400820416390506 
1027	 0,402843686884168 
1028	 0,404372953146992 
1029	 0,402492739790074 
1030	 0,399408860187233 
1031	 0,398309426392698 
1032	 0,403868481800044 
1033	 0,411295720076168 
1034	 0,409267810288242 
1035	 0,407615373487583 
1036	 0,408940000303978 
1037	 0,412657907032004 
1038	 0,411909358727674 
1039	 0,405768489883163 
1040	 0,407163930395826 
1041	 0,412909120537698 
1042	 0,418360607240208 
1043	 0,413764706371231 
1044	 0,407792835425694 
1045	 0,413606456316761 
1046	 0,417634286691907 
1047	 0,416820383835391 
1048	 0,411403525526074 
1049	 0,410118407513994 
1050	 0,413424296828954 
1051	 0,410707057092713 
1052	 0,409579680863912 
1053	 0,412580072429725 
1054	 0,41028244578403 
1055	 0,410876913288576 
1056	 0,419864171065948 
1057	 0,418870343733307 
1058	 0,414160726593981 
1059	 0,417974108568423 
1060	 0,423268261853566 
1061	 0,425571393598941 
1062	 0,418167277585257 
1063	 0,4152049321846 
1064	 0,418857377155574 
1065	 0,419031156391655 
1066	 0,421094205962221 
1067	 0,425627088000722 
1068	 0,424329951097716 
1069	 0,415947114028492 
1070	 0,403805163101148 
1071	 0,411625617564751 
1072	 0,426808302517804 
1073	 0,431165527589904 
1074	 0,420636216434843 
1075	 0,407386405501744 
