Wavelength	AURAY00435.asd
325	 0,121397102693044 
326	 0,166183259120062 
327	 9,60789357149108E-02 
328	-8,46413136215506E-02 
329	 5,28584937003246E-02 
330	 0,2357980412008 
331	 0,279198920924492 
332	 0,232335611777805 
333	 0,137740713323159 
334	 9,49355923623548E-02 
335	 0,110727946780616 
336	 0,154959114706736 
337	 0,112130404822064 
338	 5,33562286330447E-02 
339	 4,95516162039958E-02 
340	 6,90133871934153E-02 
341	 0,085044018764355 
342	 5,90229816090956E-02 
343	 2,23214568167122E-02 
344	-3,27551157524123E-03 
345	 2,51370745044273E-02 
346	 4,08866036270926E-02 
347	-1,32952373165975E-02 
348	-6,57517090225956E-03 
349	 4,93559364051355E-02 
350	 6,33281055648694E-02 
351	 4,96263121482644E-02 
352	 1,77755300361233E-02 
353	-4,44245037244207E-03 
354	-7,8882089220933E-03 
355	 1,34537647604585E-02 
356	 0,031078989074378 
357	 3,52533877065545E-02 
358	 8,22672916711515E-03 
359	-1,43320056577736E-02 
360	-1,53250673654774E-02 
361	 3,19292541342951E-03 
362	 3,17356057594248E-02 
363	 5,92340585154612E-02 
364	 6,17276399220102E-02 
365	 4,35343465195145E-02 
366	 3,97969982555362E-02 
367	 3,99026684932483E-02 
368	 3,81002388535866E-02 
369	 4,59663897812648E-02 
370	 5,48155448192033E-02 
371	 0,049379676700188 
372	 3,76544802616586E-02 
373	 0,027750482125873 
374	 4,03129251077512E-02 
375	 5,45138204742549E-02 
376	 5,49525568282066E-02 
377	 3,66205552506081E-02 
378	 2,09239656903324E-02 
379	 5,87645523539886E-02 
380	 6,96306217999264E-02 
381	 4,18888171491244E-02 
382	 3,29347291605795E-02 
383	 3,49901971111865E-02 
384	 3,67210595710606E-02 
385	 4,18131819758981E-02 
386	 4,99356384142287E-02 
387	 6,16009349450162E-02 
388	 6,27181586167189E-02 
389	 0,051876982920424 
390	 5,34368036255289E-02 
391	 5,45310798742369E-02 
392	 3,80054042038539E-02 
393	 0,040105854321888 
394	 5,40764247114822E-02 
395	 3,69683430726467E-02 
396	 0,023662629148875 
397	 0,03307075841556 
398	 4,84019168550847E-02 
399	 5,74306603269857E-02 
400	 4,60365108825256E-02 
401	 3,91376861624745E-02 
402	 4,08278098387636E-02 
403	 0,039220771020872 
404	 3,67240330126261E-02 
405	 0,035202644053212 
406	 3,59056816761132E-02 
407	 3,71130865963136E-02 
408	 0,034902373317461 
409	 3,34581941927809E-02 
410	 3,39289070616351E-02 
411	 3,58562723538153E-02 
412	 3,57974560488078E-02 
413	 3,08335016739775E-02 
414	 2,47320492080261E-02 
415	 0,021191959737347 
416	 2,66690887117716E-02 
417	 3,34336804245192E-02 
418	 3,72076298598309E-02 
419	 3,53707082808272E-02 
420	 3,12177332349505E-02 
421	 2,91478306658547E-02 
422	 3,13194578730953E-02 
423	 3,55376219437495E-02 
424	 3,34725335231407E-02 
425	 2,93454045350765E-02 
426	 2,63209655103551E-02 
427	 2,81096354318784E-02 
428	 3,25181270674641E-02 
429	 3,49842105032145E-02 
430	 3,57081735181903E-02 
431	 3,52702648383457E-02 
432	 3,70119993773197E-02 
433	 3,70698498987345E-02 
434	 0,03232457131127 
435	 0,029734428580429 
436	 3,03064911905078E-02 
437	 3,31536182582902E-02 
438	 3,50513648860168E-02 
439	 3,48980392706479E-02 
440	 3,62654962896308E-02 
441	 3,68236014493841E-02 
442	 3,33124984326508E-02 
443	 3,29265749439081E-02 
444	 3,59556354903376E-02 
445	 3,72234715218476E-02 
446	 3,76584712520985E-02 
447	 3,77104670555475E-02 
448	 3,66092329582816E-02 
449	 3,50398789505494E-02 
450	 0,034217248988404 
451	 3,50398760545568E-02 
452	 3,66583481806906E-02 
453	 3,36196226316655E-02 
454	 3,15303703500701E-02 
455	 3,55107102975899E-02 
456	 3,98350526671821E-02 
457	 4,23739001162864E-02 
458	 4,12470798089786E-02 
459	 3,81481661452416E-02 
460	 3,45743548224534E-02 
461	 3,35403059359724E-02 
462	 3,52436603759475E-02 
463	 3,94908759445744E-02 
464	 3,94287148365312E-02 
465	 3,54602377370851E-02 
466	 0,035492132244295 
467	 3,67782100942347E-02 
468	 3,72929015264038E-02 
469	 3,58883904156106E-02 
470	 3,44478326880708E-02 
471	 3,72702970798203E-02 
472	 3,80278442670889E-02 
473	 3,60138299547518E-02 
474	 0,038666331202066 
475	 4,07870571071132E-02 
476	 3,73361370900734E-02 
477	 3,82099398248425E-02 
478	 4,19859634025604E-02 
479	 3,88932565625965E-02 
480	 3,70433281121632E-02 
481	 3,94835320407452E-02 
482	 3,87805403607193E-02 
483	 3,78299762192487E-02 
484	 4,21925574159594E-02 
485	 4,06830432916727E-02 
486	 3,40168991049308E-02 
487	 0,036855988739871 
488	 4,00943544984594E-02 
489	 3,71328376952417E-02 
490	 0,036080939948213 
491	 0,03689284364373 
492	 3,61951885409778E-02 
493	 3,73264335795011E-02 
494	 4,03049334257388E-02 
495	 3,91541266878358E-02 
496	 0,03721499686396 
497	 3,86665673239053E-02 
498	 3,84929930700146E-02 
499	 3,70285187767499E-02 
500	 3,88011408919417E-02 
501	 4,04817842044128E-02 
502	 4,01588212936761E-02 
503	 3,84164412965016E-02 
504	 3,69940163488943E-02 
505	 3,87514956085181E-02 
506	 4,03539945346489E-02 
507	 4,09353183053051E-02 
508	 4,15268127619651E-02 
509	 0,042322454987229 
510	 4,33678475237407E-02 
511	 4,26374456041309E-02 
512	 4,11531716473087E-02 
513	 4,26385880149369E-02 
514	 4,36580308014095E-02 
515	 4,28117993333276E-02 
516	 4,13079298915385E-02 
517	 4,03817133486275E-02 
518	 4,15123667299051E-02 
519	 0,042553021538379 
520	 4,30069236316023E-02 
521	 4,35193222097837E-02 
522	 4,36552119822692E-02 
523	 4,31925130806999E-02 
524	 4,33011919447492E-02 
525	 4,37120122754182E-02 
526	 4,32203639803543E-02 
527	 4,35838843743626E-02 
528	 4,49809746442842E-02 
529	 4,49520838625054E-02 
530	 0,044513157286417 
531	 4,50173554114116E-02 
532	 4,52532158350166E-02 
533	 4,52123630855278E-02 
534	 4,58217170526145E-02 
535	 4,59415256931872E-02 
536	 4,50820619153839E-02 
537	 0,045101135185246 
538	 4,57556904081452E-02 
539	 4,61634018538307E-02 
540	 4,62407631141536E-02 
541	 4,60652268115311E-02 
542	 4,62728536338327E-02 
543	 4,66269362463278E-02 
544	 4,68553489932726E-02 
545	 4,68332265458286E-02 
546	 4,66976802735355E-02 
547	 4,68550222684363E-02 
548	 4,73315686289789E-02 
549	 4,79765027938481E-02 
550	 0,047631018619791 
551	 4,70146862628491E-02 
552	 4,74408072485129E-02 
553	 4,78086630786136E-02 
554	 4,78973608123433E-02 
555	 4,81681388525456E-02 
556	 4,82604600687276E-02 
557	 4,79322341592015E-02 
558	 4,81559050692521E-02 
559	 4,86418072387571E-02 
560	 4,82440775706411E-02 
561	 4,76431150940402E-02 
562	 4,72268810636047E-02 
563	 4,74786425899435E-02 
564	 4,80750507667694E-02 
565	 4,85300896684473E-02 
566	 4,90773912753159E-02 
567	 4,95119986506641E-02 
568	 4,89782050732664E-02 
569	 4,84955426738043E-02 
570	 4,87891290677993E-02 
571	 4,93945641881892E-02 
572	 5,00029983932768E-02 
573	 5,00712105916081E-02 
574	 5,05696135531229E-02 
575	 0,051532692145858 
576	 0,051156767044223 
577	 5,08754220385316E-02 
578	 5,23705462193142E-02 
579	 5,28680666017217E-02 
580	 5,23183511972442E-02 
581	 5,26757966251196E-02 
582	 0,052939848638225 
583	 5,26456552474915E-02 
584	 5,26004475376355E-02 
585	 5,30747833616817E-02 
586	 5,44140743636769E-02 
587	 5,51605035157654E-02 
588	 5,49967562143087E-02 
589	 5,48354897822732E-02 
590	 5,49171726247173E-02 
591	 5,54031502660859E-02 
592	 5,57923094724351E-02 
593	 5,59878441785495E-02 
594	 5,60449501369736E-02 
595	 5,60611108281084E-02 
596	 5,61215818552748E-02 
597	 5,64864162868044E-02 
598	 5,65978884797866E-02 
599	 5,55848895996835E-02 
600	 5,49582062531083E-02 
601	 5,50153632925269E-02 
602	 5,50047574609893E-02 
603	 5,50835961063457E-02 
604	 0,055348348983745 
605	 5,53902372591437E-02 
606	 5,52600191087973E-02 
607	 5,52007241971297E-02 
608	 5,54694924756944E-02 
609	 0,056035039389246 
610	 5,61082966985379E-02 
611	 5,57899968050618E-02 
612	 5,52976983036277E-02 
613	 5,58132845583375E-02 
614	 5,68392834948667E-02 
615	 5,56967459500654E-02 
616	 5,43966530726142E-02 
617	 5,42863136684623E-02 
618	 5,49009944170041E-02 
619	 5,56932831928987E-02 
620	 5,57391391602686E-02 
621	 5,57010358639303E-02 
622	 5,57781056637106E-02 
623	 5,58703511380542E-02 
624	 5,59106864342143E-02 
625	 0,055844922865561 
626	 5,60035579874463E-02 
627	 5,62990616983645E-02 
628	 5,62357748861778E-02 
629	 0,056342279300676 
630	 5,67615564711135E-02 
631	 5,64688886474187E-02 
632	 5,58410183194847E-02 
633	 0,055624800472276 
634	 5,62070011329249E-02 
635	 5,73020025677073E-02 
636	 5,71730319178244E-02 
637	 5,70076251853077E-02 
638	 5,77909875242573E-02 
639	 5,81465252019314E-02 
640	 5,81307832355936E-02 
641	 5,85701240017653E-02 
642	 0,058739987244565 
643	 5,85122869949912E-02 
644	 5,89012539630635E-02 
645	 5,95217932410455E-02 
646	 5,97576943965499E-02 
647	 6,00418298183726E-02 
648	 6,03386811599207E-02 
649	 6,02340638770012E-02 
650	 5,98596916456292E-02 
651	 0,059366349447007 
652	 5,91898023165646E-02 
653	 5,92743077656733E-02 
654	 5,94103268020196E-02 
655	 5,91126916669082E-02 
656	 0,058428560742842 
657	 5,85554634635216E-02 
658	 0,058722583100446 
659	 0,058082983452151 
660	 5,73445032608738E-02 
661	 5,67214381946079E-02 
662	 5,63207979211141E-02 
663	 5,61136159885083E-02 
664	 5,59950938155312E-02 
665	 5,53558408008922E-02 
666	 5,46289092663291E-02 
667	 5,45730121738292E-02 
668	 5,48345336703142E-02 
669	 5,51639499293972E-02 
670	 5,50636298939199E-02 
671	 5,47757102571086E-02 
672	 5,45192783508215E-02 
673	 5,42569641109256E-02 
674	 5,41710372758308E-02 
675	 5,46697746868972E-02 
676	 5,53890167972207E-02 
677	 5,59763317722424E-02 
678	 5,54074635217195E-02 
679	 5,47601059609002E-02 
680	 5,53864021218322E-02 
681	 5,57714291805779E-02 
682	 5,57932446738792E-02 
683	 0,056201479979541 
684	 5,68959609951778E-02 
685	 5,77355939573828E-02 
686	 5,80422213379193E-02 
687	 5,81593012972959E-02 
688	 5,88427077839053E-02 
689	 5,96953544522962E-02 
690	 6,06525882341871E-02 
691	 6,18084326238735E-02 
692	 6,34501143129913E-02 
693	 6,57709446824406E-02 
694	 6,77867171989982E-02 
695	 6,95900341247096E-02 
696	 7,18413750261439E-02 
697	 7,47006289966966E-02 
698	 7,81964278568329E-02 
699	 8,18288239639214E-02 
700	 8,56305723588324E-02 
701	 0,089718164668731 
702	 9,37488626668262E-02 
703	 9,77360776329123E-02 
704	 0,102091019451691 
705	 0,106508513865321 
706	 0,110765657120595 
707	 0,114814558341895 
708	 0,118688272011122 
709	 0,12247127795105 
710	 0,12613330016149 
711	 0,129636357002363 
712	 0,132837936584649 
713	 0,135845891935229 
714	 0,138755345431656 
715	 0,141350785935824 
716	 0,143705400549213 
717	 0,146102003875155 
718	 0,148320108963257 
719	 0,150320419477714 
720	 0,152481106099308 
721	 0,154414859549094 
722	 0,155598157637525 
723	 0,156963085445494 
724	 0,158567883087432 
725	 0,159804663789912 
726	 0,160717206180085 
727	 0,161403918601104 
728	 0,162422525076523 
729	 0,163635826493565 
730	 0,164666040807607 
731	 0,165497709373463 
732	 0,166115990215437 
733	 0,166535881713394 
734	 0,166980564790848 
735	 0,167627674480941 
736	 0,168172499163569 
737	 0,168609301181736 
738	 0,169065358611839 
739	 0,169516095600996 
740	 0,16995735603333 
741	 0,17041754845897 
742	 0,17076361244 
743	 0,170852402359834 
744	 0,171240486794039 
745	 0,171826323823858 
746	 0,171876214009074 
747	 0,171952208304245 
748	 0,17230212668231 
749	 0,172399014362399 
750	 0,172396621760978 
751	 0,172623874527319 
752	 0,172751194118706 
753	 0,172784103083325 
754	 0,173038161992221 
755	 0,17350468752033 
756	 0,174129796059168 
757	 0,174540777420366 
758	 0,174717627106127 
759	 0,174773680742999 
760	 0,174662472919992 
761	 0,174470366467722 
762	 0,17453340098956 
763	 0,17482381451588 
764	 0,175269687522691 
765	 0,175512500296537 
766	 0,175531009358964 
767	 0,175476462191559 
768	 0,175417312274402 
769	 0,175434595049074 
770	 0,175643150127359 
771	 0,176112998300381 
772	 0,176892973837689 
773	 0,177228928956778 
774	 0,177007717649328 
775	 0,176417401152722 
776	 0,176161065012414 
777	 0,176583258101446 
778	 0,177127569627587 
779	 0,177428715048002 
780	 0,177065149215155 
781	 0,177093149195029 
782	 0,17757549733853 
783	 0,17764352978345 
784	 0,177532323098268 
785	 0,177428856427651 
786	 0,177498354898195 
787	 0,177756102348385 
788	 0,178201162144574 
789	 0,178270798354448 
790	 0,178005318821669 
791	 0,178390521474427 
792	 0,178757597148809 
793	 0,178584748156454 
794	 0,178493134347479 
795	 0,178514583949178 
796	 0,178488709553021 
797	 0,178469941618228 
798	 0,178485360537088 
799	 0,178582758887102 
800	 0,178707588769707 
801	 0,178805219102427 
802	 0,178875965854162 
803	 0,1789671443272 
804	 0,179226608657656 
805	 0,179352916074785 
806	 0,179279710513527 
807	 0,179275814070575 
808	 0,179499744417337 
809	 0,180081287365161 
810	 0,180829653612054 
811	 0,181298427537185 
812	 0,180352269143309 
813	 0,179772825248518 
814	 0,180191630326689 
815	 0,180225260884604 
816	 0,180076310382934 
817	 0,180123896317501 
818	 0,180296044103124 
819	 0,180512162443283 
820	 0,180586756360448 
821	 0,180528805649868 
822	 0,180446810721148 
823	 0,181038270747469 
824	 0,181572821609032 
825	 0,181060053371408 
826	 0,181049209343853 
827	 0,181486783878017 
828	 0,18086246953979 
829	 0,180718713466153 
830	 0,181653909589988 
831	 0,181888631165151 
832	 0,181838177201099 
833	 0,182329314972046 
834	 0,18191961198557 
835	 0,180879216543958 
836	 0,181210926661295 
837	 0,181716132844063 
838	 0,181781951398844 
839	 0,181975148491628 
840	 0,182240103857472 
841	 0,182427854812551 
842	 0,182278283517295 
843	 0,181923453586215 
844	 0,181998740708596 
845	 0,182162523618297 
846	 0,182244297305231 
847	 0,182439251727084 
848	 0,18268450764446 
849	 0,182872082332296 
850	 0,182829196522637 
851	 0,182559730027186 
852	 0,182179251759038 
853	 0,182074185760719 
854	 0,182374355993295 
855	 0,182293192557753 
856	 0,182210043057139 
857	 0,182751895652723 
858	 0,182807633468553 
859	 0,182304250826834 
860	 0,181858958773469 
861	 0,181821144232402 
862	 0,182288059801725 
863	 0,182376473316508 
864	 0,182547114375202 
865	 0,183493495932674 
866	 0,183683682952614 
867	 0,183041479292987 
868	 0,182405910701714 
869	 0,182318990022853 
870	 0,182972502368383 
871	 0,183609148702984 
872	 0,183860598458837 
873	 0,183421659866739 
874	 0,183162641386729 
875	 0,183102501956923 
876	 0,182577257892396 
877	 0,182438518529263 
878	 0,182922264419045 
879	 0,183119723344367 
880	 0,183252125890677 
881	 0,183611038736369 
882	 0,183625670200852 
883	 0,183526439168132 
884	 0,184317642049972 
885	 0,184510101138503 
886	 0,18377708103509 
887	 0,183383770954411 
888	 0,183545109514192 
889	 0,184277140848078 
890	 0,184155585430804 
891	 0,18344135440975 
892	 0,183293179742386 
893	 0,183253404599047 
894	 0,183265283166426 
895	 0,18363578651357 
896	 0,183865249407554 
897	 0,18367084559964 
898	 0,184399199113665 
899	 0,185306558575896 
900	 0,184708693498778 
901	 0,184482023914241 
902	 0,184842031104386 
903	 0,184374292590021 
904	 0,184290748363748 
905	 0,185119699945144 
906	 0,184740805346164 
907	 0,184042455272251 
908	 0,184621949080718 
909	 0,18511719592888 
910	 0,185092273692624 
911	 0,184201367407996 
912	 0,183779614270568 
913	 0,184279585999385 
914	 0,18401527693182 
915	 0,183825863164102 
916	 0,184726438030571 
917	 0,185217925346595 
918	 0,185200874497306 
919	 0,185218450925333 
920	 0,185356848244735 
921	 0,185524138844197 
922	 0,184956749484752 
923	 0,18461104717502 
924	 0,185194618351422 
925	 0,18528454293828 
926	 0,184894797822348 
927	 0,18445469021572 
928	 0,184539679601289 
929	 0,184996738591082 
930	 0,184596436368377 
931	 0,183919488051321 
932	 0,183429068643088 
933	 0,183713979767469 
934	 0,184161278014697 
935	 0,183912755550984 
936	 0,183582792697022 
937	 0,183318039760446 
938	 0,183141537076056 
939	 0,18290875390175 
940	 0,182746958823019 
941	 0,18361003791076 
942	 0,184319387063278 
943	 0,183869404789063 
944	 0,183536940055768 
945	 0,183504922478694 
946	 0,183752165982322 
947	 0,182966701044299 
948	 0,181380288359932 
949	 0,181306159257848 
950	 0,181337034744368 
951	 0,180789931039535 
952	 0,180741930171278 
953	 0,181312618657877 
954	 0,1823889629852 
955	 0,181050719952322 
956	 0,178595946431813 
957	 0,180169547810779 
958	 0,180492604750764 
959	 0,178638094270789 
960	 0,179055748464518 
961	 0,180235071586204 
962	 0,180787993060903 
963	 0,180155112255681 
964	 0,179307161810635 
965	 0,179838822149239 
966	 0,179732661087381 
967	 0,179021471166583 
968	 0,179416414371859 
969	 0,179694071158764 
970	 0,179427665524204 
971	 0,179317038241405 
972	 0,179221883388784 
973	 0,179024540021303 
974	 0,179126793200688 
975	 0,179808025123504 
976	 0,181494927727524 
977	 0,181221623407834 
978	 0,17919913742114 
979	 0,178984367057046 
980	 0,180288469976083 
981	 0,182331394068494 
982	 0,181448901995603 
983	 0,179995478508478 
984	 0,180533666911034 
985	 0,180241693133664 
986	 0,179682912575178 
987	 0,180936503388801 
988	 0,180590148111018 
989	 0,178889744435414 
990	 0,180364004344085 
991	 0,182332911878086 
992	 0,183298063973499 
993	 0,183632165157308 
994	 0,183759885313466 
995	 0,184037061765484 
996	 0,183239698991768 
997	 0,182028118081698 
998	 0,181962661255423 
999	 0,183605227912391 
1000	 0,186366742581359 
1001	 0,188263285417499 
1002	 0,186602011530382 
1003	 0,181568538218493 
1004	 0,182506901988736 
1005	 0,185057859412719 
1006	 0,184367083482496 
1007	 0,183616117504842 
1008	 0,183334455875667 
1009	 0,183545045649931 
1010	 0,184531629253413 
1011	 0,185906337666996 
1012	 0,186409151046465 
1013	 0,186530311065503 
1014	 0,185986177364253 
1015	 0,181840069004713 
1016	 0,180059392325078 
1017	 0,185014417449396 
1018	 0,188153835230325 
1019	 0,188381618822442 
1020	 0,186139417598193 
1021	 0,18677348524669 
1022	 0,189427536153454 
1023	 0,187665835647552 
1024	 0,186986442677932 
1025	 0,188346508164245 
1026	 0,186822376778187 
1027	 0,186974122482717 
1028	 0,190975509870469 
1029	 0,191548003362541 
1030	 0,190247626727612 
1031	 0,189757808834578 
1032	 0,188089657989392 
1033	 0,186529027070793 
1034	 0,188161496531467 
1035	 0,189584397535193 
1036	 0,190258455976146 
1037	 0,192116476523338 
1038	 0,193829044777093 
1039	 0,19452519522188 
1040	 0,193840772711959 
1041	 0,191669980756071 
1042	 0,189076386295158 
1043	 0,195323440558162 
1044	 0,200602627040737 
1045	 0,19086644810675 
1046	 0,190224117074939 
1047	 0,197414920134 
1048	 0,196931311026271 
1049	 0,189719342699703 
1050	 0,181535547950127 
1051	 0,193913171394969 
1052	 0,197815972152332 
1053	 0,183054116819347 
1054	 0,18299951583383 
1055	 0,188272296872908 
1056	 0,189512076336405 
1057	 0,194576189920823 
1058	 0,199534366248211 
1059	 0,197807080519404 
1060	 0,19297516754327 
1061	 0,187568619114926 
1062	 0,184785187513994 
1063	 0,186743310665839 
1064	 0,192750398463925 
1065	 0,199806929337021 
1066	 0,195672220292434 
1067	 0,179225822997285 
1068	 0,176366288938398 
1069	 0,182610365378513 
1070	 0,191500935467875 
1071	 0,194503600710061 
1072	 0,195398202781722 
1073	 0,199259254875397 
1074	 0,193186789768621 
1075	 0,184434325551972 
