Wavelength	AURAY00524.asd
325	-0,295761608478546 
326	-1,06839876356605E-02 
327	 9,62565994107929E-03 
328	-0,292557729694952 
329	-0,142957908456643 
330	 0,068670954078321 
331	 7,32232634122994E-02 
332	 5,42303290857355E-02 
333	 4,06595391244118E-02 
334	 4,95607088483324E-02 
335	 7,66447656123103E-02 
336	 9,98201276650866E-02 
337	 3,95713369187267E-02 
338	-7,88610107796972E-03 
339	 4,61604402039233E-02 
340	 0,101624804143026 
341	 0,112018104041043 
342	 1,26001823005099E-02 
343	-3,13158397562355E-02 
344	 2,66922757347095E-02 
345	 4,69389640623556E-02 
346	 3,59597208349286E-02 
347	 1,06133838794037E-02 
348	-5,83520325627511E-03 
349	-4,33539725486171E-03 
350	 1,77685023551555E-02 
351	 2,45765868845043E-02 
352	 6,06890246719364E-03 
353	-2,29867741718916E-02 
354	-3,17748105517453E-02 
355	 1,25945587553092E-02 
356	 2,68692719619981E-02 
357	 7,65331407615083E-03 
358	-0,014288635825458 
359	-2,53298294437735E-02 
360	-1,68430669889098E-02 
361	 3,28851018506191E-02 
362	 6,66706998772752E-02 
363	 7,54776868602681E-03 
364	-4,51060992020231E-03 
365	 3,91408543430325E-02 
366	 4,87874525286807E-02 
367	 3,69070466291917E-02 
368	 1,63429723699118E-02 
369	 2,95109495590739E-02 
370	 5,51005880317543E-02 
371	 4,97322835881355E-02 
372	 3,34167659159678E-02 
373	 0,018595703598042 
374	 3,17807692131527E-02 
375	 4,20280073785276E-02 
376	 2,81446991857708E-02 
377	 1,93174436112944E-02 
378	 2,05319687504375E-02 
379	 3,04744649872949E-02 
380	 3,31929737518454E-02 
381	 2,73149936421025E-02 
382	 3,01617617132536E-02 
383	 3,52132268192838E-02 
384	 3,54599170257262E-02 
385	 3,46028901832462E-02 
386	 3,53631357917558E-02 
387	 4,32043628930956E-02 
388	 4,87160832331111E-02 
389	 0,048710083402932 
390	 4,64908986203961E-02 
391	 4,37259147796088E-02 
392	 4,19859552844557E-02 
393	 4,00817756741448E-02 
394	 3,62305430412816E-02 
395	 2,38815702391466E-02 
396	 1,67904920929042E-02 
397	 2,29088493602099E-02 
398	 3,59722175840711E-02 
399	 4,37483152283598E-02 
400	 3,03957290325874E-02 
401	 2,23791330626858E-02 
402	 2,34977160212305E-02 
403	 1,80104811213537E-02 
404	 1,70454000872789E-02 
405	 2,70872164480088E-02 
406	 3,77375502020859E-02 
407	 0,04200360307082 
408	 2,73619288109426E-02 
409	 2,44084746171383E-02 
410	 3,66151293099015E-02 
411	 3,47658697391257E-02 
412	 2,83294235495117E-02 
413	 2,70156902839115E-02 
414	 0,02057735666905 
415	 1,48308777827226E-02 
416	 2,92985058228961E-02 
417	 3,78521855577206E-02 
418	 3,15740533641929E-02 
419	 2,84816495112704E-02 
420	 2,63454345584306E-02 
421	 2,02208609154272E-02 
422	 2,05800724107176E-02 
423	 2,66537402068899E-02 
424	 2,87302097121774E-02 
425	 2,78767321005372E-02 
426	 2,53656300664062E-02 
427	 2,62860112352347E-02 
428	 2,92524271777289E-02 
429	 3,05608554858414E-02 
430	 0,031143301788202 
431	 3,15036832833194E-02 
432	 0,033274102962063 
433	 3,40107675120593E-02 
434	 3,17388276849167E-02 
435	 3,04685601480864E-02 
436	 3,06362007766966E-02 
437	 3,11840412724218E-02 
438	 3,21175919330645E-02 
439	 3,30573502824067E-02 
440	 3,26693512047248E-02 
441	 3,08853271001272E-02 
442	 2,77516280659969E-02 
443	 2,86623581438817E-02 
444	 3,33397985601155E-02 
445	 3,64726264857789E-02 
446	 3,79457950361883E-02 
447	 3,77571939491308E-02 
448	 3,73339533548707E-02 
449	 3,68841265252071E-02 
450	 3,61980153629957E-02 
451	 3,63910269622361E-02 
452	 3,72046516101079E-02 
453	 3,58455128000836E-02 
454	 3,41894918789405E-02 
455	 3,41430925045841E-02 
456	 3,64799961345188E-02 
457	 3,91812918712535E-02 
458	 3,68962067734843E-02 
459	 3,34374599396911E-02 
460	 3,11536326740746E-02 
461	 3,34130984849587E-02 
462	 3,59267812408485E-02 
463	 3,26915989427149E-02 
464	 3,21248659624467E-02 
465	 0,034793108006775 
466	 3,51456702840372E-02 
467	 3,45897331154381E-02 
468	 3,40764651322789E-02 
469	 3,32899747493614E-02 
470	 3,28663874233827E-02 
471	 3,41413052864053E-02 
472	 3,46246151238368E-02 
473	 3,40948741987188E-02 
474	 3,59215275514669E-02 
475	 3,72726263359893E-02 
476	 0,035475474311648 
477	 3,65337448482374E-02 
478	 3,94259910827647E-02 
479	 3,78607032792452E-02 
480	 3,69104713721038E-02 
481	 3,84311826800417E-02 
482	 3,75527160443855E-02 
483	 0,036306168149975 
484	 3,84249812279504E-02 
485	 3,86644880044623E-02 
486	 3,66460814325597E-02 
487	 3,67193702683965E-02 
488	 3,64577002902232E-02 
489	 3,43587351148202E-02 
490	 3,56547497909826E-02 
491	 3,80537103513868E-02 
492	 3,38434616182827E-02 
493	 3,31379896740453E-02 
494	 0,03780192918053 
495	 3,74097634572186E-02 
496	 3,52053380421312E-02 
497	 0,035684351165359 
498	 3,61099748442949E-02 
499	 3,65721913751467E-02 
500	 3,94311178966208E-02 
501	 4,07844240879959E-02 
502	 3,86497516415463E-02 
503	 3,58700758540176E-02 
504	 3,44816904906089E-02 
505	 3,73393329208762E-02 
506	 3,92282185401137E-02 
507	 0,03903251841919 
508	 3,97420642393672E-02 
509	 4,03019659732801E-02 
510	 3,97422593626903E-02 
511	 0,039400854744189 
512	 0,039704035422916 
513	 4,11877649996919E-02 
514	 4,20611949106941E-02 
515	 4,15336554446329E-02 
516	 0,04029079567543 
517	 3,90758721471684E-02 
518	 3,86965113826667E-02 
519	 3,99930388706936E-02 
520	 4,24503329025364E-02 
521	 4,37009569613393E-02 
522	 4,42243833215231E-02 
523	 0,044393197398594 
524	 4,41864976639114E-02 
525	 0,04361913603489 
526	 0,042374471360363 
527	 4,24617255887458E-02 
528	 0,04407563674501 
529	 4,40651040287369E-02 
530	 4,34556033916923E-02 
531	 4,36905249174121E-02 
532	 4,51176762783062E-02 
533	 4,67166016080168E-02 
534	 4,50384201596532E-02 
535	 4,35263097621305E-02 
536	 4,41217129605992E-02 
537	 4,44838305642108E-02 
538	 4,48485368082096E-02 
539	 0,046382463858281 
540	 4,66795160579974E-02 
541	 4,54878980816687E-02 
542	 4,52420873820589E-02 
543	 4,59343755570659E-02 
544	 4,73221235064076E-02 
545	 4,72333272995607E-02 
546	 4,60215816075168E-02 
547	 4,58577906026104E-02 
548	 0,046605724688492 
549	 4,79364413811275E-02 
550	 4,76634095062157E-02 
551	 4,70293724007098E-02 
552	 4,84303004738498E-02 
553	 4,84405662795184E-02 
554	 4,69071690716723E-02 
555	 4,72263558604055E-02 
556	 4,81250642419319E-02 
557	 0,048464156191676 
558	 0,048659789587474 
559	 4,84728123300972E-02 
560	 0,046985057269764 
561	 4,63812653137396E-02 
562	 4,73395759846241E-02 
563	 4,78265182631506E-02 
564	 4,78925297114743E-02 
565	 4,78633457655714E-02 
566	 4,82914998877836E-02 
567	 4,89519959177733E-02 
568	 4,83844676452301E-02 
569	 4,81743219060926E-02 
570	 4,93013026454133E-02 
571	 4,97218357627063E-02 
572	 4,95903080847649E-02 
573	 4,99190723102264E-02 
574	 5,05585189862709E-02 
575	 5,13164844181317E-02 
576	 5,12534052783783E-02 
577	 5,13500161477628E-02 
578	 5,27284778061871E-02 
579	 0,053180723746537 
580	 5,28742700022584E-02 
581	 5,39970428320841E-02 
582	 5,50891503449097E-02 
583	 5,53724155087164E-02 
584	 5,57583773210088E-02 
585	 5,59700599678963E-02 
586	 5,52518500868902E-02 
587	 5,52378666961945E-02 
588	 5,61431332869883E-02 
589	 0,056432478138844 
590	 0,056529956555748 
591	 5,68769069128065E-02 
592	 5,69921616553782E-02 
593	 5,70326726389862E-02 
594	 5,76948154816873E-02 
595	 0,058243539118661 
596	 5,82913928036228E-02 
597	 5,77923002695628E-02 
598	 5,72763956722677E-02 
599	 5,75242061461071E-02 
600	 5,75480605358599E-02 
601	 5,71931959338514E-02 
602	 5,69061642748598E-02 
603	 5,70784322915946E-02 
604	 5,79037903328726E-02 
605	 5,79786474168805E-02 
606	 5,74993443059739E-02 
607	 5,75976394046777E-02 
608	 5,75353728873333E-02 
609	 5,71643291120648E-02 
610	 0,057197220594637 
611	 5,72251869775424E-02 
612	 5,66835407675758E-02 
613	 5,64011884012798E-02 
614	 5,63442773894467E-02 
615	 5,56971480109895E-02 
616	 5,49009501824317E-02 
617	 5,43702372026311E-02 
618	 5,50699961021697E-02 
619	 5,60719736067693E-02 
620	 5,52411019809472E-02 
621	 5,48198503028813E-02 
622	 5,53680256530028E-02 
623	 5,57655951661783E-02 
624	 5,60027524514683E-02 
625	 0,056138331830541 
626	 5,63239483694811E-02 
627	 5,64592995784566E-02 
628	 5,60422180180175E-02 
629	 5,61014931599771E-02 
630	 5,69676723492648E-02 
631	 5,68438039932804E-02 
632	 5,62556616840098E-02 
633	 5,63912323252908E-02 
634	 5,65973127124701E-02 
635	 5,67738574731559E-02 
636	 5,71853432764511E-02 
637	 5,78130577996776E-02 
638	 5,85906210163312E-02 
639	 0,059017826167744 
640	 5,90736080219023E-02 
641	 5,89435113469833E-02 
642	 5,88641434426796E-02 
643	 5,89374814616355E-02 
644	 5,88707916430168E-02 
645	 5,90828931573883E-02 
646	 6,01379819314582E-02 
647	 6,05975556732899E-02 
648	 6,03432111281622E-02 
649	 6,04414520713171E-02 
650	 6,02822233271142E-02 
651	 5,95684150330996E-02 
652	 5,95439527355059E-02 
653	 5,96946387971559E-02 
654	 5,85622212039826E-02 
655	 5,75894672452572E-02 
656	 5,72695413967032E-02 
657	 5,74719788999597E-02 
658	 5,74138466938078E-02 
659	 5,63340873831484E-02 
660	 0,055288235765869 
661	 5,45038253006471E-02 
662	 5,38128690461098E-02 
663	 0,053498252189627 
664	 5,35899365087446E-02 
665	 5,33246017253216E-02 
666	 5,27127190542536E-02 
667	 5,19030092869378E-02 
668	 5,14817745506124E-02 
669	 5,15131214018085E-02 
670	 5,14308105129655E-02 
671	 5,13754397660027E-02 
672	 0,051440988609015 
673	 5,12209809271477E-02 
674	 5,09257435649509E-02 
675	 5,12455993411644E-02 
676	 5,15347768802701E-02 
677	 5,14868490602466E-02 
678	 5,07894883645319E-02 
679	 5,03334742066211E-02 
680	 5,11718233376492E-02 
681	 5,18480046846837E-02 
682	 0,052179554549893 
683	 5,28615594543195E-02 
684	 5,32821239755735E-02 
685	 5,32056636608249E-02 
686	 0,053745318179879 
687	 5,47332438306907E-02 
688	 5,55918863397769E-02 
689	 5,65220777074275E-02 
690	 5,76390495596327E-02 
691	 5,91275559112161E-02 
692	 6,11033256178539E-02 
693	 0,063592019457128 
694	 6,54656732071077E-02 
695	 6,71230173658159E-02 
696	 7,01113124597259E-02 
697	 7,35480422672752E-02 
698	 0,077023157284632 
699	 8,02991632998863E-02 
700	 8,37995877725828E-02 
701	 8,80989948872091E-02 
702	 9,21914632493825E-02 
703	 9,59301733932322E-02 
704	 9,98209479237323E-02 
705	 0,103708510356516 
706	 0,107436959737919 
707	 0,110594703973305 
708	 0,113439014533034 
709	 0,116554856989322 
710	 0,119514144017578 
711	 0,122173538566478 
712	 0,124474289808459 
713	 0,126658823461283 
714	 0,128955916633009 
715	 0,131380988007651 
716	 0,133667622627831 
717	 0,135081327823365 
718	 0,136582061727881 
719	 0,13847614116362 
720	 0,139931463292503 
721	 0,141134933849009 
722	 0,142423678005018 
723	 0,143321295113478 
724	 0,143979101155703 
725	 0,145341021645735 
726	 0,146252692850548 
727	 0,146165981792686 
728	 0,146861965535735 
729	 0,147981671881724 
730	 0,148417513004087 
731	 0,149039208619963 
732	 0,14992484260525 
733	 0,15026833868574 
734	 0,150612156637093 
735	 0,151409663078517 
736	 0,151909108127661 
737	 0,152091767704298 
738	 0,152236271270335 
739	 0,152416657373191 
740	 0,1527294554549 
741	 0,153422758719724 
742	 0,154033189528269 
743	 0,154023817720357 
744	 0,154154674554246 
745	 0,154530426027036 
746	 0,154919523023602 
747	 0,155159636222478 
748	 0,155192062704186 
749	 0,155372354829091 
750	 0,155542242719758 
751	 0,155377499677418 
752	 0,155568345124534 
753	 0,156092469997433 
754	 0,156048708787586 
755	 0,156176817796589 
756	 0,156931502389349 
757	 0,157162317634805 
758	 0,15705483596377 
759	 0,157385663222768 
760	 0,157440739185539 
761	 0,157186007303113 
762	 0,157490982638773 
763	 0,158069775668606 
764	 0,15858056102091 
765	 0,1586459796772 
766	 0,158485008119499 
767	 0,158935993490826 
768	 0,159059206922154 
769	 0,158663661451187 
770	 0,158898532664733 
771	 0,159408109532657 
772	 0,159664640399773 
773	 0,160065412531107 
774	 0,160470062052443 
775	 0,160244211792147 
776	 0,159874822416662 
777	 0,159705095034211 
778	 0,160162107944532 
779	 0,160663300816421 
780	 0,160288133881472 
781	 0,160424588040461 
782	 0,161072496049354 
783	 0,160831453965497 
784	 0,160604365545538 
785	 0,160942089888671 
786	 0,161137946849934 
787	 0,161169644145089 
788	 0,161150872740595 
789	 0,161435137108146 
790	 0,162023360339515 
791	 0,162528845648052 
792	 0,1624640014233 
793	 0,161602594038862 
794	 0,161771673767936 
795	 0,162529237012198 
796	 0,162213553359709 
797	 0,16210601605215 
798	 0,162490079956345 
799	 0,16266055591022 
800	 0,162676360108079 
801	 0,162640327701757 
802	 0,162762423865144 
803	 0,16300882367676 
804	 0,163177153080489 
805	 0,16335132337747 
806	 0,163539208674975 
807	 0,163644983415024 
808	 0,163777485066599 
809	 0,164053825805477 
810	 0,164381447046861 
811	 0,164635241923042 
812	 0,164539153762437 
813	 0,164432613181227 
814	 0,164436017447307 
815	 0,164202280506335 
816	 0,164236093683272 
817	 0,165122564696374 
818	 0,16556951308229 
819	 0,165411481572552 
820	 0,165136657289882 
821	 0,16478918515542 
822	 0,16454157235533 
823	 0,165168422328387 
824	 0,165673592344837 
825	 0,164733117572829 
826	 0,164633791548986 
827	 0,165427182094459 
828	 0,16544734458734 
829	 0,165319537664724 
830	 0,165379248737587 
831	 0,165707404336899 
832	 0,166098988398573 
833	 0,166263459062568 
834	 0,16599649018498 
835	 0,165459541199001 
836	 0,16528604738224 
837	 0,165417127382305 
838	 0,165775874056564 
839	 0,166018814971585 
840	 0,166155629224852 
841	 0,166270353504708 
842	 0,166334225328557 
843	 0,166235520395904 
844	 0,165521697759262 
845	 0,16528324931498 
846	 0,166008517490414 
847	 0,166443397716118 
848	 0,166681980479018 
849	 0,167073817850818 
850	 0,167248394942059 
851	 0,167111400483145 
852	 0,166627858525944 
853	 0,166262996090389 
854	 0,166311258958166 
855	 0,166763591268477 
856	 0,167227107282899 
857	 0,167188039854901 
858	 0,167159129628113 
859	 0,167091165873356 
860	 0,166331280251499 
861	 0,165954305195028 
862	 0,166393566475161 
863	 0,16637815210933 
864	 0,166300401277917 
865	 0,166827393032553 
866	 0,167165404397735 
867	 0,167102475171072 
868	 0,166537681372646 
869	 0,166304902179366 
870	 0,166767426315229 
871	 0,167406589587237 
872	 0,167656970758327 
873	 0,16696893557482 
874	 0,167057792362817 
875	 0,167763128371175 
876	 0,16743642665762 
877	 0,167214664802526 
878	 0,167491955449939 
879	 0,16768764540636 
880	 0,167657176098148 
881	 0,167334034664687 
882	 0,167470372891211 
883	 0,16802365104064 
884	 0,168524896254918 
885	 0,168666529627106 
886	 0,16836388215201 
887	 0,167937092794212 
888	 0,167802533954866 
889	 0,168262193973419 
890	 0,168394836306015 
891	 0,168132280032582 
892	 0,167710439547344 
893	 0,167319499482832 
894	 0,167194224965026 
895	 0,167898466362979 
896	 0,168595408972501 
897	 0,168609878849965 
898	 0,168268514967823 
899	 0,16788489616258 
900	 0,167876548248716 
901	 0,168593979754609 
902	 0,169637240921025 
903	 0,169136174212214 
904	 0,168818078776437 
905	 0,169530969413414 
906	 0,168834658134291 
907	 0,167794669389 
908	 0,168290062486222 
909	 0,169222248053779 
910	 0,169871337552567 
911	 0,168883606884098 
912	 0,16798877402404 
913	 0,168007579668653 
914	 0,168163378865342 
915	 0,168675958042276 
916	 0,169776751100618 
917	 0,170267014694326 
918	 0,170076721643604 
919	 0,1696454018902 
920	 0,169636083582949 
921	 0,170067391367266 
922	 0,169450621858362 
923	 0,169539404811378 
924	 0,171452255807696 
925	 0,170816396167374 
926	 0,168870160786271 
927	 0,169118810642081 
928	 0,169151102057213 
929	 0,168603549978198 
930	 0,168518809832439 
931	 0,168882768441102 
932	 0,169481827062712 
933	 0,168910505096039 
934	 0,168186610971786 
935	 0,168777892933183 
936	 0,169527721918243 
937	 0,1700371590344 
938	 0,170159498174942 
939	 0,168958408313387 
940	 0,166872480833749 
941	 0,167867752138674 
942	 0,169452635452539 
943	 0,169224674216595 
944	 0,168216078516872 
945	 0,167306121638917 
946	 0,167837206155967 
947	 0,168006580835014 
948	 0,167476774294095 
949	 0,167018590232165 
950	 0,166904231724657 
951	 0,1672826350053 
952	 0,168019598155468 
953	 0,168468592935506 
954	 0,167875974965016 
955	 0,165483663624396 
956	 0,162962642970364 
957	 0,165091584293886 
958	 0,165772994245271 
959	 0,163974442029966 
960	 0,165583403170473 
961	 0,166819401343489 
962	 0,165029255472212 
963	 0,16443748982316 
964	 0,164608568771612 
965	 0,163975241762218 
966	 0,16400511887491 
967	 0,164480011963884 
968	 0,163589196658328 
969	 0,163027252957322 
970	 0,163630409311936 
971	 0,165723730141645 
972	 0,16710211764647 
973	 0,165846308148774 
974	 0,163294981967272 
975	 0,162059494214599 
976	 0,16622798536934 
977	 0,168137839218851 
978	 0,16663852054161 
979	 0,165788767492221 
980	 0,166020361099937 
981	 0,167218246086345 
982	 0,166925999481286 
983	 0,165459257974309 
984	 0,163575194638994 
985	 0,163716259805484 
986	 0,165194621570281 
987	 0,165829093578908 
988	 0,164445644030708 
989	 0,162138635623635 
990	 0,164132329151253 
991	 0,166965211392727 
992	 0,168481332343944 
993	 0,168085961100318 
994	 0,167237449418836 
995	 0,16744725987655 
996	 0,167065838370658 
997	 0,166157194886172 
998	 0,165346808041164 
999	 0,165026025100813 
1000	 0,165770545758225 
1001	 0,169456246576559 
1002	 0,170301703405786 
1003	 0,166796020642293 
1004	 0,168789779363664 
1005	 0,172001133495811 
1006	 0,17154657205362 
1007	 0,169037419675805 
1008	 0,167212109986698 
1009	 0,170262544965904 
1010	 0,173277085504385 
1011	 0,173839634721741 
1012	 0,168562893285497 
1013	 0,166861916208932 
1014	 0,171154583667879 
1015	 0,169227850038413 
1016	 0,168356984493086 
1017	 0,174112880610925 
1018	 0,175110863794976 
1019	 0,172677126475875 
1020	 0,1713031029642 
1021	 0,174640042412487 
1022	 0,180016822214575 
1023	 0,177379438343728 
1024	 0,176147010810881 
1025	 0,17818507506112 
1026	 0,176454891895742 
1027	 0,173890860775362 
1028	 0,172620900463408 
1029	 0,172413919646599 
1030	 0,171527427592586 
1031	 0,168476058246745 
1032	 0,171309995344784 
1033	 0,177820901051594 
1034	 0,180638083086596 
1035	 0,178270393609126 
1036	 0,172919149028193 
1037	 0,173846087940463 
1038	 0,174730348193806 
1039	 0,173930097623412 
1040	 0,179375870735105 
1041	 0,181946781452228 
1042	 0,175421869164104 
1043	 0,17646129955055 
1044	 0,177642282961028 
1045	 0,166716789706018 
1046	 0,168957705568026 
1047	 0,179933306918513 
1048	 0,17619834851054 
1049	 0,171720065422365 
1050	 0,17149533801981 
1051	 0,17805253795844 
1052	 0,18072427084801 
1053	 0,176027510160741 
1054	 0,179458385651656 
1055	 0,179966013888722 
1056	 0,170188648198459 
1057	 0,177457917039226 
1058	 0,187925511990683 
1059	 0,177923052994821 
1060	 0,177748668814139 
1061	 0,184165896816194 
1062	 0,1746963788115 
1063	 0,170714565958989 
1064	 0,176676614427357 
1065	 0,185609608468601 
1066	 0,183304182042184 
1067	 0,167515898147009 
1068	 0,165224988227679 
1069	 0,168217658708648 
1070	 0,169253412196436 
1071	 0,172404958444751 
1072	 0,180757655528055 
1073	 0,19570213954179 
1074	 0,188128423902734 
1075	 0,166841442159771 
