Wavelength	AURAY00269.asd
325	 5,08571714078302E-02 
326	 0,15898525266555 
327	 9,50500772969662E-02 
328	-0,141656293271046 
329	-3,67195686064045E-02 
330	 0,105263857474208 
331	 7,87610409439537E-02 
332	 0,058028810466411 
333	 5,69237517043188E-02 
334	 6,20913403461407E-02 
335	 7,43636288993962E-02 
336	 8,98689407864209E-02 
337	 9,97299074081408E-02 
338	 0,114598558344059 
339	 0,140426681476965 
340	 0,136322080289404 
341	 0,101726045096324 
342	 2,63710198360317E-02 
343	 3,16562293188033E-02 
344	 0,12940797932865 
345	 0,107955511096562 
346	 3,07227021604707E-02 
347	-3,88013524372809E-02 
348	-4,02494390231175E-02 
349	 9,82412444730221E-03 
350	 3,45059315519912E-02 
351	 3,11464749943456E-02 
352	 3,75172936974351E-03 
353	-1,62903492555252E-02 
354	-1,69251782684989E-02 
355	 1,01378933448779E-02 
356	 2,10888597940927E-02 
357	 1,26134545403056E-02 
358	-4,0645921684283E-03 
359	-1,61987902266236E-02 
360	-1,45836612866883E-02 
361	 2,37743984458071E-02 
362	 0,061882126539102 
363	 4,97851976725216E-02 
364	 2,64525376443498E-02 
365	 9,56995118757992E-03 
366	 2,81953904986105E-02 
367	 3,26877058965955E-02 
368	-1,16492216559188E-03 
369	 1,43236359447594E-02 
370	 4,84692435895021E-02 
371	 3,19768838967033E-02 
372	 1,77856691297986E-02 
373	 2,02786656494691E-02 
374	 3,28685870277153E-02 
375	 4,34112584062701E-02 
376	 4,28580993596733E-02 
377	 1,71328090271372E-02 
378	-4,83267195139961E-03 
379	 4,66423920659233E-02 
380	 6,98448661496344E-02 
381	 4,78479614651399E-02 
382	 4,04404283134071E-02 
383	 3,80115165132662E-02 
384	 2,81806113107354E-02 
385	 2,03269415297567E-02 
386	 2,18601978279499E-02 
387	 5,08434889922207E-02 
388	 5,90959708192486E-02 
389	 3,49981846616094E-02 
390	 0,021090913643306 
391	 0,019706450863092 
392	 2,86170639947607E-02 
393	 3,28819733483768E-02 
394	 2,94983936382992E-02 
395	 2,13199825538628E-02 
396	 1,35757986780169E-02 
397	 1,14433665480189E-02 
398	 2,26968469521454E-02 
399	 0,034757926835866 
400	 2,95951277498022E-02 
401	 2,13711797084287E-02 
402	 1,47608054055237E-02 
403	 1,01383652337056E-02 
404	 1,33318415201472E-02 
405	 2,60334162232582E-02 
406	 2,86798665110451E-02 
407	 2,23654810319894E-02 
408	 1,32504691437502E-02 
409	 1,83443276171368E-02 
410	 3,54945712938284E-02 
411	 3,22768160782861E-02 
412	 2,13761579174898E-02 
413	 1,60016497617097E-02 
414	 1,45137367408961E-02 
415	 1,62783134792433E-02 
416	 2,01968598310062E-02 
417	 2,31163740652028E-02 
418	 2,30883789164251E-02 
419	 1,83033288356976E-02 
420	 1,34811607927728E-02 
421	 1,46954567847831E-02 
422	 1,63789039790886E-02 
423	 1,73896665204825E-02 
424	 1,87710116070633E-02 
425	 1,99810870213891E-02 
426	 2,05194954784714E-02 
427	 1,89388003117258E-02 
428	 1,66830953516016E-02 
429	 0,016477090289316 
430	 1,68609387633993E-02 
431	 1,73607406052585E-02 
432	 1,79857712978631E-02 
433	 0,017910244328986 
434	 1,65038421574427E-02 
435	 1,49987699471077E-02 
436	 1,44159864816134E-02 
437	 0,016411238017238 
438	 1,92793439436412E-02 
439	 2,16808453981023E-02 
440	 2,13527025835647E-02 
441	 1,87264158019411E-02 
442	 1,45794059477952E-02 
443	 1,56096275968193E-02 
444	 2,06827279481963E-02 
445	 2,02514810586856E-02 
446	 1,89064623999592E-02 
447	 0,019431703278184 
448	 2,00728780669424E-02 
449	 2,05529341317669E-02 
450	 0,020728356686973 
451	 0,021131657515168 
452	 2,15545703586269E-02 
453	 0,020112193379461 
454	 1,92844883823018E-02 
455	 0,02131371770555 
456	 0,024182450715114 
457	 2,55142848385113E-02 
458	 1,99355561314416E-02 
459	 1,63887429210204E-02 
460	 0,018120487873894 
461	 1,76235396068521E-02 
462	 1,73000388065601E-02 
463	 2,12594702260965E-02 
464	 2,18245648057311E-02 
465	 1,87810357165094E-02 
466	 1,85332505468845E-02 
467	 1,81478033063648E-02 
468	 1,61944644412083E-02 
469	 1,81962502817982E-02 
470	 2,15628746971769E-02 
471	 1,95754996879941E-02 
472	 1,91219690919897E-02 
473	 2,13789701678845E-02 
474	 2,10364830066384E-02 
475	 0,019322221468998 
476	 1,78428780335749E-02 
477	 0,020084583316445 
478	 2,35515705933555E-02 
479	 1,91665421999724E-02 
480	 1,65075805766391E-02 
481	 1,92953963331267E-02 
482	 1,91055235543755E-02 
483	 1,78406997844469E-02 
484	 1,96617391253551E-02 
485	 1,91829821300604E-02 
486	 1,64330473256327E-02 
487	 1,72223147423263E-02 
488	 1,78159959428418E-02 
489	 1,56254716020627E-02 
490	 1,52793000661868E-02 
491	 1,60209224184991E-02 
492	 1,39115275989239E-02 
493	 1,47175521525541E-02 
494	 1,89914978728679E-02 
495	 1,83807129585482E-02 
496	 0,016377530530272 
497	 1,75589074318796E-02 
498	 1,77952170985723E-02 
499	 1,69285916126579E-02 
500	 1,72174142829759E-02 
501	 1,77530218452664E-02 
502	 0,017859931111481 
503	 1,62146566454628E-02 
504	 1,46156320977924E-02 
505	 1,64789393428776E-02 
506	 1,80688139003127E-02 
507	 1,86503942667316E-02 
508	 2,06734817981796E-02 
509	 2,14859532040568E-02 
510	 1,89063014428708E-02 
511	 0,017767506499452 
512	 1,81210179866615E-02 
513	 1,73663467910874E-02 
514	 1,72459469545746E-02 
515	 1,81632249635547E-02 
516	 1,78344994436019E-02 
517	 1,71877477362837E-02 
518	 0,017803188364799 
519	 1,86994433068826E-02 
520	 0,019364869903974 
521	 1,89754030735088E-02 
522	 1,85545633121256E-02 
523	 1,88050826821896E-02 
524	 1,88851648755789E-02 
525	 1,84715242018628E-02 
526	 1,67956049568148E-02 
527	 1,68915500793569E-02 
528	 1,91231156966961E-02 
529	 1,91783024395235E-02 
530	 1,83749207575869E-02 
531	 1,85872811057273E-02 
532	 1,91762129756119E-02 
533	 1,95937948460057E-02 
534	 1,84329351715667E-02 
535	 1,77066227181576E-02 
536	 1,84502866192137E-02 
537	 1,85081091996162E-02 
538	 1,81216297002392E-02 
539	 1,83006498535115E-02 
540	 1,83199795008416E-02 
541	 1,80871964657989E-02 
542	 1,81622408274024E-02 
543	 1,83782619752385E-02 
544	 1,85355545097823E-02 
545	 1,85173991297337E-02 
546	 1,82482302084926E-02 
547	 1,73801553539918E-02 
548	 1,76255398959317E-02 
549	 1,93724799312907E-02 
550	 1,88728172787957E-02 
551	 1,75758229674198E-02 
552	 1,84078285051735E-02 
553	 1,88930390722752E-02 
554	 1,86230893920934E-02 
555	 1,89081398421002E-02 
556	 0,018977800226785 
557	 1,82604547136691E-02 
558	 1,81908401447203E-02 
559	 1,85290846280778E-02 
560	 1,80416848015282E-02 
561	 0,017303313574534 
562	 1,66893527721774E-02 
563	 1,69454183830467E-02 
564	 0,017548739892612 
565	 1,77232963948836E-02 
566	 1,82487243502115E-02 
567	 1,88538829418714E-02 
568	 1,78472651434447E-02 
569	 1,72621617731721E-02 
570	 1,84119231270884E-02 
571	 1,92210084820662E-02 
572	 1,94386355584855E-02 
573	 1,91456721517496E-02 
574	 1,97951053082417E-02 
575	 0,021374900240717 
576	 2,07070537776938E-02 
577	 1,97679393762211E-02 
578	 2,09653084586386E-02 
579	 0,021224684479504 
580	 0,020587488426953 
581	 2,14866773382706E-02 
582	 2,21107369754212E-02 
583	 2,15785837118995E-02 
584	 2,15558563314801E-02 
585	 2,19308609736859E-02 
586	 2,21233393124517E-02 
587	 2,22206037146333E-02 
588	 0,022298968177744 
589	 2,27008068930209E-02 
590	 2,30048340532193E-02 
591	 2,28063922485046E-02 
592	 2,21540705978239E-02 
593	 2,15081281929688E-02 
594	 2,21007711177827E-02 
595	 2,24859742412328E-02 
596	 2,20431833200789E-02 
597	 2,15548404025601E-02 
598	 2,13668348175466E-02 
599	 2,18651940764716E-02 
600	 2,20720483556115E-02 
601	 2,17952347857331E-02 
602	 2,14581236683237E-02 
603	 2,14484014886416E-02 
604	 2,19591433292527E-02 
605	 0,021539072542953 
606	 2,05723480298996E-02 
607	 2,05881018796137E-02 
608	 2,07563995713406E-02 
609	 2,08171566633303E-02 
610	 2,10356748882925E-02 
611	 2,12286788004751E-02 
612	 2,11592911797665E-02 
613	 2,09931128656743E-02 
614	 2,07786801397508E-02 
615	 2,05367317331912E-02 
616	 2,02084668266885E-02 
617	 1,97938157459056E-02 
618	 1,95966339656161E-02 
619	 1,95279666505973E-02 
620	 1,92835532870846E-02 
621	 1,93210718511231E-02 
622	 1,97904916705738E-02 
623	 0,020771433175768 
624	 2,12210966607516E-02 
625	 2,01636568139697E-02 
626	 2,00618961970038E-02 
627	 2,08562745918157E-02 
628	 2,07349365902673E-02 
629	 2,04571933492035E-02 
630	 0,02038515811264 
631	 2,02942770844171E-02 
632	 2,02685944138301E-02 
633	 2,04736829066848E-02 
634	 2,06227715302844E-02 
635	 2,07417278880258E-02 
636	 2,12550264025216E-02 
637	 2,20636938419101E-02 
638	 2,29975960163243E-02 
639	 2,31564070201233E-02 
640	 2,27873169501098E-02 
641	 2,29128714223298E-02 
642	 2,31879904364464E-02 
643	 2,35135566959156E-02 
644	 2,39571565354048E-02 
645	 2,44531961212241E-02 
646	 2,49197161956424E-02 
647	 0,025154712253588 
648	 2,51186288250398E-02 
649	 2,48838432962766E-02 
650	 2,45938925230487E-02 
651	 2,44061366371575E-02 
652	 2,47999280100786E-02 
653	 2,52715072991147E-02 
654	 0,024634690355201 
655	 2,42393154398843E-02 
656	 2,44392635370279E-02 
657	 2,45835122549303E-02 
658	 2,45257466527569E-02 
659	 2,41561705184331E-02 
660	 2,34503398110507E-02 
661	 2,26619977130367E-02 
662	 2,24786555092189E-02 
663	 2,22921368411483E-02 
664	 2,18254708291447E-02 
665	 2,14748440226409E-02 
666	 2,11883771095882E-02 
667	 2,08015859239935E-02 
668	 2,07081728255418E-02 
669	 2,08214306075265E-02 
670	 2,03113248813162E-02 
671	 1,99659537039474E-02 
672	 0,020349843958615 
673	 2,01158210796462E-02 
674	 1,94792717214487E-02 
675	 1,94652418390858E-02 
676	 1,98475198250098E-02 
677	 2,03331956615847E-02 
678	 1,96641165660781E-02 
679	 1,88943959207113E-02 
680	 1,93755339476958E-02 
681	 1,95941140846126E-02 
682	 1,94215871069936E-02 
683	 1,96126952898519E-02 
684	 1,99784569590902E-02 
685	 2,03312494826007E-02 
686	 2,00283060711401E-02 
687	 1,96483901188088E-02 
688	 2,03405255992469E-02 
689	 2,11989305288756E-02 
690	 2,20243644567718E-02 
691	 2,31617952078079E-02 
692	 2,45793154901607E-02 
693	 0,026238602469016 
694	 2,81597994373864E-02 
695	 3,02812304884257E-02 
696	 3,23051386596789E-02 
697	 3,51863356308819E-02 
698	 0,039161131446596 
699	 4,28743953107655E-02 
700	 4,68211389002842E-02 
701	 5,17972911211041E-02 
702	 5,68936273350499E-02 
703	 6,19723638646054E-02 
704	 0,067485866055481 
705	 7,30439597896194E-02 
706	 7,84256716822324E-02 
707	 8,40271143171095E-02 
708	 8,98435306947739E-02 
709	 9,58389851749915E-02 
710	 0,101150449014043 
711	 0,105713600821079 
712	 0,110565842526402 
713	 0,115645803648025 
714	 0,120802031396991 
715	 0,125355413655575 
716	 0,129341471259143 
717	 0,133219826158041 
718	 0,136955643037547 
719	 0,140590965745633 
720	 0,144365298010084 
721	 0,147856598344497 
722	 0,150519949222114 
723	 0,153034974510811 
724	 0,155529594848939 
725	 0,157825178424148 
726	 0,159804629049888 
727	 0,161451837842462 
728	 0,16322092809484 
729	 0,165086940565377 
730	 0,166911136808242 
731	 0,168343567328545 
732	 0,169358669998467 
733	 0,170347238372663 
734	 0,171455864354417 
735	 0,172772419994914 
736	 0,173914151744937 
737	 0,174794408377606 
738	 0,175380179593671 
739	 0,175968925716896 
740	 0,176688355275411 
741	 0,177484342800657 
742	 0,178126340461391 
743	 0,178366555065048 
744	 0,178701323291329 
745	 0,179222202307835 
746	 0,179830009621389 
747	 0,180354042665663 
748	 0,18068594811313 
749	 0,180834399605504 
750	 0,180978837640725 
751	 0,181379797637091 
752	 0,181837239889795 
753	 0,182260501852681 
754	 0,182565794196297 
755	 0,182760558140314 
756	 0,182864712628828 
757	 0,182970204676783 
758	 0,183135268542306 
759	 0,183442938106173 
760	 0,183692394683986 
761	 0,183846244403817 
762	 0,184076204398049 
763	 0,18437087980225 
764	 0,18468436449912 
765	 0,184531564250421 
766	 0,18423689279243 
767	 0,184939068336264 
768	 0,185316515456861 
769	 0,185010164152457 
770	 0,185271232016004 
771	 0,185655413947378 
772	 0,185534367525588 
773	 0,185587854265829 
774	 0,185834436585296 
775	 0,185848242690082 
776	 0,185853990803885 
777	 0,18596835816114 
778	 0,186150753983774 
779	 0,186350215981528 
780	 0,186500588683718 
781	 0,186615531774059 
782	 0,186702624350488 
783	 0,18675262300199 
784	 0,186927765244844 
785	 0,187291265133926 
786	 0,187418588840223 
787	 0,187414132905445 
788	 0,187583242420496 
789	 0,18764275473714 
790	 0,187587731731405 
791	 0,187731165421358 
792	 0,187933776392739 
793	 0,188068292694727 
794	 0,188149336628387 
795	 0,188064654577605 
796	 0,18749483006135 
797	 0,18754454039345 
798	 0,188334725166447 
799	 0,18846962904981 
800	 0,188328267235409 
801	 0,188354415568041 
802	 0,188770618482508 
803	 0,189245819528346 
804	 0,188753295548382 
805	 0,188575203391669 
806	 0,189043983781043 
807	 0,189093743367244 
808	 0,189146934832752 
809	 0,189702726556619 
810	 0,190125682526922 
811	 0,190261821900761 
812	 0,190050395456621 
813	 0,189962109825222 
814	 0,19019239470157 
815	 0,190480471077541 
816	 0,19065506207023 
817	 0,190553980685938 
818	 0,190565232826076 
819	 0,190751352039876 
820	 0,191018926555794 
821	 0,19116443270859 
822	 0,191185860972461 
823	 0,191887691895969 
824	 0,192348970105023 
825	 0,191341564700226 
826	 0,191073529675684 
827	 0,19170168846337 
828	 0,191907101227464 
829	 0,192020609556232 
830	 0,192187795580186 
831	 0,1924128627985 
832	 0,192513787283875 
833	 0,192250247880333 
834	 0,192155438510498 
835	 0,19226017392561 
836	 0,192174288512171 
837	 0,192091803413143 
838	 0,19212430014203 
839	 0,192257751927538 
840	 0,192478989074272 
841	 0,192768224123745 
842	 0,193063690060005 
843	 0,193189272883977 
844	 0,192600582882913 
845	 0,1922704634026 
846	 0,192710101006282 
847	 0,19337809889443 
848	 0,193696419960133 
849	 0,192977949420787 
850	 0,193282857854299 
851	 0,194400406768406 
852	 0,193838742879686 
853	 0,193078147904597 
854	 0,192946929591528 
855	 0,193162462404167 
856	 0,193495253230481 
857	 0,193664778054596 
858	 0,19369587799333 
859	 0,193633305572891 
860	 0,193609856195163 
861	 0,193641523072474 
862	 0,193751650015794 
863	 0,194005808673268 
864	 0,19425214266041 
865	 0,194289111394798 
866	 0,193862027128436 
867	 0,193242804115296 
868	 0,193348016177914 
869	 0,19384057466139 
870	 0,194470431487223 
871	 0,19483691823764 
872	 0,194820229203484 
873	 0,194372998584225 
874	 0,194480830215308 
875	 0,194950633709225 
876	 0,194506207553094 
877	 0,194206333401478 
878	 0,194470538031185 
879	 0,194962439956923 
880	 0,195249739100909 
881	 0,194961735373416 
882	 0,195381566065345 
883	 0,196366827292688 
884	 0,196999009997487 
885	 0,196712228703525 
886	 0,195622642237343 
887	 0,195641840798448 
888	 0,195958395115967 
889	 0,195713568180268 
890	 0,195354083853845 
891	 0,195163218566154 
892	 0,195612310920428 
893	 0,195955467457374 
894	 0,195988926722119 
895	 0,196044995412436 
896	 0,196246779888492 
897	 0,196586081798252 
898	 0,196033528111439 
899	 0,195300098054454 
900	 0,195902147951595 
901	 0,196626750869966 
902	 0,197079579860291 
903	 0,197300135488413 
904	 0,197054692628251 
905	 0,196349841320412 
906	 0,196186441922467 
907	 0,19663244502155 
908	 0,197569813581919 
909	 0,196906653338086 
910	 0,195146016157919 
911	 0,195584586195069 
912	 0,196212049359019 
913	 0,196086934132236 
914	 0,195617696311338 
915	 0,195257995265462 
916	 0,195468610676324 
917	 0,195866892452053 
918	 0,196284250685145 
919	 0,196636023844262 
920	 0,196238630731655 
921	 0,195242259514439 
922	 0,195528412147655 
923	 0,196171392599185 
924	 0,196251322988609 
925	 0,195327085629217 
926	 0,194238919296843 
927	 0,194660903765089 
928	 0,194202179404572 
929	 0,192909396921722 
930	 0,193552875794619 
931	 0,194254194735918 
932	 0,193994610495039 
933	 0,194131057675626 
934	 0,193991808719084 
935	 0,192619394873502 
936	 0,191978943000999 
937	 0,192216052656923 
938	 0,192603833540423 
939	 0,191751369041009 
940	 0,189725293464849 
941	 0,189952931061467 
942	 0,190888859392821 
943	 0,190881491860909 
944	 0,189427912186657 
945	 0,187555673124958 
946	 0,187374359920762 
947	 0,186612731899345 
948	 0,185239762722979 
949	 0,185629044400607 
950	 0,185714409116532 
951	 0,18461934127354 
952	 0,185080649848872 
953	 0,185547433832514 
954	 0,183899559759878 
955	 0,181543435691033 
956	 0,179853325009528 
957	 0,181777653366451 
958	 0,181730541825566 
959	 0,178796463013614 
960	 0,178688963275012 
961	 0,17873003053108 
962	 0,177000594701402 
963	 0,176513275264165 
964	 0,176672006186975 
965	 0,175955278661208 
966	 0,176132766458319 
967	 0,176834894536653 
968	 0,175535146925741 
969	 0,174712510933836 
970	 0,175320819787352 
971	 0,176254410361894 
972	 0,176949480059465 
973	 0,176882466347316 
974	 0,1753156217772 
975	 0,173888003730264 
976	 0,175655439652495 
977	 0,176293842409525 
978	 0,175247217176727 
979	 0,175120568631614 
980	 0,174689413196806 
981	 0,173858658725688 
982	 0,175613624689621 
983	 0,17704585552108 
984	 0,175342457547096 
985	 0,176200753254608 
986	 0,178336895703775 
987	 0,177303412799325 
988	 0,176209299264942 
989	 0,175984156743105 
990	 0,176600831861779 
991	 0,177075207535794 
992	 0,177096479567506 
993	 0,178365943406515 
994	 0,179665369783348 
995	 0,179611790952141 
996	 0,178780603000388 
997	 0,177892036943616 
998	 0,177999512815115 
999	 0,179893075330146 
1000	 0,182798538840821 
1001	 0,183875902431321 
1002	 0,18163660287654 
1003	 0,176978255629125 
1004	 0,179235821232913 
1005	 0,183567063698447 
1006	 0,184406160644912 
1007	 0,182637691046106 
1008	 0,179953302238911 
1009	 0,179038830742127 
1010	 0,181116146368804 
1011	 0,185088112373165 
1012	 0,186612319268478 
1013	 0,186185979156822 
1014	 0,18444887356539 
1015	 0,183685759585147 
1016	 0,184134826643873 
1017	 0,185755234479997 
1018	 0,187825956967899 
1019	 0,189155679373022 
1020	 0,188269125970719 
1021	 0,18787387117375 
1022	 0,188218281948678 
1023	 0,187883587829613 
1024	 0,188211854317289 
1025	 0,189317825709803 
1026	 0,189814342050576 
1027	 0,189385843203539 
1028	 0,187973394601807 
1029	 0,186383702039954 
1030	 0,185618399865576 
1031	 0,186704764869198 
1032	 0,190572502077506 
1033	 0,195313845493877 
1034	 0,197089123656374 
1035	 0,194966782896018 
1036	 0,190853253684232 
1037	 0,192514792012841 
1038	 0,190774331713574 
1039	 0,184257746651419 
1040	 0,188838086522614 
1041	 0,193692802733007 
1042	 0,190369528162725 
1043	 0,19242158211234 
1044	 0,19573365990815 
1045	 0,192711549534534 
1046	 0,193430463157054 
1047	 0,197445346059959 
1048	 0,198916691956116 
1049	 0,195194619924796 
1050	 0,188333116960121 
1051	 0,189216333101141 
1052	 0,189582976892575 
1053	 0,187339981123665 
1054	 0,19615979079765 
1055	 0,201642045432367 
1056	 0,193436131779376 
1057	 0,195837850835324 
1058	 0,205554722753005 
1059	 0,212212155180342 
1060	 0,199961318816513 
1061	 0,18138516668564 
1062	 0,192375352384876 
1063	 0,202953794444557 
1064	 0,206247488912143 
1065	 0,215036979438195 
1066	 0,212498940761956 
1067	 0,195181472309276 
1068	 0,186502044794444 
1069	 0,1894312406208 
1070	 0,200912742032111 
1071	 0,192253109311722 
1072	 0,184291106037021 
1073	 0,20261837906588 
1074	 0,204695315504971 
1075	 0,192380890478102 
