Wavelength	AURAY00520.asd
325	 1,20412523842973E-02 
326	 5,17504800032681E-02 
327	 3,14013953229369E-02 
328	-0,079625718561618 
329	-1,78895448388663E-03 
330	 0,108216899018385 
331	 0,139122816038986 
332	 6,98012031423976E-02 
333	-0,023837639694602 
334	 8,67614405528434E-02 
335	 0,122728011037989 
336	 3,26410079409455E-02 
337	-5,08993845690795E-02 
338	-7,29725349896067E-02 
339	 1,12028034928962E-02 
340	 0,077999600550228 
341	 9,57884187690344E-02 
342	 5,02347693541098E-02 
343	 5,72297351161817E-02 
344	 0,133461378673547 
345	 0,116966441697568 
346	 3,69457390538075E-02 
347	-7,61579679446977E-02 
348	-0,061619788133382 
349	 0,047228425176873 
350	 9,39907850606986E-02 
351	 5,62843420299882E-02 
352	-4,65282522484846E-02 
353	-4,31620159849615E-02 
354	 1,46560118732248E-02 
355	 3,37627396650055E-02 
356	 2,59012772584129E-02 
357	 4,28684706115571E-03 
358	 2,6142014509289E-03 
359	 1,10431217027423E-02 
360	 2,49442093469021E-02 
361	 4,90312265478494E-02 
362	 6,61423492875622E-02 
363	 5,46960749605188E-02 
364	 3,23429081173657E-02 
365	 1,22338567908735E-02 
366	 2,40429861208246E-02 
367	 3,00772803359121E-02 
368	 9,78052510058786E-03 
369	 1,12682545980469E-02 
370	 2,16171815125434E-02 
371	 6,99279779588818E-03 
372	 1,08899686046642E-02 
373	 3,71049422141628E-02 
374	 4,94588392640397E-02 
375	 5,06297514427625E-02 
376	 4,37402790583207E-02 
377	 0,024833508595475 
378	 9,52669982382718E-03 
379	 3,16209057639139E-02 
380	 4,60138066791079E-02 
381	 4,37097898732005E-02 
382	 4,31643026762857E-02 
383	 4,57280357217963E-02 
384	 5,07868367209086E-02 
385	 3,85183908309591E-02 
386	 2,23507608961674E-02 
387	 4,72899266148049E-02 
388	 6,19061524070655E-02 
389	 5,06190752935652E-02 
390	 4,02160169258119E-02 
391	 3,51518821643973E-02 
392	 0,037653748524062 
393	 4,37649488271405E-02 
394	 4,60942298634845E-02 
395	 2,72484685806786E-02 
396	 8,86143283937086E-03 
397	 5,7677159633909E-03 
398	 1,85392083101699E-02 
399	 3,42778404250164E-02 
400	 0,035978059924083 
401	 3,45259452773444E-02 
402	 3,20334082575046E-02 
403	 2,44656530488075E-02 
404	 2,30463620720581E-02 
405	 3,33440142492444E-02 
406	 3,59149897656643E-02 
407	 3,03609716847253E-02 
408	 1,98774195197773E-02 
409	 2,25992852143627E-02 
410	 3,79878518419698E-02 
411	 3,86922178354819E-02 
412	 3,26342194463329E-02 
413	 2,83651762705531E-02 
414	 2,33671404635071E-02 
415	 2,11053853537107E-02 
416	 3,15540041149797E-02 
417	 3,62812738272194E-02 
418	 0,029299876867536 
419	 2,48322165780421E-02 
420	 2,34727764428421E-02 
421	 2,42657561797661E-02 
422	 2,51566595845764E-02 
423	 2,52820164319539E-02 
424	 2,34289901665968E-02 
425	 2,47581285050521E-02 
426	 3,11188176439239E-02 
427	 3,01157110923366E-02 
428	 2,60815348520586E-02 
429	 2,99128496758198E-02 
430	 3,14042575421528E-02 
431	 2,90297579718106E-02 
432	 2,96326225767681E-02 
433	 3,02609046238665E-02 
434	 2,81725119603961E-02 
435	 2,49641484583837E-02 
436	 2,31339131044954E-02 
437	 2,85257954443186E-02 
438	 3,06264900068893E-02 
439	 2,70360611624224E-02 
440	 3,21831822690972E-02 
441	 3,75081994935065E-02 
442	 3,09318175565684E-02 
443	 2,90048260059801E-02 
444	 3,29265488495954E-02 
445	 3,23998828019445E-02 
446	 3,16078847661163E-02 
447	 3,30106542459256E-02 
448	 3,52065874479347E-02 
449	 3,59409343256979E-02 
450	 3,10386677166538E-02 
451	 2,98431321737878E-02 
452	 3,37779856573042E-02 
453	 3,47607766393445E-02 
454	 3,43174654287897E-02 
455	 3,42289718417417E-02 
456	 3,50557474874372E-02 
457	 3,60260408784127E-02 
458	 3,47998916677375E-02 
459	 3,30560887689517E-02 
460	 3,17037707734654E-02 
461	 3,11065323987818E-02 
462	 3,16276367733843E-02 
463	 3,36518560496831E-02 
464	 3,46237252173119E-02 
465	 3,42151996166753E-02 
466	 3,38926160588759E-02 
467	 3,38421174468191E-02 
468	 3,41784101374025E-02 
469	 3,45249385807769E-02 
470	 3,48363776616272E-02 
471	 3,52716620790951E-02 
472	 3,44676904061144E-02 
473	 3,31920999694452E-02 
474	 3,77313022949226E-02 
475	 4,04410342134304E-02 
476	 0,034162065291583 
477	 3,26092608647942E-02 
478	 3,59777125425538E-02 
479	 3,66663032719452E-02 
480	 3,71304426138682E-02 
481	 3,79704200101682E-02 
482	 0,036288794163388 
483	 3,43838627252746E-02 
484	 0,036001353474885 
485	 3,60215690400896E-02 
486	 3,43654775678423E-02 
487	 3,65090815831902E-02 
488	 3,76583975077457E-02 
489	 3,46001533339885E-02 
490	 3,41527968920533E-02 
491	 3,53870956356417E-02 
492	 3,32292355495744E-02 
493	 0,033091868962199 
494	 3,59025061735931E-02 
495	 3,62008748851018E-02 
496	 3,50875853338567E-02 
497	 3,42930691767668E-02 
498	 3,43855164051353E-02 
499	 3,55041513884986E-02 
500	 3,79586283926044E-02 
501	 3,81960648328937E-02 
502	 0,03471840754184 
503	 3,25914327929127E-02 
504	 0,032760825210359 
505	 3,57570219924259E-02 
506	 3,68764351104122E-02 
507	 3,56797766203462E-02 
508	 0,037435655624257 
509	 3,94646897409169E-02 
510	 3,92640675103746E-02 
511	 3,87416833284644E-02 
512	 3,87827583069587E-02 
513	 0,041048465414709 
514	 4,15989079776432E-02 
515	 3,92619502297547E-02 
516	 3,86456084091324E-02 
517	 3,90256129492734E-02 
518	 3,86835499363002E-02 
519	 3,91851721535894E-02 
520	 4,04404782308608E-02 
521	 4,08319368343449E-02 
522	 4,11434043514607E-02 
523	 4,18962129395346E-02 
524	 4,22600545227523E-02 
525	 4,21794332881472E-02 
526	 4,16477554002749E-02 
527	 4,19786948264143E-02 
528	 4,31877284349905E-02 
529	 4,25510501752683E-02 
530	 4,16012078815027E-02 
531	 4,22862843965369E-02 
532	 4,32835407912013E-02 
533	 4,39419179065118E-02 
534	 4,31990142529613E-02 
535	 4,27817468535222E-02 
536	 4,35119172325401E-02 
537	 4,28611842267993E-02 
538	 4,19034558283304E-02 
539	 4,32972645413555E-02 
540	 0,043950510164628 
541	 4,32930112985756E-02 
542	 4,34213626466478E-02 
543	 4,38923892158943E-02 
544	 4,41617086598763E-02 
545	 4,40778729056706E-02 
546	 4,37816046963171E-02 
547	 4,35978648328788E-02 
548	 4,43628356149982E-02 
549	 4,60999027125218E-02 
550	 4,58335288317255E-02 
551	 4,48683540851586E-02 
552	 4,57798417207958E-02 
553	 4,61592967243364E-02 
554	 4,57062313124977E-02 
555	 4,60982240176111E-02 
556	 0,046232910587391 
557	 4,52832163966497E-02 
558	 4,51561064853901E-02 
559	 4,55940494025969E-02 
560	 4,50367144153069E-02 
561	 4,45478740703544E-02 
562	 4,46156249889659E-02 
563	 4,54230735381165E-02 
564	 0,046437483182322 
565	 4,69636573392312E-02 
566	 4,67969817968346E-02 
567	 4,61185291960943E-02 
568	 4,56685913983425E-02 
569	 4,56993322789518E-02 
570	 4,63634708452552E-02 
571	 4,72309426633944E-02 
572	 0,048060954362896 
573	 4,85283577555438E-02 
574	 4,91882966419058E-02 
575	 5,00177642037337E-02 
576	 4,98378440245875E-02 
577	 4,94765771657883E-02 
578	 4,99427778234333E-02 
579	 5,06870078055357E-02 
580	 5,14567268151609E-02 
581	 5,19040684656632E-02 
582	 5,21970817797891E-02 
583	 5,24400256523491E-02 
584	 5,25432887051084E-02 
585	 5,29053969980581E-02 
586	 5,43066711635901E-02 
587	 0,054909569988011 
588	 5,44189119889656E-02 
589	 5,43201355941438E-02 
590	 5,44970040987924E-02 
591	 0,054771555780354 
592	 5,50036079159588E-02 
593	 0,055261915617079 
594	 5,59667876052739E-02 
595	 5,60747556033473E-02 
596	 5,53295057054341E-02 
597	 5,56532293201435E-02 
598	 5,62692288978102E-02 
599	 5,57259736440497E-02 
600	 5,50775686275505E-02 
601	 5,46516817280773E-02 
602	 5,43736326966669E-02 
603	 5,46550039908782E-02 
604	 5,56742280674748E-02 
605	 5,56813550901375E-02 
606	 5,49425799374281E-02 
607	 5,48733366058252E-02 
608	 0,054832062863425 
609	 5,46805956906589E-02 
610	 5,48867472914704E-02 
611	 5,49422716716402E-02 
612	 5,41959548819952E-02 
613	 5,42709622245924E-02 
614	 0,054904794994282 
615	 5,37765029766078E-02 
616	 5,28036782411286E-02 
617	 5,31337953057742E-02 
618	 5,31455104509276E-02 
619	 0,052966638274128 
620	 5,33227760567854E-02 
621	 5,36879918972699E-02 
622	 5,38817815638615E-02 
623	 5,39440569033376E-02 
624	 5,39747012402395E-02 
625	 0,054061545938303 
626	 5,37359943121122E-02 
627	 5,32179382678511E-02 
628	 5,33152191799752E-02 
629	 5,39534506434369E-02 
630	 5,48781024600112E-02 
631	 5,45759277299956E-02 
632	 5,37450469638563E-02 
633	 5,37800191359649E-02 
634	 5,42114404899131E-02 
635	 5,47840798795913E-02 
636	 5,48440945293061E-02 
637	 5,52582889379624E-02 
638	 5,66494279968026E-02 
639	 5,70179941904513E-02 
640	 5,65389526231493E-02 
641	 5,65875117614146E-02 
642	 5,67274981660513E-02 
643	 5,68542056204575E-02 
644	 5,71060846080573E-02 
645	 5,74974669798759E-02 
646	 5,80336729281364E-02 
647	 5,84755486042909E-02 
648	 0,058653059693803 
649	 5,82510181426265E-02 
650	 0,057842949250103 
651	 0,057808357638755 
652	 5,78278152169807E-02 
653	 5,76649929822416E-02 
654	 5,69482863590924E-02 
655	 0,056118751147213 
656	 5,54348197465989E-02 
657	 5,52893600198717E-02 
658	 5,50722172764195E-02 
659	 5,41559434590171E-02 
660	 5,33296958447715E-02 
661	 5,27451708357826E-02 
662	 5,22930159712863E-02 
663	 5,19124855692642E-02 
664	 5,15342894025525E-02 
665	 0,050965520130437 
666	 5,04183784712824E-02 
667	 5,02495084192189E-02 
668	 5,01521728780754E-02 
669	 4,99783069636217E-02 
670	 4,94794314244095E-02 
671	 4,92256497865083E-02 
672	 4,96048252828368E-02 
673	 0,049468164605526 
674	 4,89789220066693E-02 
675	 4,89158827620098E-02 
676	 4,95189505592287E-02 
677	 5,05548659455649E-02 
678	 5,00314139560097E-02 
679	 4,93785631647202E-02 
680	 5,04539719905204E-02 
681	 0,051001227468465 
682	 5,08041801727991E-02 
683	 5,09127528044943E-02 
684	 0,051224080220767 
685	 0,051676381135246 
686	 5,20537853968403E-02 
687	 5,26101551251573E-02 
688	 5,38548246934237E-02 
689	 5,50848187660802E-02 
690	 5,61835671617915E-02 
691	 5,76457303675474E-02 
692	 5,93678039920528E-02 
693	 6,12545169743438E-02 
694	 6,35157296789174E-02 
695	 6,61395956346837E-02 
696	 6,89858219702905E-02 
697	 7,21221489724515E-02 
698	 7,54812533766793E-02 
699	 7,84936633073958E-02 
700	 8,17365665558458E-02 
701	 8,60059695266827E-02 
702	 9,00207432783693E-02 
703	 9,35650028767413E-02 
704	 9,71449100386248E-02 
705	 0,100789326188034 
706	 0,104484106824946 
707	 0,107871499503268 
708	 0,111145047427141 
709	 0,114831749851405 
710	 0,117767451826819 
711	 0,119844085230334 
712	 0,122284294992115 
713	 0,124955710050119 
714	 0,127638380551248 
715	 0,129681122021995 
716	 0,131270988249923 
717	 0,13325951118271 
718	 0,135065046017868 
719	 0,136532997061274 
720	 0,138250541666644 
721	 0,13983880996729 
722	 0,140760065971194 
723	 0,141741233987178 
724	 0,14288230884825 
725	 0,143872490533128 
726	 0,144717797516505 
727	 0,145424952298173 
728	 0,1459909178839 
729	 0,146638682322221 
730	 0,147791092166677 
731	 0,148523375862642 
732	 0,148657038382519 
733	 0,148726808768005 
734	 0,149094791670497 
735	 0,150004744420693 
736	 0,150644688913495 
737	 0,15092391528037 
738	 0,150997288306621 
739	 0,151198824381891 
740	 0,15163216766821 
741	 0,151942470940649 
742	 0,152221091356835 
743	 0,152603175246041 
744	 0,152869897615398 
745	 0,15307683452702 
746	 0,153572665671165 
747	 0,15397514665455 
748	 0,154070224840724 
749	 0,153913812014629 
750	 0,153820365386615 
751	 0,154257685355932 
752	 0,154418640712179 
753	 0,154261636126774 
754	 0,154525665330164 
755	 0,154888248659661 
756	 0,155123258515488 
757	 0,155500026350212 
758	 0,155931303337957 
759	 0,156187638001554 
760	 0,156298705641412 
761	 0,156297671621675 
762	 0,15626254997808 
763	 0,156416100816143 
764	 0,156920979144559 
765	 0,157098617914452 
766	 0,156974765916559 
767	 0,156984025869635 
768	 0,156927990635453 
769	 0,156860280561894 
770	 0,157441282852385 
771	 0,158106510516721 
772	 0,158147732739525 
773	 0,158260368763322 
774	 0,158457960620481 
775	 0,158241167713551 
776	 0,15822709724055 
777	 0,158667681591221 
778	 0,158924171486498 
779	 0,158897527536264 
780	 0,158548355339946 
781	 0,158758039964296 
782	 0,159441275965719 
783	 0,15934382322244 
784	 0,159269978022116 
785	 0,159682263681706 
786	 0,159739933822348 
787	 0,15954347431527 
788	 0,159448153416489 
789	 0,159754674223923 
790	 0,160369474780887 
791	 0,160450300863826 
792	 0,160509647446382 
793	 0,160907686088858 
794	 0,160720285635564 
795	 0,160245143490434 
796	 0,160422133209309 
797	 0,160653345488841 
798	 0,160784261517919 
799	 0,16102124001945 
800	 0,1613503014072 
801	 0,161707047307469 
802	 0,161417754564493 
803	 0,160879212853349 
804	 0,161424733514434 
805	 0,161962899377821 
806	 0,162055963475079 
807	 0,161652950743609 
808	 0,161422220696808 
809	 0,16204523579765 
810	 0,162674729466239 
811	 0,162986732957026 
812	 0,162598473177425 
813	 0,162397039654204 
814	 0,162722061197346 
815	 0,162990948994696 
816	 0,163127900694943 
817	 0,163109535518323 
818	 0,163102870611926 
819	 0,163173417906549 
820	 0,163398915159862 
821	 0,163475654950135 
822	 0,163337345437319 
823	 0,163607208929731 
824	 0,163925749796472 
825	 0,163765728634066 
826	 0,163739129739843 
827	 0,163811025130503 
828	 0,163322293958265 
829	 0,163165677459053 
830	 0,163710861794991 
831	 0,164084276269007 
832	 0,16410888880727 
833	 0,163698363491646 
834	 0,163467652922556 
835	 0,16353391588376 
836	 0,163650312639532 
837	 0,163875331107722 
838	 0,164192074992162 
839	 0,164339577833608 
840	 0,164410619857793 
841	 0,164578682530586 
842	 0,164766124565771 
843	 0,164810924212213 
844	 0,16419138457565 
845	 0,163841233328514 
846	 0,164229599141952 
847	 0,164660677440581 
848	 0,164871737364824 
849	 0,164631545479965 
850	 0,164366405654036 
851	 0,164249756911476 
852	 0,164399350024085 
853	 0,164623012256514 
854	 0,164787648784844 
855	 0,164812403818441 
856	 0,164841791140092 
857	 0,165083872200826 
858	 0,164945956609438 
859	 0,164514402451037 
860	 0,164520791803075 
861	 0,164663312565041 
862	 0,16476276015175 
863	 0,164652075018885 
864	 0,164721074715345 
865	 0,165472766312358 
866	 0,16573439676752 
867	 0,165330667816341 
868	 0,164579463042889 
869	 0,16421820132657 
870	 0,164580543668089 
871	 0,165160293188426 
872	 0,165462291147298 
873	 0,165009302685966 
874	 0,165208080086768 
875	 0,16593272594321 
876	 0,165911649743991 
877	 0,165695427764895 
878	 0,165551011737528 
879	 0,165707355175166 
880	 0,165736684159805 
881	 0,165220290118174 
882	 0,165414270368802 
883	 0,166196690193908 
884	 0,166595853274446 
885	 0,166911756650811 
886	 0,167044734147598 
887	 0,166112832955102 
888	 0,165325184229159 
889	 0,165752959296132 
890	 0,165544370010676 
891	 0,164928242252094 
892	 0,165128071295984 
893	 0,165432022657221 
894	 0,165685381926051 
895	 0,16628652051258 
896	 0,166671354962431 
897	 0,166432718617349 
898	 0,166146621110709 
899	 0,166007314357299 
900	 0,166161086804577 
901	 0,166549543631257 
902	 0,167004356971083 
903	 0,167039017033238 
904	 0,166999352016477 
905	 0,167081932284891 
906	 0,166941930910959 
907	 0,166905043571646 
908	 0,167466181872859 
909	 0,167487975138404 
910	 0,16704092851463 
911	 0,167327440278528 
912	 0,167416012231849 
913	 0,166924993351168 
914	 0,166180266874106 
915	 0,166248679700138 
916	 0,168108359767314 
917	 0,168718628320693 
918	 0,168129640203848 
919	 0,168185824607412 
920	 0,16800906248464 
921	 0,16751859557951 
922	 0,167446319369871 
923	 0,167865335016305 
924	 0,168647663467576 
925	 0,168211212724039 
926	 0,167338184475661 
927	 0,167920873974403 
928	 0,168047437547953 
929	 0,167455327444174 
930	 0,167228696667048 
931	 0,167146928126412 
932	 0,167087018606172 
933	 0,167098473508288 
934	 0,167086809295375 
935	 0,166933502942374 
936	 0,166634010600678 
937	 0,16626485832267 
938	 0,1659218963709 
939	 0,166248381099809 
940	 0,167195786341729 
941	 0,167261663521675 
942	 0,166675138635353 
943	 0,165876015337057 
944	 0,166365743580871 
945	 0,167395922769419 
946	 0,16712915260147 
947	 0,166195288171124 
948	 0,165046474534619 
949	 0,164601103476877 
950	 0,164582691568602 
951	 0,164740931802596 
952	 0,164438987057274 
953	 0,164657224959352 
954	 0,166473260261607 
955	 0,165617547768578 
956	 0,163049550093989 
957	 0,16359592216158 
958	 0,164428048609368 
959	 0,164650175060808 
960	 0,164717849945492 
961	 0,164310576172785 
962	 0,163348936251846 
963	 0,163292907722803 
964	 0,163401271812102 
965	 0,162242696087413 
966	 0,162384855918754 
967	 0,163726062424164 
968	 0,164034073400742 
969	 0,163586928084426 
970	 0,162804265507057 
971	 0,163496824490062 
972	 0,16416595711694 
973	 0,163369214304429 
974	 0,161626850916479 
975	 0,160796601060383 
976	 0,163945350337543 
977	 0,16567379772237 
978	 0,164926396294081 
979	 0,163697931399855 
980	 0,163621031098344 
981	 0,16509919034305 
982	 0,164910709705944 
983	 0,163954579949837 
984	 0,163431794168281 
985	 0,163133058408021 
986	 0,163077724782083 
987	 0,163291115148749 
988	 0,163500531687932 
989	 0,163686919312642 
990	 0,164129448458438 
991	 0,164616500791774 
992	 0,165158368165691 
993	 0,16663209276731 
994	 0,167838320984662 
995	 0,167484031034145 
996	 0,165921324684105 
997	 0,164565258948147 
998	 0,165887675397605 
999	 0,167585397280487 
1000	 0,168964844927234 
1001	 0,170602278839558 
1002	 0,170347217011487 
1003	 0,16792851222413 
1004	 0,168326153819205 
1005	 0,169896449460426 
1006	 0,170460172664613 
1007	 0,168575654964725 
1008	 0,166093215915405 
1009	 0,166633763854127 
1010	 0,167987050927791 
1011	 0,168923818759509 
1012	 0,167380680110784 
1013	 0,167089135590516 
1014	 0,168757757521372 
1015	 0,166342219476415 
1016	 0,165297431703333 
1017	 0,169820130745601 
1018	 0,172750289928445 
1019	 0,173008806960355 
1020	 0,17071828487333 
1021	 0,171378082458359 
1022	 0,174569099403631 
1023	 0,175005969950351 
1024	 0,17658180167251 
1025	 0,178673036663267 
1026	 0,172850874596979 
1027	 0,168548626219987 
1028	 0,171303468518529 
1029	 0,171804129291632 
1030	 0,171080595492374 
1031	 0,171479408904476 
1032	 0,172736022394265 
1033	 0,174462309269482 
1034	 0,17587046104297 
1035	 0,178146841148752 
1036	 0,179843324714156 
1037	 0,17489141550457 
1038	 0,171705095174423 
1039	 0,173629538801301 
1040	 0,174812422032216 
1041	 0,174677060399192 
1042	 0,1736696816479 
1043	 0,178402268003488 
1044	 0,181738583661843 
1045	 0,173628424417129 
1046	 0,1760914702935 
1047	 0,184141130246399 
1048	 0,174411180270976 
1049	 0,16902538381943 
1050	 0,172025575609426 
1051	 0,170949092966365 
1052	 0,169192573619694 
1053	 0,169068365428412 
1054	 0,173449703913765 
1055	 0,180266400470979 
1056	 0,186401523325574 
1057	 0,182259967661165 
1058	 0,176609399195575 
1059	 0,182838375574695 
1060	 0,176574698818341 
1061	 0,165118268173928 
1062	 0,176896269484106 
1063	 0,180368973078029 
1064	 0,172037871383247 
1065	 0,174982327628103 
1066	 0,181742075706725 
1067	 0,187334238099208 
1068	 0,183224533152926 
1069	 0,17722888484619 
1070	 0,175919074950433 
1071	 0,176210454844041 
1072	 0,178926255973607 
1073	 0,184093563727592 
1074	 0,170978658332606 
1075	 0,155483883439548 
