Wavelength	AURAY00110.asd
325	-0,131480953542573 
326	-4,70362351403244E-02 
327	-7,27493059183224E-02 
328	-0,24330251618949 
329	-0,158580592399499 
330	 1,08994481600535E-03 
331	 9,16798848142273E-02 
332	 4,27962235556105E-02 
333	-7,33864293553656E-02 
334	-5,62507430175525E-02 
335	 0,06515340555148 
336	 0,201191387771633 
337	 7,64243225903543E-02 
338	-6,81981793873741E-02 
339	-8,6930012284901E-03 
340	-5,99174658006296E-03 
341	-4,75049101102126E-02 
342	-1,37465818654398E-02 
343	 0,026871794612228 
344	 4,74388260921557E-02 
345	 5,57046604761193E-02 
346	 3,35588413323437E-02 
347	-3,60538780375244E-02 
348	-6,01920367374628E-02 
349	-3,30766504432234E-02 
350	-5,69173660912575E-04 
351	 1,24612508814177E-02 
352	 2,38525373410135E-03 
353	 7,36533054745464E-03 
354	 1,06726162411068E-02 
355	-1,08252581489974E-02 
356	-8,99669821952565E-03 
357	 7,98111096951418E-03 
358	-1,16703980367253E-02 
359	-2,84809056520954E-02 
360	-2,28403692831943E-02 
361	 1,16015195650266E-02 
362	 4,57636884287188E-02 
363	 0,041887841111756 
364	 3,06735548239655E-02 
365	 2,41799839662939E-02 
366	 4,10706415456846E-02 
367	 3,53154259851854E-02 
368	-1,36494501336805E-02 
369	-9,80507097054946E-03 
370	 2,31474917684477E-02 
371	 2,59217555997799E-02 
372	 6,67023332453817E-03 
373	-2,22129016262582E-02 
374	-1,64207816715294E-02 
375	-6,48206677228648E-03 
376	-1,41859019540959E-02 
377	-1,73356156324979E-02 
378	-4,65835073158461E-03 
379	 4,40080175153945E-02 
380	 4,13902364178345E-02 
381	-1,42270290997161E-02 
382	-3,2524168446291E-03 
383	 2,29797772249625E-02 
384	 1,03336706946246E-02 
385	 7,07379488769153E-03 
386	 0,01594636799233 
387	 2,10793050444058E-02 
388	 0,028491156523188 
389	 3,77866214050847E-02 
390	 3,62336938831718E-02 
391	 2,73571402356223E-02 
392	 1,66849714851163E-02 
393	 1,46862552199069E-02 
394	 1,96975781155394E-02 
395	 2,12413230421376E-02 
396	 1,36189219607862E-02 
397	-1,26988502885787E-03 
398	 1,28549904432261E-02 
399	 3,09374645698111E-02 
400	 1,18816249585228E-02 
401	 3,71317438434466E-03 
402	 1,27263116842665E-02 
403	 0,013328949116296 
404	 1,28533919939316E-02 
405	 1,59753030145757E-02 
406	 1,61730793624141E-02 
407	 1,21457036632405E-02 
408	 1,03342884071178E-03 
409	 3,70268735976937E-03 
410	 1,96624424175003E-02 
411	 1,84800776103048E-02 
412	 1,15937034389238E-02 
413	 1,06406261120836E-02 
414	 7,00998006795641E-03 
415	 3,71079290100407E-03 
416	 1,19223297576956E-02 
417	 1,80968935082139E-02 
418	 1,65765748243892E-02 
419	 1,08970869817533E-02 
420	 5,02314451657257E-03 
421	 3,46058181031686E-03 
422	 5,69038435836242E-03 
423	 9,79440703822989E-03 
424	 0,011014622285577 
425	 9,51641031815534E-03 
426	 6,0542912012483E-03 
427	 5,27105751682222E-03 
428	 8,17010472028906E-03 
429	 1,59129023468665E-02 
430	 0,017720848535496 
431	 1,29133251186637E-02 
432	 1,44387344378255E-02 
433	 1,59093788808056E-02 
434	 1,16418645861542E-02 
435	 9,72041797797305E-03 
436	 1,04889045604517E-02 
437	 1,08416007448351E-02 
438	 1,14702887471589E-02 
439	 1,23806954352427E-02 
440	 1,29115754531496E-02 
441	 0,012708021661664 
442	 1,14127353719091E-02 
443	 1,16082349700312E-02 
444	 0,013345643724902 
445	 1,47333295942695E-02 
446	 1,49263182688084E-02 
447	 1,35882706370257E-02 
448	 1,27916469717898E-02 
449	 1,27383935259562E-02 
450	 1,30474892221245E-02 
451	 1,49077462900411E-02 
452	 1,74839405629801E-02 
453	 1,54047177624916E-02 
454	 1,43053262934015E-02 
455	 1,90680126005864E-02 
456	 1,92711151913413E-02 
457	 1,55521713184428E-02 
458	 0,015075445171931 
459	 1,38037354652734E-02 
460	 1,10431602591735E-02 
461	 1,26460862331628E-02 
462	 1,54917947697303E-02 
463	 1,48291462398417E-02 
464	 1,46406652825626E-02 
465	 1,52087418414924E-02 
466	 1,38503013255726E-02 
467	 1,35122859583234E-02 
468	 1,56660439993322E-02 
469	 1,46653042479559E-02 
470	 1,21256685124659E-02 
471	 1,29274555418162E-02 
472	 1,26691573179507E-02 
473	 1,10073383646198E-02 
474	 0,013260992964273 
475	 0,01530658790209 
476	 1,31279761934592E-02 
477	 1,29941564751811E-02 
478	 1,48152002688801E-02 
479	 1,47048554497442E-02 
480	 1,48256626972094E-02 
481	 1,56623734856827E-02 
482	 1,36472306252661E-02 
483	 1,09318365432666E-02 
484	 1,10718469584786E-02 
485	 1,18222242910472E-02 
486	 1,26023239382762E-02 
487	 1,39332250415778E-02 
488	 1,37863684598567E-02 
489	 1,11163358372504E-02 
490	 1,21101757236456E-02 
491	 1,46847213508261E-02 
492	 1,14787927654095E-02 
493	 9,72471695151073E-03 
494	 1,13550086548179E-02 
495	 1,21217576594688E-02 
496	 1,23400302051763E-02 
497	 1,27136798849052E-02 
498	 1,18883103062104E-02 
499	 1,07366785721178E-02 
500	 1,29555941803316E-02 
501	 1,42641252413737E-02 
502	 1,24105939763566E-02 
503	 9,80258308624477E-03 
504	 8,63753821660575E-03 
505	 1,22772418715442E-02 
506	 1,41400389253721E-02 
507	 0,012943238980093 
508	 1,26484974519438E-02 
509	 1,31954089840521E-02 
510	 1,43125628437233E-02 
511	 1,50449681715687E-02 
512	 1,52448419656711E-02 
513	 1,52339596956549E-02 
514	 1,46953815243617E-02 
515	 1,35328839120538E-02 
516	 1,16399025827374E-02 
517	 1,06585673845257E-02 
518	 1,27868317745202E-02 
519	 1,47766462641841E-02 
520	 1,56182929248947E-02 
521	 1,53115091574759E-02 
522	 0,014993616518449 
523	 1,53695833863773E-02 
524	 1,44213002028183E-02 
525	 1,30703560515527E-02 
526	 1,40617862321483E-02 
527	 1,52151929230472E-02 
528	 1,55952500783289E-02 
529	 1,46284338928332E-02 
530	 1,35545776396528E-02 
531	 1,38114656261361E-02 
532	 1,46205345121255E-02 
533	 1,53318144463933E-02 
534	 0,014529415698941 
535	 1,39670469523335E-02 
536	 1,44633328110338E-02 
537	 0,01327625319293 
538	 0,011981075879357 
539	 1,42685815359456E-02 
540	 1,51534505854151E-02 
541	 1,37117028735348E-02 
542	 1,33788205615677E-02 
543	 1,37548369968785E-02 
544	 1,42548874524072E-02 
545	 1,45579243157738E-02 
546	 1,45131481970453E-02 
547	 1,38544914079849E-02 
548	 1,38760487978673E-02 
549	 1,49286400147958E-02 
550	 0,014478867745432 
551	 1,36285172050292E-02 
552	 1,45747308991679E-02 
553	 1,46084399124483E-02 
554	 0,013560213582152 
555	 1,39689889189384E-02 
556	 1,45597097713619E-02 
557	 1,42747031765825E-02 
558	 1,43194005041688E-02 
559	 1,43909717603167E-02 
560	 1,31159557385546E-02 
561	 1,21989997920915E-02 
562	 1,23044169347217E-02 
563	 1,26179053607073E-02 
564	 0,01323403145059 
565	 1,43837463609416E-02 
566	 1,46974760125905E-02 
567	 1,41045603554423E-02 
568	 1,36005619072227E-02 
569	 1,37940257413245E-02 
570	 1,49599826756027E-02 
571	 1,52344333292182E-02 
572	 1,48950885567807E-02 
573	 1,51625282127932E-02 
574	 1,59623225042656E-02 
575	 1,69385742907265E-02 
576	 1,62299840029493E-02 
577	 1,52626642858087E-02 
578	 1,57673501111745E-02 
579	 1,66334410061244E-02 
580	 1,73831262176726E-02 
581	 1,74941816074296E-02 
582	 0,016984298706474 
583	 1,60400498440661E-02 
584	 1,59153529730193E-02 
585	 1,64112217832496E-02 
586	 0,016899944571503 
587	 1,68924943345749E-02 
588	 1,65233580199976E-02 
589	 1,72500582989791E-02 
590	 0,018198810263957 
591	 1,84607340128663E-02 
592	 1,76445402762046E-02 
593	 1,64072100605396E-02 
594	 1,66549919266933E-02 
595	 1,73009061414973E-02 
596	 1,77646945042321E-02 
597	 1,77961761511916E-02 
598	 1,74956402219223E-02 
599	 1,70671981529507E-02 
600	 1,67381413639578E-02 
601	 1,65805899158519E-02 
602	 0,016400751223441 
603	 1,66295156378254E-02 
604	 1,74884655801298E-02 
605	 1,75329494171079E-02 
606	 1,68421645604664E-02 
607	 1,60823574937556E-02 
608	 1,61418355199544E-02 
609	 1,71417433176084E-02 
610	 1,74252609590256E-02 
611	 1,70303734988113E-02 
612	 1,62073103874496E-02 
613	 1,62285745400322E-02 
614	 1,68067271397822E-02 
615	 1,57175918038272E-02 
616	 1,48852597713132E-02 
617	 1,54208623459031E-02 
618	 1,53645500995942E-02 
619	 1,50060482022495E-02 
620	 1,55133063960039E-02 
621	 0,015820716166022 
622	 0,015681957411998 
623	 1,56635856399465E-02 
624	 1,58661318720328E-02 
625	 1,63244988776774E-02 
626	 1,60856037236899E-02 
627	 1,54227115722917E-02 
628	 1,57502603758384E-02 
629	 1,60664171371966E-02 
630	 1,59481057347032E-02 
631	 1,62988741175707E-02 
632	 1,67509685791535E-02 
633	 1,65547714411382E-02 
634	 1,63261844457035E-02 
635	 0,016289201558876 
636	 1,65343404675101E-02 
637	 1,68585366265054E-02 
638	 1,70939796710837E-02 
639	 1,74521835762827E-02 
640	 1,79253354388118E-02 
641	 0,018502702291972 
642	 1,85925624071519E-02 
643	 1,81560607270676E-02 
644	 1,85275043080146E-02 
645	 1,93748553582133E-02 
646	 0,020106219280681 
647	 2,01670772215983E-02 
648	 1,97387506464783E-02 
649	 2,00543193566178E-02 
650	 2,03355594768779E-02 
651	 2,01092343114035E-02 
652	 2,01131619351069E-02 
653	 2,02552325240294E-02 
654	 2,01675717065297E-02 
655	 1,97508253346788E-02 
656	 1,91062824749118E-02 
657	 1,89096073746505E-02 
658	 1,88528501495625E-02 
659	 1,85726092927017E-02 
660	 1,80998435929953E-02 
661	 1,76212625126168E-02 
662	 1,76553555460631E-02 
663	 1,77328705256278E-02 
664	 1,75928849740666E-02 
665	 1,72445394872417E-02 
666	 1,68589679188165E-02 
667	 1,66734902780466E-02 
668	 1,69425328067939E-02 
669	 1,74403836048195E-02 
670	 1,70034361489622E-02 
671	 1,65045849808498E-02 
672	 0,01664232143426 
673	 1,67134594775959E-02 
674	 1,66775808059093E-02 
675	 1,66699990681606E-02 
676	 1,70338980136418E-02 
677	 1,76681095535754E-02 
678	 1,72284387802785E-02 
679	 1,65939310311748E-02 
680	 0,016922667574435 
681	 1,72573109411765E-02 
682	 1,74280201260541E-02 
683	 1,76551899061878E-02 
684	 1,78099668406026E-02 
685	 0,017820702304773 
686	 0,017739694111278 
687	 1,76783014983222E-02 
688	 1,77780319671012E-02 
689	 1,81987002337048E-02 
690	 1,89539809619146E-02 
691	 1,97183273065728E-02 
692	 2,09822384313756E-02 
693	 2,31283686866749E-02 
694	 2,49958172277603E-02 
695	 2,66806231057241E-02 
696	 2,89374107514979E-02 
697	 3,18133379124216E-02 
698	 3,53785384904889E-02 
699	 3,95460785826344E-02 
700	 4,43526137271445E-02 
701	 4,98562544647684E-02 
702	 5,56459350721924E-02 
703	 6,16886434980107E-02 
704	 0,068400372482715 
705	 7,52664614411323E-02 
706	 8,19823577694426E-02 
707	 8,90373182443794E-02 
708	 9,63092119653547E-02 
709	 0,103485872988664 
710	 0,110398151439175 
711	 0,117056681767278 
712	 0,123805961020454 
713	 0,130510562016096 
714	 0,13702675586226 
715	 0,143391194452461 
716	 0,149563154097424 
717	 0,155461789294009 
718	 0,161014922429822 
719	 0,166186156207434 
720	 0,171029573354271 
721	 0,175594890717892 
722	 0,179940012340065 
723	 0,183962106469598 
724	 0,187634186779677 
725	 0,190968168203998 
726	 0,193941454746551 
727	 0,196596826012785 
728	 0,199280608815601 
729	 0,202000561576698 
730	 0,204709436388617 
731	 0,206909844276794 
732	 0,208544345059135 
733	 0,210063328805704 
734	 0,21170285378191 
735	 0,213615751087063 
736	 0,215219741525474 
737	 0,216470400381625 
738	 0,217538697531884 
739	 0,218582983329489 
740	 0,219617192151772 
741	 0,220202904049783 
742	 0,220830912263587 
743	 0,222083704588717 
744	 0,22302302530506 
745	 0,22365533889225 
746	 0,224799088845256 
747	 0,225506023603366 
748	 0,225392129927416 
749	 0,225578872450457 
750	 0,22610313391042 
751	 0,226796592957473 
752	 0,227465477855155 
753	 0,227962046618068 
754	 0,228015849403499 
755	 0,228183033714729 
756	 0,228821532194671 
757	 0,229169910016502 
758	 0,229372706944514 
759	 0,230031705929099 
760	 0,230125795954883 
761	 0,229657532166921 
762	 0,23027001034781 
763	 0,231073523098938 
764	 0,231177289405009 
765	 0,23129612650254 
766	 0,231481615117795 
767	 0,23152561707919 
768	 0,231501301785759 
769	 0,231518094357334 
770	 0,23198130077868 
771	 0,232563917315547 
772	 0,232846790546774 
773	 0,233026868807755 
774	 0,233146191479242 
775	 0,233169795729537 
776	 0,23337915503278 
777	 0,23384125217252 
778	 0,233896987592415 
779	 0,23379240916071 
780	 0,23399693321917 
781	 0,234146188899019 
782	 0,234155300608492 
783	 0,234037835597217 
784	 0,234040765470359 
785	 0,234313289140476 
786	 0,234621420665809 
787	 0,234879560888715 
788	 0,235002778332539 
789	 0,235201347777342 
790	 0,235450774750944 
791	 0,235398413003355 
792	 0,235177883760036 
793	 0,234954326350972 
794	 0,235224822211968 
795	 0,235636594195203 
796	 0,235232528986026 
797	 0,234977551232202 
798	 0,235159153295253 
799	 0,235474908694237 
800	 0,23572137486469 
801	 0,235738590075469 
802	 0,235904961269878 
803	 0,236132917448967 
804	 0,235954015840953 
805	 0,236111702603435 
806	 0,236689041407318 
807	 0,236498114446205 
808	 0,236268328032589 
809	 0,236836508968887 
810	 0,237452655885375 
811	 0,237845630293522 
812	 0,237722484678913 
813	 0,237619302242582 
814	 0,237779460088822 
815	 0,238110703792225 
816	 0,238217859890466 
817	 0,237684131711037 
818	 0,237996082688327 
819	 0,23892947676555 
820	 0,238777233675086 
821	 0,238429909319142 
822	 0,238433951155136 
823	 0,239502429829971 
824	 0,240422075390429 
825	 0,239600351552695 
826	 0,239342819655472 
827	 0,239902497961702 
828	 0,240200386123009 
829	 0,240408284375198 
830	 0,240567655636781 
831	 0,240552508600708 
832	 0,240452836958124 
833	 0,240403903796969 
834	 0,240601121070698 
835	 0,240905079690107 
836	 0,240675429070507 
837	 0,240510745053129 
838	 0,240708465461518 
839	 0,240844203416936 
840	 0,241029510928908 
841	 0,241482788284222 
842	 0,241436327873031 
843	 0,240964497348279 
844	 0,24093411053173 
845	 0,241169080830507 
846	 0,24154246047123 
847	 0,241828192595999 
848	 0,242020283541032 
849	 0,242163286687342 
850	 0,242327576674383 
851	 0,242373465154219 
852	 0,24176371202909 
853	 0,241205893519083 
854	 0,241128409693143 
855	 0,241491015638202 
856	 0,241844568783165 
857	 0,241600523171989 
858	 0,241866472528076 
859	 0,242517835903168 
860	 0,242237333022945 
861	 0,242052014191274 
862	 0,242383522653584 
863	 0,242213014688364 
864	 0,241981786935882 
865	 0,242375208612515 
866	 0,242497160807828 
867	 0,242204787634992 
868	 0,24163097728257 
869	 0,241658979432585 
870	 0,24251795079799 
871	 0,242635373422193 
872	 0,24264127791677 
873	 0,243434802809108 
874	 0,243777769092142 
875	 0,243641507290776 
876	 0,24377951126218 
877	 0,243750567190321 
878	 0,243520078928703 
879	 0,24386683367517 
880	 0,244373242988181 
881	 0,244523091664018 
882	 0,24432318317973 
883	 0,24412776420792 
884	 0,244915131649816 
885	 0,245454570352039 
886	 0,245307908944744 
887	 0,244696830385679 
888	 0,24458150000228 
889	 0,245690652904731 
890	 0,245753506484629 
891	 0,245000880868638 
892	 0,244886485018498 
893	 0,244588874683339 
894	 0,24415291713915 
895	 0,244809121738513 
896	 0,245410924938588 
897	 0,245120798159041 
898	 0,245230743355874 
899	 0,245686345274449 
900	 0,246031395166543 
901	 0,246482315439604 
902	 0,246827700974195 
903	 0,246118259367899 
904	 0,2455784069098 
905	 0,245822595031091 
906	 0,245050964677169 
907	 0,244374823253149 
908	 0,245614164473158 
909	 0,246163778388859 
910	 0,245753182094635 
911	 0,2457405550889 
912	 0,24556550868443 
913	 0,245150785083671 
914	 0,245474670454803 
915	 0,245941859755745 
916	 0,245833645198359 
917	 0,246069580728719 
918	 0,246444062774518 
919	 0,245993675886396 
920	 0,24551877667203 
921	 0,245270621801727 
922	 0,244914591866449 
923	 0,244890931018936 
924	 0,245427679612521 
925	 0,245037574085074 
926	 0,244019010644754 
927	 0,243353981826233 
928	 0,242790007195169 
929	 0,242325378149638 
930	 0,242196161160478 
931	 0,241568745398704 
932	 0,240161105013381 
933	 0,239659993006994 
934	 0,239467129554189 
935	 0,238608902821659 
936	 0,238779640651352 
937	 0,23951486533644 
938	 0,238533625991751 
939	 0,237193462586681 
940	 0,23622189275422 
941	 0,23659275082304 
942	 0,236548124694491 
943	 0,234677636806705 
944	 0,233743135996639 
945	 0,233308700974125 
946	 0,231654752201139 
947	 0,231055396982136 
948	 0,231416290574172 
949	 0,229970199399224 
950	 0,228531630335584 
951	 0,227936744273051 
952	 0,226380008525149 
953	 0,224789766825077 
954	 0,224411086292674 
955	 0,22310399570125 
956	 0,221325689511547 
957	 0,221445182956663 
958	 0,221587327313373 
959	 0,221095592851277 
960	 0,220254746655429 
961	 0,219083605992749 
962	 0,217751124314518 
963	 0,217361361174131 
964	 0,217805639361255 
965	 0,21864423330225 
966	 0,217453730447651 
967	 0,214831322235199 
968	 0,214566666294451 
969	 0,214810178006797 
970	 0,214879924376255 
971	 0,215522616158045 
972	 0,215718776998836 
973	 0,214691119776848 
974	 0,214561845187021 
975	 0,215161018795713 
976	 0,215547741151165 
977	 0,21512243601505 
978	 0,214049578672937 
979	 0,213406581702063 
980	 0,213959645653399 
981	 0,215558226558462 
982	 0,214933105426772 
983	 0,213845609359149 
984	 0,21429189746155 
985	 0,21477730395911 
986	 0,215077152687366 
987	 0,215264925191355 
988	 0,215633353929536 
989	 0,21599810550743 
990	 0,215427097689643 
991	 0,214473344710285 
992	 0,213953772471668 
993	 0,216619753758663 
994	 0,21932963465643 
995	 0,218745473163332 
996	 0,218005961346649 
997	 0,217222218941888 
998	 0,215396781627696 
999	 0,215288511827429 
1000	 0,217526506670202 
1001	 0,221760351744659 
1002	 0,222796593309128 
1003	 0,219145569458221 
1004	 0,219215639211012 
1005	 0,22053981781372 
1006	 0,220165780519644 
1007	 0,220218689027839 
1008	 0,220417978638019 
1009	 0,219643746754595 
1010	 0,22256961637201 
1011	 0,227176454373665 
1012	 0,222611105116724 
1013	 0,220157973577579 
1014	 0,223472346856846 
1015	 0,223150277446145 
1016	 0,222542859167346 
1017	 0,224733710096537 
1018	 0,228027599718926 
1019	 0,229434293768387 
1020	 0,225119966080408 
1021	 0,22552524540796 
1022	 0,23012822157048 
1023	 0,230314872238504 
1024	 0,229447905068873 
1025	 0,228898618651774 
1026	 0,230214491388669 
1027	 0,23069570406773 
1028	 0,228722036238151 
1029	 0,226163807042026 
1030	 0,225871222418826 
1031	 0,230220266041223 
1032	 0,230314603290836 
1033	 0,228521943255462 
1034	 0,233140246600937 
1035	 0,238175729414709 
1036	 0,240860225802796 
1037	 0,238734793844564 
1038	 0,233647827457631 
1039	 0,228646659345788 
1040	 0,232034173791898 
1041	 0,238222591311638 
1042	 0,241699362617148 
1043	 0,242441027240535 
1044	 0,239308578519949 
1045	 0,231528030511308 
1046	 0,234001990256805 
1047	 0,242057017362925 
1048	 0,236737823749163 
1049	 0,231909801889818 
1050	 0,23159612752081 
1051	 0,233531972195934 
1052	 0,236105729554558 
1053	 0,238044202354568 
1054	 0,238859688909934 
1055	 0,237276379584777 
1056	 0,232945645766144 
1057	 0,231624565707876 
1058	 0,230293980127058 
1059	 0,224045905659991 
1060	 0,22431732222642 
1061	 0,230065775621413 
1062	 0,233457560164466 
1063	 0,232310427439607 
1064	 0,229537794870359 
1065	 0,238846303381608 
1066	 0,245674844249411 
1067	 0,244508293910211 
1068	 0,243925664634243 
1069	 0,244287510782436 
1070	 0,24499536588232 
1071	 0,241270807777361 
1072	 0,238774658375543 
1073	 0,243195264998771 
1074	 0,229712640655859 
1075	 0,211973022471095 
