Wavelength	AURAY00111.asd
325	 1,50478916786922E-03 
326	 8,74463826136689E-02 
327	 0,109475308723818 
328	 4,40438060338196E-02 
329	 0,075685552914718 
330	 0,108972328250616 
331	 8,20619519083577E-02 
332	 0,061713240752196 
333	 5,69932144792177E-02 
334	 7,57091743013718E-02 
335	 0,110999255685439 
336	 0,130408262649682 
337	 1,46277712212779E-02 
338	-7,48673184139915E-02 
339	 8,81675575986791E-03 
340	 2,81668349794227E-02 
341	-1,01646755427768E-02 
342	-3,26302593314116E-03 
343	 3,69113886249147E-03 
344	 3,13250843533608E-03 
345	 0,039147360652802 
346	 4,85940150191322E-02 
347	-2,34008655512537E-02 
348	-8,32802797056828E-02 
349	-8,80878738638586E-02 
350	-2,62511403420893E-03 
351	 4,47211393903916E-02 
352	 1,92027919544897E-02 
353	-1,09120859867136E-02 
354	-2,50661468890304E-02 
355	-5,44729232105837E-03 
356	 1,73108541882022E-03 
357	-5,25253812497345E-03 
358	-5,45981960260909E-03 
359	-8,22763287761077E-03 
360	-1,35471743538933E-02 
361	 9,80445421453617E-03 
362	 3,13645503834431E-02 
363	 6,83860471155671E-03 
364	 1,07051880945447E-02 
365	 4,47216322933173E-02 
366	 5,49139248323494E-02 
367	 4,01411233477175E-02 
368	 6,75371878999016E-03 
369	 0,018440311784055 
370	 5,17187362125837E-02 
371	 5,58457710222853E-02 
372	 3,58332495120141E-02 
373	 3,74617894047435E-03 
374	 4,64990587513226E-03 
375	 1,22000690065289E-02 
376	 6,4697701899265E-03 
377	 7,82842652747022E-05 
378	-1,7237929949063E-03 
379	 7,64195720907698E-03 
380	 1,56503081172029E-02 
381	 1,82955195854256E-02 
382	 1,21105512915836E-02 
383	 7,07752751889482E-03 
384	 1,17008518561286E-02 
385	 1,49665712051456E-03 
386	-1,03299803702578E-02 
387	 0,022472494325319 
388	 4,63760799666091E-02 
389	 4,38247063064727E-02 
390	 3,66361826785848E-02 
391	 2,72244039099106E-02 
392	 1,62864084631601E-02 
393	 1,73010817045848E-02 
394	 2,43369333074923E-02 
395	 1,02864942160847E-02 
396	 4,07448060550446E-03 
397	 1,87191031289113E-02 
398	 2,25706346758653E-02 
399	 1,92968392390313E-02 
400	 1,93302023358505E-02 
401	 1,87591810777572E-02 
402	 1,69345216515696E-02 
403	 1,33631837287602E-02 
404	 1,33965867340382E-02 
405	 0,019494363936414 
406	 2,09010413197046E-02 
407	 1,73194759518657E-02 
408	 0,010005883492437 
409	 1,21902952324825E-02 
410	 0,023873652174428 
411	 2,78666767119508E-02 
412	 2,40828867407098E-02 
413	 1,37806763096493E-02 
414	 7,02605211828273E-03 
415	 5,78624875266242E-03 
416	 8,87304987914744E-03 
417	 0,012641061952696 
418	 0,014560217053962 
419	 0,011329404767854 
420	 7,77558706094007E-03 
421	 1,02908285968853E-02 
422	 1,31735322167148E-02 
423	 1,46005280986891E-02 
424	 0,013551631054013 
425	 1,22435174999271E-02 
426	 1,18154193714501E-02 
427	 9,09007207589696E-03 
428	 7,30122332116882E-03 
429	 0,012952688232309 
430	 1,74715933552936E-02 
431	 1,82283498441952E-02 
432	 1,64998440537781E-02 
433	 0,013660435821386 
434	 1,10755184671143E-02 
435	 1,18949864844188E-02 
436	 1,46635622683931E-02 
437	 1,42992575865074E-02 
438	 1,40124124121843E-02 
439	 1,47399475830752E-02 
440	 1,43387387927256E-02 
441	 1,37797858108191E-02 
442	 0,014482542924075 
443	 1,35530133825491E-02 
444	 1,17281021975068E-02 
445	 1,39235190411173E-02 
446	 0,01534307710745 
447	 1,35346021966653E-02 
448	 1,47991837574786E-02 
449	 1,74286535990052E-02 
450	 0,016719607298772 
451	 1,55597155297997E-02 
452	 1,49877750974869E-02 
453	 1,53017259677506E-02 
454	 0,016414442952915 
455	 1,80495116594134E-02 
456	 1,74147178198686E-02 
457	 0,015488831618412 
458	 1,66275360871121E-02 
459	 1,58430019637645E-02 
460	 1,20829869216068E-02 
461	 1,28261355068428E-02 
462	 0,01523082007249 
463	 1,46309888044505E-02 
464	 1,50937122128174E-02 
465	 1,65224724981705E-02 
466	 1,53785760603859E-02 
467	 1,35619305740341E-02 
468	 1,24255235101458E-02 
469	 1,12242400040629E-02 
470	 1,13917084018642E-02 
471	 1,64291742328632E-02 
472	 1,71599100249153E-02 
473	 1,27680453170347E-02 
474	 1,54154842633994E-02 
475	 1,81087166551376E-02 
476	 1,38349458609675E-02 
477	 1,40866909792625E-02 
478	 0,017390317481614 
479	 1,26010881670834E-02 
480	 1,05717770294354E-02 
481	 1,53065508712599E-02 
482	 1,66639820159443E-02 
483	 1,56268962942337E-02 
484	 1,52819537131361E-02 
485	 0,014243193671954 
486	 1,31210037796798E-02 
487	 1,51833705229565E-02 
488	 1,69893925769347E-02 
489	 1,59497026179857E-02 
490	 1,39916220826363E-02 
491	 1,16757114796891E-02 
492	 8,70635643416309E-03 
493	 9,62750990423417E-03 
494	 1,44338818595111E-02 
495	 1,37295256978682E-02 
496	 1,13707156159068E-02 
497	 1,24590397005202E-02 
498	 1,33249753784499E-02 
499	 1,34806331307754E-02 
500	 1,39268233787497E-02 
501	 1,43419153858488E-02 
502	 1,43475449465388E-02 
503	 1,21363086872931E-02 
504	 1,00582476051979E-02 
505	 1,26213430703139E-02 
506	 1,44051284570194E-02 
507	 0,014255833365687 
508	 1,50094824573625E-02 
509	 1,54424452690253E-02 
510	 1,44882150017539E-02 
511	 1,44736326260131E-02 
512	 1,52204597005181E-02 
513	 1,51473433962373E-02 
514	 1,46811155855653E-02 
515	 1,40026502783485E-02 
516	 1,31218002402167E-02 
517	 0,012504534616247 
518	 1,27033248249198E-02 
519	 0,014209026767263 
520	 1,62568885038996E-02 
521	 0,016020189817895 
522	 1,50563652974004E-02 
523	 1,45125013591106E-02 
524	 1,34461999882243E-02 
525	 1,24382651343165E-02 
526	 1,29638731449983E-02 
527	 1,40590962567495E-02 
528	 1,50334794055226E-02 
529	 1,43715206851412E-02 
530	 0,013249287090593 
531	 0,013132028349978 
532	 0,0143516213778 
533	 1,60392697690392E-02 
534	 1,53221485396323E-02 
535	 1,44562290991645E-02 
536	 1,47056849371744E-02 
537	 1,46093317524241E-02 
538	 1,44159264053261E-02 
539	 0,01500983847566 
540	 1,47917323202381E-02 
541	 0,013679975305576 
542	 1,36030915201543E-02 
543	 1,42406871305208E-02 
544	 1,51350903471276E-02 
545	 1,56143371616648E-02 
546	 1,54573207802387E-02 
547	 1,43681987531222E-02 
548	 1,41355935754252E-02 
549	 1,53588647514039E-02 
550	 1,53390973597088E-02 
551	 1,46522035081246E-02 
552	 1,46792693606968E-02 
553	 1,47266692511505E-02 
554	 1,46912146575014E-02 
555	 1,49324184178046E-02 
556	 1,48715648375707E-02 
557	 1,41051495493385E-02 
558	 0,013858148569691 
559	 1,40781361966197E-02 
560	 1,40812179885324E-02 
561	 1,38623566371424E-02 
562	 1,35537857843155E-02 
563	 1,41015332897156E-02 
564	 1,48592830955851E-02 
565	 1,48825247725836E-02 
566	 1,48113008613766E-02 
567	 1,46575545644652E-02 
568	 1,37187665207804E-02 
569	 1,34901315759076E-02 
570	 1,48697995760398E-02 
571	 1,57388741522929E-02 
572	 1,58262209751779E-02 
573	 1,51648383698608E-02 
574	 1,57292788161727E-02 
575	 1,75927894267644E-02 
576	 1,68992439378866E-02 
577	 1,57776133119699E-02 
578	 1,68594906922451E-02 
579	 1,67429909150577E-02 
580	 1,55986440191336E-02 
581	 0,016393334719883 
582	 1,72168722917945E-02 
583	 1,71073096642486E-02 
584	 1,76592858274001E-02 
585	 1,82468835104895E-02 
586	 1,73641512420514E-02 
587	 1,72787265734228E-02 
588	 1,82352286178157E-02 
589	 1,79818299409717E-02 
590	 0,017452891725614 
591	 1,75904735493352E-02 
592	 1,77405857107729E-02 
593	 1,77993323260449E-02 
594	 1,78384713995435E-02 
595	 1,77634372676375E-02 
596	 1,75944580781765E-02 
597	 0,017778659994331 
598	 0,018005941764538 
599	 1,77423312389673E-02 
600	 1,77561047141054E-02 
601	 1,79324426306697E-02 
602	 1,68102651778361E-02 
603	 1,63250617506093E-02 
604	 1,77981309947496E-02 
605	 1,77951130653672E-02 
606	 1,66301568253585E-02 
607	 1,64733100743514E-02 
608	 1,67791616512908E-02 
609	 1,72716810011561E-02 
610	 1,73052340368303E-02 
611	 1,68708311964691E-02 
612	 1,60499148314167E-02 
613	 1,59866396367448E-02 
614	 1,65321749176596E-02 
615	 1,61677367015585E-02 
616	 1,55739954043255E-02 
617	 1,52425559277973E-02 
618	 0,015398632601128 
619	 1,57512537573286E-02 
620	 1,56544169301449E-02 
621	 1,55518906451549E-02 
622	 1,56472690747488E-02 
623	 1,62342029831175E-02 
624	 1,67206421539733E-02 
625	 1,65015777161016E-02 
626	 1,61137311924575E-02 
627	 1,57965999591732E-02 
628	 1,57729167016411E-02 
629	 1,61691538174143E-02 
630	 1,68941579606747E-02 
631	 1,68308885728489E-02 
632	 1,64245898372397E-02 
633	 1,66274895100417E-02 
634	 0,016567255129736 
635	 1,62665499741451E-02 
636	 1,67681749799929E-02 
637	 0,017586502855749 
638	 1,82576511163584E-02 
639	 1,87508456436311E-02 
640	 1,89683944712436E-02 
641	 1,87121777546763E-02 
642	 1,84007523013778E-02 
643	 1,83024829666354E-02 
644	 1,86429056924849E-02 
645	 1,93589884892624E-02 
646	 2,03465998475545E-02 
647	 2,00608295371227E-02 
648	 1,89096650410767E-02 
649	 1,98077847877413E-02 
650	 2,06188546287839E-02 
651	 2,00218588186923E-02 
652	 1,99837689390152E-02 
653	 2,01887538529976E-02 
654	 1,93497575625459E-02 
655	 1,88350749014824E-02 
656	 1,90473315149451E-02 
657	 1,95666905093551E-02 
658	 1,97991783929495E-02 
659	 1,91957624422528E-02 
660	 1,87067302187168E-02 
661	 1,84847080555086E-02 
662	 0,01830277992603 
663	 1,80963030727581E-02 
664	 1,78436691747817E-02 
665	 0,017740709583276 
666	 1,76126739688903E-02 
667	 1,71360246052985E-02 
668	 1,70483591883238E-02 
669	 1,73302260439267E-02 
670	 1,69986489570859E-02 
671	 1,67118144425202E-02 
672	 1,69670783289798E-02 
673	 1,69082378927739E-02 
674	 1,65973742661438E-02 
675	 1,65026182011533E-02 
676	 1,66482971856493E-02 
677	 1,69274993596633E-02 
678	 1,65800901155388E-02 
679	 0,016226675292273 
680	 1,66614111857709E-02 
681	 1,68504246443012E-02 
682	 1,67190942913687E-02 
683	 1,68213942633976E-02 
684	 1,71011305808111E-02 
685	 1,74661150157471E-02 
686	 1,73758876333749E-02 
687	 1,72093193998989E-02 
688	 1,77378717900382E-02 
689	 1,85619316303627E-02 
690	 1,94445559811669E-02 
691	 1,98166521798795E-02 
692	 2,05922689519756E-02 
693	 2,25476211401171E-02 
694	 2,43717423482452E-02 
695	 2,61410602459486E-02 
696	 2,86725884393758E-02 
697	 3,16142103681156E-02 
698	 3,49197717129702E-02 
699	 3,89759076653363E-02 
700	 4,37521871192274E-02 
701	 4,91607940701054E-02 
702	 5,47999942117715E-02 
703	 6,06508378717693E-02 
704	 6,71541143087427E-02 
705	 0,07391971009354 
706	 8,06951978401615E-02 
707	 8,76652424595005E-02 
708	 9,48201001041547E-02 
709	 0,102152701858919 
710	 0,109157905059163 
711	 0,115700820180765 
712	 0,121968492148823 
713	 0,128331770294396 
714	 0,135086288696013 
715	 0,141612990618 
716	 0,147729131090477 
717	 0,153319259773615 
718	 0,158658634872652 
719	 0,163892495254883 
720	 0,169128735464675 
721	 0,174002224586593 
722	 0,17805290228699 
723	 0,181877305667315 
724	 0,185587582081121 
725	 0,18901936909297 
726	 0,192091627077194 
727	 0,194794081236247 
728	 0,197406866154714 
729	 0,200029560352172 
730	 0,202788854160698 
731	 0,205083368724532 
732	 0,206793485234034 
733	 0,208264829215864 
734	 0,209782467695116 
735	 0,211569805612833 
736	 0,213362648129967 
737	 0,214922014336716 
738	 0,215747213582078 
739	 0,216750986762951 
740	 0,218195839752107 
741	 0,21937945886985 
742	 0,220243630319016 
743	 0,220797135933471 
744	 0,221181055928802 
745	 0,221699170646088 
746	 0,223188340206234 
747	 0,224254003846985 
748	 0,224244458435645 
749	 0,224420035936352 
750	 0,224831429942178 
751	 0,225304006462512 
752	 0,225870633678993 
753	 0,226400705165836 
754	 0,22637412813151 
755	 0,226575933506922 
756	 0,227494109921622 
757	 0,227956039925137 
758	 0,22806775465897 
759	 0,228441128627489 
760	 0,228720088651394 
761	 0,228838307834114 
762	 0,228949366500659 
763	 0,229201969617335 
764	 0,229695765922844 
765	 0,229854383764849 
766	 0,229831309909463 
767	 0,230380339925453 
768	 0,230647896749417 
769	 0,230422998956073 
770	 0,23053961122649 
771	 0,230962319568636 
772	 0,231555336973233 
773	 0,232234619694676 
774	 0,232668633158493 
775	 0,231912306318936 
776	 0,231533639138357 
777	 0,232251233652604 
778	 0,232784884123415 
779	 0,232937072594098 
780	 0,232647035829089 
781	 0,232615233614224 
782	 0,232875694130879 
783	 0,23272551215213 
784	 0,232689914379386 
785	 0,233087954135562 
786	 0,233524451703997 
787	 0,233832591841954 
788	 0,233816863957713 
789	 0,233993298590669 
790	 0,234380390659146 
791	 0,234357739781951 
792	 0,234198217431977 
793	 0,234141702068444 
794	 0,234154631160435 
795	 0,234220921032764 
796	 0,234320056659032 
797	 0,234272539179459 
798	 0,234150044899549 
799	 0,234600303675243 
800	 0,235127981851096 
801	 0,235232053159584 
802	 0,234996200753732 
803	 0,234682319964855 
804	 0,234893581066942 
805	 0,235165047103059 
806	 0,23534983275688 
807	 0,235616821657214 
808	 0,235955366503552 
809	 0,236342998600582 
810	 0,236922218459097 
811	 0,237271225038611 
812	 0,236039086596891 
813	 0,235437738972258 
814	 0,236236812603075 
815	 0,236641582898075 
816	 0,236857873837234 
817	 0,237305222880374 
818	 0,237571135673463 
819	 0,237632343669317 
820	 0,237659370015286 
821	 0,237834937539782 
822	 0,238218401838664 
823	 0,238582623404734 
824	 0,238589254137459 
825	 0,237873122195374 
826	 0,238119161774372 
827	 0,239161703430429 
828	 0,239086172696816 
829	 0,239003468935207 
830	 0,239408267487811 
831	 0,239595697392839 
832	 0,239671495835719 
833	 0,239875744332885 
834	 0,239596107304181 
835	 0,239126201344413 
836	 0,23996416951212 
837	 0,240462711650739 
838	 0,239896336279504 
839	 0,239978942349349 
840	 0,240396883469192 
841	 0,240442990522351 
842	 0,240379809143839 
843	 0,240257808446657 
844	 0,240012356240958 
845	 0,240004102004347 
846	 0,240380165439507 
847	 0,240618881751905 
848	 0,240786718332582 
849	 0,241069291828442 
850	 0,241176115795214 
851	 0,241024735965852 
852	 0,240566870636585 
853	 0,240222133995554 
854	 0,240270107043685 
855	 0,240850470443633 
856	 0,241293398645312 
857	 0,240702711200682 
858	 0,240553756312182 
859	 0,240923835637885 
860	 0,240802545140162 
861	 0,240698541005078 
862	 0,240777988442872 
863	 0,240201107104996 
864	 0,240082287028171 
865	 0,241890286254051 
866	 0,242031204639112 
867	 0,24060134081725 
868	 0,240629422666491 
869	 0,240945506567824 
870	 0,241103741769758 
871	 0,241726008842044 
872	 0,242221635153403 
873	 0,24187651464455 
874	 0,24197955441921 
875	 0,242442020206855 
876	 0,242096588802517 
877	 0,242024716071631 
878	 0,242569639550507 
879	 0,242887666603288 
880	 0,243099755828411 
881	 0,243393844648823 
882	 0,243420699681186 
883	 0,243449146709732 
884	 0,244472631303572 
885	 0,244817868635902 
886	 0,244099936813525 
887	 0,243735348166077 
888	 0,243845224919538 
889	 0,244372564334856 
890	 0,244131946093864 
891	 0,243519602198423 
892	 0,243943998095019 
893	 0,24390099056416 
894	 0,243317230560131 
895	 0,244160233962394 
896	 0,244839752263868 
897	 0,244174007471154 
898	 0,243728492708343 
899	 0,243807141968627 
900	 0,244512380973933 
901	 0,244797206054754 
902	 0,244502699234814 
903	 0,244314393769348 
904	 0,24440420029208 
905	 0,244837358582843 
906	 0,245244532794422 
907	 0,245378486262235 
908	 0,24498719867024 
909	 0,244697816634802 
910	 0,24462806708728 
911	 0,244600183852961 
912	 0,244436762578891 
913	 0,244061615118662 
914	 0,243521206754545 
915	 0,24339443030498 
916	 0,244248410426479 
917	 0,244960966740297 
918	 0,245262884405254 
919	 0,245184253642692 
920	 0,244813831253045 
921	 0,24430429763106 
922	 0,244051414807978 
923	 0,244001993734445 
924	 0,243972338326307 
925	 0,242694159474125 
926	 0,241239952506354 
927	 0,24188938142732 
928	 0,242213804446983 
929	 0,241661032432904 
930	 0,240932355080321 
931	 0,240374946584204 
932	 0,240185018103181 
933	 0,240109717525659 
934	 0,239816878569527 
935	 0,238950771545674 
936	 0,238061707313196 
937	 0,237260738163587 
938	 0,236391184874104 
939	 0,235955957218221 
940	 0,235961870241199 
941	 0,23536946758859 
942	 0,23486523787562 
943	 0,235013771538959 
944	 0,23474909149327 
945	 0,233748766743061 
946	 0,231771518452005 
947	 0,230035036666885 
948	 0,229091107106241 
949	 0,229608538448893 
950	 0,22867541081046 
951	 0,225249917013904 
952	 0,224281513988995 
953	 0,224745348258233 
954	 0,224666593853289 
955	 0,222489945888115 
956	 0,21955735610507 
957	 0,220377587690439 
958	 0,220701956382977 
959	 0,219447871661349 
960	 0,218838828701649 
961	 0,218481567949652 
962	 0,217982975644648 
963	 0,217032536787124 
964	 0,216177520567013 
965	 0,216288481644849 
966	 0,216054308763642 
967	 0,215266734535398 
968	 0,214398159576397 
969	 0,213371219837078 
970	 0,212485644013488 
971	 0,213413468279956 
972	 0,213638264672676 
973	 0,211218734992765 
974	 0,21159792228297 
975	 0,213726592673024 
976	 0,214122751586143 
977	 0,213788626290742 
978	 0,213303797152874 
979	 0,213999482659765 
980	 0,214155471361148 
981	 0,213280163340677 
982	 0,21413021883509 
983	 0,214229429178961 
984	 0,211258509488768 
985	 0,210827476232158 
986	 0,212667777481341 
987	 0,214247078669656 
988	 0,214530981776026 
989	 0,213302243227873 
990	 0,211029678955016 
991	 0,211296596539989 
992	 0,215068529358766 
993	 0,215704592684892 
994	 0,215761877654039 
995	 0,218122277721246 
996	 0,217328766211075 
997	 0,214882566700778 
998	 0,215480031765733 
999	 0,216941653671155 
1000	 0,21842868408654 
1001	 0,219498931639748 
1002	 0,218676681604517 
1003	 0,216236205855204 
1004	 0,218243031749252 
1005	 0,220686341067231 
1006	 0,219517968004922 
1007	 0,220032734981408 
1008	 0,221048566794075 
1009	 0,218943277766346 
1010	 0,21918166782482 
1011	 0,222059833102678 
1012	 0,223723733478996 
1013	 0,224353503512074 
1014	 0,223903210063131 
1015	 0,222216160664737 
1016	 0,221929948583539 
1017	 0,224888130358183 
1018	 0,227195084097612 
1019	 0,228119631671541 
1020	 0,227542334001772 
1021	 0,229314149707524 
1022	 0,231596347506684 
1023	 0,22625948477524 
1024	 0,22419626314797 
1025	 0,228045063035586 
1026	 0,231419489141443 
1027	 0,230174241921903 
1028	 0,223596093664079 
1029	 0,226423223514858 
1030	 0,231841034627351 
1031	 0,230483112694137 
1032	 0,229264219456939 
1033	 0,230713701231831 
1034	 0,237448847796901 
1035	 0,238496465599293 
1036	 0,233197423774139 
1037	 0,23089763323574 
1038	 0,230311232864799 
1039	 0,231172306902598 
1040	 0,233668879358228 
1041	 0,235434898542105 
1042	 0,235148941315518 
1043	 0,23974620868888 
1044	 0,242739901052455 
1045	 0,234779444939157 
1046	 0,232057185961369 
1047	 0,236332009348708 
1048	 0,243096899973331 
1049	 0,240373203533504 
1050	 0,230281327563512 
1051	 0,236944424879567 
1052	 0,240277973470743 
1053	 0,233641945907564 
1054	 0,241436310866604 
1055	 0,248909146975082 
1056	 0,243681193504112 
1057	 0,242342384175568 
1058	 0,240142479910757 
1059	 0,228295119722682 
1060	 0,227222922485027 
1061	 0,234963737272281 
1062	 0,236873728526986 
1063	 0,235432277072975 
1064	 0,233135311468229 
1065	 0,23755776656564 
1066	 0,24055278935714 
1067	 0,238084802554566 
1068	 0,229143279190794 
1069	 0,227025441958926 
1070	 0,239461986328914 
1071	 0,24847882981557 
1072	 0,249372672277141 
1073	 0,240047582436679 
1074	 0,232021284123389 
1075	 0,230862223586931 
