Wavelength	AURAY00375.asd
325	 2,53815610424192E-02 
326	 0,11596606615194 
327	 0,126541630316321 
328	 1,67923129641803E-02 
329	 3,11686984078305E-02 
330	 9,85558231187929E-02 
331	 0,148950393379983 
332	 0,134033233329209 
333	 8,10630583070533E-02 
334	 6,84036339790076E-02 
335	 0,12996053526391 
336	 0,214257956932299 
337	 8,89420449415063E-02 
338	-3,29530261997438E-02 
339	 4,69482434402552E-02 
340	 9,51942254190706E-02 
341	 8,02567425464462E-02 
342	 2,50203619967268E-02 
343	-2,34792874849261E-02 
344	-3,67801610264667E-02 
345	 1,62196750818113E-03 
346	 2,50022992832653E-02 
347	-2,02220140041589E-02 
348	-0,013170171685018 
349	 3,76512353509667E-02 
350	 5,35209419558119E-02 
351	 4,41141253010125E-02 
352	 1,86670621827463E-02 
353	 1,31406797784178E-02 
354	 2,11880677979283E-02 
355	 2,87845074463291E-02 
356	 3,57783560623671E-02 
357	 4,04478710901548E-02 
358	 3,79705024433298E-02 
359	 2,40767997468421E-02 
360	 3,0230354436553E-03 
361	 1,24833353532905E-02 
362	 4,15380360569028E-02 
363	 7,13220303619844E-02 
364	 6,52449738067426E-02 
365	 3,16438399389029E-02 
366	 3,23889652769897E-02 
367	 0,035424433918657 
368	 2,33765240147945E-02 
369	 3,47605943863511E-02 
370	 5,27681909620977E-02 
371	 4,34157652059881E-02 
372	 2,30093165574074E-02 
373	 6,44617937041073E-03 
374	 3,38382334754749E-02 
375	 5,09324351191522E-02 
376	 0,020796820895806 
377	-7,90625299002402E-03 
378	-1,41778248053676E-02 
379	 2,73804206756346E-02 
380	 3,97056798110139E-02 
381	 1,41996399943772E-02 
382	 2,12648278931069E-02 
383	 3,71518103028149E-02 
384	 3,57123719517671E-02 
385	 2,91245184692519E-02 
386	 2,78617442386815E-02 
387	 5,62371906472442E-02 
388	 6,40669929869191E-02 
389	 4,05801898471908E-02 
390	 3,96398257342447E-02 
391	 4,08540389767681E-02 
392	 1,54812155514869E-02 
393	 1,74011227529462E-02 
394	 3,98923862036314E-02 
395	 0,032586194550469 
396	 1,67087989174717E-02 
397	 7,00776975220269E-03 
398	 1,47631530871425E-02 
399	 2,85438539295343E-02 
400	 3,13608717688799E-02 
401	 2,64499183141493E-02 
402	 1,89372666306562E-02 
403	 2,48586336002676E-02 
404	 3,04476593627154E-02 
405	 2,71118502505502E-02 
406	 2,67025362718911E-02 
407	 2,83756931682038E-02 
408	 2,66097202707333E-02 
409	 2,77778643462241E-02 
410	 3,13469481392035E-02 
411	 2,67926001803658E-02 
412	 2,13410865261946E-02 
413	 0,021820737779838 
414	 2,02488925817088E-02 
415	 1,80120010989382E-02 
416	 2,23624677892971E-02 
417	 2,60141490361288E-02 
418	 2,58105834645002E-02 
419	 0,022833492483906 
420	 1,96986662219605E-02 
421	 1,95167073772046E-02 
422	 2,14801094995357E-02 
423	 2,45226301501494E-02 
424	 2,68159098857262E-02 
425	 2,57855728897521E-02 
426	 2,08826635047896E-02 
427	 2,07804114267152E-02 
428	 2,43631152256264E-02 
429	 2,77397469561368E-02 
430	 2,86717615798807E-02 
431	 2,70160715551216E-02 
432	 2,60967106432646E-02 
433	 0,025762554374791 
434	 0,025596309158388 
435	 2,29298359829473E-02 
436	 1,98725626941824E-02 
437	 2,28175135997097E-02 
438	 2,55641790253894E-02 
439	 2,59206598365825E-02 
440	 2,74765533259734E-02 
441	 2,87371620819963E-02 
442	 2,75187647605425E-02 
443	 2,61678374958204E-02 
444	 2,56911397991952E-02 
445	 2,69950158104156E-02 
446	 2,92260075404183E-02 
447	 3,14114632703478E-02 
448	 0,030857562819954 
449	 2,81524753988212E-02 
450	 2,46957521163015E-02 
451	 0,024865691585157 
452	 0,028748536333144 
453	 2,96417029896291E-02 
454	 2,95176008898933E-02 
455	 0,030382660919223 
456	 3,00225889060688E-02 
457	 2,89522296532289E-02 
458	 2,97618692846328E-02 
459	 0,029078304293087 
460	 2,60846255653984E-02 
461	 2,51139412797738E-02 
462	 2,58438685054458E-02 
463	 0,027234435338291 
464	 2,86327028815222E-02 
465	 2,93079695072816E-02 
466	 2,77347671832755E-02 
467	 2,65523087470366E-02 
468	 2,74274953266958E-02 
469	 2,79710172824249E-02 
470	 2,84938179133592E-02 
471	 3,05415929188483E-02 
472	 3,08646336115795E-02 
473	 2,92251909153194E-02 
474	 3,00849462859882E-02 
475	 3,07240041587406E-02 
476	 2,85112693180076E-02 
477	 0,030297850717762 
478	 3,40570779948395E-02 
479	 3,02088591150682E-02 
480	 2,77886235490733E-02 
481	 3,03744824728108E-02 
482	 3,08265825969907E-02 
483	 0,030020664408318 
484	 3,03537862920675E-02 
485	 3,05404758844249E-02 
486	 3,03387802025325E-02 
487	 3,01896126036247E-02 
488	 2,92447378402451E-02 
489	 2,72366244091601E-02 
490	 2,89314603431611E-02 
491	 3,15409069897275E-02 
492	 2,63895253508436E-02 
493	 2,44791736185397E-02 
494	 2,83084440640533E-02 
495	 2,87550352436333E-02 
496	 2,75672887739444E-02 
497	 2,74896887270058E-02 
498	 2,80425900570004E-02 
499	 2,89596445452734E-02 
500	 2,96854952839973E-02 
501	 3,00330671932985E-02 
502	 2,97558528403129E-02 
503	 2,77104061875387E-02 
504	 2,57815759525938E-02 
505	 0,027357754200569 
506	 2,97351902428823E-02 
507	 3,16426614920714E-02 
508	 3,16961452308523E-02 
509	 0,031130739374041 
510	 3,11238588610177E-02 
511	 3,11521582848368E-02 
512	 3,13947344240785E-02 
513	 3,27713543194044E-02 
514	 3,27678307962021E-02 
515	 3,08238454718284E-02 
516	 3,10731966331168E-02 
517	 3,20247555412113E-02 
518	 3,09716906910641E-02 
519	 3,17991664395268E-02 
520	 3,42356134686561E-02 
521	 3,38015909870182E-02 
522	 3,28430682741988E-02 
523	 3,30544811675985E-02 
524	 3,30118031217882E-02 
525	 3,27158702589551E-02 
526	 3,24138024694113E-02 
527	 3,33310339959021E-02 
528	 3,52995675210195E-02 
529	 3,50260389550442E-02 
530	 3,40204007913228E-02 
531	 3,42750315715375E-02 
532	 3,49226663507069E-02 
533	 3,54119393099388E-02 
534	 3,45929958696215E-02 
535	 3,38233290474707E-02 
536	 0,033941584903313 
537	 3,46438238583164E-02 
538	 3,53645351156405E-02 
539	 3,52056837003119E-02 
540	 3,46899959616991E-02 
541	 3,41946303599642E-02 
542	 3,45207676600262E-02 
543	 3,52658884808602E-02 
544	 3,59295216664411E-02 
545	 3,52238141751873E-02 
546	 0,03366507995069 
547	 3,32557980720231E-02 
548	 3,37587851452116E-02 
549	 3,49294032401291E-02 
550	 3,56659981355428E-02 
551	 3,60298457318084E-02 
552	 3,63994732465306E-02 
553	 3,59015792799653E-02 
554	 3,49706588146091E-02 
555	 3,62694456008205E-02 
556	 3,76167630197335E-02 
557	 0,037224055195551 
558	 3,69019953366029E-02 
559	 3,67041194153687E-02 
560	 3,58176817659096E-02 
561	 3,54033289252312E-02 
562	 3,58446499042535E-02 
563	 3,62891837677707E-02 
564	 3,65439752000173E-02 
565	 3,64807612047174E-02 
566	 3,62385134715295E-02 
567	 3,59939289131638E-02 
568	 3,61687781116762E-02 
569	 3,63411333076438E-02 
570	 0,036297924988687 
571	 3,69921537971702E-02 
572	 0,038202820209644 
573	 3,92186846658704E-02 
574	 3,99213285420214E-02 
575	 4,01879491479656E-02 
576	 3,98682431681385E-02 
577	 3,96656230706437E-02 
578	 4,03456422021003E-02 
579	 4,07708412959152E-02 
580	 4,08679730414793E-02 
581	 4,13705733452029E-02 
582	 0,041439580107916 
583	 4,07924841355969E-02 
584	 4,12038611521632E-02 
585	 4,20416419639022E-02 
586	 4,17531793081114E-02 
587	 4,18115680286811E-02 
588	 4,25304374303028E-02 
589	 4,32800581902349E-02 
590	 4,37299638701465E-02 
591	 4,36112790466711E-02 
592	 4,31501805956675E-02 
593	 4,27709384199424E-02 
594	 4,34833619258475E-02 
595	 4,39644557350649E-02 
596	 4,36876413235728E-02 
597	 4,37735139122408E-02 
598	 4,38620944765049E-02 
599	 4,32191338874608E-02 
600	 4,32683188998955E-02 
601	 4,39238004096175E-02 
602	 4,31345846642427E-02 
603	 4,26028610591367E-02 
604	 4,35620036815734E-02 
605	 4,37221965604254E-02 
606	 4,31125327066425E-02 
607	 4,27211223436218E-02 
608	 0,042675355684663 
609	 4,29240718339042E-02 
610	 4,24818505834598E-02 
611	 4,21723784243154E-02 
612	 4,30896664869801E-02 
613	 4,36106548496439E-02 
614	 4,32839926218441E-02 
615	 4,19991836152936E-02 
616	 4,10664970562901E-02 
617	 0,041292443320025 
618	 4,14767336558193E-02 
619	 4,16180641612223E-02 
620	 4,21527290475685E-02 
621	 4,21857339873632E-02 
622	 4,16638255497901E-02 
623	 4,18374132213565E-02 
624	 4,23622551852466E-02 
625	 0,042776612491652 
626	 4,23319957637046E-02 
627	 4,14028868037741E-02 
628	 4,14970228331187E-02 
629	 4,19534141610463E-02 
630	 4,24011302866081E-02 
631	 4,26865116972743E-02 
632	 4,28965714378915E-02 
633	 4,32441957589579E-02 
634	 4,32016598012746E-02 
635	 4,28739208603449E-02 
636	 4,32732525094962E-02 
637	 4,39401338107558E-02 
638	 4,44576974751378E-02 
639	 4,51052718023058E-02 
640	 4,56522746439489E-02 
641	 4,54299178451483E-02 
642	 4,51302398976195E-02 
643	 4,51170336204377E-02 
644	 4,55651715021783E-02 
645	 4,62700387083455E-02 
646	 4,69498288926802E-02 
647	 4,68677604582223E-02 
648	 0,046206149343993 
649	 0,046343917273267 
650	 4,63824570699488E-02 
651	 4,58039977422012E-02 
652	 4,57738027787221E-02 
653	 4,58788334300685E-02 
654	 4,49188202259081E-02 
655	 4,39639689486215E-02 
656	 4,35069881300271E-02 
657	 4,40447082142684E-02 
658	 4,43940860006632E-02 
659	 4,33663019009569E-02 
660	 4,27633562447223E-02 
661	 4,26383046640928E-02 
662	 4,19122377739276E-02 
663	 4,13513014018863E-02 
664	 0,041279848076626 
665	 4,11415840304712E-02 
666	 4,08180710106926E-02 
667	 4,01980109351744E-02 
668	 4,02623620070773E-02 
669	 4,09039236848808E-02 
670	 4,05271594839991E-02 
671	 3,99999479328031E-02 
672	 4,00117986914076E-02 
673	 3,96925970325093E-02 
674	 3,92398508411978E-02 
675	 3,94233000148276E-02 
676	 3,99244383386095E-02 
677	 4,04220615068082E-02 
678	 3,97817488218656E-02 
679	 3,92062172009359E-02 
680	 4,01978332528498E-02 
681	 4,07219567689522E-02 
682	 4,06050768678734E-02 
683	 4,09307918623148E-02 
684	 4,12838516755847E-02 
685	 4,14524969551583E-02 
686	 4,16757201470526E-02 
687	 4,21030767551097E-02 
688	 4,29398408723157E-02 
689	 0,043756398492708 
690	 4,45687993102553E-02 
691	 4,59978608248858E-02 
692	 4,78406733989245E-02 
693	 4,98738347137237E-02 
694	 5,18507583357302E-02 
695	 5,39657429623632E-02 
696	 0,056852657688372 
697	 0,059909038924182 
698	 6,30023920497379E-02 
699	 6,68404501086154E-02 
700	 7,12285322832717E-02 
701	 7,58384545554197E-02 
702	 0,080210501820606 
703	 0,084451801937126 
704	 8,94591288946086E-02 
705	 9,45374365776855E-02 
706	 0,099229841795151 
707	 0,103751604368525 
708	 0,108197277248937 
709	 0,112708802494972 
710	 0,116988430023109 
711	 0,120953755044583 
712	 0,124704743098795 
713	 0,128256613499004 
714	 0,131627388882754 
715	 0,134964120145247 
716	 0,13814197459337 
717	 0,140751452721281 
718	 0,143183947762309 
719	 0,145611599680829 
720	 0,147965622377109 
721	 0,150197406601318 
722	 0,152255042243045 
723	 0,153884982270985 
724	 0,15520877091507 
725	 0,156864938341046 
726	 0,158242525165698 
727	 0,159058358408425 
728	 0,160245864686306 
729	 0,161679990406301 
730	 0,162937964287445 
731	 0,163758142631263 
732	 0,164161314216399 
733	 0,164622078543807 
734	 0,165313070471433 
735	 0,166342870459323 
736	 0,167365845027075 
737	 0,168198739309401 
738	 0,168592359079976 
739	 0,168902584365382 
740	 0,169293837592638 
741	 0,169768382617743 
742	 0,170273426800428 
743	 0,170741757005477 
744	 0,171024555773374 
745	 0,171285496882091 
746	 0,172210762722927 
747	 0,172765477494335 
748	 0,172488681188253 
749	 0,172420122597073 
750	 0,172598227603072 
751	 0,172867461359229 
752	 0,173300087222584 
753	 0,173770121777941 
754	 0,173757131160341 
755	 0,173883148192949 
756	 0,174549406663611 
757	 0,174979186633324 
758	 0,175138792152495 
759	 0,175211675537758 
760	 0,175319163107162 
761	 0,175506324209064 
762	 0,175697200920808 
763	 0,175847604645772 
764	 0,175932328296265 
765	 0,176168352216395 
766	 0,176504972072683 
767	 0,176707756080047 
768	 0,176893863181825 
769	 0,1770485637877 
770	 0,176773306316273 
771	 0,176719997282535 
772	 0,177651194958677 
773	 0,178234930008909 
774	 0,178252547525683 
775	 0,17804284194581 
776	 0,177981513871049 
777	 0,178284226695039 
778	 0,178800602719624 
779	 0,179206198835578 
780	 0,179068096841794 
781	 0,179079281099564 
782	 0,179310894079962 
783	 0,179291496447407 
784	 0,179223179003646 
785	 0,179242392614867 
786	 0,179273000031057 
787	 0,179392994983307 
788	 0,179755511265267 
789	 0,180101113963934 
790	 0,180345904568841 
791	 0,180611350490919 
792	 0,180545072111936 
793	 0,179971741744392 
794	 0,180125794275195 
795	 0,180751353929142 
796	 0,180868803675614 
797	 0,180730350132684 
798	 0,180564793299264 
799	 0,18113823342899 
800	 0,181772656179225 
801	 0,181803954639736 
802	 0,181650465145289 
803	 0,181436653686256 
804	 0,181194839407486 
805	 0,18135123136906 
806	 0,181925676649725 
807	 0,182014710528004 
808	 0,182060318997947 
809	 0,182584292806789 
810	 0,183134683010268 
811	 0,18343390479454 
812	 0,18293911215985 
813	 0,182744396104552 
814	 0,183181764486062 
815	 0,183054789281637 
816	 0,182798648505497 
817	 0,183038210458988 
818	 0,183292653795929 
819	 0,183512755469832 
820	 0,183918617808665 
821	 0,184142989074738 
822	 0,18406078504341 
823	 0,18415744141084 
824	 0,184168777850968 
825	 0,18370956603232 
826	 0,183671538678105 
827	 0,184112412020495 
828	 0,184528338505586 
829	 0,184690736835187 
830	 0,184526321016861 
831	 0,184550986381203 
832	 0,184731038090636 
833	 0,184935093545074 
834	 0,184765732004855 
835	 0,184375096272833 
836	 0,184597380153085 
837	 0,184892222917515 
838	 0,184966233971944 
839	 0,18495714776563 
840	 0,185024471316106 
841	 0,185369429025004 
842	 0,185418212916856 
843	 0,185123286942452 
844	 0,184806890649412 
845	 0,184666528707596 
846	 0,184852090445755 
847	 0,18548513920463 
848	 0,186077971180585 
849	 0,185962008668747 
850	 0,185837191860928 
851	 0,185844552240797 
852	 0,185830405840613 
853	 0,185686975528261 
854	 0,185449632621049 
855	 0,185774028766874 
856	 0,186299604672082 
857	 0,186443708953855 
858	 0,18607758839647 
859	 0,185462385325091 
860	 0,185484460467168 
861	 0,185858710164728 
862	 0,186282630339256 
863	 0,185761950863906 
864	 0,18528194901885 
865	 0,186216012245553 
866	 0,186535815815852 
867	 0,186045816311898 
868	 0,185652310788659 
869	 0,185555733608309 
870	 0,185844298347042 
871	 0,186182846426269 
872	 0,18644118855699 
873	 0,186511327205781 
874	 0,186307644424248 
875	 0,186112655761297 
876	 0,186835103020249 
877	 0,187070711654063 
878	 0,186498154201312 
879	 0,187041601550948 
880	 0,187718992954476 
881	 0,187366910891213 
882	 0,187098750011135 
883	 0,187180207939453 
884	 0,187805400386768 
885	 0,187862196283231 
886	 0,187136286762329 
887	 0,186811921369596 
888	 0,187115512130711 
889	 0,18805507979553 
890	 0,18792470846197 
891	 0,187168550150896 
892	 0,187465492438348 
893	 0,187839261966234 
894	 0,187997468876135 
895	 0,18817108656846 
896	 0,187776416651563 
897	 0,186560241133983 
898	 0,186512046036317 
899	 0,187335432172748 
900	 0,187939859291685 
901	 0,188075996034221 
902	 0,187803918315844 
903	 0,187839765729694 
904	 0,187861223107148 
905	 0,18766653828866 
906	 0,187289712272176 
907	 0,187051994543488 
908	 0,187379036489111 
909	 0,188096690111002 
910	 0,188761321271678 
911	 0,188287945834464 
912	 0,187355124530594 
913	 0,186465128830901 
914	 0,186209974395854 
915	 0,186665297023775 
916	 0,187766276054187 
917	 0,188470742003307 
918	 0,188613209150197 
919	 0,188380232951213 
920	 0,188480799466409 
921	 0,188977353933521 
922	 0,188651234726765 
923	 0,188596631291489 
924	 0,189514898197148 
925	 0,188492316638943 
926	 0,186824483607689 
927	 0,187659826471689 
928	 0,188191971915645 
929	 0,187845070899358 
930	 0,187646268916736 
931	 0,187147163478947 
932	 0,18626450008111 
933	 0,186211431315423 
934	 0,186367955836238 
935	 0,18580288317181 
936	 0,186042135083871 
937	 0,18675441781363 
938	 0,186006805732409 
939	 0,185602098750236 
940	 0,186005293282229 
941	 0,185839012201565 
942	 0,185574691177323 
943	 0,185674957147073 
944	 0,185965347430451 
945	 0,185733054361286 
946	 0,183698527615535 
947	 0,18264353667141 
948	 0,183020527967732 
949	 0,183307763941507 
950	 0,182789330827922 
951	 0,181409828327087 
952	 0,181793429822522 
953	 0,18292972904282 
954	 0,183207072821934 
955	 0,181789015456064 
956	 0,17973184850281 
957	 0,180266817030169 
958	 0,180722340056552 
959	 0,180330633814936 
960	 0,180064608033381 
961	 0,179816325965818 
962	 0,179425606143238 
963	 0,17819044069021 
964	 0,17749621637137 
965	 0,179488564321193 
966	 0,179878810717347 
967	 0,178563368943533 
968	 0,178814137980927 
969	 0,179104199466168 
970	 0,178829369839117 
971	 0,178035311532263 
972	 0,178188597692182 
973	 0,180182297663613 
974	 0,178760659656443 
975	 0,176302301754152 
976	 0,17859776635911 
977	 0,17953323840411 
978	 0,178447738025311 
979	 0,179116918201454 
980	 0,180059790197272 
981	 0,180419852332307 
982	 0,179667828113565 
983	 0,178973073320386 
984	 0,179472278779501 
985	 0,179464484049786 
986	 0,179165847701424 
987	 0,179627491121697 
988	 0,179380307120284 
989	 0,178525559090297 
990	 0,178991436523317 
991	 0,179376834466684 
992	 0,179318495831766 
993	 0,181296834542889 
994	 0,1836333722124 
995	 0,184307503390648 
996	 0,182820942430577 
997	 0,181007406215553 
998	 0,182595428114893 
999	 0,182639139557943 
1000	 0,181205919524224 
1001	 0,184041658647796 
1002	 0,185201449756701 
1003	 0,182556485820968 
1004	 0,18256972317181 
1005	 0,18349521043811 
1006	 0,183213221714484 
1007	 0,182762672931188 
1008	 0,183406130203685 
1009	 0,187054780834041 
1010	 0,188662246549924 
1011	 0,187471741367507 
1012	 0,185956060409089 
1013	 0,185087204504759 
1014	 0,185190321006313 
1015	 0,184429033918558 
1016	 0,184472269579075 
1017	 0,186641600111423 
1018	 0,189614495143648 
1019	 0,190789613562957 
1020	 0,1868603663963 
1021	 0,186721586447742 
1022	 0,190046396753102 
1023	 0,189605775097857 
1024	 0,189123133643306 
1025	 0,189923311017593 
1026	 0,193024200446063 
1027	 0,192228112164406 
1028	 0,185319444937755 
1029	 0,187133729322808 
1030	 0,191171210335303 
1031	 0,18866428302614 
1032	 0,190455958513475 
1033	 0,195250158285663 
1034	 0,196473371154769 
1035	 0,196488929199338 
1036	 0,195784535728818 
1037	 0,194045484146938 
1038	 0,192383219732794 
1039	 0,191141996027657 
1040	 0,188385873375766 
1041	 0,186194894642351 
1042	 0,186568840478411 
1043	 0,190378071468607 
1044	 0,193898435768286 
1045	 0,192284232699697 
1046	 0,193485435219179 
1047	 0,196125107570039 
1048	 0,193074581592252 
1049	 0,187994096313679 
1050	 0,184414741019008 
1051	 0,190364719571752 
1052	 0,194114387290916 
1053	 0,190740062208024 
1054	 0,18967558871414 
1055	 0,191548377428783 
1056	 0,195955601278874 
1057	 0,199909361991934 
1058	 0,201656648857918 
1059	 0,199557431688985 
1060	 0,192364350071772 
1061	 0,185441716190635 
1062	 0,190679777058843 
1063	 0,195764838193428 
1064	 0,196643981952075 
1065	 0,194079313605075 
1066	 0,19352057557121 
1067	 0,196225015131253 
1068	 0,194038034028397 
1069	 0,190094622464034 
1070	 0,18864304164492 
1071	 0,198764121433601 
1072	 0,210632766597724 
1073	 0,211197636588333 
1074	 0,193000666574339 
1075	 0,172828821902979 
