Wavelength	AURAY00482.asd
325	 0,100200736523761 
326	 0,307727712188679 
327	 0,380388579671561 
328	 0,24635718981216 
329	 0,166055866492883 
330	 0,19198093039639 
331	 0,298312164519459 
332	 0,280356921934925 
333	 0,170132197583886 
334	 0,112503403499756 
335	 0,134321111938127 
336	 0,203460697812838 
337	 0,161600912453565 
338	 0,140075292709758 
339	 0,251970262691631 
340	 0,242075000914234 
341	 0,155267368661863 
342	 0,172031425135513 
343	 0,157610490578548 
344	 9,32479095036682E-02 
345	 0,138394206541936 
346	 0,174374434536732 
347	 9,31989788947924E-02 
348	 7,66560559411366E-02 
349	 0,128232664705392 
350	 0,158021048786694 
351	 0,162642357276852 
352	 0,144381199694286 
353	 0,132733146771159 
354	 0,115093156531165 
355	 0,078533641418302 
356	 0,086056142279677 
357	 0,120077736714668 
358	 9,22565550125934E-02 
359	 7,36269786736132E-02 
360	 0,092949851687918 
361	 0,114160218227019 
362	 0,132337706485979 
363	 0,147212008953889 
364	 0,142136988733489 
365	 0,124068154481924 
366	 0,130657961062302 
367	 0,133770552974187 
368	 0,118837781837276 
369	 0,125915193713123 
370	 0,142544905459842 
371	 0,140886803871123 
372	 0,127095472239594 
373	 0,111937278970904 
374	 0,132441704415853 
375	 0,147998944396251 
376	 0,130293869891614 
377	 0,105507046270579 
378	 9,50646772370358E-02 
379	 0,135910848458697 
380	 0,146420709857576 
381	 0,116226071286591 
382	 0,113953759065394 
383	 0,118149023203193 
384	 0,106247674508996 
385	 0,125828321665129 
386	 0,163035513300793 
387	 0,16262437468321 
388	 0,153622600234594 
389	 0,14750169666786 
390	 0,143742019079096 
391	 0,14414278024492 
392	 0,150322495446701 
393	 0,142572253142264 
394	 0,125156802387579 
395	 0,119786230571101 
396	 0,11976246303049 
397	 0,12166645536205 
398	 0,124940086001143 
399	 0,127481642163677 
400	 0,12659117510857 
401	 0,13008665475959 
402	 0,136641437857629 
403	 0,134061307426 
404	 0,129780901022564 
405	 0,129307718691753 
406	 0,135369553969125 
407	 0,140372980736117 
408	 0,127389192938917 
409	 0,119752592118987 
410	 0,1229422019604 
411	 0,125841748131075 
412	 0,129610964070519 
413	 0,135256174217756 
414	 0,130607018380753 
415	 0,12044903764614 
416	 0,121026347855616 
417	 0,12439721948383 
418	 0,1271123885892 
419	 0,129551267419334 
420	 0,129427487339763 
421	 0,123931341733623 
422	 0,122447878472237 
423	 0,124817186631449 
424	 0,122439519153023 
425	 0,121437363939105 
426	 0,124639193615471 
427	 0,123051803037189 
428	 0,11999029198301 
429	 0,123576404586568 
430	 0,125793033165276 
431	 0,125011118538716 
432	 0,125101771380235 
433	 0,125078302638596 
434	 0,123924259301601 
435	 0,120987777474431 
436	 0,118700515578594 
437	 0,123762906215766 
438	 0,125849045302335 
439	 0,122198217263949 
440	 0,124154925926205 
441	 0,126979640708764 
442	 0,12359208107942 
443	 0,121456357801749 
444	 0,122601405273932 
445	 0,127303410045879 
446	 0,13196989458594 
447	 0,133813996883503 
448	 0,130674773933457 
449	 0,125437772413935 
450	 0,123617132440844 
451	 0,123886224426497 
452	 0,125254685469023 
453	 0,12450157570063 
454	 0,124270758753464 
455	 0,127004218921342 
456	 0,130015703517588 
457	 0,131869723288128 
458	 0,130674241978132 
459	 0,128060637303304 
460	 0,125330343112041 
461	 0,124789629724857 
462	 0,126233722320135 
463	 0,129038105790034 
464	 0,130109967830987 
465	 0,129306818991896 
466	 0,129386963957091 
467	 0,129742506220309 
468	 0,129994947838689 
469	 0,130543539598176 
470	 0,130865872876904 
471	 0,129771648680068 
472	 0,129060604736589 
473	 0,129667244739726 
474	 0,133085575897771 
475	 0,135228727194439 
476	 0,13240012869484 
477	 0,132241161310349 
478	 0,134043321383754 
479	 0,131051518645751 
480	 0,129245478215865 
481	 0,13088828620907 
482	 0,130450513281553 
483	 0,129736366295024 
484	 0,132304956045768 
485	 0,132762183664102 
486	 0,130762924196616 
487	 0,131150792724357 
488	 0,130615307248761 
489	 0,127030584489357 
490	 0,126103602749541 
491	 0,126871078870384 
492	 0,124367123179074 
493	 0,125380764016406 
494	 0,130472374917312 
495	 0,129535636253263 
496	 0,126817701116333 
497	 0,127897150201199 
498	 0,129145199992459 
499	 0,130133512889545 
500	 0,1321707436682 
501	 0,13358178804045 
502	 0,133175931185582 
503	 0,129229825444208 
504	 0,125628755565774 
505	 0,129419033877846 
506	 0,132779852385388 
507	 0,133643343656641 
508	 0,134410831563791 
509	 0,134807887377188 
510	 0,134568051995615 
511	 0,13417156230926 
512	 0,134296556975822 
513	 0,136605768291554 
514	 0,13773199779556 
515	 0,136685095354607 
516	 0,137648249914066 
517	 0,139025895160185 
518	 0,138014563128787 
519	 0,13789016937466 
520	 0,139057450392735 
521	 0,13983576755596 
522	 0,140276705406921 
523	 0,140414408994954 
524	 0,140173905137999 
525	 0,139700740035068 
526	 0,139191440317514 
527	 0,139250841035052 
528	 0,139814514978314 
529	 0,139220250582 
530	 0,138457725801443 
531	 0,138777694285865 
532	 0,139314858273158 
533	 0,13958353775957 
534	 0,138699241017657 
535	 0,138045189000739 
536	 0,13835328121488 
537	 0,138230092310194 
538	 0,137939268566303 
539	 0,138302380436323 
540	 0,138817079934245 
541	 0,139215808211937 
542	 0,138985943204099 
543	 0,138975044319265 
544	 0,139957358184366 
545	 0,140239337972979 
546	 0,13972004439694 
547	 0,138956942965358 
548	 0,139030268279943 
549	 0,1402717588892 
550	 0,140709186822708 
551	 0,140633862459257 
552	 0,140879902666145 
553	 0,140972533845789 
554	 0,140910618585826 
555	 0,141257912780756 
556	 0,141179627368663 
557	 0,140066357171991 
558	 0,13940561588895 
559	 0,139118695570065 
560	 0,138243933362143 
561	 0,137435971745256 
562	 0,137021487949588 
563	 0,137194867565249 
564	 0,137643464643039 
565	 0,137948013633587 
566	 0,13785735351126 
567	 0,137404740432599 
568	 0,136836415441268 
569	 0,136962921533132 
570	 0,138277898188783 
571	 0,139636810113946 
572	 0,140734422235877 
573	 0,141315108889253 
574	 0,142441063580651 
575	 0,144208719308126 
576	 0,144885433397803 
577	 0,145488836134636 
578	 0,147255216405446 
579	 0,148632312077193 
580	 0,149554174438288 
581	 0,150968388851083 
582	 0,152337845482278 
583	 0,153398679497406 
584	 0,154592294598012 
585	 0,155709055203007 
586	 0,156272243411084 
587	 0,157118657747847 
588	 0,158270631195382 
589	 0,158575282792613 
590	 0,158796150988836 
591	 0,159659303672235 
592	 0,160325232637384 
593	 0,160793909762821 
594	 0,161493879441768 
595	 0,162352986910861 
596	 0,16322389889506 
597	 0,163510134704828 
598	 0,163147740160937 
599	 0,162132968362757 
600	 0,161387498266127 
601	 0,161060076145926 
602	 0,160323976940802 
603	 0,160072044474699 
604	 0,16085682948985 
605	 0,160518680775017 
606	 0,159282376713911 
607	 0,158592170038928 
608	 0,158142355822086 
609	 0,157808427037683 
610	 0,157251141527178 
611	 0,156550884173312 
612	 0,155849248805862 
613	 0,15529657964277 
614	 0,154830303221063 
615	 0,154075475479762 
616	 0,153345893969593 
617	 0,15285482790651 
618	 0,152481374420313 
619	 0,152265019702253 
620	 0,152382187110533 
621	 0,15201340262841 
622	 0,151228413946746 
623	 0,151763875955009 
624	 0,152655178162422 
625	 0,152807875718614 
626	 0,152413759628074 
627	 0,151820525960916 
628	 0,151777192546664 
629	 0,152488465279397 
630	 0,153854022080727 
631	 0,154298009520708 
632	 0,154201037494221 
633	 0,154493235805662 
634	 0,154894443780115 
635	 0,155455998516775 
636	 0,156539145614011 
637	 0,157808977694871 
638	 0,158931823851056 
639	 0,159493803713348 
640	 0,15988611449771 
641	 0,161398601395393 
642	 0,162393364664111 
643	 0,16241036249573 
644	 0,163070871168583 
645	 0,163943713571509 
646	 0,164285663837907 
647	 0,164252394733168 
648	 0,16391092847401 
649	 0,163419258165646 
650	 0,162751123625927 
651	 0,161919246307075 
652	 0,161219840333464 
653	 0,160407425099001 
654	 0,158859275869343 
655	 0,157407724552949 
656	 0,156291446992328 
657	 0,155184863141606 
658	 0,153754191625472 
659	 0,151691760681616 
660	 0,149327325508837 
661	 0,147080742808272 
662	 0,145841373368721 
663	 0,144639031767159 
664	 0,143015541879103 
665	 0,141537168975953 
666	 0,140301125390449 
667	 0,139333258573638 
668	 0,138738427227484 
669	 0,138369661573952 
670	 0,137500676495123 
671	 0,137028925063437 
672	 0,137552549071812 
673	 0,137039884095578 
674	 0,135938820718173 
675	 0,136157478341817 
676	 0,136694575146985 
677	 0,137007536790432 
678	 0,136051964010651 
679	 0,135360509040937 
680	 0,136805121575901 
681	 0,137858477620438 
682	 0,138200473739644 
683	 0,138827550382617 
684	 0,139725012833471 
685	 0,140945969049775 
686	 0,142695634248709 
687	 0,144888319992886 
688	 0,147276725766653 
689	 0,150425240610776 
690	 0,15443298373694 
691	 0,158692043747955 
692	 0,164024489285006 
693	 0,171089872413108 
694	 0,178121488049723 
695	 0,185286306551199 
696	 0,193850609058356 
697	 0,203407984340015 
698	 0,213719955490811 
699	 0,224246587593409 
700	 0,23521011757111 
701	 0,246987545554399 
702	 0,258044898925579 
703	 0,268318489632721 
704	 0,279162991868732 
705	 0,289950188156384 
706	 0,300245402208666 
707	 0,30999444975213 
708	 0,319379462116828 
709	 0,328799105316445 
710	 0,337547461486395 
711	 0,34541898003091 
712	 0,352519328223039 
713	 0,359353153032139 
714	 0,36634022864948 
715	 0,372710889035651 
716	 0,378396589934752 
717	 0,3835661388035 
718	 0,388550804608401 
719	 0,393460630237275 
720	 0,397983687522233 
721	 0,401886951737293 
722	 0,40492746868614 
723	 0,408080281992813 
724	 0,411389089180971 
725	 0,414088577398251 
726	 0,416421023277313 
727	 0,418562262930498 
728	 0,42057583496685 
729	 0,422630094421644 
730	 0,425036010916774 
731	 0,426843466224629 
732	 0,427906870023944 
733	 0,428987631112444 
734	 0,430083239422897 
735	 0,43118607423139 
736	 0,432570566805697 
737	 0,433912878109413 
738	 0,434294919913943 
739	 0,434609788021388 
740	 0,435260289330816 
741	 0,436391399953894 
742	 0,437395812312702 
743	 0,43757928552464 
744	 0,437868410720735 
745	 0,438515402583169 
746	 0,439643471214536 
747	 0,440434907830237 
748	 0,440498039992019 
749	 0,440577534667352 
750	 0,44082333457675 
751	 0,441308748611622 
752	 0,441797615916045 
753	 0,44218498534813 
754	 0,442337463437239 
755	 0,442698286487534 
756	 0,443520671473891 
757	 0,443979477200796 
758	 0,444070160986699 
759	 0,444053036928508 
760	 0,444059227375585 
761	 0,444180720312346 
762	 0,444459041582069 
763	 0,444852394719405 
764	 0,445305945493627 
765	 0,445666944308915 
766	 0,445945274398844 
767	 0,44634542855631 
768	 0,446255712056581 
769	 0,445669889462723 
770	 0,446002998508622 
771	 0,44670141973326 
772	 0,446973280939282 
773	 0,447145415857781 
774	 0,44722566836246 
775	 0,447003758648462 
776	 0,447063801728697 
777	 0,44759454519491 
778	 0,447564076164289 
779	 0,447322436669355 
780	 0,447551503181063 
781	 0,447728118636977 
782	 0,447780233262247 
783	 0,447932310640517 
784	 0,448142221967799 
785	 0,448379008845115 
786	 0,448660052202163 
787	 0,448849284992069 
788	 0,448713696568046 
789	 0,448524197666136 
790	 0,448401351250963 
791	 0,448389132080477 
792	 0,448567374299111 
793	 0,448935389328158 
794	 0,448896238294641 
795	 0,448449807276254 
796	 0,447749862115552 
797	 0,44759189083162 
798	 0,44807727777192 
799	 0,448126418493924 
800	 0,448120572853559 
801	 0,448436612504988 
802	 0,448497513547746 
803	 0,448344073777395 
804	 0,448330599199327 
805	 0,448408053152063 
806	 0,44857471908272 
807	 0,448776179334923 
808	 0,449172968515046 
809	 0,449910117633547 
810	 0,450427552155599 
811	 0,450597768108328 
812	 0,450382080728218 
813	 0,450452552214119 
814	 0,451022293495247 
815	 0,451314670781449 
816	 0,451567258853844 
817	 0,452126166023143 
818	 0,452405934335242 
819	 0,452365477389705 
820	 0,452232488009859 
821	 0,452404047293841 
822	 0,453006640634627 
823	 0,453407808085796 
824	 0,453640373158294 
825	 0,453840659631486 
826	 0,45404251557421 
827	 0,454218410556001 
828	 0,45420924557926 
829	 0,454301148175365 
830	 0,454597184723082 
831	 0,454666536878549 
832	 0,45472169249425 
833	 0,455107700176053 
834	 0,455246252167145 
835	 0,455152806864198 
836	 0,455384130343229 
837	 0,455562457852113 
838	 0,455501383031496 
839	 0,455394026637705 
840	 0,455382836370654 
841	 0,455627830278786 
842	 0,455807937420689 
843	 0,455865687589831 
844	 0,455935562338419 
845	 0,455924434877364 
846	 0,455825307503196 
847	 0,455921149600059 
848	 0,456143925919707 
849	 0,456351386480312 
850	 0,456378340983372 
851	 0,456334483513305 
852	 0,456769773768965 
853	 0,457044214148783 
854	 0,456872323781222 
855	 0,456925862010108 
856	 0,457019870896885 
857	 0,456805941074204 
858	 0,456685289181145 
859	 0,456790907331584 
860	 0,457248711407975 
861	 0,457498125804015 
862	 0,457277426860107 
863	 0,45699829087725 
864	 0,456984023868303 
865	 0,457565564159973 
866	 0,457697953773204 
867	 0,45740363508003 
868	 0,457611482385854 
869	 0,457655184586515 
870	 0,457368729344097 
871	 0,457703292162002 
872	 0,458277432217759 
873	 0,458535918110409 
874	 0,458810848559498 
875	 0,459005509495384 
876	 0,4585755443572 
877	 0,458664002432034 
878	 0,459567186046567 
879	 0,459900195813567 
880	 0,459973235997583 
881	 0,460243850609687 
882	 0,46071986312962 
883	 0,461217160352019 
884	 0,461165997260822 
885	 0,461460155489261 
886	 0,462266100560337 
887	 0,462648054270119 
888	 0,462829839201318 
889	 0,463019190135904 
890	 0,462320000670635 
891	 0,461474998824425 
892	 0,462419912390973 
893	 0,463244049375026 
894	 0,463369895987393 
895	 0,46326365805193 
896	 0,46335928984536 
897	 0,46394534401153 
898	 0,464458758960486 
899	 0,464698485449002 
900	 0,464479105816087 
901	 0,464429236916507 
902	 0,464705836414916 
903	 0,465157402003719 
904	 0,465261776790336 
905	 0,464810260786242 
906	 0,464864434399285 
907	 0,465225966993435 
908	 0,465417956664054 
909	 0,465641978648649 
910	 0,465924386566697 
911	 0,466280132275763 
912	 0,466436669737042 
913	 0,466262619744163 
914	 0,465795316228145 
915	 0,465591460446029 
916	 0,46620623885955 
917	 0,466607818778936 
918	 0,46676943581967 
919	 0,467275209127079 
920	 0,46738813718667 
921	 0,466863557473935 
922	 0,465729008093783 
923	 0,465341758814889 
924	 0,466554381558884 
925	 0,466189485258522 
926	 0,465090169946262 
927	 0,465737496799223 
928	 0,465830703420827 
929	 0,465092217835726 
930	 0,464887503137053 
931	 0,46508091358624 
932	 0,465474747543873 
933	 0,465387255396183 
934	 0,46469005480726 
935	 0,463404198842822 
936	 0,463444399641475 
937	 0,46449363125093 
938	 0,464440354535336 
939	 0,463802696204683 
940	 0,462976827010078 
941	 0,463086089273107 
942	 0,463568046277144 
943	 0,463735339834002 
944	 0,462422290346128 
945	 0,460831062304909 
946	 0,461596104272985 
947	 0,461076540003234 
948	 0,45909570392075 
949	 0,459124279853841 
950	 0,458765921705065 
951	 0,457024582915374 
952	 0,457018910330931 
953	 0,457187512440631 
954	 0,455363433736176 
955	 0,453513236407973 
956	 0,452688464487061 
957	 0,454727582402615 
958	 0,454893809617197 
959	 0,452395464488132 
960	 0,45202308711669 
961	 0,45243988646356 
962	 0,452487441386285 
963	 0,452442697033061 
964	 0,452431330064686 
965	 0,452634123453009 
966	 0,45156874968674 
967	 0,44983181936409 
968	 0,450421545956777 
969	 0,450805640152436 
970	 0,450280174219508 
971	 0,451343605086346 
972	 0,452270215290515 
973	 0,451515044822666 
974	 0,451184176908835 
975	 0,451662009484128 
976	 0,453004672066581 
977	 0,45313630173051 
978	 0,452045744353558 
979	 0,451854471085315 
980	 0,452254996732143 
981	 0,452863287594129 
982	 0,452241414311444 
983	 0,451534335158902 
984	 0,451980686240519 
985	 0,452514870248237 
986	 0,453230756267934 
987	 0,454743444404221 
988	 0,455236839329547 
989	 0,454633275681788 
990	 0,454683450954764 
991	 0,455253175620168 
992	 0,456145539460242 
993	 0,456397506995189 
994	 0,457149487354906 
995	 0,459314316738916 
996	 0,457982236640221 
997	 0,45534806519123 
998	 0,457375224213634 
999	 0,458614271107046 
1000	 0,458638460201185 
1001	 0,462161048522801 
1002	 0,462718774598721 
1003	 0,458627345242706 
1004	 0,460323756917368 
1005	 0,463686414514869 
1006	 0,463942362488008 
1007	 0,462876735055635 
1008	 0,46235773179096 
1009	 0,465192586291684 
1010	 0,465060092524707 
1011	 0,462392059733471 
1012	 0,464555919260001 
1013	 0,466275869996043 
1014	 0,465353547757364 
1015	 0,463097653108072 
1016	 0,462157014980716 
1017	 0,464627287521055 
1018	 0,469225690421439 
1019	 0,471791648330015 
1020	 0,466810374505453 
1021	 0,467611463254884 
1022	 0,472969921506711 
1023	 0,470031684993889 
1024	 0,468644647428098 
1025	 0,471408388206846 
1026	 0,47453390384474 
1027	 0,474450731961201 
1028	 0,470302749164569 
1029	 0,47383270669416 
1030	 0,477122739648887 
1031	 0,470695283094856 
1032	 0,472154805655216 
1033	 0,477982155915275 
1034	 0,474203430237408 
1035	 0,472968922604538 
1036	 0,476210284808238 
1037	 0,478757808566305 
1038	 0,479377208144452 
1039	 0,478061367880783 
1040	 0,479282537037543 
1041	 0,480146208038777 
1042	 0,478722481455966 
1043	 0,48153947238804 
1044	 0,484237303214463 
1045	 0,480147952262009 
1046	 0,479977029722724 
1047	 0,482541343282702 
1048	 0,479396137469909 
1049	 0,476048564640866 
1050	 0,474828500817536 
1051	 0,477001465413548 
1052	 0,481252421700449 
1053	 0,485515192913474 
1054	 0,483392202530433 
1055	 0,480754469268671 
1056	 0,482846376506426 
1057	 0,48718109315629 
1058	 0,488926784504715 
1059	 0,482602503566185 
1060	 0,487001003906172 
1061	 0,495441847157564 
1062	 0,483166416559056 
1063	 0,478911532626974 
1064	 0,486327418290205 
1065	 0,485075681932651 
1066	 0,485009481458393 
1067	 0,486807176948637 
1068	 0,469325893145041 
1069	 0,463206247995155 
1070	 0,486391930346167 
1071	 0,489985529109242 
1072	 0,485046081088066 
1073	 0,489494094967958 
1074	 0,475423891445024 
1075	 0,460104260142138 
