Wavelength	AV0100029.asd
325	 3,79293052036544E-02 
326	 0,037221320699624 
327	 3,78623629763309E-02 
328	 3,93704526034007E-02 
329	 3,89547677654653E-02 
330	 3,79475464529648E-02 
331	 3,73848491543981E-02 
332	 3,73608010097457E-02 
333	 3,72473230731544E-02 
334	 0,037016002743254 
335	 3,68724936752632E-02 
336	 3,67834586324385E-02 
337	 3,66829942463955E-02 
338	 3,67313910865656E-02 
339	 3,67686742567789E-02 
340	 3,70550156410145E-02 
341	 3,74515627112324E-02 
342	 3,72334524841403E-02 
343	 0,037221856401739 
344	 3,71931882526161E-02 
345	 3,67262775974759E-02 
346	 3,63288285446752E-02 
347	 3,63582802847508E-02 
348	 3,65924968924049E-02 
349	 3,68723537760329E-02 
350	 3,73910295664227E-02 
351	 0,037318633029708 
352	 3,67432934551945E-02 
353	 3,66297742437617E-02 
354	 3,66466004696716E-02 
355	 3,66825266925308E-02 
356	 0,036728770280101 
357	 3,68526461038609E-02 
358	 3,65721153065627E-02 
359	 3,63423278136443E-02 
360	 3,64109696936812E-02 
361	 3,65520483325351E-02 
362	 3,65010659869002E-02 
363	 3,64503803095593E-02 
364	 3,62948356478345E-02 
365	 0,036155843694766 
366	 3,69155040535066E-02 
367	 3,73862451325533E-02 
368	 3,69621129083353E-02 
369	 3,65162783544666E-02 
370	 3,64014001422793E-02 
371	 0,036516154941584 
372	 3,68216157157832E-02 
373	 3,70669795032106E-02 
374	 3,69433667789712E-02 
375	 3,67999092770862E-02 
376	 3,67763026536488E-02 
377	 0,036777678553283 
378	 3,67977176091065E-02 
379	 3,67518664754034E-02 
380	 3,68942537656589E-02 
381	 3,72538812487228E-02 
382	 3,70122223193786E-02 
383	 3,67637567781623E-02 
384	 3,72683351604884E-02 
385	 0,037454851734169 
386	 3,71531360672334E-02 
387	 3,66534829454205E-02 
388	 3,65625146353534E-02 
389	 3,69247897843455E-02 
390	 3,67367735312489E-02 
391	 3,65554509890759E-02 
392	 0,036859010554254 
393	 3,69359345062522E-02 
394	 3,68303576722629E-02 
395	 3,68582099889896E-02 
396	 3,67217492777331E-02 
397	 0,036476907726394 
398	 3,66224502799913E-02 
399	 3,68128254028741E-02 
400	 3,66177482703916E-02 
401	 3,65252552893989E-02 
402	 3,65776161676128E-02 
403	 3,65043655421559E-02 
404	 3,64909392150136E-02 
405	 3,67019519400402E-02 
406	 3,66660831240048E-02 
407	 3,64940593153555E-02 
408	 3,66287167020547E-02 
409	 3,66228932564258E-02 
410	 3,64358100409422E-02 
411	 3,66060877442727E-02 
412	 0,036833530989606 
413	 3,67312201928471E-02 
414	 0,036726405688498 
415	 0,036806339429072 
416	 0,036759518977872 
417	 0,036693909231426 
418	 3,66714899731133E-02 
419	 3,66810053710876E-02 
420	 3,66771296954432E-02 
421	 3,67343122388152E-02 
422	 3,68491313994588E-02 
423	 3,69882559017788E-02 
424	 3,69931557857203E-02 
425	 3,69966725473005E-02 
426	 3,69857176797435E-02 
427	 3,70812024748945E-02 
428	 3,72115630824033E-02 
429	 3,72036546134266E-02 
430	 3,73186502206086E-02 
431	 3,75675363980122E-02 
432	 0,037458373142641 
433	 3,74185873354172E-02 
434	 3,77066174079057E-02 
435	 3,78490761173133E-02 
436	 3,78634057049894E-02 
437	 3,79665569535073E-02 
438	 3,80293138154144E-02 
439	 0,038052521921327 
440	 3,82085771795668E-02 
441	 3,83623575605129E-02 
442	 3,82888411651163E-02 
443	 3,82848332323924E-02 
444	 3,83961407195189E-02 
445	 3,85355144146614E-02 
446	 3,86906749284615E-02 
447	 3,88260390623509E-02 
448	 3,88388760054853E-02 
449	 3,87989531074935E-02 
450	 0,038839810141902 
451	 3,89405764679705E-02 
452	 3,90863591812441E-02 
453	 3,91719799702167E-02 
454	 3,91928741984228E-02 
455	 3,91967462898066E-02 
456	 3,92500222392951E-02 
457	 3,93116760481225E-02 
458	 0,039379126114842 
459	 3,94429044305485E-02 
460	 3,94868169177141E-02 
461	 3,95736871520298E-02 
462	 3,96638395703492E-02 
463	 3,97124284242978E-02 
464	 3,96887622459526E-02 
465	 3,96445695092726E-02 
466	 3,96967857720489E-02 
467	 3,97936399659169E-02 
468	 3,98754920985097E-02 
469	 3,99586590344884E-02 
470	 4,00428133447505E-02 
471	 4,00200584147549E-02 
472	 4,00125869647268E-02 
473	 4,00513924720254E-02 
474	 4,01262258866494E-02 
475	 4,02244181845049E-02 
476	 4,03098392839893E-02 
477	 0,040358781382978 
478	 4,03836446405139E-02 
479	 4,04483593071515E-02 
480	 4,05320673242277E-02 
481	 4,05387279145823E-02 
482	 4,05657599538943E-02 
483	 4,06502814276861E-02 
484	 0,040707851381549 
485	 4,07520899298083E-02 
486	 4,07830876946634E-02 
487	 4,08640314053975E-02 
488	 0,040897217004662 
489	 4,08607500129221E-02 
490	 4,08516111204415E-02 
491	 4,08744713489314E-02 
492	 4,11141687749559E-02 
493	 4,12779182303694E-02 
494	 4,12676170799499E-02 
495	 4,12727247602909E-02 
496	 4,12555067222337E-02 
497	 0,04124907843766 
498	 4,14342207295204E-02 
499	 4,17059945654334E-02 
500	 4,16669590086943E-02 
501	 4,16063803843951E-02 
502	 0,041781012579011 
503	 4,19007937272256E-02 
504	 4,19650917243563E-02 
505	 4,20339588770308E-02 
506	 4,21134326167793E-02 
507	 4,21996408735491E-02 
508	 4,23618350327559E-02 
509	 4,25565427353906E-02 
510	 4,27379367094963E-02 
511	 4,28813518414258E-02 
512	 4,29498139962191E-02 
513	 4,29309885513139E-02 
514	 4,29920312905153E-02 
515	 4,31933579020301E-02 
516	 4,33404833154176E-02 
517	 4,34362295238613E-02 
518	 4,36059633411379E-02 
519	 4,36851733834072E-02 
520	 4,37080512657694E-02 
521	 4,38871589613795E-02 
522	 4,40462330056781E-02 
523	 4,41656739703526E-02 
524	 0,044288406286307 
525	 4,43740135598451E-02 
526	 4,43534521305137E-02 
527	 4,43864488689993E-02 
528	 0,044522673566967 
529	 4,45629213444141E-02 
530	 4,46278732643294E-02 
531	 4,48541969783025E-02 
532	 0,044941777594766 
533	 4,49013556176976E-02 
534	 4,50348129601255E-02 
535	 4,51684179825166E-02 
536	 4,52579882906888E-02 
537	 4,53240123493884E-02 
538	 4,54141959647831E-02 
539	 4,55303966436082E-02 
540	 4,55776506593909E-02 
541	 0,045582478396935 
542	 4,57357964252774E-02 
543	 4,59262707643259E-02 
544	 4,60405148789015E-02 
545	 4,61246238170189E-02 
546	 4,61820152888014E-02 
547	 4,62594732921218E-02 
548	 4,63471154682384E-02 
549	 0,046452629238882 
550	 4,65936219859799E-02 
551	 4,67249446793038E-02 
552	 4,67688607858345E-02 
553	 4,68592322294304E-02 
554	 4,70075533352799E-02 
555	 4,70291874280428E-02 
556	 4,70490331279191E-02 
557	 4,72653596130193E-02 
558	 4,72921155883605E-02 
559	 4,72000533563617E-02 
560	 4,73140205174315E-02 
561	 4,74215348303715E-02 
562	 4,74241656674253E-02 
563	 0,047451708432746 
564	 4,75179890045147E-02 
565	 4,76083646172567E-02 
566	 4,76541779169985E-02 
567	 4,76703278309142E-02 
568	 4,77922946867362E-02 
569	 0,047939102720524 
570	 4,80189094097792E-02 
571	 4,81572969757227E-02 
572	 4,83360861136785E-02 
573	 4,84446761588315E-02 
574	 4,85929742590342E-02 
575	 4,87543860114152E-02 
576	 4,88929339306428E-02 
577	 4,90468418143003E-02 
578	 4,92586912533062E-02 
579	 4,94360371361067E-02 
580	 4,95761986637296E-02 
581	 4,96425286565935E-02 
582	 0,049713101028617 
583	 4,98533993486701E-02 
584	 0,050040755424313 
585	 5,02480413595544E-02 
586	 5,04290789279396E-02 
587	 5,05424912425059E-02 
588	 5,06021766351269E-02 
589	 0,050757645967711 
590	 5,08644446539758E-02 
591	 5,08554000968991E-02 
592	 5,08753627609613E-02 
593	 5,09609022733992E-02 
594	 5,10926422879283E-02 
595	 0,051178335351067 
596	 5,12045159944383E-02 
597	 5,12546415939176E-02 
598	 5,13175385489585E-02 
599	 0,051325590416783 
600	 0,05133811123939 
601	 5,13817665685513E-02 
602	 5,14072765753352E-02 
603	 5,13745944155574E-02 
604	 5,12993817875775E-02 
605	 5,12364820701285E-02 
606	 5,11847388362131E-02 
607	 0,051140507782836 
608	 5,11659794698279E-02 
609	 5,11918777140981E-02 
610	 5,11173619030815E-02 
611	 5,10168243489827E-02 
612	 5,09833536007692E-02 
613	 5,09510963856091E-02 
614	 5,09077037244709E-02 
615	 5,08728804003188E-02 
616	 5,08505020025237E-02 
617	 5,07642256178667E-02 
618	 5,07911609643284E-02 
619	 5,08815469533067E-02 
620	 5,08651377995548E-02 
621	 5,09111620038448E-02 
622	 5,10038096028049E-02 
623	 5,09413179561204E-02 
624	 5,09201653196327E-02 
625	 5,10636096883473E-02 
626	 0,05118438280076 
627	 5,12531657567972E-02 
628	 5,13324887629455E-02 
629	 5,13735154203824E-02 
630	 5,14063070373096E-02 
631	 5,16018188170401E-02 
632	 5,17939692054897E-02 
633	 5,17217731439576E-02 
634	 5,17518462479052E-02 
635	 5,19211632561952E-02 
636	 5,20297333825074E-02 
637	 5,21859367381132E-02 
638	 5,24431611646482E-02 
639	 5,26457395291143E-02 
640	 5,27884990783535E-02 
641	 0,052973229735855 
642	 5,31580358203732E-02 
643	 5,32592624662757E-02 
644	 5,33251640978923E-02 
645	 5,33776410944095E-02 
646	 5,33634165986583E-02 
647	 5,34257595901676E-02 
648	 5,35577198844719E-02 
649	 5,34761584841901E-02 
650	 5,34150309337414E-02 
651	 5,35361865233834E-02 
652	 0,053431211627046 
653	 5,32191710620485E-02 
654	 5,31560667218823E-02 
655	 0,053002090088138 
656	 5,26632931852399E-02 
657	 5,23673959995219E-02 
658	 5,21257563644833E-02 
659	 5,18651306756018E-02 
660	 5,14613766549709E-02 
661	 5,09874294236104E-02 
662	 5,07701019027787E-02 
663	 5,05603759652043E-02 
664	 5,02421194771983E-02 
665	 0,049990780118734 
666	 4,98229368228316E-02 
667	 4,96654328739695E-02 
668	 4,94974768301404E-02 
669	 4,93850917816796E-02 
670	 0,049430134549979 
671	 4,94341775601403E-02 
672	 4,93665696348524E-02 
673	 4,94108124530804E-02 
674	 4,95272558514194E-02 
675	 4,95991513040274E-02 
676	 0,049651414193724 
677	 4,97006266761154E-02 
678	 4,98280715849398E-02 
679	 5,00595285837924E-02 
680	 5,03561723479763E-02 
681	 5,06442707963816E-02 
682	 0,050891072442838 
683	 5,11268938982059E-02 
684	 5,14097149801034E-02 
685	 5,17927473573554E-02 
686	 5,22326637154211E-02 
687	 5,27632639130283E-02 
688	 5,33383727702527E-02 
689	 5,39073450595671E-02 
690	 0,054497566746061 
691	 5,52076225244551E-02 
692	 5,60122207332099E-02 
693	 5,68932804898172E-02 
694	 5,77916159531178E-02 
695	 5,87118907272147E-02 
696	 5,98219149696425E-02 
697	 6,10257824369098E-02 
698	 6,23053762027362E-02 
699	 6,35439754341422E-02 
700	 0,064769897820332 
701	 6,60206795924497E-02 
702	 6,72795396979927E-02 
703	 0,068488258026315 
704	 6,95085408953767E-02 
705	 7,04766301239289E-02 
706	 7,15504224561867E-02 
707	 7,24674065455684E-02 
708	 7,32698574186774E-02 
709	 7,41657894111189E-02 
710	 7,50570940548624E-02 
711	 7,58895377075776E-02 
712	 7,65332369325615E-02 
713	 7,71287063268071E-02 
714	 7,78206476305957E-02 
715	 7,84608265954795E-02 
716	 7,90674013556234E-02 
717	 7,94675026609358E-02 
718	 8,00173537025974E-02 
719	 8,07609341485278E-02 
720	 8,12186399055808E-02 
721	 8,15910050431287E-02 
722	 8,20557294076865E-02 
723	 8,23768891991934E-02 
724	 8,25897566132718E-02 
725	 0,08296823276303 
726	 0,083400140562562 
727	 8,37732839977818E-02 
728	 8,41507269904206E-02 
729	 8,44722383357609E-02 
730	 8,46275463025787E-02 
731	 0,084866188580219 
732	 8,52148383764005E-02 
733	 8,54340340619589E-02 
734	 8,56360765903579E-02 
735	 8,58845473935238E-02 
736	 0,086088814153274 
737	 8,62861841751864E-02 
738	 8,65837639978698E-02 
739	 8,68340198463008E-02 
740	 8,70061239779825E-02 
741	 8,73408078623939E-02 
742	 8,77089261268826E-02 
743	 8,78498772351862E-02 
744	 8,79641008125567E-02 
745	 0,088122893629873 
746	 8,83813399135746E-02 
747	 8,86244154084181E-02 
748	 8,87570474874636E-02 
749	 8,89024031115112E-02 
750	 0,08908851743374 
751	 8,93374241488401E-02 
752	 8,95277836882579E-02 
753	 8,96421449027627E-02 
754	 8,99155712063567E-02 
755	 9,01947055936737E-02 
756	 9,03811361747777E-02 
757	 9,05587015110481E-02 
758	 9,07005837674721E-02 
759	 9,07406220619464E-02 
760	 9,11340515879186E-02 
761	 9,21066144771493E-02 
762	 9,20271531941747E-02 
763	 9,16631953320016E-02 
764	 9,17378574264435E-02 
765	 9,18926548501019E-02 
766	 9,20482947227182E-02 
767	 9,22622648612198E-02 
768	 9,24709076409426E-02 
769	 9,26541867042554E-02 
770	 9,28526118980321E-02 
771	 9,30203607013786E-02 
772	 9,30710566996852E-02 
773	 9,32847636542629E-02 
774	 9,35939500153333E-02 
775	 9,36317905622817E-02 
776	 0,093714217473775 
777	 9,39819084335145E-02 
778	 9,42078044832987E-02 
779	 9,43868453447688E-02 
780	 9,45864060530295E-02 
781	 9,46513373490555E-02 
782	 9,46337818245302E-02 
783	 0,094886380883611 
784	 9,51703138390319E-02 
785	 9,53481795324375E-02 
786	 9,55309383665302E-02 
787	 9,56276877216362E-02 
788	 9,56362651159546E-02 
789	 0,095732520009712 
790	 9,59218911612419E-02 
791	 9,61849555031422E-02 
792	 9,64679998613525E-02 
793	 9,65784516041155E-02 
794	 9,67110329016745E-02 
795	 0,096884954479403 
796	 9,70702108871772E-02 
797	 9,71953989248723E-02 
798	 9,72601882664743E-02 
799	 0,097353601701424 
800	 9,75151149754312E-02 
801	 0,097726750177718 
802	 9,78976403666051E-02 
803	 9,80160526073567E-02 
804	 9,81546122598566E-02 
805	 0,098390137266674 
806	 9,87253444416172E-02 
807	 9,88806977530184E-02 
808	 9,89683687880603E-02 
809	 9,90257258717589E-02 
810	 9,90613935349152E-02 
811	 9,91141859567161E-02 
812	 9,91542982797366E-02 
813	 9,93292401066926E-02 
814	 9,96712393258993E-02 
815	 9,96312401256714E-02 
816	 9,95349081150617E-02 
817	 0,099711265375273 
818	 0,100013432441794 
819	 0,10032325716984 
820	 0,100361173197029 
821	 0,100326608197797 
822	 0,100485783300886 
823	 0,10060386390803 
824	 0,100713003647509 
825	 0,101027882305158 
826	 0,101278467615501 
827	 0,101429707164026 
828	 0,101474905811819 
829	 0,101495700997491 
830	 0,101541730172489 
831	 0,101700094234248 
832	 0,101776536542796 
833	 0,101758866226745 
834	 0,101824261208773 
835	 0,101896258276545 
836	 0,101958925407774 
837	 0,102080730670564 
838	 0,10226350692365 
839	 0,102470830020508 
840	 0,10260180464448 
841	 0,102694672873185 
842	 0,102780991557412 
843	 0,102858386405645 
844	 0,102847451613439 
845	 0,102898152992473 
846	 0,103058421845661 
847	 0,103223898747922 
848	 0,103384235688995 
849	 0,103384899203478 
850	 0,103530148859741 
851	 0,10374461051801 
852	 0,103718497303347 
853	 0,103802551796987 
854	 0,104151164962078 
855	 0,104162875648408 
856	 0,104029021701606 
857	 0,104216354102697 
858	 0,104200224750625 
859	 0,104075579638307 
860	 0,104334984046714 
861	 0,104642212152658 
862	 0,104761775875886 
863	 0,104736128086188 
864	 0,104688732249299 
865	 0,104694112635779 
866	 0,104843766116877 
867	 0,105092650716514 
868	 0,104949321420355 
869	 0,104917817787416 
870	 0,105334947102024 
871	 0,105386261726815 
872	 0,105344498939724 
873	 0,10556065806301 
874	 0,105670121884466 
875	 0,105682371314282 
876	 0,105674321327932 
877	 0,105765514338205 
878	 0,106053085453288 
879	 0,106218884671951 
880	 0,106270278405131 
881	 0,10627565511328 
882	 0,106193032102826 
883	 0,106097763151883 
884	 0,106265688494737 
885	 0,106478639769209 
886	 0,106552702054115 
887	 0,106739450579404 
888	 0,106879509566599 
889	 0,1069699938473 
890	 0,106812635517832 
891	 0,106635784175796 
892	 0,107127265046486 
893	 0,107154477367563 
894	 0,106480733317297 
895	 0,106758185737603 
896	 0,107107501409805 
897	 0,106834655986787 
898	 0,106721041561081 
899	 0,106818639811002 
900	 0,107003581279231 
901	 0,10724422721353 
902	 0,107335720675116 
903	 0,107190337602245 
904	 0,107356970307677 
905	 0,107677625300293 
906	 0,107651514267824 
907	 0,107494476998281 
908	 0,1079584499596 
909	 0,107630086568188 
910	 0,106872153659091 
911	 0,10754149138748 
912	 0,10819263113859 
913	 0,107601717587241 
914	 0,107714138877864 
915	 0,108008132865396 
916	 0,107668221147377 
917	 0,108063708801273 
918	 0,108786349048281 
919	 0,108414541185399 
920	 0,108340008401141 
921	 0,108640877313513 
922	 0,108340537874925 
923	 0,108036934085524 
924	 0,107915444140741 
925	 0,107663529445378 
926	 0,107322172940425 
927	 0,107282025253868 
928	 0,107791741657962 
929	 0,108491016358776 
930	 0,107725499846426 
931	 0,106704503048877 
932	 0,105900287572818 
933	 0,105505612982557 
934	 0,10608004533814 
935	 0,10732018692163 
936	 0,106060957006674 
937	 0,103541551151213 
938	 0,104321850949332 
939	 0,104727164330276 
940	 0,102498513111652 
941	 0,102376415011912 
942	 0,103278515147158 
943	 0,105494917330734 
944	 0,104707059166072 
945	 0,102504028040762 
946	 0,100419471289462 
947	 0,101734509482038 
948	 0,105275332216754 
949	 0,104767106745299 
950	 0,102968342154751 
951	 0,102228907205003 
952	 0,101877620064777 
953	 0,101809723305376 
954	 0,10220903412464 
955	 0,101385516022535 
956	 0,100049868377634 
957	 9,96210005010911E-02 
958	 9,94966339299991E-02 
959	 9,95650631172151E-02 
960	 9,93713312933943E-02 
961	 0,099594889510599 
962	 9,98768499546824E-02 
963	 9,97115113975377E-02 
964	 0,099110555016145 
965	 9,98294636970719E-02 
966	 9,95706678787508E-02 
967	 9,88309019370818E-02 
968	 9,93566467788502E-02 
969	 9,93810013643491E-02 
970	 9,89402479462713E-02 
971	 9,88169650948847E-02 
972	 9,86753025381237E-02 
973	 9,84735445784949E-02 
974	 9,70486800722545E-02 
975	 9,61807737078125E-02 
976	 9,86780764274071E-02 
977	 0,100319292496291 
978	 0,100123388981774 
979	 9,96543894600383E-02 
980	 9,98357820064082E-02 
981	 0,100409923378175 
982	 0,100398144600251 
983	 0,10014623975273 
984	 9,99932210927442E-02 
985	 0,10007845180136 
986	 0,100170291855432 
987	 0,100543212825147 
988	 0,101008557759717 
989	 0,101644521048345 
990	 0,102212235337893 
991	 0,101377644509756 
992	 9,98247020971277E-02 
993	 0,100541215085512 
994	 0,101752553794173 
995	 0,102018393630994 
996	 0,102721984957011 
997	 0,10350804296664 
998	 0,102797034989966 
999	 0,102337872606854 
1000	 0,10225629481625 
1001	 0,10218751016139 
1002	 0,103453688518086 
1003	 0,105049990420797 
1004	 0,103817167269958 
1005	 0,102841510152951 
1006	 0,103650987696444 
1007	 0,103337352132666 
1008	 0,103521683761309 
1009	 0,106142144463564 
1010	 0,105348353812762 
1011	 0,102497872710373 
1012	 0,105163233703146 
1013	 0,10750422085747 
1014	 0,106732419428005 
1015	 0,106403442245475 
1016	 0,107282899436028 
1017	 0,108003138408239 
1018	 0,106650989198689 
1019	 0,105326601117675 
1020	 0,105927041054951 
1021	 0,10760422142702 
1022	 0,110103710697556 
1023	 0,108302024026088 
1024	 0,107343642897301 
1025	 0,108703239040466 
1026	 0,109628280705939 
1027	 0,109886420597163 
1028	 0,110464378589149 
1029	 0,110300122827212 
1030	 0,110254725966659 
1031	 0,10944604874771 
1032	 0,108965871747667 
1033	 0,109330317907151 
1034	 0,111252943434296 
1035	 0,110707122100134 
1036	 0,10929862531169 
1037	 0,112304190604522 
1038	 0,111649212317453 
1039	 0,107151372237149 
1040	 0,109103299841935 
1041	 0,110786825827306 
1042	 0,107817681279644 
1043	 0,110468576545779 
1044	 0,113597995821597 
1045	 0,109054489761888 
1046	 0,111424428570437 
1047	 0,116508807400235 
1048	 0,112867075727088 
1049	 0,111762503989482 
1050	 0,1153627311139 
1051	 0,11483446198273 
1052	 0,112610121598174 
1053	 0,112909769495484 
1054	 0,110109661200808 
1055	 0,112304987818211 
1056	 0,122640831465012 
1057	 0,119457792230495 
1058	 0,111982269098181 
1059	 0,111782815302734 
1060	 0,111674482162566 
1061	 0,110461424697499 
1062	 0,110937404773311 
1063	 0,112528230223771 
1064	 0,112750774782778 
1065	 0,112336343599219 
1066	 0,111984789335035 
1067	 0,109729980075657 
1068	 0,110840421247211 
1069	 0,113777210089716 
1070	 0,11733067633199 
1071	 0,120817923031361 
1072	 0,122961706363819 
1073	 0,113248892051535 
1074	 0,10996305782525 
1075	 0,116248281259341 
