Wavelength	AV0100030.asd
325	 3,78410893539727E-02 
326	 0,037632621110079 
327	 0,037537708836055 
328	 3,77205929481736E-02 
329	 3,71940874051098E-02 
330	 3,70428179343578E-02 
331	 3,76380174613304E-02 
332	 3,76680040485706E-02 
333	 3,71773897403146E-02 
334	 3,68462617598608E-02 
335	 3,61772179265673E-02 
336	 3,56530854929211E-02 
337	 3,58924885862276E-02 
338	 3,63599178367227E-02 
339	 3,65532730673886E-02 
340	 3,65728066690482E-02 
341	 3,63948401473365E-02 
342	 3,56003320634776E-02 
343	 0,035633242567934 
344	 0,036466104313118 
345	 3,58989243238724E-02 
346	 3,54079898074676E-02 
347	 3,57627655819296E-02 
348	 3,58879581320107E-02 
349	 3,56780538459232E-02 
350	 3,55624937156302E-02 
351	 3,55055501440858E-02 
352	 3,55171115120621E-02 
353	 3,52878091473118E-02 
354	 3,51760584279762E-02 
355	 3,56294590447351E-02 
356	 3,57473008612206E-02 
357	 0,035642934561296 
358	 3,56925440444345E-02 
359	 3,55937834340957E-02 
360	 3,55687268447608E-02 
361	 3,56718236703224E-02 
362	 3,56137784954723E-02 
363	 3,53688089535645E-02 
364	 3,51254149066476E-02 
365	 3,50352227135581E-02 
366	 3,60050166120234E-02 
367	 3,64863177367529E-02 
368	 3,58242015560165E-02 
369	 3,53774183353631E-02 
370	 0,035317486749192 
371	 3,53877108334069E-02 
372	 3,56833103940767E-02 
373	 0,036008810805785 
374	 3,57945991875316E-02 
375	 3,55065871626455E-02 
376	 3,55437126770606E-02 
377	 3,57199613781605E-02 
378	 3,58670842004603E-02 
379	 3,57231651811151E-02 
380	 3,56325316389848E-02 
381	 3,58405613617593E-02 
382	 3,58846333390073E-02 
383	 3,58703288850264E-02 
384	 3,61901643669512E-02 
385	 3,63937416022784E-02 
386	 3,62843791797374E-02 
387	 3,57266913151632E-02 
388	 3,55977284032814E-02 
389	 3,58655216419144E-02 
390	 0,035858777134997 
391	 3,57314917330971E-02 
392	 3,56451113641885E-02 
393	 3,57135467073829E-02 
394	 3,59225242769368E-02 
395	 3,59181124494597E-02 
396	 3,57078709097063E-02 
397	 3,53886803828577E-02 
398	 3,55624831999863E-02 
399	 3,58744549023289E-02 
400	 3,56524443063673E-02 
401	 3,55958530177684E-02 
402	 3,57376040468505E-02 
403	 0,035553667115526 
404	 3,54997900597509E-02 
405	 3,57800571583559E-02 
406	 3,57385468220867E-02 
407	 0,035527247484929 
408	 3,55507919916771E-02 
409	 3,55492263179585E-02 
410	 3,55185721127793E-02 
411	 3,56009460968648E-02 
412	 3,56739354502217E-02 
413	 0,035614646907607 
414	 0,035616709850767 
415	 3,56596199808093E-02 
416	 3,57049198175985E-02 
417	 3,56961438045425E-02 
418	 3,55936390735454E-02 
419	 3,55886089143411E-02 
420	 3,56356303232779E-02 
421	 3,56810990647734E-02 
422	 3,58288176982759E-02 
423	 3,60238222724051E-02 
424	 3,60604488972424E-02 
425	 0,036032194611188 
426	 3,59521552801076E-02 
427	 3,60690884174041E-02 
428	 3,62626865414013E-02 
429	 3,62315868565446E-02 
430	 3,63042859868875E-02 
431	 3,64819927069177E-02 
432	 3,64998886007422E-02 
433	 3,65145737159392E-02 
434	 0,036558759002341 
435	 3,66745902914127E-02 
436	 3,68206484802873E-02 
437	 3,68704586422648E-02 
438	 3,68781250664587E-02 
439	 3,69353173254297E-02 
440	 3,70765928909551E-02 
441	 3,71777993797545E-02 
442	 3,71514639885549E-02 
443	 3,72594946018875E-02 
444	 3,74823596736575E-02 
445	 0,037506496103302 
446	 3,75211420606695E-02 
447	 3,75709129339466E-02 
448	 3,76579503481213E-02 
449	 3,77627388824536E-02 
450	 3,78034770069216E-02 
451	 3,78682022914137E-02 
452	 3,79801821343684E-02 
453	 0,038057486758421 
454	 3,80928904078899E-02 
455	 3,81165220225919E-02 
456	 3,81721703861546E-02 
457	 3,82451240956979E-02 
458	 3,82739501781772E-02 
459	 3,82632721694534E-02 
460	 3,83124065168799E-02 
461	 3,84391330754318E-02 
462	 3,85440609634431E-02 
463	 3,84917351325414E-02 
464	 3,84796278782183E-02 
465	 3,85683253297032E-02 
466	 0,03867959014342 
467	 3,87674635878779E-02 
468	 3,87328832305487E-02 
469	 3,88133695585272E-02 
470	 3,89370784789538E-02 
471	 3,88624501671002E-02 
472	 3,88656342797455E-02 
473	 3,89816263413252E-02 
474	 3,90487366846791E-02 
475	 3,91145046308753E-02 
476	 3,91140485098975E-02 
477	 3,91284549265408E-02 
478	 3,91854054540471E-02 
479	 3,93356874151723E-02 
480	 3,94522713927829E-02 
481	 3,94238887725451E-02 
482	 3,94356951905875E-02 
483	 3,95054488809817E-02 
484	 0,039623570481611 
485	 3,96481921199614E-02 
486	 3,95753407523002E-02 
487	 3,96637328061175E-02 
488	 3,97895745435647E-02 
489	 3,97859160686736E-02 
490	 3,97267861853347E-02 
491	 3,97020245109266E-02 
492	 4,00324621039297E-02 
493	 4,01869501733701E-02 
494	 4,00374594752619E-02 
495	 4,00778398938122E-02 
496	 4,01778011253239E-02 
497	 4,02332459901712E-02 
498	 4,03230157176442E-02 
499	 4,04366682869652E-02 
500	 4,05102051844465E-02 
501	 4,05363111218529E-02 
502	 4,06149540573647E-02 
503	 4,07009733775622E-02 
504	 4,08057842449268E-02 
505	 4,09176968985233E-02 
506	 4,10031451142842E-02 
507	 4,10416413182822E-02 
508	 4,11885068347025E-02 
509	 4,13629578987784E-02 
510	 4,15021349801655E-02 
511	 4,16040923680883E-02 
512	 4,16963791645558E-02 
513	 4,17695784026905E-02 
514	 4,19089855430253E-02 
515	 4,20964525011917E-02 
516	 4,21446236120808E-02 
517	 4,21706704127888E-02 
518	 4,24011432591021E-02 
519	 4,25197987071123E-02 
520	 4,25031109113615E-02 
521	 0,042619085015406 
522	 4,27502236517976E-02 
523	 4,29339538347417E-02 
524	 0,043039132695494 
525	 0,043069081897137 
526	 4,31497461595678E-02 
527	 4,32247152059296E-02 
528	 4,32876369810956E-02 
529	 4,33422681730208E-02 
530	 4,34429064057785E-02 
531	 4,35947801597389E-02 
532	 4,36581149648501E-02 
533	 4,36640928675609E-02 
534	 4,38037077493275E-02 
535	 4,39347692232907E-02 
536	 4,40242951779695E-02 
537	 0,044073229116321 
538	 4,41200953159766E-02 
539	 4,42456819726974E-02 
540	 4,43595839807787E-02 
541	 4,44220467591174E-02 
542	 4,45038664180581E-02 
543	 4,46180958055715E-02 
544	 4,47894113855114E-02 
545	 4,48605918785237E-02 
546	 0,044862702461484 
547	 0,044977186717607 
548	 4,50919023593029E-02 
549	 4,51661864949264E-02 
550	 4,53175735391043E-02 
551	 4,54570310296881E-02 
552	 4,54378818978075E-02 
553	 0,045577798859023 
554	 4,58474556098763E-02 
555	 4,58509552479109E-02 
556	 4,57918802370316E-02 
557	 4,59417763760531E-02 
558	 4,59870062163072E-02 
559	 4,59473558848118E-02 
560	 4,60430192930172E-02 
561	 4,60987910654799E-02 
562	 4,60928581235885E-02 
563	 4,61222574338084E-02 
564	 4,61746413448463E-02 
565	 4,62270077066365E-02 
566	 4,63214437554828E-02 
567	 4,64574220119191E-02 
568	 0,046517443556628 
569	 4,66225364221098E-02 
570	 4,67957541151509E-02 
571	 4,69005833497942E-02 
572	 4,69691620584969E-02 
573	 4,71309089430181E-02 
574	 4,72860255500313E-02 
575	 4,73844819438532E-02 
576	 4,75312854724721E-02 
577	 4,77249495213062E-02 
578	 4,79487263331947E-02 
579	 4,81039996709811E-02 
580	 4,82060889692439E-02 
581	 4,82615234229566E-02 
582	 4,83333708732707E-02 
583	 4,84951607868809E-02 
584	 0,048724021561121 
585	 4,89198832160803E-02 
586	 4,90341117121708E-02 
587	 4,91339538642643E-02 
588	 4,92600461636532E-02 
589	 4,94403684687959E-02 
590	 4,95500307497661E-02 
591	 0,049489544312751 
592	 4,95059820940015E-02 
593	 4,96150272842289E-02 
594	 4,96598919407089E-02 
595	 0,04966490542107 
596	 4,96748816506399E-02 
597	 4,98212974469571E-02 
598	 0,049984985080446 
599	 5,00101376863317E-02 
600	 4,99626256317875E-02 
601	 4,98869489556469E-02 
602	 4,98984554646805E-02 
603	 4,99228584799329E-02 
604	 4,99015236394253E-02 
605	 4,98788178969475E-02 
606	 4,98482238152239E-02 
607	 4,98428453779443E-02 
608	 4,98149313723032E-02 
609	 4,97372128830969E-02 
610	 4,96917352530909E-02 
611	 4,96503039429754E-02 
612	 4,96059845352452E-02 
613	 4,96043235786232E-02 
614	 0,049635148604037 
615	 4,96467264447615E-02 
616	 4,96147034618972E-02 
617	 4,94571981858697E-02 
618	 4,94516956487028E-02 
619	 4,95204122889671E-02 
620	 0,049492280920173 
621	 4,95072504736375E-02 
622	 4,95664898835839E-02 
623	 0,049585300607234 
624	 4,95955441046391E-02 
625	 4,95952263049098E-02 
626	 4,96284253416044E-02 
627	 4,97094093436577E-02 
628	 4,98373144924363E-02 
629	 5,00082067197855E-02 
630	 5,01455912107268E-02 
631	 5,02541739548917E-02 
632	 5,03530301540648E-02 
633	 5,04100609330158E-02 
634	 5,04716176954633E-02 
635	 5,05398201760287E-02 
636	 5,06436073202542E-02 
637	 5,08295450283151E-02 
638	 5,10900903920944E-02 
639	 5,12723126377248E-02 
640	 5,13688143786987E-02 
641	 5,14128885367769E-02 
642	 5,15646922123442E-02 
643	 5,17914911781075E-02 
644	 5,19376996209993E-02 
645	 5,20051204646467E-02 
646	 5,19393138174792E-02 
647	 5,19765907971453E-02 
648	 5,21361954978778E-02 
649	 5,20364839655466E-02 
650	 5,19504381450362E-02 
651	 5,20203567322963E-02 
652	 0,051976072404399 
653	 5,18232982657822E-02 
654	 5,16340635481129E-02 
655	 5,14741456154523E-02 
656	 5,13341166710713E-02 
657	 5,10719744985556E-02 
658	 5,07400066129683E-02 
659	 5,04031632422869E-02 
660	 5,00819432927928E-02 
661	 4,97830166557719E-02 
662	 4,94121884988766E-02 
663	 4,90265717706439E-02 
664	 0,048758820900188 
665	 0,048537701168109 
666	 4,83456884679132E-02 
667	 0,048171125168639 
668	 4,80048340412915E-02 
669	 4,79092546897706E-02 
670	 4,79879507859384E-02 
671	 4,80362399060025E-02 
672	 4,79700563045048E-02 
673	 4,79682232362643E-02 
674	 4,80730230478775E-02 
675	 4,82696357767013E-02 
676	 4,83616829120204E-02 
677	 4,83166069170592E-02 
678	 4,84198450614911E-02 
679	 4,86581517740597E-02 
680	 4,89628409738797E-02 
681	 4,92303594406034E-02 
682	 4,94519464719071E-02 
683	 4,97113836234527E-02 
684	 4,99952554122527E-02 
685	 5,03852348544085E-02 
686	 5,07985315860995E-02 
687	 5,12911939082236E-02 
688	 5,18923703903572E-02 
689	 5,24915399104855E-02 
690	 5,30854883181551E-02 
691	 5,37555315948885E-02 
692	 5,44853129174299E-02 
693	 5,53176941135355E-02 
694	 5,61835643954697E-02 
695	 5,71292707794967E-02 
696	 5,83839658183742E-02 
697	 5,96108915802576E-02 
698	 6,07604435580945E-02 
699	 6,19286244688099E-02 
700	 6,31128986367797E-02 
701	 6,43410868961599E-02 
702	 6,55542372536939E-02 
703	 6,67102818974525E-02 
704	 0,067775997461129 
705	 6,87955860182799E-02 
706	 0,06981808736812 
707	 7,07174763281837E-02 
708	 0,071556453486592 
709	 7,24413711303109E-02 
710	 7,32815125912308E-02 
711	 7,40388666202348E-02 
712	 7,47093743316646E-02 
713	 0,075356775128583 
714	 7,60556153699964E-02 
715	 7,66874633642096E-02 
716	 7,72747640146807E-02 
717	 7,77194592416199E-02 
718	 7,82188352472982E-02 
719	 7,88107077365472E-02 
720	 7,92587778174259E-02 
721	 7,96332460324655E-02 
722	 8,01050245384708E-02 
723	 8,04740696925705E-02 
724	 8,07402495834027E-02 
725	 8,09743347420902E-02 
726	 0,081344460027109 
727	 8,18451173769042E-02 
728	 8,21809007818921E-02 
729	 8,23970306238446E-02 
730	 8,25790034450419E-02 
731	 8,29449759277235E-02 
732	 8,34493733452262E-02 
733	 0,083604333481656 
734	 8,36723303227732E-02 
735	 8,39522561458703E-02 
736	 0,084155500018796 
737	 8,43138713291866E-02 
738	 8,46950298314113E-02 
739	 8,49709178538247E-02 
740	 8,50960593343293E-02 
741	 8,54996298723045E-02 
742	 8,59209285118486E-02 
743	 8,60340491736613E-02 
744	 8,61580889476966E-02 
745	 8,63430378017139E-02 
746	 8,65530914311943E-02 
747	 8,67261430427983E-02 
748	 8,68628164125871E-02 
749	 8,70857620004949E-02 
750	 8,73195215546275E-02 
751	 8,75255976788838E-02 
752	 8,76344203494025E-02 
753	 8,77250181786861E-02 
754	 0,088014995086839 
755	 8,83035526920451E-02 
756	 8,84444974239184E-02 
757	 8,86689857241795E-02 
758	 8,89361094802403E-02 
759	 8,89315784951003E-02 
760	 8,91157630384908E-02 
761	 8,98335042003407E-02 
762	 8,97801461935055E-02 
763	 0,089631872848167 
764	 0,089886971634009 
765	 8,99893485875268E-02 
766	 9,00703917593041E-02 
767	 9,04273369012435E-02 
768	 9,06498027661401E-02 
769	 9,06873449391011E-02 
770	 9,08076112561462E-02 
771	 9,09773816859398E-02 
772	 0,091175587475855 
773	 9,13700301635616E-02 
774	 9,15612993569178E-02 
775	 9,17942592079744E-02 
776	 0,091959137855564 
777	 9,19984268125672E-02 
778	 0,092175266748318 
779	 9,24056711084415E-02 
780	 9,26479722013645E-02 
781	 9,27776411669909E-02 
782	 9,28134128566909E-02 
783	 9,30637090320385E-02 
784	 9,33198067945896E-02 
785	 9,35054164950908E-02 
786	 9,35524766024625E-02 
787	 9,35391698375724E-02 
788	 9,36995745683335E-02 
789	 9,38669588266439E-02 
790	 9,39900851182277E-02 
791	 9,42235311002534E-02 
792	 9,45014527798662E-02 
793	 9,46515051127235E-02 
794	 9,46650448869554E-02 
795	 9,46777402316737E-02 
796	 9,49746596246917E-02 
797	 9,51980651440616E-02 
798	 9,52729314877292E-02 
799	 9,54038460466195E-02 
800	 9,56116734032517E-02 
801	 9,58270881092998E-02 
802	 9,59346719802512E-02 
803	 9,59813195029238E-02 
804	 9,61102110670032E-02 
805	 9,63985507552228E-02 
806	 9,67395266590235E-02 
807	 9,68789462231425E-02 
808	 9,69836925933848E-02 
809	 9,71083795612468E-02 
810	 9,71372009796557E-02 
811	 9,71086462799799E-02 
812	 9,70972566598289E-02 
813	 9,71621032069684E-02 
814	 9,73568743566268E-02 
815	 9,73514796261706E-02 
816	 9,73813408301481E-02 
817	 9,76338986231196E-02 
818	 9,79723989344408E-02 
819	 9,82686975306177E-02 
820	 9,83272210490987E-02 
821	 9,83011914239084E-02 
822	 9,83307974061129E-02 
823	 9,85406121535347E-02 
824	 9,87899050207222E-02 
825	 9,90060697140844E-02 
826	 9,91615390763682E-02 
827	 9,93112905172017E-02 
828	 9,93130542539128E-02 
829	 9,93104767150113E-02 
830	 9,92853265192439E-02 
831	 9,95330834188332E-02 
832	 9,96495796434388E-02 
833	 9,93698028673682E-02 
834	 9,94783699498771E-02 
835	 9,99006856338695E-02 
836	 0,09998395465759 
837	 0,100040699343671 
838	 0,10033615835933 
839	 0,100555024607 
840	 0,100612338200417 
841	 0,100595055321556 
842	 0,1005817153653 
843	 0,100630797236395 
844	 0,100760988646172 
845	 0,100890503886652 
846	 0,101025615095477 
847	 0,101080202198504 
848	 0,101152663177527 
849	 0,101234673801821 
850	 0,101538171432905 
851	 0,101931582410591 
852	 0,101745246433897 
853	 0,101616398660984 
854	 0,10193636041523 
855	 0,101987689135098 
856	 0,101906658580248 
857	 0,102034378100052 
858	 0,102127588007583 
859	 0,102193032007087 
860	 0,102245111659739 
861	 0,102451589556496 
862	 0,102702750572955 
863	 0,102695392952641 
864	 0,102574943477466 
865	 0,102703145199308 
866	 0,102789657186754 
867	 0,102832727044459 
868	 0,1030284847969 
869	 0,103290868905334 
870	 0,103424550675962 
871	 0,103297706509312 
872	 0,103257694465659 
873	 0,103511331873977 
874	 0,103594763044506 
875	 0,103650335932449 
876	 0,104010947860346 
877	 0,104052049104747 
878	 0,103674988688944 
879	 0,103874264782219 
880	 0,104274431157128 
881	 0,104099793427814 
882	 0,103994339681484 
883	 0,104052146632235 
884	 0,104188148574025 
885	 0,104303548764596 
886	 0,104374096175523 
887	 0,104765250938542 
888	 0,105042002153115 
889	 0,104882920611703 
890	 0,104693467582738 
891	 0,104668224149905 
892	 0,104956316730557 
893	 0,10498422821117 
894	 0,104620452378819 
895	 0,10480198616835 
896	 0,104991753954144 
897	 0,10479239800456 
898	 0,104553153384995 
899	 0,104452328847838 
900	 0,104537568000698 
901	 0,104889207902208 
902	 0,105278022251213 
903	 0,105047620673287 
904	 0,105119178895581 
905	 0,105604370289927 
906	 0,105397023547903 
907	 0,105063320097067 
908	 0,105452998809252 
909	 0,105421917869219 
910	 0,105038423335066 
911	 0,105314571048535 
912	 0,105511514206235 
913	 0,105130472221475 
914	 0,105278813985324 
915	 0,105713725351835 
916	 0,105440035817173 
917	 0,105561641295661 
918	 0,106118249075883 
919	 0,106516373615883 
920	 0,10671697597215 
921	 0,106615560891531 
922	 0,106299862153254 
923	 0,106239464058165 
924	 0,106393793013263 
925	 0,105900356423369 
926	 0,105188741475185 
927	 0,104892234678933 
928	 0,104899446546289 
929	 0,10501335494777 
930	 0,105684368524734 
931	 0,106444144276474 
932	 0,105208722081245 
933	 0,10353028812641 
934	 0,102217128327619 
935	 0,103283007403817 
936	 0,104373367172285 
937	 0,103996021694467 
938	 0,103468686083555 
939	 0,101909006110604 
940	 9,92537172208705E-02 
941	 9,95397489484442E-02 
942	 0,100354479128244 
943	 0,100017585207588 
944	 0,101904840725817 
945	 0,103380794632801 
946	 9,92863030406054E-02 
947	 9,85007729618464E-02 
948	 0,102171066407408 
949	 0,102207746401103 
950	 0,101098407316098 
951	 0,100053941987556 
952	 9,93536091862833E-02 
953	 9,92340073588969E-02 
954	 0,100684807954128 
955	 0,098618401841886 
956	 9,45276155712813E-02 
957	 9,64716498065064E-02 
958	 9,87355027522364E-02 
959	 9,85804278075915E-02 
960	 9,68028315185013E-02 
961	 9,61355280181111E-02 
962	 9,83135314578657E-02 
963	 9,86677051965247E-02 
964	 9,71104607197603E-02 
965	 9,71486121974588E-02 
966	 9,75616173656547E-02 
967	 9,76217595136918E-02 
968	 9,70133143746524E-02 
969	 9,67247678045975E-02 
970	 9,72438355297297E-02 
971	 9,73567962547709E-02 
972	 9,69214476806483E-02 
973	 0,096152125384654 
974	 9,58166130259768E-02 
975	 9,59813913741455E-02 
976	 9,66979138657287E-02 
977	 9,79729836918294E-02 
978	 9,91712024334443E-02 
979	 9,85544886109048E-02 
980	 9,79838184981873E-02 
981	 9,79698737891069E-02 
982	 9,86952343634725E-02 
983	 9,88507136096178E-02 
984	 9,83209009502065E-02 
985	 9,81240968978183E-02 
986	 0,098087063300424 
987	 9,88832821499614E-02 
988	 9,93303618772039E-02 
989	 9,91698953013999E-02 
990	 0,100521961441306 
991	 0,100439697418456 
992	 9,88000159865619E-02 
993	 0,100428063934384 
994	 0,102041518014408 
995	 0,100840475252968 
996	 0,101473736618984 
997	 0,10309535414858 
998	 0,10210175367352 
999	 0,101296725657657 
1000	 0,100592877211237 
1001	 9,97479297861502E-02 
1002	 0,100920913458387 
1003	 0,10275942619079 
1004	 0,101284789323417 
1005	 0,10037614246986 
1006	 0,102555828913857 
1007	 0,102462977129089 
1008	 0,102119980406652 
1009	 0,103831153054182 
1010	 0,103366024327864 
1011	 0,101826813512474 
1012	 0,104152047753936 
1013	 0,105138315651356 
1014	 0,103523605813862 
1015	 0,105257876032249 
1016	 0,10748088620287 
1017	 0,107009642001071 
1018	 0,105611236956727 
1019	 0,104169847084502 
1020	 0,104384086549133 
1021	 0,105052473527281 
1022	 0,106767435272024 
1023	 0,107004724774508 
1024	 0,107011320587374 
1025	 0,107296684177663 
1026	 0,107525594775491 
1027	 0,10813224674115 
1028	 0,109371811100438 
1029	 0,108374574307707 
1030	 0,108402813293233 
1031	 0,109051043508171 
1032	 0,107608690296908 
1033	 0,106316750178834 
1034	 0,108518694021511 
1035	 0,109972043161871 
1036	 0,110848722758159 
1037	 0,109607345763058 
1038	 0,106578866098104 
1039	 0,10520398997516 
1040	 0,106279891530996 
1041	 0,107108774287338 
1042	 0,104692714858903 
1043	 0,108438426631606 
1044	 0,112509974288501 
1045	 0,108275170471716 
1046	 0,109309834763118 
1047	 0,114322459220542 
1048	 0,113807380142369 
1049	 0,112257396795543 
1050	 0,111561020047711 
1051	 0,107250525788155 
1052	 0,106285768588503 
1053	 0,110420340789424 
1054	 0,109844177519682 
1055	 0,111170594001865 
1056	 0,117824606927436 
1057	 0,11201373999693 
1058	 0,105486745896096 
1059	 0,112822629016982 
1060	 0,117354342709982 
1061	 0,116054996210891 
1062	 0,114409345735272 
1063	 0,112722579498769 
1064	 0,112839449225949 
1065	 0,119651510400596 
1066	 0,119986858369769 
1067	 0,110294362525361 
1068	 0,108616553068253 
1069	 0,112730952643702 
1070	 0,120574913478987 
1071	 0,118887962234773 
1072	 0,111897463767196 
1073	 0,105946875484266 
1074	 0,111249522208187 
1075	 0,118270009402123 
