Wavelength	AV0200037.asd
325	 2,66407085410096E-02 
326	 3,33551137479205E-02 
327	 3,44510173741165E-02 
328	 2,87138024404689E-02 
329	 0,025910181850429 
330	 2,63717208195345E-02 
331	 2,96359069580712E-02 
332	 3,12834754385833E-02 
333	 3,13643062048852E-02 
334	 3,18111205574497E-02 
335	 3,09892414691972E-02 
336	 2,93388396978702E-02 
337	 3,07101944773383E-02 
338	 3,23244363400849E-02 
339	 3,16254547089337E-02 
340	 3,06598642865129E-02 
341	 3,01146723039331E-02 
342	 0,030929833883654 
343	 3,04660663690666E-02 
344	 2,85905882164183E-02 
345	 2,92140915325143E-02 
346	 3,08212108989016E-02 
347	 3,16761400385744E-02 
348	 3,19790591444305E-02 
349	 3,13311095153657E-02 
350	 2,82756705053982E-02 
351	 2,72048898118594E-02 
352	 2,92795370125605E-02 
353	 2,97981531590533E-02 
354	 2,97649050222319E-02 
355	 3,08412371586229E-02 
356	 0,032286421869674 
357	 3,32350880509734E-02 
358	 3,14631367058986E-02 
359	 3,05134006599643E-02 
360	 3,17997693379882E-02 
361	 3,13133711350158E-02 
362	 3,00365597187988E-02 
363	 2,99367741387246E-02 
364	 3,04450820072524E-02 
365	 3,11126365538841E-02 
366	 3,09386918143978E-02 
367	 3,04238791737535E-02 
368	 3,00807892315123E-02 
369	 3,15116480484339E-02 
370	 3,32015856281798E-02 
371	 3,19888292684562E-02 
372	 0,031186867520553 
373	 3,16502630219673E-02 
374	 0,032309318006328 
375	 3,22347088053637E-02 
376	 3,08215702309821E-02 
377	 3,03574346305883E-02 
378	 3,09344010844624E-02 
379	 3,17343437244885E-02 
380	 3,23871407851695E-02 
381	 3,25560932688077E-02 
382	 3,15760004796839E-02 
383	 3,07335676662065E-02 
384	 0,031391426819057 
385	 3,15882183174048E-02 
386	 3,14724559663769E-02 
387	 0,032573981905571 
388	 3,38182846457338E-02 
389	 3,44988107641284E-02 
390	 3,33504226123236E-02 
391	 0,032064106466271 
392	 3,27206971231462E-02 
393	 3,32604013929619E-02 
394	 3,31185983426008E-02 
395	 3,19218895671641E-02 
396	 3,17510124317479E-02 
397	 0,033265909363657 
398	 3,36424792496921E-02 
399	 3,34210347239244E-02 
400	 3,37158803790979E-02 
401	 3,36961515865916E-02 
402	 3,32936447876339E-02 
403	 3,27717649330971E-02 
404	 3,24986030123933E-02 
405	 3,27133056319426E-02 
406	 3,30426672573692E-02 
407	 3,34167479691757E-02 
408	 3,39334703331333E-02 
409	 0,033847411936046 
410	 3,31599284694758E-02 
411	 3,29891335121251E-02 
412	 3,31955647466795E-02 
413	 3,35565359155225E-02 
414	 0,033610732522345 
415	 3,34338805928277E-02 
416	 3,34905779639847E-02 
417	 3,35685385254827E-02 
418	 3,36192929794291E-02 
419	 3,38959082138527E-02 
420	 3,42013951008008E-02 
421	 3,42509352878141E-02 
422	 0,034343948222235 
423	 3,44573164090066E-02 
424	 3,42267504312243E-02 
425	 3,40665958986321E-02 
426	 3,42404166179723E-02 
427	 3,44319879417064E-02 
428	 3,45808496123612E-02 
429	 3,46612745861038E-02 
430	 3,48641766497622E-02 
431	 3,51151819166325E-02 
432	 3,47522272847293E-02 
433	 3,46274371600834E-02 
434	 3,54118167454718E-02 
435	 3,55232812735742E-02 
436	 3,51260207233402E-02 
437	 3,53656367095368E-02 
438	 3,54864442608221E-02 
439	 3,52670635516532E-02 
440	 3,52167705619215E-02 
441	 3,52857048455955E-02 
442	 3,53486384684651E-02 
443	 3,55447475601725E-02 
444	 3,58501407044098E-02 
445	 3,61101522213675E-02 
446	 3,63237550333051E-02 
447	 3,64807605093319E-02 
448	 3,65609884911471E-02 
449	 3,65429943324879E-02 
450	 3,63591712407312E-02 
451	 3,64265820876453E-02 
452	 3,67871123175327E-02 
453	 3,69056620395708E-02 
454	 3,70315062798044E-02 
455	 3,74058051791571E-02 
456	 3,75596449572236E-02 
457	 3,75033522241403E-02 
458	 3,75444710544191E-02 
459	 3,75154205364528E-02 
460	 3,73869520062838E-02 
461	 3,73958109129386E-02 
462	 3,74912070079103E-02 
463	 0,037568872482681 
464	 3,76215383006519E-02 
465	 3,76595288813181E-02 
466	 3,77720371865935E-02 
467	 3,77698806052296E-02 
468	 3,75654592518449E-02 
469	 3,76531286300998E-02 
470	 3,79269246359107E-02 
471	 3,80023471751647E-02 
472	 0,038138085968935 
473	 3,83550095706548E-02 
474	 3,83760411111741E-02 
475	 0,038333653095771 
476	 3,83769214674059E-02 
477	 3,84348794484557E-02 
478	 3,84776101333464E-02 
479	 3,84374546387089E-02 
480	 3,84755643687942E-02 
481	 3,86671031191716E-02 
482	 3,89545379293182E-02 
483	 3,91187342948358E-02 
484	 3,88178272133269E-02 
485	 3,87600962202115E-02 
486	 0,039031879976218 
487	 0,039017877723326 
488	 3,89699414862275E-02 
489	 3,90980773900915E-02 
490	 3,93684082489459E-02 
491	 3,96304693144082E-02 
492	 0,039590945574272 
493	 3,93118247032199E-02 
494	 3,89635772909388E-02 
495	 3,93088447652871E-02 
496	 0,039799599222594 
497	 3,97333768071624E-02 
498	 0,039580011136941 
499	 3,95423558692308E-02 
500	 3,99869829270342E-02 
501	 0,040067081294832 
502	 3,94025579022837E-02 
503	 3,93810579399438E-02 
504	 3,98477392758901E-02 
505	 4,01969737497422E-02 
506	 4,03459512860841E-02 
507	 4,03233411401396E-02 
508	 4,04940094508634E-02 
509	 4,07575073400063E-02 
510	 4,09963778169092E-02 
511	 4,11119825152122E-02 
512	 4,11151044307738E-02 
513	 4,10532281304762E-02 
514	 4,11952127721043E-02 
515	 4,16274824369097E-02 
516	 4,19033925742556E-02 
517	 4,21184841064544E-02 
518	 4,25072346419457E-02 
519	 4,24226989302607E-02 
520	 4,19619498984304E-02 
521	 0,042013964494982 
522	 4,23347819251289E-02 
523	 4,27122723551839E-02 
524	 4,29442217432122E-02 
525	 4,30025280833489E-02 
526	 4,28969665265326E-02 
527	 0,042899604843555 
528	 4,30944550304297E-02 
529	 4,33269291060694E-02 
530	 4,33532837906535E-02 
531	 4,29231013854741E-02 
532	 4,30639207709901E-02 
533	 4,36624418802297E-02 
534	 4,35222744388497E-02 
535	 4,33004513313346E-02 
536	 4,33955359895083E-02 
537	 4,36045616235773E-02 
538	 4,38211684871283E-02 
539	 4,38820242947774E-02 
540	 4,40309279825303E-02 
541	 4,42736074377441E-02 
542	 4,42645936889369E-02 
543	 4,41551541876773E-02 
544	 4,41173185144366E-02 
545	 4,41718101783297E-02 
546	 4,42973268585672E-02 
547	 4,43875733941199E-02 
548	 4,45769390384394E-02 
549	 4,48938227204921E-02 
550	 4,50597234018223E-02 
551	 4,51234642121358E-02 
552	 4,52225599361566E-02 
553	 4,52209149806761E-02 
554	 4,51475477419869E-02 
555	 0,045271836058241 
556	 4,53808912439509E-02 
557	 4,52950876405569E-02 
558	 4,52605562292351E-02 
559	 4,53298242078823E-02 
560	 4,55407769715735E-02 
561	 4,55944609691497E-02 
562	 4,54275862057921E-02 
563	 4,55446649479554E-02 
564	 4,57061989605027E-02 
565	 0,045524681004739 
566	 4,54090222615013E-02 
567	 4,54725424260704E-02 
568	 4,56957469680029E-02 
569	 4,59208547750333E-02 
570	 0,046045648763197 
571	 4,63414396829565E-02 
572	 4,66859132451944E-02 
573	 4,67378955905435E-02 
574	 4,66749159804989E-02 
575	 4,66148509441005E-02 
576	 4,67506582979028E-02 
577	 4,71801102352871E-02 
578	 4,79663421321205E-02 
579	 4,81699928964346E-02 
580	 4,79305098441662E-02 
581	 4,84269856401969E-02 
582	 4,90099981938394E-02 
583	 4,93106803791907E-02 
584	 4,94942811623042E-02 
585	 4,96455215366448E-02 
586	 4,99086738314795E-02 
587	 4,99020325973263E-02 
588	 4,96524949465276E-02 
589	 4,99074107423065E-02 
590	 5,04444261707217E-02 
591	 5,09613583312044E-02 
592	 5,10918652839469E-02 
593	 5,09220255387347E-02 
594	 5,08692659475695E-02 
595	 5,10253545192005E-02 
596	 5,13566506878406E-02 
597	 5,12268055014282E-02 
598	 5,08986034403698E-02 
599	 5,08658900335045E-02 
600	 5,08475187839176E-02 
601	 5,08135242477783E-02 
602	 5,09730084619498E-02 
603	 5,09399066935583E-02 
604	 5,04691432795127E-02 
605	 0,050434462218331 
606	 5,07112768092196E-02 
607	 5,06230353318508E-02 
608	 5,04231068909316E-02 
609	 5,01968868474215E-02 
610	 4,99490635667326E-02 
611	 4,97210057676284E-02 
612	 4,95580756753061E-02 
613	 4,93570357875322E-02 
614	 4,91745665535262E-02 
615	 4,92949615020895E-02 
616	 4,94448863930598E-02 
617	 4,94331492365023E-02 
618	 4,93386187047087E-02 
619	 4,91849860235071E-02 
620	 0,048971884833958 
621	 4,89280252363458E-02 
622	 4,90732488487333E-02 
623	 4,90165574116244E-02 
624	 4,90448465245168E-02 
625	 4,94637278720777E-02 
626	 4,94919886964401E-02 
627	 4,92228659321056E-02 
628	 4,95154174891823E-02 
629	 4,97092305396928E-02 
630	 4,95619333777512E-02 
631	 4,99951769523226E-02 
632	 0,05065877213769 
633	 5,08223268320993E-02 
634	 5,10475307828088E-02 
635	 5,13657920404002E-02 
636	 5,12154313832439E-02 
637	 5,11731705549225E-02 
638	 5,16935187912627E-02 
639	 5,18603536455532E-02 
640	 5,17741424856117E-02 
641	 5,21821214107972E-02 
642	 5,24403915743588E-02 
643	 5,23622000282219E-02 
644	 5,24903033358369E-02 
645	 5,27575914627984E-02 
646	 5,30073326029618E-02 
647	 5,29197709867437E-02 
648	 5,25921625200794E-02 
649	 5,27188261242778E-02 
650	 5,29332702385025E-02 
651	 5,29537713032999E-02 
652	 5,26816396880464E-02 
653	 5,21724277472488E-02 
654	 5,14783684803928E-02 
655	 0,051311805120867 
656	 5,17282096038678E-02 
657	 5,13911671032646E-02 
658	 0,050649101717342 
659	 4,99248251659301E-02 
660	 4,91420743709852E-02 
661	 4,84950897169706E-02 
662	 4,85966085329155E-02 
663	 4,84535551133737E-02 
664	 4,76234606888739E-02 
665	 4,69134548966893E-02 
666	 4,65404048414783E-02 
667	 4,67006325045576E-02 
668	 4,64855190172835E-02 
669	 4,58390520968426E-02 
670	 4,56744704978308E-02 
671	 4,58785960457433E-02 
672	 4,62803221827735E-02 
673	 0,046238320874004 
674	 0,045870983058774 
675	 4,56893637004657E-02 
676	 4,59836418944223E-02 
677	 4,66720943660689E-02 
678	 4,65008903152372E-02 
679	 4,60712797650401E-02 
680	 4,62301540401056E-02 
681	 4,63571635846542E-02 
682	 4,65284908624142E-02 
683	 4,75196395787904E-02 
684	 0,048229661537272 
685	 4,80912744528492E-02 
686	 4,85284834814972E-02 
687	 4,95764613985025E-02 
688	 5,05745254591484E-02 
689	 5,13407942476296E-02 
690	 5,19684377818777E-02 
691	 5,30858329929119E-02 
692	 5,43877974003368E-02 
693	 5,56420362304307E-02 
694	 5,74507007873903E-02 
695	 5,95534816361832E-02 
696	 6,11354361146802E-02 
697	 0,063004631547615 
698	 6,55613222698199E-02 
699	 0,068550783384107 
700	 7,15303256600461E-02 
701	 7,38654521732599E-02 
702	 7,63541759249892E-02 
703	 7,90289576773833E-02 
704	 8,14361007749467E-02 
705	 8,37906937417062E-02 
706	 8,62089072021081E-02 
707	 8,84710863600638E-02 
708	 0,090579801701862 
709	 9,26005488225542E-02 
710	 9,46108690474447E-02 
711	 9,65483201883706E-02 
712	 9,79720075813581E-02 
713	 9,94245952336759E-02 
714	 0,101398936395971 
715	 0,102725582435088 
716	 0,103584141776218 
717	 0,105177127975242 
718	 0,106786070138925 
719	 0,107792530750644 
720	 0,10862346172779 
721	 0,109330798980692 
722	 0,110134189188073 
723	 0,111066090239107 
724	 0,112105330574543 
725	 0,112864040040676 
726	 0,113358915615257 
727	 0,113764341955075 
728	 0,115004245528721 
729	 0,116374991344239 
730	 0,116445341900311 
731	 0,116296808517948 
732	 0,11628380715319 
733	 0,116370072995452 
734	 0,116664946853464 
735	 0,117226572921566 
736	 0,117433083096233 
737	 0,117403341123545 
738	 0,117734789823125 
739	 0,118062859353323 
740	 0,118336481055881 
741	 0,119024620258844 
742	 0,119627824989408 
743	 0,119575348769853 
744	 0,119874438321223 
745	 0,120458023060917 
746	 0,120364946461921 
747	 0,120400389176769 
748	 0,120922590999554 
749	 0,121186117242056 
750	 0,121264968381308 
751	 0,121409581279473 
752	 0,12169012852268 
753	 0,122075429662164 
754	 0,122363153026419 
755	 0,122523129819579 
756	 0,122576251243328 
757	 0,122976657082748 
758	 0,12365687597648 
759	 0,12438066964665 
760	 0,125260426812989 
761	 0,125766297198465 
762	 0,12675220967842 
763	 0,127103437423199 
764	 0,1265573844439 
765	 0,126438605092058 
766	 0,126509663866741 
767	 0,126184189581722 
768	 0,125992464466359 
769	 0,12600023187684 
770	 0,12577473055543 
771	 0,125743584700735 
772	 0,126404535420543 
773	 0,126763822614151 
774	 0,126764544634795 
775	 0,126963226073109 
776	 0,127326093239684 
777	 0,127811440536228 
778	 0,128151936549219 
779	 0,128443362605816 
780	 0,128881166541079 
781	 0,129132901974198 
782	 0,129241134549985 
783	 0,129762341486548 
784	 0,129924675325823 
785	 0,129343658077414 
786	 0,129461666838537 
787	 0,130041779255199 
788	 0,130228489595788 
789	 0,130484336139528 
790	 0,130909827694012 
791	 0,131407286949573 
792	 0,131806565283704 
793	 0,131967195579909 
794	 0,131913646264951 
795	 0,131753284958268 
796	 0,131648372841699 
797	 0,131881952623123 
798	 0,132405645814104 
799	 0,132452858588784 
800	 0,132452657289844 
801	 0,132844519937838 
802	 0,13333722301173 
803	 0,133787700214234 
804	 0,134018490273088 
805	 0,134051107858432 
806	 0,134037276759131 
807	 0,134715385346221 
808	 0,135426760207515 
809	 0,135398983622478 
810	 0,135160787763441 
811	 0,135130094861806 
812	 0,136370668052815 
813	 0,136959773501753 
814	 0,136070639670712 
815	 0,136116163400849 
816	 0,136905642920247 
817	 0,137698897386737 
818	 0,13779633191075 
819	 0,137486127464913 
820	 0,138002565989775 
821	 0,138640749840709 
822	 0,139068011129474 
823	 0,139283824168968 
824	 0,139163230301493 
825	 0,138617781535444 
826	 0,138403503064796 
827	 0,138511072290495 
828	 0,138256403576446 
829	 0,1384132833783 
830	 0,139224081373371 
831	 0,139452220031911 
832	 0,139438644026398 
833	 0,139804110531027 
834	 0,13985650929759 
835	 0,139662193910502 
836	 0,139889865300787 
837	 0,140122840226058 
838	 0,140174665833104 
839	 0,140361530760214 
840	 0,140418905703838 
841	 0,139945179261481 
842	 0,140313699554427 
843	 0,141320304748839 
844	 0,141208305346049 
845	 0,140555994968401 
846	 0,139869196596252 
847	 0,140220411568872 
848	 0,141259912527603 
849	 0,142274512674234 
850	 0,142645375263179 
851	 0,142460369537995 
852	 0,142779447697361 
853	 0,143079003498515 
854	 0,142987320284329 
855	 0,141977484286737 
856	 0,141234893148085 
857	 0,142328963697939 
858	 0,143055281314481 
859	 0,142911021415017 
860	 0,141898124334283 
861	 0,141882105831883 
862	 0,143550811547099 
863	 0,144197143042139 
864	 0,143969526545854 
865	 0,143509123776358 
866	 0,143950577559816 
867	 0,144867563914177 
868	 0,143899244875029 
869	 0,143145376601903 
870	 0,143596826670416 
871	 0,144745069703623 
872	 0,145594062252394 
873	 0,145065656614969 
874	 0,145109252389911 
875	 0,145780820483831 
876	 0,145938028196111 
877	 0,145760427159139 
878	 0,145407923341428 
879	 0,145476917553526 
880	 0,145624869473823 
881	 0,145479290756291 
882	 0,146428878854159 
883	 0,147820151469589 
884	 0,147134753381241 
885	 0,146718001952051 
886	 0,147274978005093 
887	 0,147616737633783 
888	 0,147939327543978 
889	 0,148405720277722 
890	 0,147642520496135 
891	 0,146762088784168 
892	 0,149190208901319 
893	 0,150033998754177 
894	 0,148203619562559 
895	 0,148663703362007 
896	 0,14938861151084 
897	 0,148353271427332 
898	 0,147157314912081 
899	 0,146871241810168 
900	 0,14885143837725 
901	 0,150328056676458 
902	 0,150443431241257 
903	 0,149649210293549 
904	 0,148296915397325 
905	 0,146977494109824 
906	 0,14815679525497 
907	 0,149741411649176 
908	 0,148185484956058 
909	 0,148965923185299 
910	 0,151726929111064 
911	 0,14994418769934 
912	 0,148050758843967 
913	 0,148333600668801 
914	 0,149960792936065 
915	 0,151392890120869 
916	 0,151090552720594 
917	 0,148885182770274 
918	 0,146677162276275 
919	 0,148888102305316 
920	 0,151735038962531 
921	 0,15345566222569 
922	 0,152545409171033 
923	 0,151113584446937 
924	 0,151003694916586 
925	 0,151302688140182 
926	 0,151132027330881 
927	 0,148690982359929 
928	 0,148309541153223 
929	 0,150772057486449 
930	 0,14923429264459 
931	 0,150073625606227 
932	 0,158022011147299 
933	 0,156043291975127 
934	 0,146507716904959 
935	 0,140831542523418 
936	 0,147232564486327 
937	 0,159694767258586 
938	 0,15593594728729 
939	 0,14884294809119 
940	 0,143113931584081 
941	 0,136154514228485 
942	 0,135374248256345 
943	 0,14537004286562 
944	 0,148623008712187 
945	 0,146323278517081 
946	 0,146080538054992 
947	 0,147142618457095 
948	 0,147768896201424 
949	 0,141723090165477 
950	 0,136374823783597 
951	 0,135304505350478 
952	 0,133169527237406 
953	 0,130039108495994 
954	 0,126751203618475 
955	 0,131082115023794 
956	 0,139447261969874 
957	 0,141354787066337 
958	 0,141890214348863 
959	 0,141499885112153 
960	 0,135429123264277 
961	 0,134382650552645 
962	 0,142273931394315 
963	 0,135805016762634 
964	 0,124605020164726 
965	 0,124063750189905 
966	 0,125751713372274 
967	 0,129132756789476 
968	 0,139322370084296 
969	 0,139449607179716 
970	 0,127765152807797 
971	 0,131073332114051 
972	 0,137016855095476 
973	 0,134376568545555 
974	 0,131365523975866 
975	 0,129663255025592 
976	 0,130181284818218 
977	 0,127188374127095 
978	 0,122866953382105 
979	 0,129435594017958 
980	 0,135700185078979 
981	 0,136185938088488 
982	 0,133316001952468 
983	 0,130872713028145 
984	 0,132042849154996 
985	 0,134049223499861 
986	 0,13566989517878 
987	 0,135807200817746 
988	 0,132828752999848 
989	 0,128925873143023 
990	 0,133271135127158 
991	 0,136554443155993 
992	 0,134568137379007 
993	 0,133493927339377 
994	 0,13324526433921 
995	 0,133267026887393 
996	 0,133421927007572 
997	 0,134591108216435 
998	 0,138729983187728 
999	 0,137856342574873 
1000	 0,133187351880701 
1001	 0,138259045973173 
1002	 0,142414744994471 
1003	 0,141548649197393 
1004	 0,144793965815061 
1005	 0,148453285562974 
1006	 0,148003595625945 
1007	 0,141302842260395 
1008	 0,134642323780008 
1009	 0,139442677236886 
1010	 0,144193268874025 
1011	 0,145227171852333 
1012	 0,140564701161168 
1013	 0,141683870399908 
1014	 0,150670665805021 
1015	 0,150756149061234 
1016	 0,144642974416869 
1017	 0,136473757273563 
1018	 0,135234919917745 
1019	 0,139888984984269 
1020	 0,145882962225737 
1021	 0,143933847681704 
1022	 0,13705150204951 
1023	 0,140519429261007 
1024	 0,14655662648486 
1025	 0,151363434333896 
1026	 0,150524089222022 
1027	 0,150906758476444 
1028	 0,155894636583214 
1029	 0,154928249105321 
1030	 0,151315077627121 
1031	 0,149979722379064 
1032	 0,144491856801038 
1033	 0,142443948329863 
1034	 0,161802736890149 
1035	 0,162181397381856 
1036	 0,142139566820634 
1037	 0,139638780776562 
1038	 0,151709790898601 
1039	 0,170825825986153 
1040	 0,161929298933394 
1041	 0,151236009731191 
1042	 0,158725106259381 
1043	 0,153920868703674 
1044	 0,144582388896281 
1045	 0,146305230039914 
1046	 0,142833701951133 
1047	 0,136108140801824 
1048	 0,13925109266515 
1049	 0,143571610766855 
1050	 0,146373638218617 
1051	 0,148017101671648 
1052	 0,151934122579281 
1053	 0,15798753202028 
1054	 0,156866780921657 
1055	 0,150180673532714 
1056	 0,141599297366092 
1057	 0,135555996422021 
1058	 0,141915337821533 
1059	 0,16952524915889 
1060	 0,168267141281785 
1061	 0,141948070025162 
1062	 0,121802931767977 
1063	 0,134463571199265 
1064	 0,167607721193275 
1065	 0,142567594311526 
1066	 0,12457648263257 
1067	 0,13825578268095 
1068	 0,152783191090196 
1069	 0,153045813146692 
1070	 0,134579099909874 
1071	 0,133527749360113 
1072	 0,150643426396766 
1073	 0,17679981608205 
1074	 0,17659347124008 
1075	 0,157426658753406 
