Wavelength	AV0200079.asd
325	 2,34651192142424E-02 
326	 1,79458581449228E-02 
327	 1,72810044904527E-02 
328	 0,021715734556913 
329	 2,39048029573523E-02 
330	 0,02489313246875 
331	 2,56438801212821E-02 
332	 2,48870885535867E-02 
333	 2,35817183056715E-02 
334	 2,38775614091649E-02 
335	 2,45081967946856E-02 
336	 2,49808848467154E-02 
337	 2,49474089334912E-02 
338	 2,46680712065402E-02 
339	 2,43966946259454E-02 
340	 0,023876897737209 
341	 2,34428684092013E-02 
342	 2,39149814122107E-02 
343	 2,44942524646495E-02 
344	 2,47444770921083E-02 
345	 2,38862252224123E-02 
346	 2,35442863842338E-02 
347	 2,51946361069772E-02 
348	 0,026064946933641 
349	 2,58298090270825E-02 
350	 2,50771656802616E-02 
351	 2,42272427685384E-02 
352	 2,35929147144347E-02 
353	 2,35681420814303E-02 
354	 2,38445291798562E-02 
355	 2,40224939830319E-02 
356	 2,49706667206646E-02 
357	 2,62075976351692E-02 
358	 2,58961297910827E-02 
359	 2,51677617870937E-02 
360	 2,46766875985968E-02 
361	 0,02450692058028 
362	 2,46472771811266E-02 
363	 2,50331200685659E-02 
364	 2,54379159213903E-02 
365	 2,56968840727594E-02 
366	 2,55659602984898E-02 
367	 2,52018308900745E-02 
368	 2,48390382014352E-02 
369	 2,56229667791488E-02 
370	 2,65857441585237E-02 
371	 2,56353500196066E-02 
372	 2,54607868569105E-02 
373	 2,64464454806862E-02 
374	 2,64611317111815E-02 
375	 2,56986075743734E-02 
376	 2,45224389113392E-02 
377	 2,45750832863601E-02 
378	 2,55245270120565E-02 
379	 2,57469786341901E-02 
380	 0,026535983206225 
381	 0,027793086601131 
382	 2,69581172257242E-02 
383	 2,55913954701503E-02 
384	 2,55386901920154E-02 
385	 2,59797493740987E-02 
386	 2,64765262776521E-02 
387	 2,63093832086775E-02 
388	 2,62406304148551E-02 
389	 2,64577062528275E-02 
390	 2,60627013021585E-02 
391	 2,58242447430706E-02 
392	 2,67087906095805E-02 
393	 2,71748447208949E-02 
394	 2,70340308069072E-02 
395	 2,69201563529908E-02 
396	 2,65817636363393E-02 
397	 2,60524679238848E-02 
398	 2,61256343999363E-02 
399	 2,65105674087659E-02 
400	 2,67555871716091E-02 
401	 2,67540406127246E-02 
402	 2,65819191857754E-02 
403	 2,66205126472352E-02 
404	 2,65486998013222E-02 
405	 2,62453390000057E-02 
406	 2,69201026034931E-02 
407	 2,79829835128449E-02 
408	 2,79239676739633E-02 
409	 2,75032266809843E-02 
410	 2,70568623583531E-02 
411	 2,69230069219903E-02 
412	 2,70446766525441E-02 
413	 2,73115680788745E-02 
414	 2,70683157648805E-02 
415	 2,65726669230983E-02 
416	 2,67999823014466E-02 
417	 2,72561704769768E-02 
418	 2,76786262970054E-02 
419	 2,78646159173738E-02 
420	 2,79079437126846E-02 
421	 2,79646631934006E-02 
422	 2,81991316517369E-02 
423	 2,84841702835343E-02 
424	 2,81681327468305E-02 
425	 2,80754314993588E-02 
426	 2,86598394464481E-02 
427	 2,86837676096171E-02 
428	 2,83965236022061E-02 
429	 2,86539377270314E-02 
430	 2,87881263139736E-02 
431	 2,86508099100443E-02 
432	 2,85229225643195E-02 
433	 2,85080530031164E-02 
434	 2,86651818529252E-02 
435	 2,86674977933875E-02 
436	 2,86507373521973E-02 
437	 2,91588019482477E-02 
438	 2,94480646620191E-02 
439	 2,92625822223843E-02 
440	 2,90758230017145E-02 
441	 2,89594908874875E-02 
442	 2,89400796106328E-02 
443	 0,029184219926145 
444	 2,95648009344811E-02 
445	 2,95480492545222E-02 
446	 2,95629976103125E-02 
447	 2,98245595674167E-02 
448	 2,97095626509799E-02 
449	 2,94455808913091E-02 
450	 2,95895468064116E-02 
451	 2,99798960867059E-02 
452	 3,04514199392447E-02 
453	 3,04977739225175E-02 
454	 3,03837861259606E-02 
455	 3,03989509783893E-02 
456	 3,05618359650121E-02 
457	 3,07832009744959E-02 
458	 3,08280456446184E-02 
459	 3,06925068215176E-02 
460	 3,04229585095468E-02 
461	 3,02962401102908E-02 
462	 3,04472697834121E-02 
463	 3,10156690282284E-02 
464	 3,11462992088715E-02 
465	 3,08280065858774E-02 
466	 0,031003253403396 
467	 3,10927570269654E-02 
468	 3,07566429552017E-02 
469	 3,08348371175839E-02 
470	 3,12173205773589E-02 
471	 0,031446198388729 
472	 3,14060491285644E-02 
473	 3,11445494543361E-02 
474	 3,11605107741136E-02 
475	 3,13601781612766E-02 
476	 3,15990329401565E-02 
477	 0,031530068095676 
478	 3,12754195419144E-02 
479	 3,13667133761066E-02 
480	 3,16882399432073E-02 
481	 3,21161323149373E-02 
482	 3,21740769056205E-02 
483	 3,20199260171635E-02 
484	 3,19955340929396E-02 
485	 3,19764410079581E-02 
486	 3,19201061211772E-02 
487	 3,16988848056504E-02 
488	 3,17309477707157E-02 
489	 3,22691132014984E-02 
490	 3,24032788969162E-02 
491	 3,22029406785072E-02 
492	 3,22102454547174E-02 
493	 3,20753127498202E-02 
494	 3,17926209277451E-02 
495	 3,18945312117533E-02 
496	 3,22423000559944E-02 
497	 3,26198230080678E-02 
498	 0,032647584547206 
499	 0,032395554986536 
500	 3,24604125340672E-02 
501	 3,24598326699531E-02 
502	 3,22335196792318E-02 
503	 3,24097134626682E-02 
504	 3,28139606388282E-02 
505	 3,30044596008129E-02 
506	 3,30421794891202E-02 
507	 0,033013283400187 
508	 3,32706373128402E-02 
509	 3,35244206785437E-02 
510	 3,34970114140936E-02 
511	 3,33423826817882E-02 
512	 3,32574421100826E-02 
513	 3,37150064400125E-02 
514	 3,40221043712503E-02 
515	 3,39364508455527E-02 
516	 3,43564689178391E-02 
517	 3,47393895268246E-02 
518	 3,41555578485706E-02 
519	 3,37597223799912E-02 
520	 3,38319509854381E-02 
521	 3,41332879399308E-02 
522	 3,44701496932231E-02 
523	 3,47089875895393E-02 
524	 3,50668312492508E-02 
525	 0,03534003484183 
526	 3,49412037818852E-02 
527	 3,46969960708743E-02 
528	 0,034867707351078 
529	 3,50441030102292E-02 
530	 3,50995826473572E-02 
531	 3,49327776416003E-02 
532	 3,51013704457759E-02 
533	 3,55267329568875E-02 
534	 3,55162808713547E-02 
535	 3,54283632447093E-02 
536	 3,54813286429702E-02 
537	 3,55787907874285E-02 
538	 3,56653030425468E-02 
539	 3,56436901371285E-02 
540	 3,57302812991508E-02 
541	 3,59069358482621E-02 
542	 3,57056528473267E-02 
543	 0,035572963995535 
544	 3,59465323816452E-02 
545	 0,036129226298646 
546	 3,60881534791241E-02 
547	 0,036160565565288 
548	 3,62920021980493E-02 
549	 3,64295902714908E-02 
550	 3,63096402005996E-02 
551	 0,036229886384896 
552	 3,67287161020529E-02 
553	 3,68033822348439E-02 
554	 3,64157344474869E-02 
555	 3,67230429122773E-02 
556	 3,70830248204639E-02 
557	 3,69296831450177E-02 
558	 3,67605118649749E-02 
559	 3,67748502724552E-02 
560	 3,73359242361304E-02 
561	 3,73943280712144E-02 
562	 3,66788395542604E-02 
563	 0,036543317523445 
564	 3,66661293696528E-02 
565	 3,64293571855944E-02 
566	 3,65235899783966E-02 
567	 3,69285818489303E-02 
568	 3,69245831640545E-02 
569	 3,68185200515875E-02 
570	 3,68588317650092E-02 
571	 3,71221891436496E-02 
572	 3,75090259338971E-02 
573	 3,77710460138179E-02 
574	 3,80684273390796E-02 
575	 3,84094872205129E-02 
576	 3,85850939992378E-02 
577	 3,86428932887772E-02 
578	 3,86621981354831E-02 
579	 0,038828717238392 
580	 3,91484998624231E-02 
581	 3,94667288265982E-02 
582	 3,98467203588969E-02 
583	 0,040283399811816 
584	 4,04895219355894E-02 
585	 4,05416923194698E-02 
586	 4,06400861246858E-02 
587	 4,08517962629451E-02 
588	 4,11359391017104E-02 
589	 4,10831286473445E-02 
590	 4,10872760816126E-02 
591	 4,15242030001351E-02 
592	 4,16688602919385E-02 
593	 4,15212972376438E-02 
594	 4,14261993093866E-02 
595	 4,16347056891774E-02 
596	 4,21788290857174E-02 
597	 0,04236246429462 
598	 0,042213368832216 
599	 0,041886373808451 
600	 4,17506486597467E-02 
601	 4,18365163920189E-02 
602	 0,041714364138274 
603	 4,16414548994182E-02 
604	 4,17905108646317E-02 
605	 4,16574741764092E-02 
606	 4,13279750189848E-02 
607	 0,041207155203824 
608	 4,12362280286251E-02 
609	 4,13270032837069E-02 
610	 0,041026022070532 
611	 4,06406640906127E-02 
612	 4,06100774839885E-02 
613	 4,04399937653735E-02 
614	 4,01566238438244E-02 
615	 4,02881346707173E-02 
616	 4,04175302837234E-02 
617	 4,02874744858043E-02 
618	 4,02541766088424E-02 
619	 4,02744932649467E-02 
620	 0,040152010683441 
621	 4,01144459517415E-02 
622	 4,01896565356609E-02 
623	 4,01170356500113E-02 
624	 3,99831203914937E-02 
625	 3,99080397256108E-02 
626	 4,01781917249203E-02 
627	 4,05782233829323E-02 
628	 4,02102297911253E-02 
629	 4,00378144807508E-02 
630	 0,040516629720471 
631	 4,09250308383595E-02 
632	 4,11009662002525E-02 
633	 4,09228738246705E-02 
634	 4,09944865251657E-02 
635	 4,13871558405244E-02 
636	 4,15829603171289E-02 
637	 4,16028589814578E-02 
638	 4,15079889901286E-02 
639	 4,16854771766245E-02 
640	 4,21157529219489E-02 
641	 4,25368012866782E-02 
642	 4,29940158657608E-02 
643	 4,34071504363169E-02 
644	 4,33106280881291E-02 
645	 4,30886577756733E-02 
646	 4,33154803067184E-02 
647	 4,34561311806307E-02 
648	 4,33869979793561E-02 
649	 0,043201270799451 
650	 4,30669388597074E-02 
651	 4,30674668006707E-02 
652	 0,042835539238573 
653	 4,24839627811106E-02 
654	 0,042337136156521 
655	 4,23441354315708E-02 
656	 4,23577405837728E-02 
657	 4,17463081983763E-02 
658	 4,09763068423418E-02 
659	 4,05051119952093E-02 
660	 4,00736968630477E-02 
661	 3,96601725206504E-02 
662	 3,93559912242175E-02 
663	 3,90320093719582E-02 
664	 3,86238980458107E-02 
665	 3,81605421626316E-02 
666	 3,77876601830906E-02 
667	 3,77358167202675E-02 
668	 3,74827936663581E-02 
669	 3,70009250197396E-02 
670	 3,68080443046296E-02 
671	 3,68110665259243E-02 
672	 3,69172543150519E-02 
673	 0,037142360588159 
674	 3,72891280193492E-02 
675	 3,68080912827791E-02 
676	 3,68384399617649E-02 
677	 0,037563615507489 
678	 3,73354179509739E-02 
679	 3,67836917984534E-02 
680	 3,68283327986673E-02 
681	 3,73577808610342E-02 
682	 3,81577057981977E-02 
683	 3,86613776908191E-02 
684	 3,88614186640991E-02 
685	 3,87889802323703E-02 
686	 3,88024904105093E-02 
687	 3,91435903007633E-02 
688	 4,00703424203807E-02 
689	 4,09546461962117E-02 
690	 4,16525442413511E-02 
691	 4,24830156010502E-02 
692	 4,36142100399443E-02 
693	 4,51865179077122E-02 
694	 4,68766309371114E-02 
695	 4,85081216040114E-02 
696	 4,99214008942906E-02 
697	 5,16981565495529E-02 
698	 5,40715231965213E-02 
699	 5,62488747308821E-02 
700	 5,84734580410237E-02 
701	 6,11017254277421E-02 
702	 6,37154429173597E-02 
703	 0,066134414996744 
704	 6,83123347573709E-02 
705	 7,03852850261413E-02 
706	 7,24641054933984E-02 
707	 7,46852426289757E-02 
708	 7,68214122934399E-02 
709	 7,84061668969008E-02 
710	 8,01506082733444E-02 
711	 8,21490215603978E-02 
712	 8,37318198361894E-02 
713	 8,52081622773211E-02 
714	 8,68740908009266E-02 
715	 8,79312341285325E-02 
716	 8,85425592432294E-02 
717	 8,95583442433566E-02 
718	 9,08505838377039E-02 
719	 9,21475309811015E-02 
720	 9,31743251269535E-02 
721	 9,39267999873836E-02 
722	 9,46899786358685E-02 
723	 0,095583895374264 
724	 0,096628745345918 
725	 9,74938073741324E-02 
726	 9,80894764220011E-02 
727	 9,84690623382628E-02 
728	 9,91532555026822E-02 
729	 9,98368397415646E-02 
730	 9,98210637013872E-02 
731	 0,100084013086269 
732	 0,100688928338803 
733	 0,100820339786766 
734	 0,101042649769699 
735	 0,101746390002904 
736	 0,101744873846466 
737	 0,101333175309362 
738	 0,101757384773956 
739	 0,102199560814117 
740	 0,102491839297921 
741	 0,10344910198531 
742	 0,10421682151601 
743	 0,103817794458709 
744	 0,103838768657296 
745	 0,104327308880655 
746	 0,104237501244628 
747	 0,104243216796816 
748	 0,104663197998776 
749	 0,10506023437373 
750	 0,105368408384966 
751	 0,10556813859683 
752	 0,105813602377087 
753	 0,10610646127125 
754	 0,106279083634491 
755	 0,106386856632559 
756	 0,106484552813101 
757	 0,106663599540617 
758	 0,107001770109749 
759	 0,107842654698712 
760	 0,109588567146874 
761	 0,111244168574005 
762	 0,11010310266477 
763	 0,109046997176232 
764	 0,109823127691405 
765	 0,109641057766697 
766	 0,109059999460481 
767	 0,109112159846274 
768	 0,109298996757905 
769	 0,109465506081183 
770	 0,109373527744623 
771	 0,109296806202459 
772	 0,109558357792821 
773	 0,109820579573977 
774	 0,110022439147167 
775	 0,110230012372214 
776	 0,11044938978057 
777	 0,110663719380281 
778	 0,110697789219701 
779	 0,110765018740641 
780	 0,111202056936473 
781	 0,111566334904807 
782	 0,11176894408002 
783	 0,112035590454533 
784	 0,111947136418076 
785	 0,111377836552134 
786	 0,111787557617697 
787	 0,112676083025306 
788	 0,112690721204043 
789	 0,112862764609441 
790	 0,113360911092897 
791	 0,113528068727223 
792	 0,113619356648981 
793	 0,113848158819989 
794	 0,114070093798372 
795	 0,114170798447429 
796	 0,11390003965305 
797	 0,113979382726873 
798	 0,114503858748198 
799	 0,114599021372292 
800	 0,114643981497548 
801	 0,115025436308228 
802	 0,115387856277522 
803	 0,115594624079491 
804	 0,115434345256976 
805	 0,115514107467138 
806	 0,116024582740839 
807	 0,116682412518012 
808	 0,117058697538333 
809	 0,116715798366478 
810	 0,116213829619867 
811	 0,115973403525002 
812	 0,116892311961052 
813	 0,117680947248821 
814	 0,117674551931663 
815	 0,117776171153079 
816	 0,117808687515456 
817	 0,117461891671215 
818	 0,117735135483367 
819	 0,118562267073676 
820	 0,119338567367564 
821	 0,119569850854713 
822	 0,1191367858413 
823	 0,11921254908278 
824	 0,119574436764491 
825	 0,119775887143601 
826	 0,119384257746302 
827	 0,118718608314568 
828	 0,119183567135257 
829	 0,119475405030475 
830	 0,119101224661942 
831	 0,119804798354843 
832	 0,120621755284965 
833	 0,12010013924193 
834	 0,120445910312508 
835	 0,121392768450973 
836	 0,120440400246629 
837	 0,119927365849021 
838	 0,12080941357726 
839	 0,120806381921469 
840	 0,120354050399332 
841	 0,120380730369396 
842	 0,120770946988172 
843	 0,121277360639875 
844	 0,121185852504008 
845	 0,12082915717743 
846	 0,120554901618218 
847	 0,121348880767603 
848	 0,122483915540706 
849	 0,122748031392028 
850	 0,122821261793465 
851	 0,122777960049651 
852	 0,122175777061445 
853	 0,122288280758482 
854	 0,12343333140526 
855	 0,122422655512997 
856	 0,121031569208074 
857	 0,122025889310764 
858	 0,122672687421182 
859	 0,122599861304364 
860	 0,122685404605516 
861	 0,123035962681489 
862	 0,123579700477944 
863	 0,123302726757042 
864	 0,122737432554403 
865	 0,122753416691146 
866	 0,123386711270021 
867	 0,124186759044109 
868	 0,123759968792694 
869	 0,123271630235571 
870	 0,123298280388241 
871	 0,123694860722789 
872	 0,123913518052588 
873	 0,123353686759533 
874	 0,123341145640923 
875	 0,124109703053031 
876	 0,125564079021004 
877	 0,126139464227533 
878	 0,125412414000439 
879	 0,125580951691903 
880	 0,125660151126459 
881	 0,124524131556 
882	 0,125142912580258 
883	 0,126901369769081 
884	 0,12650244119466 
885	 0,126248390392035 
886	 0,126731113507041 
887	 0,126639515303995 
888	 0,12618167578088 
889	 0,12568050073413 
890	 0,125664584193015 
891	 0,126423176014123 
892	 0,128600895527743 
893	 0,128646536655333 
894	 0,126199731256664 
895	 0,127687116241596 
896	 0,128950972182624 
897	 0,126196172391398 
898	 0,125638869769647 
899	 0,127259870456691 
900	 0,128696554702845 
901	 0,129304703089561 
902	 0,129065456181267 
903	 0,129194205015006 
904	 0,12869138770971 
905	 0,12729353808313 
906	 0,127816145393977 
907	 0,128985726376565 
908	 0,128403079077884 
909	 0,127718522351145 
910	 0,127737652511989 
911	 0,129943115553512 
912	 0,13034085326473 
913	 0,127729420862266 
914	 0,128064546670179 
915	 0,12960359177993 
916	 0,129894975071279 
917	 0,129376892205758 
918	 0,128554393862471 
919	 0,128355561138333 
920	 0,129113206176589 
921	 0,13067341960479 
922	 0,132044878178466 
923	 0,131924523291769 
924	 0,129559367152912 
925	 0,12998172097487 
926	 0,131810491645188 
927	 0,129720190055396 
928	 0,128000420534852 
929	 0,128022115536289 
930	 0,127386369068572 
931	 0,130065616586452 
932	 0,138598362004577 
933	 0,139547423811383 
934	 0,13231947339367 
935	 0,122549460930334 
936	 0,129661488601623 
937	 0,14640682045195 
938	 0,137661148839295 
939	 0,126616980349386 
940	 0,120946626544944 
941	 0,113665135712441 
942	 0,113928243263457 
943	 0,127192334155777 
944	 0,128173855676504 
945	 0,12097337306388 
946	 0,121019425559304 
947	 0,123704226932242 
948	 0,125353818731838 
949	 0,116174418479448 
950	 0,111291523301346 
951	 0,116645709558881 
952	 0,113144912988071 
953	 0,108014667460019 
954	 0,110492466500608 
955	 0,109447249359365 
956	 0,10783228326418 
957	 0,118340496408816 
958	 0,120287876449043 
959	 0,111305676106888 
960	 0,108844196729003 
961	 0,112037014235448 
962	 0,117556412541908 
963	 0,108143196880296 
964	 9,68395479183979E-02 
965	 0,102177207754083 
966	 0,111174453897055 
967	 0,118431616011809 
968	 0,118056734002653 
969	 0,112122459551923 
970	 0,104062707200533 
971	 0,105944935749695 
972	 0,111198672803893 
973	 0,113373377657155 
974	 0,111248773480675 
975	 0,108071452810516 
976	 0,109973724017867 
977	 0,112349695548781 
978	 0,11410001043943 
979	 0,116367656831525 
980	 0,115162105828012 
981	 0,11064624593942 
982	 0,115031110738736 
983	 0,117780670757539 
984	 0,10962647261229 
985	 0,109654802172143 
986	 0,115597830485436 
987	 0,117485239662342 
988	 0,114098870570003 
989	 0,108086269856113 
990	 0,1105195684745 
991	 0,11355303307806 
992	 0,113143910363731 
993	 0,111222361910454 
994	 0,110556139191608 
995	 0,11347683474542 
996	 0,113607205147119 
997	 0,113031305694619 
998	 0,118340383994476 
999	 0,115806408391486 
1000	 0,107032462422905 
1001	 0,112616777747684 
1002	 0,120449049526687 
1003	 0,123588320290558 
1004	 0,119669471430581 
1005	 0,11601771739745 
1006	 0,119451472513013 
1007	 0,119927726594975 
1008	 0,118019277142669 
1009	 0,117831151399877 
1010	 0,11882915912488 
1011	 0,119837244584736 
1012	 0,115880882797367 
1013	 0,120320858296822 
1014	 0,134002843023194 
1015	 0,130498617401545 
1016	 0,120433933975054 
1017	 0,114779273808556 
1018	 0,116656831978955 
1019	 0,124603558766212 
1020	 0,134702837462718 
1021	 0,137131535244661 
1022	 0,13132879740834 
1023	 0,122266179287338 
1024	 0,119856179100616 
1025	 0,126150522368984 
1026	 0,13183839313222 
1027	 0,13153975642339 
1028	 0,124112484936932 
1029	 0,126950842035071 
1030	 0,134899881418648 
1031	 0,139353949569641 
1032	 0,137744241592958 
1033	 0,133145341075686 
1034	 0,133661385234812 
1035	 0,124969820848157 
1036	 0,112263633008052 
1037	 0,129794380970624 
1038	 0,135440294937101 
1039	 0,118517122322599 
1040	 0,129832319039217 
1041	 0,146591140811415 
1042	 0,148299103870099 
1043	 0,137373765856572 
1044	 0,130848916052635 
1045	 0,149540711335464 
1046	 0,149308886589774 
1047	 0,135156034084842 
1048	 0,144318736676631 
1049	 0,140517753580577 
1050	 0,122928813865228 
1051	 0,128936140855633 
1052	 0,148038684076039 
1053	 0,166914347742902 
1054	 0,14663248818245 
1055	 0,120493215423302 
1056	 0,122238094776546 
1057	 0,123683926588773 
1058	 0,134970540436817 
1059	 0,170237018345712 
1060	 0,172779903995848 
1061	 0,149552759783714 
1062	 0,141639038805166 
1063	 0,158433452115792 
1064	 0,183785340988105 
1065	 0,148116665653005 
1066	 0,123343802042388 
1067	 0,136160197246202 
1068	 0,147624371186956 
1069	 0,146678802551783 
1070	 0,13256856146812 
1071	 0,147279099549181 
1072	 0,171577464723206 
1073	 0,172983055342741 
1074	 0,144982171370944 
1075	 0,108158954428554 
