Wavelength	AV0200162.asd
325	 2,25006181987419E-02 
326	 3,03260790470861E-02 
327	 3,34681586241947E-02 
328	 0,029693685101213 
329	 2,86516467383441E-02 
330	 2,91595540768886E-02 
331	 3,00495428661049E-02 
332	 3,19269987282739E-02 
333	 0,033353012216092 
334	 3,09563861962273E-02 
335	 3,08103205269653E-02 
336	 3,34068787114318E-02 
337	 3,20084782672536E-02 
338	 3,00825963622564E-02 
339	 3,08995943369787E-02 
340	 0,031851850424006 
341	 3,20991006356373E-02 
342	 3,07375043232066E-02 
343	 0,029466853698266 
344	 2,90652872368753E-02 
345	 2,99955660809029E-02 
346	 3,11644153725631E-02 
347	 3,15176597802705E-02 
348	 3,18062451250099E-02 
349	 3,17992828099999E-02 
350	 3,03710829615681E-02 
351	 0,029938613807368 
352	 3,10625777086771E-02 
353	 3,08568516162381E-02 
354	 2,99744867279352E-02 
355	 2,94826216800931E-02 
356	 3,09122345623295E-02 
357	 3,33195305259296E-02 
358	 3,28530400278158E-02 
359	 3,25540745836113E-02 
360	 3,35954656372158E-02 
361	 3,25735682041776E-02 
362	 3,10376291546241E-02 
363	 3,16091004408557E-02 
364	 3,19521988988097E-02 
365	 3,16431458470414E-02 
366	 3,11820113576084E-02 
367	 3,09165634497827E-02 
368	 3,11427514289497E-02 
369	 3,22803944055434E-02 
370	 0,033612916651548 
371	 0,033844103274804 
372	 3,33564489821134E-02 
373	 3,25502888439051E-02 
374	 0,032677293676124 
375	 3,26513534927164E-02 
376	 3,16473404600108E-02 
377	 3,15838964271309E-02 
378	 3,24278653139022E-02 
379	 3,33286548124379E-02 
380	 3,38658477847675E-02 
381	 3,37988166585573E-02 
382	 3,30605778636965E-02 
383	 3,22105615514556E-02 
384	 3,18899354456362E-02 
385	 3,21913251004546E-02 
386	 3,28947208034631E-02 
387	 3,34144042499302E-02 
388	 3,38242562521372E-02 
389	 3,40553271679632E-02 
390	 3,36200118487192E-02 
391	 3,33166216338313E-02 
392	 0,034101747844406 
393	 3,48653219718332E-02 
394	 0,035265710288626 
395	 3,52283760191448E-02 
396	 0,035029229472339 
397	 3,47820604561609E-02 
398	 3,40103630124912E-02 
399	 3,34174501984234E-02 
400	 3,39233430193511E-02 
401	 3,45269405091467E-02 
402	 3,48799842896069E-02 
403	 3,47871212322289E-02 
404	 3,43910431002002E-02 
405	 3,38690460141785E-02 
406	 3,39389798855354E-02 
407	 0,034424265306342 
408	 0,034805710758011 
409	 3,46574242269763E-02 
410	 3,40814702341944E-02 
411	 3,42644677538792E-02 
412	 3,47472369451734E-02 
413	 3,50176570679334E-02 
414	 3,48637869199976E-02 
415	 3,44630169389801E-02 
416	 3,43743489705092E-02 
417	 3,43609917579294E-02 
418	 3,43983234457602E-02 
419	 3,49202106609275E-02 
420	 3,55455805183876E-02 
421	 3,57344213277937E-02 
422	 0,035857355791716 
423	 3,58469040523937E-02 
424	 3,49852242602228E-02 
425	 3,48761660677816E-02 
426	 3,63506746941075E-02 
427	 3,65203229347824E-02 
428	 3,58172231350871E-02 
429	 3,59336619326165E-02 
430	 3,61528343992792E-02 
431	 3,62523275809881E-02 
432	 3,60970512038597E-02 
433	 3,60930668927221E-02 
434	 3,65392753135187E-02 
435	 3,63756330047202E-02 
436	 3,59660201067276E-02 
437	 3,67652495608749E-02 
438	 3,71825098574431E-02 
439	 3,67414315149789E-02 
440	 3,67665688249183E-02 
441	 3,70105830429456E-02 
442	 3,70034864426423E-02 
443	 3,72476723924277E-02 
444	 0,037663221983978 
445	 3,76203801005047E-02 
446	 3,75308213472279E-02 
447	 3,76420954706669E-02 
448	 3,76980873195833E-02 
449	 3,77417034032831E-02 
450	 0,037901501694798 
451	 3,82141361726447E-02 
452	 3,85914966609188E-02 
453	 3,86052127059743E-02 
454	 3,84787515566625E-02 
455	 3,84566026507907E-02 
456	 3,85607339825515E-02 
457	 3,87348652884785E-02 
458	 3,88222644318172E-02 
459	 3,87783877115236E-02 
460	 3,86244019033069E-02 
461	 3,86529746149191E-02 
462	 3,87912613266314E-02 
463	 3,88941143302245E-02 
464	 3,89703028190787E-02 
465	 3,90636320371584E-02 
466	 3,93732881785383E-02 
467	 3,95647511381595E-02 
468	 3,94283635632251E-02 
469	 3,93652791402473E-02 
470	 3,94391933176221E-02 
471	 3,96402679803176E-02 
472	 3,98604849277575E-02 
473	 4,00133737030765E-02 
474	 3,99534127941662E-02 
475	 3,98090181583231E-02 
476	 3,97241925278736E-02 
477	 3,97345404516596E-02 
478	 3,98256455780112E-02 
479	 3,98950232611152E-02 
480	 4,01082295523948E-02 
481	 4,04938040089285E-02 
482	 4,07107870563966E-02 
483	 4,06796618937181E-02 
484	 4,03291214275593E-02 
485	 4,02120855010667E-02 
486	 4,04370935850246E-02 
487	 4,06774275399547E-02 
488	 4,06818574460598E-02 
489	 4,03228037318621E-02 
490	 4,03549773572154E-02 
491	 4,06606287716329E-02 
492	 4,06870885712905E-02 
493	 4,06190191799306E-02 
494	 4,05328538611154E-02 
495	 4,05210080387375E-02 
496	 4,06445434990074E-02 
497	 4,09568743176292E-02 
498	 4,10247514807467E-02 
499	 4,09045161144931E-02 
500	 4,12077091495557E-02 
501	 4,12841887789952E-02 
502	 4,08405681984967E-02 
503	 4,08749663181479E-02 
504	 4,12388051958569E-02 
505	 4,14230124828395E-02 
506	 4,15533292809143E-02 
507	 4,17076721427221E-02 
508	 4,21321062760682E-02 
509	 4,25655087636159E-02 
510	 4,27476852487515E-02 
511	 4,25857792858576E-02 
512	 4,23086378806753E-02 
513	 4,25530844018177E-02 
514	 4,29152651045192E-02 
515	 4,31888916830133E-02 
516	 4,33424319872224E-02 
517	 4,34535710999071E-02 
518	 0,043654313821909 
519	 4,36730922647543E-02 
520	 4,35168974977302E-02 
521	 4,34205873507684E-02 
522	 4,34952459687748E-02 
523	 4,37977658228615E-02 
524	 4,40368602406924E-02 
525	 4,42042928217832E-02 
526	 4,44643860065678E-02 
527	 4,43938330610542E-02 
528	 4,40044497427981E-02 
529	 4,42146884866165E-02 
530	 4,45482879911297E-02 
531	 4,43875155506146E-02 
532	 4,45340732725484E-02 
533	 4,49579763381735E-02 
534	 4,49867588637751E-02 
535	 4,48413809531365E-02 
536	 4,46952664274928E-02 
537	 0,044817668658368 
538	 4,50884240356447E-02 
539	 4,52123972803539E-02 
540	 4,51873974454344E-02 
541	 0,045057607542627 
542	 4,50789128450308E-02 
543	 4,51409966329504E-02 
544	 4,51288617408714E-02 
545	 4,52871700150228E-02 
546	 4,55668157684061E-02 
547	 4,57028952454683E-02 
548	 4,57730595176582E-02 
549	 4,58252679870758E-02 
550	 4,59333645081939E-02 
551	 4,60964889857015E-02 
552	 4,63005866894363E-02 
553	 4,64366617083597E-02 
554	 4,64670813963026E-02 
555	 4,63880350653844E-02 
556	 4,63678523989459E-02 
557	 4,65280884855431E-02 
558	 4,64222294519535E-02 
559	 0,046167806794146 
560	 4,63101622409711E-02 
561	 4,63861502767856E-02 
562	 0,046239320013715 
563	 4,61388143228084E-02 
564	 0,04612350347297 
565	 4,62132871240842E-02 
566	 4,60531157899241E-02 
567	 4,58106478781453E-02 
568	 4,65157124465213E-02 
569	 0,047034533657941 
570	 4,66263878375459E-02 
571	 4,68021230441636E-02 
572	 4,74278657859484E-02 
573	 4,76474276556206E-02 
574	 0,047964940386618 
575	 4,84719061777521E-02 
576	 4,87403518284343E-02 
577	 4,90028447816037E-02 
578	 4,95505198825485E-02 
579	 4,99770030436123E-02 
580	 5,02455019138025E-02 
581	 5,05671446505893E-02 
582	 5,08424188687231E-02 
583	 0,051050360177872 
584	 5,14260982189092E-02 
585	 0,051967291137122 
586	 5,26562293229878E-02 
587	 5,29648142816676E-02 
588	 0,052805788209604 
589	 5,27318295194191E-02 
590	 5,30493578123275E-02 
591	 5,39485441526087E-02 
592	 5,41971283460182E-02 
593	 5,38646811099332E-02 
594	 5,38115799710674E-02 
595	 5,40138351592032E-02 
596	 5,43979450525128E-02 
597	 5,43779001677823E-02 
598	 5,40957264193677E-02 
599	 5,38566743265382E-02 
600	 5,37707149885326E-02 
601	 5,38300743910012E-02 
602	 5,38153968885365E-02 
603	 0,053733337372186 
604	 5,35919214734383E-02 
605	 5,33980871307488E-02 
606	 5,31682371120653E-02 
607	 5,29204646642216E-02 
608	 5,27254472881998E-02 
609	 5,25902738025264E-02 
610	 0,052381494523973 
611	 5,20291683512142E-02 
612	 5,14649733513284E-02 
613	 5,12382535661612E-02 
614	 5,13653830366167E-02 
615	 5,14007747385193E-02 
616	 5,12283051365813E-02 
617	 5,08324956879912E-02 
618	 5,08330513144205E-02 
619	 5,10765664910502E-02 
620	 5,11035658927254E-02 
621	 5,09060146490734E-02 
622	 5,05663269204849E-02 
623	 5,05519226425053E-02 
624	 5,07714990364615E-02 
625	 5,10808949799441E-02 
626	 5,12582798158534E-02 
627	 5,13132295179711E-02 
628	 5,14808806170017E-02 
629	 5,15869501617996E-02 
630	 5,15983045010691E-02 
631	 5,19605338500038E-02 
632	 5,24240670683591E-02 
633	 5,25076108883881E-02 
634	 5,26246321786057E-02 
635	 5,28618064353739E-02 
636	 5,30312758126219E-02 
637	 5,33056462864893E-02 
638	 5,38063693099115E-02 
639	 5,40512280745826E-02 
640	 5,41203335947622E-02 
641	 5,43915388078241E-02 
642	 5,50790096323579E-02 
643	 5,60846243268397E-02 
644	 5,61934539148873E-02 
645	 5,59737528981386E-02 
646	 5,63544737767638E-02 
647	 5,62990076084269E-02 
648	 5,57920823350348E-02 
649	 5,57579875442605E-02 
650	 5,58577851258638E-02 
651	 5,58378141909271E-02 
652	 5,56494334477866E-02 
653	 5,53039248044593E-02 
654	 5,48308416755736E-02 
655	 5,43372582466355E-02 
656	 5,38931151904833E-02 
657	 5,35612802893947E-02 
658	 5,29404733223879E-02 
659	 5,16638921424979E-02 
660	 5,07622838580948E-02 
661	 5,03207351401759E-02 
662	 4,99686727060261E-02 
663	 4,96415886387977E-02 
664	 4,92339627854222E-02 
665	 4,83734906090301E-02 
666	 4,75070261994986E-02 
667	 4,74011159633963E-02 
668	 4,72252473479974E-02 
669	 4,67889779686655E-02 
670	 4,63398858297448E-02 
671	 4,60502787460391E-02 
672	 4,60611851851514E-02 
673	 4,63515348569192E-02 
674	 4,66255824636501E-02 
675	 4,61110060921693E-02 
676	 4,61226801646991E-02 
677	 4,69033093381786E-02 
678	 4,67456509053323E-02 
679	 4,63074384812741E-02 
680	 4,65430040353217E-02 
681	 0,046873764054824 
682	 4,72431199678946E-02 
683	 4,79096055999448E-02 
684	 4,85851226535021E-02 
685	 4,91125168269795E-02 
686	 4,94686788746278E-02 
687	 5,00148685631577E-02 
688	 5,14155996809157E-02 
689	 5,25782682395033E-02 
690	 5,33008869796327E-02 
691	 0,054094522132308 
692	 0,055584592667788 
693	 0,05827708988482 
694	 6,09705855478951E-02 
695	 6,34864778675043E-02 
696	 6,62342341040841E-02 
697	 6,92856926648164E-02 
698	 7,28563210420419E-02 
699	 7,68893294579845E-02 
700	 8,12674288385295E-02 
701	 8,57089330051143E-02 
702	 8,98022685293308E-02 
703	 9,35514491807166E-02 
704	 9,75547720249495E-02 
705	 0,10162121855656 
706	 0,105598626886812 
707	 0,109105407273413 
708	 0,112505581191946 
709	 0,11663078121181 
710	 0,120226464240522 
711	 0,123064279462948 
712	 0,126035798337416 
713	 0,129046723372406 
714	 0,13198196423987 
715	 0,134411826904677 
716	 0,136673677335715 
717	 0,139730378528905 
718	 0,142783340366908 
719	 0,14485244269192 
720	 0,146200283839846 
721	 0,147100959536953 
722	 0,148116143071343 
723	 0,149560937135515 
724	 0,151428686533954 
725	 0,152770051205785 
726	 0,154020741532954 
727	 0,155470139559965 
728	 0,156502722473924 
729	 0,157198432965071 
730	 0,157847498150808 
731	 0,157954909211206 
732	 0,157696860649842 
733	 0,158024223485306 
734	 0,158743542891315 
735	 0,1596437307607 
736	 0,159694474276041 
737	 0,159263891046964 
738	 0,159780173245679 
739	 0,160123490929654 
740	 0,160118476561027 
741	 0,161150985403818 
742	 0,16210869456838 
743	 0,161682012091177 
744	 0,161952492908501 
745	 0,162867481777735 
746	 0,16273700016569 
747	 0,162784367368627 
748	 0,163561190554816 
749	 0,164049599299865 
750	 0,164287949506683 
751	 0,164529121085273 
752	 0,164781946611737 
753	 0,165074101316835 
754	 0,165448587837446 
755	 0,165811176005526 
756	 0,166081228296285 
757	 0,166159892248162 
758	 0,166375746959509 
759	 0,168026383087472 
760	 0,17147928117166 
761	 0,17500430881787 
762	 0,176424953626353 
763	 0,175498892812182 
764	 0,173605281268291 
765	 0,172316594003755 
766	 0,171627209573085 
767	 0,170961011380745 
768	 0,170500002299676 
769	 0,170287494371673 
770	 0,17040447493643 
771	 0,170693491292356 
772	 0,170973206937844 
773	 0,1712027631815 
774	 0,171400061599719 
775	 0,171663753370581 
776	 0,172032698078746 
777	 0,172474565978011 
778	 0,172563178318611 
779	 0,172683923450487 
780	 0,173475289674896 
781	 0,173837522999243 
782	 0,173746970715139 
783	 0,174322211172607 
784	 0,174589075352964 
785	 0,174086004522086 
786	 0,174856970387133 
787	 0,176148200527465 
788	 0,175980714503867 
789	 0,176023477479471 
790	 0,17662078930335 
791	 0,176863651191377 
792	 0,177166591162386 
793	 0,177811672400564 
794	 0,177919742520752 
795	 0,177717217751054 
796	 0,177970616040501 
797	 0,17849665740764 
798	 0,179123741244062 
799	 0,17931762929309 
800	 0,179375847987718 
801	 0,179593936959629 
802	 0,179569680066231 
803	 0,179496950908803 
804	 0,180084368223074 
805	 0,180405537714088 
806	 0,18030347270867 
807	 0,180899918003386 
808	 0,181559265593763 
809	 0,181540565941159 
810	 0,182155217096086 
811	 0,183370965613182 
812	 0,184252415818978 
813	 0,184589185926217 
814	 0,184407644850768 
815	 0,185371527406033 
816	 0,186520333411551 
817	 0,186325307007554 
818	 0,186326170779696 
819	 0,186695895370121 
820	 0,186941618731431 
821	 0,187060886661606 
822	 0,187143495951968 
823	 0,18796056485195 
824	 0,188495478923684 
825	 0,187530490201432 
826	 0,18729626678326 
827	 0,187818965778393 
828	 0,187518891198213 
829	 0,187335862615611 
830	 0,187688099118473 
831	 0,18788146676184 
832	 0,187976934559896 
833	 0,188150964176997 
834	 0,188288050342778 
835	 0,188346997953251 
836	 0,188221275087015 
837	 0,188392605636199 
838	 0,188985653952905 
839	 0,189046650484855 
840	 0,18879139414515 
841	 0,188658516008346 
842	 0,189193624223361 
843	 0,189981541137419 
844	 0,189104198161592 
845	 0,188606161152655 
846	 0,189413328920964 
847	 0,189351491238723 
848	 0,189189095116125 
849	 0,190366781755109 
850	 0,191131493318597 
851	 0,191140630040956 
852	 0,190870875042319 
853	 0,190881666182754 
854	 0,191325078527326 
855	 0,190670953479649 
856	 0,189959477372845 
857	 0,190747224576179 
858	 0,191109694658284 
859	 0,190900710307358 
860	 0,191138926038519 
861	 0,191475867767751 
862	 0,191704085434057 
863	 0,191641383075207 
864	 0,191504535546579 
865	 0,191619816498215 
866	 0,192728685424609 
867	 0,194163578745394 
868	 0,193361727473162 
869	 0,192588065216368 
870	 0,192883303015434 
871	 0,193421012639745 
872	 0,193836760909207 
873	 0,193789917211064 
874	 0,193739479760972 
875	 0,193982664567926 
876	 0,195097170624696 
877	 0,195931119516486 
878	 0,195973850277273 
879	 0,195630968892141 
880	 0,19507423959856 
881	 0,194568270108665 
882	 0,196380371128202 
883	 0,199092636017991 
884	 0,197619937340152 
885	 0,196697623278174 
886	 0,19761207779809 
887	 0,197346659190201 
888	 0,196804023942893 
889	 0,197001064856364 
890	 0,197531948025393 
891	 0,198339849328065 
892	 0,199557243601277 
893	 0,199843324095195 
894	 0,19910269335329 
895	 0,199982628106946 
896	 0,200858026090997 
897	 0,200243138571343 
898	 0,200595311847562 
899	 0,201974794849683 
900	 0,203661938374794 
901	 0,203448985045296 
902	 0,201769090359892 
903	 0,202825415085481 
904	 0,203531714979373 
905	 0,202305418593269 
906	 0,202473115114408 
907	 0,203300062457214 
908	 0,203107904142966 
909	 0,203341974677067 
910	 0,204047731309914 
911	 0,20411207870541 
912	 0,203859920930417 
913	 0,203772582008455 
914	 0,205733171270871 
915	 0,207290362518033 
916	 0,205866601128659 
917	 0,204643958391328 
918	 0,203763535185354 
919	 0,201636979424499 
920	 0,201665935247136 
921	 0,203942311261118 
922	 0,203377063198101 
923	 0,202712692731504 
924	 0,204176968617506 
925	 0,203247450885661 
926	 0,201401929171339 
927	 0,20381504013144 
928	 0,20559978908252 
929	 0,205722821108148 
930	 0,209426084694979 
931	 0,211980047401765 
932	 0,209490714447241 
933	 0,213328127033711 
934	 0,217932070479405 
935	 0,210290502640221 
936	 0,209706611877684 
937	 0,216945927736661 
938	 0,218921652067435 
939	 0,214238083588542 
940	 0,204650703907094 
941	 0,200144593019162 
942	 0,199039607704321 
943	 0,199350178220061 
944	 0,198821041193706 
945	 0,198331298060762 
946	 0,200577189979514 
947	 0,200031554211853 
948	 0,19669320196518 
949	 0,196419666442585 
950	 0,196583860616524 
951	 0,196302995108107 
952	 0,200134555007368 
953	 0,201988444249445 
954	 0,195523592471372 
955	 0,190896915613293 
956	 0,190129396827718 
957	 0,193363159826702 
958	 0,191250659821435 
959	 0,184100039806212 
960	 0,185001287285299 
961	 0,189551273060288 
962	 0,193277643719997 
963	 0,187482170297594 
964	 0,181002937143507 
965	 0,185956568322576 
966	 0,189159483217497 
967	 0,189358605474615 
968	 0,191701318327628 
969	 0,189013511796729 
970	 0,181261505185072 
971	 0,182909826125534 
972	 0,18490978373178 
973	 0,179905946463261 
974	 0,180887480483521 
975	 0,184551261650775 
976	 0,181501315902728 
977	 0,183271792224268 
978	 0,189230010974473 
979	 0,188018853750076 
980	 0,183542514981499 
981	 0,179531800222078 
982	 0,185526516628783 
983	 0,190351397399578 
984	 0,184012327415301 
985	 0,181594267500079 
986	 0,183979027377982 
987	 0,188148690618235 
988	 0,185878711427222 
989	 0,179054330523554 
990	 0,183047200380992 
991	 0,187388201421875 
992	 0,187107328745838 
993	 0,187476387293884 
994	 0,187980268427621 
995	 0,187741647669783 
996	 0,186747126851148 
997	 0,187637275388403 
998	 0,195945332974461 
999	 0,189985501615761 
1000	 0,173463446205383 
1001	 0,184056899380273 
1002	 0,196032538470574 
1003	 0,197394164389344 
1004	 0,199617228260767 
1005	 0,198994603907089 
1006	 0,191993962302638 
1007	 0,187341189988084 
1008	 0,185888009613593 
1009	 0,185839027431914 
1010	 0,192121337121711 
1011	 0,201160001703102 
1012	 0,196688183311 
1013	 0,197166944459002 
1014	 0,206780717427263 
1015	 0,203225501029815 
1016	 0,195882753488204 
1017	 0,193869735498021 
1018	 0,196278925503584 
1019	 0,200399394828514 
1020	 0,202159918874221 
1021	 0,20039079191736 
1022	 0,196464753668343 
1023	 0,194575560097849 
1024	 0,198421898592372 
1025	 0,20698868973871 
1026	 0,20981216723683 
1027	 0,210314051397386 
1028	 0,210916448431248 
1029	 0,211471177984857 
1030	 0,209356044856962 
1031	 0,20232068809538 
1032	 0,201049137136386 
1033	 0,20600064773334 
1034	 0,213853570671752 
1035	 0,209806303380359 
1036	 0,196059948670788 
1037	 0,196263091314793 
1038	 0,206072777418175 
1039	 0,219260808142615 
1040	 0,212893540497533 
1041	 0,206118670288283 
1042	 0,212805735072211 
1043	 0,203447078109759 
1044	 0,197526762439604 
1045	 0,223741616949485 
1046	 0,214005945293669 
1047	 0,181093591511491 
1048	 0,193542557372364 
1049	 0,206938918274114 
1050	 0,208352238259727 
1051	 0,201464616493161 
1052	 0,202314910627465 
1053	 0,214521263592011 
1054	 0,210669189797701 
1055	 0,202839507034313 
1056	 0,203548733670882 
1057	 0,200330881883753 
1058	 0,206616726340807 
1059	 0,238662080238685 
1060	 0,232250989231967 
1061	 0,198708710316398 
1062	 0,195830437108555 
1063	 0,192531598230036 
1064	 0,184560101872203 
1065	 0,187716549419848 
1066	 0,192594708483417 
1067	 0,197416170105158 
1068	 0,218575387259014 
1069	 0,219765763708473 
1070	 0,184365456561347 
1071	 0,185739539639423 
1072	 0,218072349413565 
1073	 0,256184501669797 
1074	 0,246512311958988 
1075	 0,210028143127908 
