Wavelength	AVEN00603.asd
325	 0,218703053801512 
326	 0,289155661623968 
327	 0,278730698700401 
328	 0,128044946990398 
329	 0,153234914834544 
330	 0,204647974188682 
331	 0,159401063307869 
332	 0,150385126162019 
333	 0,179477611940299 
334	 0,210628339304614 
335	 0,225616449011694 
336	 0,214667495805771 
337	 0,18118472500326 
338	 0,149358467019088 
339	 0,144004458926428 
340	 0,146437062677631 
341	 0,150544887892575 
342	 0,145737777121331 
343	 0,176224939037697 
344	 0,228959673328815 
345	 0,216848322799686 
346	 0,177142695072413 
347	 0,156730981791774 
348	 0,151927649238205 
349	 0,157038256630215 
350	 0,159768786127168 
351	 0,163488079655385 
352	 0,168536317976697 
353	 0,174930934760606 
354	 0,178248670859162 
355	 0,173657078776965 
356	 0,168466441354911 
357	 0,16738161331254 
358	 0,178135404044235 
359	 0,187151521322859 
360	 0,186271787053183 
361	 0,164310716455829 
362	 0,140613941605242 
363	 0,138347839908891 
364	 0,138701973549031 
365	 0,14109071633498 
366	 0,161827576436541 
367	 0,174142521218413 
368	 0,162359964899035 
369	 0,15933677640552 
370	 0,157542876882892 
371	 0,134652119365049 
372	 0,132869787656581 
373	 0,154346460056387 
374	 0,155638272444369 
375	 0,153874013780782 
376	 0,161947090624599 
377	 0,167512692538443 
378	 0,169039257194431 
379	 0,167020626939198 
380	 0,15898187475538 
381	 0,148492640577063 
382	 0,151901806602797 
383	 0,154381476466238 
384	 0,141579625449169 
385	 0,133396352190022 
386	 0,133890724026111 
387	 0,142472532004636 
388	 0,154104645256578 
389	 0,165025385789768 
390	 0,174035331522929 
391	 0,171182391238547 
392	 0,14583287185412 
393	 0,1405261091749 
394	 0,154819786908598 
395	 0,154293759801656 
396	 0,155470505831601 
397	 0,163211184432119 
398	 0,149448066953245 
399	 0,13345915145526 
400	 0,148544480144642 
401	 0,150741265181554 
402	 0,138008072505111 
403	 0,143166281953592 
404	 0,153489332701562 
405	 0,159346245818251 
406	 0,160068086475185 
407	 0,157157874837656 
408	 0,153474175295875 
409	 0,151915529772013 
410	 0,152395041306087 
411	 0,148946316407571 
412	 0,145115659772197 
413	 0,144688194669694 
414	 0,153275556583615 
415	 0,16404131078806 
416	 0,157867838795257 
417	 0,152905751992849 
418	 0,155323021330251 
419	 0,155045531991759 
420	 0,151879821963789 
421	 0,146594849337468 
422	 0,148084587695928 
423	 0,153966447564518 
424	 0,14950155716847 
425	 0,144178905519284 
426	 0,143902750391099 
427	 0,145706398041562 
428	 0,147947353412305 
429	 0,148803517007265 
430	 0,145811292909818 
431	 0,140776833097351 
432	 0,144599377163617 
433	 0,149874792695691 
434	 0,149873042589651 
435	 0,148951675551374 
436	 0,147856991236316 
437	 0,146187785513954 
438	 0,146012509434547 
439	 0,147571949667267 
440	 0,146456797342429 
441	 0,145441740340677 
442	 0,148455005432905 
443	 0,147692200854493 
444	 0,144063164658635 
445	 0,14738465417187 
446	 0,149110249988879 
447	 0,144897450442796 
448	 0,146147790778166 
449	 0,150017272145146 
450	 0,14836310020566 
451	 0,146965916902368 
452	 0,147438962229245 
453	 0,148814633218059 
454	 0,150114734021827 
455	 0,150426021214379 
456	 0,149095190530148 
457	 0,14804605073945 
458	 0,153290317928407 
459	 0,154801445256005 
460	 0,149795581202125 
461	 0,150281711548399 
462	 0,152555999529074 
463	 0,150166311113715 
464	 0,149729710467033 
465	 0,151914186298965 
466	 0,153281247615372 
467	 0,15408821521558 
468	 0,154382737129685 
469	 0,152942150233128 
470	 0,151351383492229 
471	 0,153073818089845 
472	 0,153827378024092 
473	 0,15254793506783 
474	 0,151443591600116 
475	 0,150388594436572 
476	 0,149206399294707 
477	 0,149438076228112 
478	 0,150844809258534 
479	 0,152230287790585 
480	 0,152034162785807 
481	 0,149969331983419 
482	 0,149821097851032 
483	 0,150424267195039 
484	 0,149364123223753 
485	 0,149943353687801 
486	 0,151862614433164 
487	 0,150777220921048 
488	 0,149162481936925 
489	 0,148955017596036 
490	 0,149489385116414 
491	 0,149956691234082 
492	 0,148711833525065 
493	 0,147686076422935 
494	 0,147532531680117 
495	 0,147526399540344 
496	 0,147885093591057 
497	 0,148889325416971 
498	 0,149951008395154 
499	 0,150830183277696 
500	 0,151475937303565 
501	 0,151461330671722 
502	 0,150785069546997 
503	 0,151466091268921 
504	 0,15262068503894 
505	 0,152414065809808 
506	 0,15068106345018 
507	 0,148392323930389 
508	 0,149547367651067 
509	 0,152216112446826 
510	 0,154366651585071 
511	 0,154405290430252 
512	 0,153312602133261 
513	 0,154708731702187 
514	 0,155111238272 
515	 0,153644447702115 
516	 0,154801530868073 
517	 0,157074618762615 
518	 0,157877057825469 
519	 0,156940912541525 
520	 0,155230154314151 
521	 0,156758369626097 
522	 0,157672482796234 
523	 0,155448315453339 
524	 0,154801189761332 
525	 0,155499900111721 
526	 0,155150807403923 
527	 0,155862317864542 
528	 0,157580721159482 
529	 0,156293121839827 
530	 0,15440002366531 
531	 0,154907881990082 
532	 0,155904762605604 
533	 0,156697356737205 
534	 0,156608811695124 
535	 0,156329406976703 
536	 0,156228022502104 
537	 0,155587728942112 
538	 0,155030069978276 
539	 0,155926080932972 
540	 0,156010268026466 
541	 0,155006527199004 
542	 0,155166928402921 
543	 0,155688013015976 
544	 0,155695525908042 
545	 0,155868879025313 
546	 0,15616666550578 
547	 0,156111805550239 
548	 0,156101254632574 
549	 0,156388408283727 
550	 0,15732522493896 
551	 0,158181305121908 
552	 0,157780201175482 
553	 0,157641679377284 
554	 0,157833533847611 
555	 0,156652821146626 
556	 0,155795870054724 
557	 0,156569117775671 
558	 0,156449001030428 
559	 0,155548393362733 
560	 0,155361238041302 
561	 0,155041725094439 
562	 0,154291315965095 
563	 0,153226157123955 
564	 0,152444228420804 
565	 0,152671057762575 
566	 0,153530636183934 
567	 0,154441079123037 
568	 0,153826862051859 
569	 0,153281908956587 
570	 0,153952255456899 
571	 0,155263158779332 
572	 0,156813591819917 
573	 0,157999679675446 
574	 0,158975991865483 
575	 0,15976497176068 
576	 0,160252838919584 
577	 0,161005572695706 
578	 0,162630859764961 
579	 0,164196182269341 
580	 0,165289982954224 
581	 0,165312937164628 
582	 0,165876210137383 
583	 0,167734211968633 
584	 0,168777147719113 
585	 0,169430735335285 
586	 0,17096280528785 
587	 0,172362350425037 
588	 0,17322535361047 
589	 0,173195639117775 
590	 0,173270668222663 
591	 0,174306572543749 
592	 0,17423405406718 
593	 0,173620839468675 
594	 0,175224452568052 
595	 0,176414115536407 
596	 0,176128683708394 
597	 0,176122561261331 
598	 0,176364764524069 
599	 0,176524881807292 
600	 0,176614396928747 
601	 0,17654392531451 
602	 0,176063107885454 
603	 0,175433267359275 
604	 0,174841647928695 
605	 0,173774909682114 
606	 0,172724397123523 
607	 0,173193078964367 
608	 0,17297635560979 
609	 0,17158401775015 
610	 0,171504071943594 
611	 0,171762925652557 
612	 0,17092052156328 
613	 0,170339445703705 
614	 0,170028360906505 
615	 0,168834266602749 
616	 0,167880685155291 
617	 0,167839398508358 
618	 0,167686115447028 
619	 0,167666240392635 
620	 0,168692736659845 
621	 0,168867450181998 
622	 0,167815300403736 
623	 0,167015582641157 
624	 0,166816654031874 
625	 0,167435466539696 
626	 0,167691232599717 
627	 0,167648385237137 
628	 0,168392157834844 
629	 0,168944046255427 
630	 0,168895287924012 
631	 0,169134325305611 
632	 0,169699765183295 
633	 0,170492827064287 
634	 0,171075427542771 
635	 0,171424325234361 
636	 0,172106654441375 
637	 0,172827126535636 
638	 0,173349065857247 
639	 0,174146015548858 
640	 0,175214262778947 
641	 0,176444876911746 
642	 0,177131531883591 
643	 0,177140308769647 
644	 0,177733117237667 
645	 0,178433983413855 
646	 0,178473706150606 
647	 0,178729582990305 
648	 0,179128975316348 
649	 0,178725870159144 
650	 0,177938732743443 
651	 0,177064091767423 
652	 0,175954843254295 
653	 0,17497957447146 
654	 0,175041398561797 
655	 0,173931047777304 
656	 0,17139484804496 
657	 0,170146047654868 
658	 0,169490540549433 
659	 0,168510679949043 
660	 0,166941653150836 
661	 0,164899189276306 
662	 0,162866066540512 
663	 0,161188026059412 
664	 0,160043937281325 
665	 0,159078877087403 
666	 0,158183094777857 
667	 0,15727156811707 
668	 0,156365920691637 
669	 0,155533123710396 
670	 0,155019392535532 
671	 0,154566317350848 
672	 0,153978409176276 
673	 0,153551636237388 
674	 0,153329368238326 
675	 0,153257237239431 
676	 0,153500981604977 
677	 0,153923265888024 
678	 0,153456099561376 
679	 0,152962421668471 
680	 0,153550744175252 
681	 0,154318309861235 
682	 0,155006403226751 
683	 0,15543386855075 
684	 0,156278863188225 
685	 0,157903779932382 
686	 0,159604399602801 
687	 0,161489280649436 
688	 0,163894006396863 
689	 0,166762488303018 
690	 0,170208625564325 
691	 0,174502923397487 
692	 0,179766284796285 
693	 0,186039496054904 
694	 0,192197231498731 
695	 0,198557031501829 
696	 0,206445520253598 
697	 0,215282275940979 
698	 0,224727453952418 
699	 0,234186204610599 
700	 0,243873035600475 
701	 0,254200438824449 
702	 0,26458344077659 
703	 0,274728468457088 
704	 0,284415577123001 
705	 0,293624020775218 
706	 0,302407741973662 
707	 0,31109443508594 
708	 0,319577621732498 
709	 0,327609898033244 
710	 0,334769152616617 
711	 0,341222660528517 
712	 0,348386937083161 
713	 0,354976971982743 
714	 0,359830889374504 
715	 0,36470189819991 
716	 0,369698551788609 
717	 0,374178136782704 
718	 0,378181962915042 
719	 0,381816455409849 
720	 0,385700930098763 
721	 0,389359936492406 
722	 0,392145544025677 
723	 0,394565653862378 
724	 0,39677821316569 
725	 0,398795122149502 
726	 0,400796779295471 
727	 0,402868211613515 
728	 0,404741964394356 
729	 0,406399891857111 
730	 0,407904901948348 
731	 0,4089338289644 
732	 0,409601796091799 
733	 0,410770825533403 
734	 0,412040865754474 
735	 0,413026994626238 
736	 0,413800419515106 
737	 0,414490937152355 
738	 0,415427485008578 
739	 0,416178475062969 
740	 0,416643377913925 
741	 0,417248543130438 
742	 0,417906649044381 
743	 0,418477900437719 
744	 0,419178515322683 
745	 0,419909058821496 
746	 0,420197394532483 
747	 0,420583639965541 
748	 0,421294818594829 
749	 0,421738512650551 
750	 0,421945249709237 
751	 0,422065346900159 
752	 0,422332731323771 
753	 0,422739691473617 
754	 0,422925201023536 
755	 0,423174844995648 
756	 0,423657768246468 
757	 0,423844628143536 
758	 0,423938818614272 
759	 0,424552131672919 
760	 0,424898453709053 
761	 0,4248540723919 
762	 0,425134479078024 
763	 0,425481931631702 
764	 0,425639559576655 
765	 0,425975741753047 
766	 0,426436300236643 
767	 0,426706518219154 
768	 0,426979101766091 
769	 0,427302245311509 
770	 0,427533449722188 
771	 0,427679405319253 
772	 0,427767067173612 
773	 0,428061548468702 
774	 0,428475203036983 
775	 0,428555973153588 
776	 0,428544529757252 
777	 0,428604805407155 
778	 0,428908350477376 
779	 0,429372613757024 
780	 0,429849841737544 
781	 0,430142732735706 
782	 0,430241381167916 
783	 0,430324571099566 
784	 0,430545044602616 
785	 0,430951045689925 
786	 0,431007144663916 
787	 0,430933701831111 
788	 0,431260266854403 
789	 0,431536465672771 
790	 0,431709278092248 
791	 0,43218289306043 
792	 0,432475326231169 
793	 0,432252621077372 
794	 0,432285627662425 
795	 0,432603894503495 
796	 0,432978882787095 
797	 0,43333546783843 
798	 0,433647927697687 
799	 0,434054170800839 
800	 0,434317554130532 
801	 0,434235960126158 
802	 0,434190217129201 
803	 0,434309597303839 
804	 0,434700319936391 
805	 0,435182273803057 
806	 0,435611660030924 
807	 0,435686923287357 
808	 0,435733699360362 
809	 0,436111218448902 
810	 0,436502111495403 
811	 0,436779757605468 
812	 0,436738079791878 
813	 0,436941629441703 
814	 0,437558262081514 
815	 0,437956527658625 
816	 0,438259409582599 
817	 0,438674534307408 
818	 0,438872233239121 
819	 0,438922505927182 
820	 0,439258747003834 
821	 0,439532603146466 
822	 0,439628574489444 
823	 0,43991902829156 
824	 0,440276761883151 
825	 0,440493714900284 
826	 0,440570219442076 
827	 0,44057487267868 
828	 0,440736322956632 
829	 0,44081049839501 
830	 0,440785189797185 
831	 0,441437761615887 
832	 0,442311382773789 
833	 0,442684600763569 
834	 0,442591521305678 
835	 0,442202592563165 
836	 0,441934822580104 
837	 0,442317055225726 
838	 0,4434459733289 
839	 0,443830530542596 
840	 0,443663614024345 
841	 0,443481375898227 
842	 0,443330546523185 
843	 0,443414612322632 
844	 0,444278573853189 
845	 0,444884444935077 
846	 0,44476841046442 
847	 0,445174805849011 
848	 0,445644608593189 
849	 0,445348748389428 
850	 0,445406776042569 
851	 0,445863566579725 
852	 0,445872951539954 
853	 0,445955191207497 
854	 0,446313213131102 
855	 0,446247972055078 
856	 0,446333188181449 
857	 0,44742514355421 
858	 0,447207755235223 
859	 0,445980678627645 
860	 0,446618455195763 
861	 0,447221362514435 
862	 0,446957769188101 
863	 0,447193654858424 
864	 0,447777935658094 
865	 0,44833016042364 
866	 0,448728684524325 
867	 0,448995145768911 
868	 0,449332032937242 
869	 0,44969555703977 
870	 0,45009364951149 
871	 0,450731281325834 
872	 0,451128097071246 
873	 0,450734391579383 
874	 0,450637598654033 
875	 0,450964352590853 
876	 0,451265525321233 
877	 0,451849545752317 
878	 0,452603369829017 
879	 0,452250304392425 
880	 0,451780868080627 
881	 0,45232488585759 
882	 0,452877328885022 
883	 0,453163902664971 
884	 0,452936857974098 
885	 0,453151911606725 
886	 0,453962135452606 
887	 0,454141485575371 
888	 0,454110488821425 
889	 0,454346942344453 
890	 0,454933878281633 
891	 0,45556016213515 
892	 0,455527250195306 
893	 0,455310026385224 
894	 0,455175050001137 
895	 0,455532431184303 
896	 0,455846036995695 
897	 0,455745795020001 
898	 0,456013253475797 
899	 0,456590836422202 
900	 0,457168753554549 
901	 0,457497732217703 
902	 0,457655084141381 
903	 0,458299089911757 
904	 0,458867075813483 
905	 0,458947527463516 
906	 0,458338677201642 
907	 0,457629871181493 
908	 0,457662046695731 
909	 0,458213122609749 
910	 0,459087502220267 
911	 0,459909445614999 
912	 0,460504007253192 
913	 0,460665957094419 
914	 0,45984493225878 
915	 0,459144170065992 
916	 0,459762434462328 
917	 0,46042090532491 
918	 0,46088645065252 
919	 0,461349365449203 
920	 0,461331965652219 
921	 0,460890457476512 
922	 0,461091962047907 
923	 0,461448189363474 
924	 0,461431331434326 
925	 0,460375837954158 
926	 0,459170566620179 
927	 0,459572922170718 
928	 0,459721315589987 
929	 0,459607190706441 
930	 0,461398812154954 
931	 0,462339478014888 
932	 0,461118291937386 
933	 0,460860396002758 
934	 0,461167090756447 
935	 0,461073331418724 
936	 0,460744337962002 
937	 0,460308213652923 
938	 0,460118668461755 
939	 0,459634415973572 
940	 0,458861190915322 
941	 0,458935573065873 
942	 0,459011991884439 
943	 0,45837730718245 
944	 0,458425156853432 
945	 0,458457393512616 
946	 0,456742165985803 
947	 0,456037308213296 
948	 0,456632145071357 
949	 0,456600561721343 
950	 0,455805229818906 
951	 0,454288678109526 
952	 0,453014246613797 
953	 0,451798716142747 
954	 0,450337216696794 
955	 0,449858267188757 
956	 0,450191368010603 
957	 0,450374931129092 
958	 0,44960244365495 
959	 0,447885918888208 
960	 0,446680078709516 
961	 0,446897516824047 
962	 0,448786439612005 
963	 0,448910638555592 
964	 0,44805561131589 
965	 0,448218160598277 
966	 0,447975613409757 
967	 0,447688825948171 
968	 0,44956793669153 
969	 0,450600596060462 
970	 0,449844313277692 
971	 0,450050286964769 
972	 0,449864336219246 
973	 0,448126093734209 
974	 0,447577704373329 
975	 0,447837465125882 
976	 0,44734425429407 
977	 0,447669758488725 
978	 0,44882316916824 
979	 0,44932395206306 
980	 0,450413639769871 
981	 0,452173481372281 
982	 0,451595681304158 
983	 0,450266757880106 
984	 0,450124791271225 
985	 0,45167449646818 
986	 0,453723074605556 
987	 0,453769623506846 
988	 0,453988037400722 
989	 0,454869314207153 
990	 0,455965614305775 
991	 0,456229044870728 
992	 0,455394179292753 
993	 0,455319370294091 
994	 0,456156792082849 
995	 0,457781935693113 
996	 0,459098534818016 
997	 0,459713837859485 
998	 0,45931107871641 
999	 0,46078294100681 
1000	 0,46347898795388 
1001	 0,461806374550617 
1002	 0,460941159277003 
1003	 0,463049143865132 
1004	 0,46419893498392 
1005	 0,464377017552657 
1006	 0,464053182553691 
1007	 0,465645436930537 
1008	 0,467066364413448 
1009	 0,463836632703378 
1010	 0,464253040237773 
1011	 0,46890411779199 
1012	 0,472570367959692 
1013	 0,473392329677236 
1014	 0,471131550149111 
1015	 0,470427724621507 
1016	 0,470353193677809 
1017	 0,470176588340907 
1018	 0,472842257313048 
1019	 0,475129089956262 
1020	 0,471862737822277 
1021	 0,47136336658549 
1022	 0,474122699664041 
1023	 0,475776387273936 
1024	 0,4769560523553 
1025	 0,478305920006685 
1026	 0,482655985987903 
1027	 0,485020309773438 
1028	 0,482711491255119 
1029	 0,481829836988821 
1030	 0,481600747115933 
1031	 0,480555691730667 
1032	 0,481888329469112 
1033	 0,48561306328496 
1034	 0,490888540918788 
1035	 0,488522464584561 
1036	 0,480395428401602 
1037	 0,482455695482281 
1038	 0,486611618099028 
1039	 0,488444773852941 
1040	 0,485233447967137 
1041	 0,485625446018962 
1042	 0,494489462638539 
1043	 0,490895353840238 
1044	 0,482805905978407 
1045	 0,485199908803142 
1046	 0,488947800477584 
1047	 0,491684260453333 
1048	 0,492553762206006 
1049	 0,491251749025856 
1050	 0,488679280977408 
1051	 0,487879538508976 
1052	 0,489014242323884 
1053	 0,492002785763898 
1054	 0,496534854046601 
1055	 0,49683293208485 
1056	 0,489687785988699 
1057	 0,49121238276686 
1058	 0,49552347321063 
1059	 0,491589499765009 
1060	 0,494683918854535 
1061	 0,50245085616498 
1062	 0,502030794412006 
1063	 0,504511405281389 
1064	 0,509285212824046 
1065	 0,503098166537014 
1066	 0,493382231595215 
1067	 0,487157679490719 
1068	 0,495739457835533 
1069	 0,503864612359956 
1070	 0,500817471410114 
1071	 0,503478489330614 
1072	 0,503625964417456 
1073	 0,491033061090608 
1074	 0,489782081858748 
1075	 0,493222306103021 
