Wavelength	AVEN00202.asd
325	 9,25179057865767E-02 
326	 0,195274438669411 
327	 0,158625455125309 
328	-5,20803623728429E-02 
329	-6,92646634127372E-02 
330	 1,94706233147972E-02 
331	 0,102285811548204 
332	 9,62815405046481E-02 
333	 3,76220748111295E-02 
334	 3,69370224808877E-02 
335	 6,10831179831119E-02 
336	 7,72959293904137E-02 
337	 1,12317203215902E-02 
338	-5,11728093662581E-02 
339	-0,028391356542617 
340	-7,19071691028218E-03 
341	 5,7751194128555E-03 
342	 3,02972238966044E-02 
343	 7,18453787253423E-02 
344	 0,117539182213811 
345	 0,125955696911514 
346	 0,10777789566235 
347	 7,64889523293185E-02 
348	 5,42592626095369E-02 
349	 4,51162313675431E-02 
350	 4,55401711699601E-02 
351	 5,82824822314213E-02 
352	 7,35553756724371E-02 
353	 4,24474886119428E-02 
354	 1,43037938920735E-02 
355	 4,52895722342585E-02 
356	 0,063180493682369 
357	 5,59037593904026E-02 
358	 0,039409714807678 
359	 3,17427597151819E-02 
360	 3,79771866087043E-02 
361	 2,69369346239099E-02 
362	 1,16472497095938E-02 
363	 1,24687262918072E-02 
364	 1,25450664642629E-02 
365	 1,24135586133054E-02 
366	 2,97052528786227E-02 
367	 3,81638735500168E-02 
368	 2,31571368212626E-02 
369	 1,76421158067894E-02 
370	 1,78754538699167E-02 
371	 9,63027823264756E-03 
372	 6,08773396272887E-03 
373	 1,05296655822735E-02 
374	 1,95785306355457E-02 
375	 3,12574985912759E-02 
376	 4,22678882667644E-02 
377	 0,036436670630509 
378	 0,02125037895141 
379	 1,92622713788035E-02 
380	 2,25791140338311E-02 
381	 2,55590059573594E-02 
382	 1,43725049871408E-02 
383	 2,3152496470656E-03 
384	 3,97751759126969E-03 
385	 2,05164396536005E-02 
386	 3,66315301565687E-02 
387	 1,17225673051516E-02 
388	 1,63806291981682E-03 
389	 2,22784916354388E-02 
390	 3,29328453435071E-02 
391	 2,94168132413162E-02 
392	 1,10594707775818E-02 
393	 1,06871988697702E-02 
394	 2,50679656612609E-02 
395	 1,93460308469967E-02 
396	 0,01230743292538 
397	 1,32989271570959E-02 
398	 1,67941473922771E-02 
399	 1,90247855617505E-02 
400	 1,52934814163401E-02 
401	 1,40444598176572E-02 
402	 1,52258164445195E-02 
403	 9,18547727907367E-03 
404	 8,99774469865728E-03 
405	 2,15060035302607E-02 
406	 2,03017428171896E-02 
407	 1,19108559182587E-02 
408	 1,61973391080592E-02 
409	 2,15039618768291E-02 
410	 2,29275781330532E-02 
411	 1,33721137136045E-02 
412	 6,81941773554675E-03 
413	 1,54991391887929E-02 
414	 2,01792764165031E-02 
415	 1,93092044267445E-02 
416	 0,017732736296791 
417	 2,05189145994089E-02 
418	 2,74881487586467E-02 
419	 2,39472248367817E-02 
420	 1,58301742751502E-02 
421	 1,18932801895758E-02 
422	 1,45263770625154E-02 
423	 2,04910960002699E-02 
424	 1,74211344737174E-02 
425	 1,31738784804297E-02 
426	 1,25808163412366E-02 
427	 1,21676678146836E-02 
428	 1,31056291130147E-02 
429	 1,89090290285728E-02 
430	 1,79642134626702E-02 
431	 1,05531566729848E-02 
432	 1,32627701630662E-02 
433	 1,93916874345848E-02 
434	 2,22373091535491E-02 
435	 2,02454868752054E-02 
436	 1,58704551657216E-02 
437	 0,016022288063517 
438	 1,70972807918691E-02 
439	 1,75563167920998E-02 
440	 1,69230298053855E-02 
441	 1,61808853243077E-02 
442	 1,66424255324181E-02 
443	 1,51400216900734E-02 
444	 1,25244658634538E-02 
445	 1,41160113638811E-02 
446	 1,58722616077098E-02 
447	 0,015349802782334 
448	 1,45314596486419E-02 
449	 1,48131760454456E-02 
450	 1,85401142643889E-02 
451	 1,98364592023805E-02 
452	 1,71998136314827E-02 
453	 1,27354457448006E-02 
454	 1,07792662712633E-02 
455	 1,47949394820343E-02 
456	 1,61906052812996E-02 
457	 1,53403398776994E-02 
458	 1,84912680606097E-02 
459	 1,92595156680605E-02 
460	 1,58427144050631E-02 
461	 0,014697818231545 
462	 1,53950661334168E-02 
463	 1,64709280390496E-02 
464	 1,66675954966769E-02 
465	 1,60786485090208E-02 
466	 0,016307691636852 
467	 1,76020182921183E-02 
468	 1,98490992913856E-02 
469	 2,06690165974596E-02 
470	 0,020042089775944 
471	 1,85429431227514E-02 
472	 1,82503741761533E-02 
473	 1,90267756991157E-02 
474	 1,62599456477173E-02 
475	 1,34539561624401E-02 
476	 1,41677654511101E-02 
477	 1,54874181876335E-02 
478	 1,68627878591353E-02 
479	 1,89674126658061E-02 
480	 1,88829891665133E-02 
481	 1,60433597872665E-02 
482	 1,67843864531267E-02 
483	 1,84123965987543E-02 
484	 1,58732854199488E-02 
485	 1,56137466320537E-02 
486	 1,78738348809186E-02 
487	 0,017021786751186 
488	 1,50360482088826E-02 
489	 1,37411394755373E-02 
490	 1,56989535672406E-02 
491	 0,018351549140159 
492	 1,46710044694158E-02 
493	 1,25517943250382E-02 
494	 1,43177568646452E-02 
495	 1,62685986835357E-02 
496	 1,73206328090479E-02 
497	 1,66310938021867E-02 
498	 0,015745527013951 
499	 1,52634081146623E-02 
500	 1,56387645735593E-02 
501	 1,61624363334708E-02 
502	 1,64601450845253E-02 
503	 1,72809949486427E-02 
504	 1,78198552948993E-02 
505	 1,65108234939451E-02 
506	 1,56333997825522E-02 
507	 1,58263565737777E-02 
508	 1,65096579311552E-02 
509	 0,01693185160241 
510	 1,64747636153546E-02 
511	 1,56779112600247E-02 
512	 0,015265801641156 
513	 1,70479133101101E-02 
514	 1,74303513787541E-02 
515	 1,55426456506755E-02 
516	 0,016867598862463 
517	 1,92499604961131E-02 
518	 1,90483682284334E-02 
519	 1,82241400518941E-02 
520	 1,73355499015422E-02 
521	 0,016535959761953 
522	 1,58422178624999E-02 
523	 1,53518899484222E-02 
524	 1,60890717740211E-02 
525	 1,72082211912342E-02 
526	 1,64251236787196E-02 
527	 1,61638531198844E-02 
528	 1,68430277960738E-02 
529	 1,58590598793425E-02 
530	 1,48671627761916E-02 
531	 0,015903303127984 
532	 0,017030658838779 
533	 1,76480328611667E-02 
534	 1,74762650252541E-02 
535	 1,71496290933315E-02 
536	 1,69928997120533E-02 
537	 0,016071767923681 
538	 1,53354424768962E-02 
539	 1,67589946867857E-02 
540	 1,79054776119574E-02 
541	 1,79751835994216E-02 
542	 1,72635267799692E-02 
543	 1,65442602724222E-02 
544	 1,65299416575831E-02 
545	 1,64110330114346E-02 
546	 1,61484891907756E-02 
547	 1,60253944235039E-02 
548	 1,62683509687822E-02 
549	 1,69125695239097E-02 
550	 1,74415640984081E-02 
551	 1,75145744008235E-02 
552	 1,66642164910875E-02 
553	 1,68574935644642E-02 
554	 1,79290192543677E-02 
555	 1,66732630620772E-02 
556	 1,54843903349807E-02 
557	 1,63160310678992E-02 
558	 1,67964976401862E-02 
559	 1,67157622495861E-02 
560	 1,67127964602671E-02 
561	 1,63049792564599E-02 
562	 1,56006499813447E-02 
563	 1,63754224895763E-02 
564	 1,72557564923327E-02 
565	 0,0162642570118 
566	 1,56993465515154E-02 
567	 1,57974901260231E-02 
568	 1,50386285840273E-02 
569	 1,48251133325969E-02 
570	 1,60131249948137E-02 
571	 1,67665385053237E-02 
572	 1,71799740000977E-02 
573	 1,82185711103131E-02 
574	 1,87153576703075E-02 
575	 1,84298386491507E-02 
576	 1,84176891097825E-02 
577	 1,84979846772836E-02 
578	 1,83871505431683E-02 
579	 1,83422976024665E-02 
580	 1,86145027591521E-02 
581	 1,99147893221617E-02 
582	 2,06402376142599E-02 
583	 2,00098724588951E-02 
584	 1,98012570902348E-02 
585	 2,01416014819692E-02 
586	 2,08311622896061E-02 
587	 2,13204423628783E-02 
588	 2,14407933106697E-02 
589	 2,14326417691886E-02 
590	 2,14413305024319E-02 
591	 2,15847687395263E-02 
592	 2,16428817033803E-02 
593	 2,16467535626855E-02 
594	 2,18031656719357E-02 
595	 0,021941476104689 
596	 2,20072809536485E-02 
597	 2,22985841531453E-02 
598	 2,23312039793807E-02 
599	 2,13338611542371E-02 
600	 2,07080854116946E-02 
601	 2,09056782987917E-02 
602	 2,20381857788795E-02 
603	 2,26183373516604E-02 
604	 2,15696146294464E-02 
605	 0,020670332045105 
606	 2,02933121354201E-02 
607	 2,04905127520991E-02 
608	 2,08637817535205E-02 
609	 2,11189285351062E-02 
610	 2,08098185019641E-02 
611	 2,01898725846758E-02 
612	 1,96232401235208E-02 
613	 1,96748234253364E-02 
614	 2,01677776185897E-02 
615	 2,00480869553371E-02 
616	 1,96254054423678E-02 
617	 1,91250949023598E-02 
618	 1,85983035929396E-02 
619	 0,018411229616913 
620	 1,93124916205809E-02 
621	 1,96731516678768E-02 
622	 1,90896820844176E-02 
623	 1,85158887756522E-02 
624	 0,01839312962997 
625	 1,90691687974217E-02 
626	 0,01939842766895 
627	 1,92818558907565E-02 
628	 1,91859352418557E-02 
629	 1,93801739728616E-02 
630	 1,99387839112572E-02 
631	 2,02305734595431E-02 
632	 2,01364355019361E-02 
633	 1,95657262853739E-02 
634	 1,95455468685447E-02 
635	 2,01924961904183E-02 
636	 2,05604983020377E-02 
637	 0,020712806003719 
638	 2,07548319369228E-02 
639	 2,10937343977512E-02 
640	 2,15816329322804E-02 
641	 0,021604797160091 
642	 2,18098342328983E-02 
643	 2,23358871673732E-02 
644	 2,23754120011362E-02 
645	 2,22257960253663E-02 
646	 2,23647198262253E-02 
647	 0,022492033728974 
648	 2,25112715280766E-02 
649	 2,23375651337146E-02 
650	 2,21761512574735E-02 
651	 2,21548925026882E-02 
652	 2,20719253241411E-02 
653	 2,19402351362364E-02 
654	 2,19212362724033E-02 
655	 2,13100315314462E-02 
656	 2,01737729313811E-02 
657	 2,00308623009525E-02 
658	 2,01900440681163E-02 
659	 1,98524330276105E-02 
660	 1,96563083003384E-02 
661	 1,95502016996191E-02 
662	 1,90857579834172E-02 
663	 1,83151018096613E-02 
664	 1,73903670150719E-02 
665	 0,017077997919373 
666	 1,72473210817727E-02 
667	 1,75523510021084E-02 
668	 1,77494931079075E-02 
669	 1,77265221156416E-02 
670	 1,75617382733449E-02 
671	 1,70817123700396E-02 
672	 1,62238614950732E-02 
673	 1,58173638988716E-02 
674	 0,015980259413099 
675	 1,66476396383513E-02 
676	 1,73189201142137E-02 
677	 0,017584763665789 
678	 1,65174680385594E-02 
679	 1,56817301210921E-02 
680	 1,69685416115647E-02 
681	 1,76542656997732E-02 
682	 1,73803912902029E-02 
683	 1,71305326638064E-02 
684	 1,73700666370328E-02 
685	 1,82748780586689E-02 
686	 1,86192010802015E-02 
687	 0,018741843522738 
688	 1,95526429595211E-02 
689	 2,03921521022713E-02 
690	 0,021067363698975 
691	 2,15308967665978E-02 
692	 2,23894949737064E-02 
693	 2,41529601215009E-02 
694	 2,60247738057367E-02 
695	 2,80076761220406E-02 
696	 3,05005214911492E-02 
697	 3,33119575905263E-02 
698	 3,64351829467479E-02 
699	 0,040281769337538 
700	 4,43409356818673E-02 
701	 0,047945291010382 
702	 5,22555877520374E-02 
703	 5,72604552575332E-02 
704	 6,19912233024447E-02 
705	 6,65895375323491E-02 
706	 7,11783117404188E-02 
707	 7,59670972269494E-02 
708	 8,08444613058691E-02 
709	 8,55771559029518E-02 
710	 8,99575382787987E-02 
711	 9,40044708482886E-02 
712	 9,81159138229054E-02 
713	 0,102249049320629 
714	 0,106324238859904 
715	 0,110086688124813 
716	 0,113478816499598 
717	 0,116533085534835 
718	 0,119228157154923 
719	 0,121691308665141 
720	 0,124586134461242 
721	 0,127560185199893 
722	 0,130105593600291 
723	 0,131997530702879 
724	 0,133423379616079 
725	 0,135193853355006 
726	 0,136948713156003 
727	 0,138466943302703 
728	 0,13989352609413 
729	 0,141194315247886 
730	 0,142256995065478 
731	 0,143457193139256 
732	 0,144730110124787 
733	 0,145278454705852 
734	 0,145664311713475 
735	 0,146395916574516 
736	 0,147186677992566 
737	 0,147911894340576 
738	 0,148393904311334 
739	 0,148773156477404 
740	 0,149168238611524 
741	 0,149912056754762 
742	 0,150590550532403 
743	 0,150711547511425 
744	 0,151081900927722 
745	 0,151707338074964 
746	 0,151990222120619 
747	 0,152310082005891 
748	 0,152795995373199 
749	 0,152870040864018 
750	 0,152786255359592 
751	 0,15302418762652 
752	 0,153399487290867 
753	 0,153819890689117 
754	 0,154162676618557 
755	 0,154337967686288 
756	 0,15429533021001 
757	 0,154146139187847 
758	 0,154124642388785 
759	 0,154657713282201 
760	 0,155137896582327 
761	 0,155340652634118 
762	 0,155276564778268 
763	 0,155355717666541 
764	 0,155911810724211 
765	 0,155974989185844 
766	 0,1556839831472 
767	 0,155873204865943 
768	 0,156208982126009 
769	 0,156519902970741 
770	 0,15656252250471 
771	 0,156507507040915 
772	 0,156584804104684 
773	 0,156834534369342 
774	 0,15719338650872 
775	 0,157488604223046 
776	 0,157500553327396 
777	 0,157187792650024 
778	 0,157098132853526 
779	 0,157340537917932 
780	 0,157974057849797 
781	 0,158136693199242 
782	 0,157822917412973 
783	 0,157923652056305 
784	 0,158238169433972 
785	 0,158571058806441 
786	 0,158447100686641 
787	 0,158130223074646 
788	 0,15819623608957 
789	 0,158497334528565 
790	 0,158917584616652 
791	 0,159199040986771 
792	 0,15918327445964 
793	 0,158824804065198 
794	 0,158938832566206 
795	 0,159374803204365 
796	 0,159475890766083 
797	 0,159770246208885 
798	 0,16026677766511 
799	 0,160198265071138 
800	 0,160109424950098 
801	 0,160499063899756 
802	 0,1604527579056 
803	 0,160157962276162 
804	 0,160512554900328 
805	 0,160961464747875 
806	 0,161247295971418 
807	 0,161134094667137 
808	 0,161021882407604 
809	 0,16133409987729 
810	 0,161465828535129 
811	 0,161389279999823 
812	 0,161332235771736 
813	 0,161554913673376 
814	 0,162122775861996 
815	 0,162670783251907 
816	 0,162929215362724 
817	 0,162653365058475 
818	 0,162570301461533 
819	 0,162782080602931 
820	 0,163049844573815 
821	 0,163153891418521 
822	 0,163029866272003 
823	 0,163061328751781 
824	 0,163261894147937 
825	 0,163589269223312 
826	 0,163833659350887 
827	 0,163953775544917 
828	 0,164070110341422 
829	 0,163897906209807 
830	 0,163491527520012 
831	 0,164244967345806 
832	 0,165165437355176 
833	 0,164728635965533 
834	 0,164495182693214 
835	 0,16463765638588 
836	 0,164291291797063 
837	 0,164440688983064 
838	 0,165410977295548 
839	 0,165572799482917 
840	 0,165166850264914 
841	 0,164806186992581 
842	 0,164717189871301 
843	 0,165004846039419 
844	 0,165777326216748 
845	 0,166109503768749 
846	 0,16564925198067 
847	 0,165897140331153 
848	 0,166505173112945 
849	 0,166742371179024 
850	 0,166555172663812 
851	 0,166090196151233 
852	 0,165855547027155 
853	 0,165929607904837 
854	 0,166310109689241 
855	 0,166629388242026 
856	 0,16676318629478 
857	 0,166620836672978 
858	 0,166599959805675 
859	 0,16678743370022 
860	 0,167199865969193 
861	 0,167021785519244 
862	 0,166084106046056 
863	 0,166187087532249 
864	 0,167146702059078 
865	 0,168423642867454 
866	 0,168505657555584 
867	 0,167666404044038 
868	 0,168049773266031 
869	 0,168106583667927 
870	 0,167395158782611 
871	 0,16782676952982 
872	 0,168710679899225 
873	 0,169020607884531 
874	 0,169431096473764 
875	 0,169802503495065 
876	 0,169319080833504 
877	 0,169079720687254 
878	 0,169455897929134 
879	 0,169627581016717 
880	 0,169503456560765 
881	 0,169107243732866 
882	 0,169411809044483 
883	 0,170165024605358 
884	 0,170173185786195 
885	 0,170069417623619 
886	 0,170164443533349 
887	 0,170915106522321 
888	 0,171473820898417 
889	 0,171116839064232 
890	 0,17141565377424 
891	 0,172099256219543 
892	 0,171931706173661 
893	 0,171903630546698 
894	 0,172126545378942 
895	 0,171643065280923 
896	 0,171137402784217 
897	 0,17115048297096 
898	 0,171124919763511 
899	 0,171289325625683 
900	 0,172222683286333 
901	 0,172488628479135 
902	 0,171982630880476 
903	 0,172016275888114 
904	 0,172128402357792 
905	 0,172083431366048 
906	 0,172336808374554 
907	 0,172785281853915 
908	 0,173209234829246 
909	 0,173136024148972 
910	 0,1725930041356 
911	 0,171903886787862 
912	 0,17215362530344 
913	 0,173550757797193 
914	 0,173934803566863 
915	 0,173782574420078 
916	 0,173830517015443 
917	 0,173501716328519 
918	 0,173033801911314 
919	 0,173221713975582 
920	 0,173636146536032 
921	 0,173970422587227 
922	 0,173562197370597 
923	 0,173136860435314 
924	 0,173240380981463 
925	 0,172706640541655 
926	 0,171880785936497 
927	 0,171669504044567 
928	 0,171960219119307 
929	 0,172517380290561 
930	 0,172642043027138 
931	 0,172509489614075 
932	 0,172194727609188 
933	 0,171430756370602 
934	 0,170780252689013 
935	 0,170958772252747 
936	 0,171874470549428 
937	 0,172722254399832 
938	 0,171330877465902 
939	 0,170252988151922 
940	 0,170330388199367 
941	 0,170165694781736 
942	 0,170443017669691 
943	 0,171507070910271 
944	 0,169895855060534 
945	 0,166962331262402 
946	 0,166183099060339 
947	 0,167123088773008 
948	 0,168763116769336 
949	 0,167821015467402 
950	 0,166450524657738 
951	 0,165821627358265 
952	 0,164812625935285 
953	 0,16338858140306 
954	 0,161688719633703 
955	 0,160930797211016 
956	 0,16113059058942 
957	 0,161837330157506 
958	 0,160815938560502 
959	 0,158196651021681 
960	 0,158512293929046 
961	 0,159896019779904 
962	 0,160621103462709 
963	 0,159990886290716 
964	 0,158833284744355 
965	 0,158604804577107 
966	 0,158700958202867 
967	 0,158832539491 
968	 0,158480169627926 
969	 0,158377914895137 
970	 0,15883227130644 
971	 0,159857081305822 
972	 0,159828697254369 
973	 0,157585234141817 
974	 0,156683998694441 
975	 0,157321321197053 
976	 0,158700134970711 
977	 0,159053441963295 
978	 0,158198129435498 
979	 0,157421999287137 
980	 0,157780118404564 
981	 0,159427256121218 
982	 0,159940248558733 
983	 0,159114937719826 
984	 0,157284574426811 
985	 0,158270844468071 
986	 0,160907892237599 
987	 0,16161005988104 
988	 0,160596984464121 
989	 0,15890878173335 
990	 0,160233900185373 
991	 0,161560194753799 
992	 0,161621799296315 
993	 0,163360900688026 
994	 0,164378665707733 
995	 0,162309224513155 
996	 0,161817992713169 
997	 0,162400655019317 
998	 0,161187347244957 
999	 0,16377157766688 
1000	 0,168513458517674 
1001	 0,163846502008726 
1002	 0,160289875348059 
1003	 0,162680609283781 
1004	 0,164943860400472 
1005	 0,166590715168215 
1006	 0,167515421404275 
1007	 0,167761533360565 
1008	 0,166997423869445 
1009	 0,164510967427378 
1010	 0,167307546883602 
1011	 0,174030627800661 
1012	 0,174109659761374 
1013	 0,173791617411603 
1014	 0,175006884871373 
1015	 0,172942343933934 
1016	 0,171724904287229 
1017	 0,174373574746772 
1018	 0,173609139735071 
1019	 0,171964655717964 
1020	 0,174669001380247 
1021	 0,175116572641142 
1022	 0,173112351634559 
1023	 0,172088394978993 
1024	 0,174065408021579 
1025	 0,178437515648776 
1026	 0,178823302286422 
1027	 0,178221652046135 
1028	 0,178580592493232 
1029	 0,177892304539244 
1030	 0,177462533437453 
1031	 0,178900554672123 
1032	 0,180651159521317 
1033	 0,181175671090249 
1034	 0,178069412290356 
1035	 0,178628078025363 
1036	 0,18271253731591 
1037	 0,181821592806219 
1038	 0,182052197452789 
1039	 0,184726896791366 
1040	 0,181138862843546 
1041	 0,18098254086684 
1042	 0,189890708969015 
1043	 0,184382103587669 
1044	 0,173844843741306 
1045	 0,17581922868116 
1046	 0,181044454747882 
1047	 0,187376047791664 
1048	 0,194733644389612 
1049	 0,19730344513022 
1050	 0,192733127413482 
1051	 0,179460351567844 
1052	 0,173215640235506 
1053	 0,180563243517826 
1054	 0,187219891153613 
1055	 0,188043769533409 
1056	 0,181547237446686 
1057	 0,188472469290443 
1058	 0,196466948853159 
1059	 0,185571987205519 
1060	 0,189065392962967 
1061	 0,19944753689826 
1062	 0,182441680271775 
1063	 0,186615349308999 
1064	 0,209999219948517 
1065	 0,192393180113543 
1066	 0,172640373306664 
1067	 0,171606539661719 
1068	 0,186467633382908 
1069	 0,204395635244541 
1070	 0,212284645274083 
1071	 0,197469829977419 
1072	 0,180170220900829 
1073	 0,184218723890589 
1074	 0,181054831085124 
1075	 0,169987144495485 
