Wavelength	AVEN00066.asd
325	 0,191820998235914 
326	 0,177786498167383 
327	 0,130005049565472 
328	 4,55940847601611E-02 
329	 0,147070176793021 
330	 0,292933488962399 
331	 0,390785666369635 
332	 0,298473982856453 
333	 0,112299613045882 
334	 3,85836600747124E-02 
335	 0,143425408157092 
336	 0,336603548139228 
337	 0,321254351666449 
338	 0,209727258144975 
339	 0,108475390156062 
340	 9,25179767922757E-02 
341	 0,149561011389696 
342	 0,218671201470085 
343	 0,288152438966535 
344	 0,335307895264035 
345	 0,300838678675409 
346	 0,257702210265692 
347	 0,287027376857158 
348	 0,295018077216423 
349	 0,281348038452593 
350	 0,286594972442533 
351	 0,301327303825112 
352	 0,317575943961451 
353	 0,321648512446782 
354	 0,31749713670573 
355	 0,31004194033394 
356	 0,30626965870638 
357	 0,309852673447447 
358	 0,3256295731581 
359	 0,334704067871539 
360	 0,331210439774624 
361	 0,340314990665449 
362	 0,349392925200945 
363	 0,338696370357561 
364	 0,33619778830467 
365	 0,3485468766004 
366	 0,377265546339734 
367	 0,392278119092505 
368	 0,374752305688406 
369	 0,354248281268249 
370	 0,336933144122493 
371	 0,325557151906491 
372	 0,345682537958641 
373	 0,38873379058923 
374	 0,397316909595958 
375	 0,382649911162757 
376	 0,359411804657614 
377	 0,366852960087047 
378	 0,389517747955834 
379	 0,374265571416907 
380	 0,376556640216078 
381	 0,399489847347288 
382	 0,377662917752375 
383	 0,355560805554755 
384	 0,378530990296216 
385	 0,390272260654456 
386	 0,387437153197751 
387	 0,390230774500305 
388	 0,390733282573606 
389	 0,3904392564691 
390	 0,413261841160605 
391	 0,432967333987719 
392	 0,419921795303754 
393	 0,412265115567819 
394	 0,412627573074671 
395	 0,397212389025886 
396	 0,396625142625569 
397	 0,42050040757268 
398	 0,420427033842096 
399	 0,408483575798751 
400	 0,41054230354094 
401	 0,419584567058691 
402	 0,430180202566371 
403	 0,428862828544999 
404	 0,425240837261393 
405	 0,426283260183788 
406	 0,430799390617112 
407	 0,434569642471473 
408	 0,429036381952496 
409	 0,431095984175288 
410	 0,44084154710072 
411	 0,432564843207848 
412	 0,425262595401514 
413	 0,436537224842567 
414	 0,441637957496806 
415	 0,439527535141462 
416	 0,43936973949325 
417	 0,439418812084559 
418	 0,439288090353753 
419	 0,439943208231634 
420	 0,439112364375084 
421	 0,433749907874154 
422	 0,440229852461586 
423	 0,45351147552617 
424	 0,444915483481912 
425	 0,435324500656189 
426	 0,437295326430185 
427	 0,441072084391212 
428	 0,443557909469464 
429	 0,441582961479534 
430	 0,439284435430407 
431	 0,438444221651833 
432	 0,440758522121951 
433	 0,443192321418396 
434	 0,443243877022733 
435	 0,445052448991962 
436	 0,448074219286526 
437	 0,449618295113622 
438	 0,44825390615713 
439	 0,444333467166691 
440	 0,443731969828985 
441	 0,445051808032669 
442	 0,445816532059393 
443	 0,445559797948724 
444	 0,444916690763052 
445	 0,446799775516314 
446	 0,448088332234674 
447	 0,44712227645463 
448	 0,447413851322832 
449	 0,448971351909663 
450	 0,451162874870797 
451	 0,450684853188 
452	 0,447717543707345 
453	 0,44822623333123 
454	 0,449582668527318 
455	 0,449221397246252 
456	 0,450068019984875 
457	 0,451798318045569 
458	 0,452366270422724 
459	 0,451851584706092 
460	 0,450911957166037 
461	 0,453503999275527 
462	 0,457025441642905 
463	 0,457597934356255 
464	 0,456702718592927 
465	 0,455483916386084 
466	 0,456498559957442 
467	 0,457887318483998 
468	 0,458360422180483 
469	 0,458062730229944 
470	 0,457576566505768 
471	 0,457904900042842 
472	 0,459120016170868 
473	 0,460673757449138 
474	 0,459986418912408 
475	 0,458623121821425 
476	 0,458342541114604 
477	 0,460902624386849 
478	 0,464521874192423 
479	 0,463205405224567 
480	 0,462112958885645 
481	 0,463416078415451 
482	 0,46467965317072 
483	 0,46433689925098 
484	 0,460423839654433 
485	 0,458992635504736 
486	 0,460979756439336 
487	 0,463064321517019 
488	 0,46445608131526 
489	 0,464712057035258 
490	 0,465774828943368 
491	 0,466936083496159 
492	 0,46589534227634 
493	 0,46429724012086 
494	 0,463248643039664 
495	 0,465015205651452 
496	 0,467176695720947 
497	 0,466877572825515 
498	 0,466785863955807 
499	 0,467197596401041 
500	 0,467217227347697 
501	 0,466698782590466 
502	 0,465855400971338 
503	 0,466949507341011 
504	 0,469119794836738 
505	 0,470562241036884 
506	 0,470754627537558 
507	 0,469830096344988 
508	 0,469150631763507 
509	 0,469576357144608 
510	 0,471655741622652 
511	 0,472678635734591 
512	 0,472761024904877 
513	 0,473802210349099 
514	 0,474205170391359 
515	 0,473739891343066 
516	 0,475531842861134 
517	 0,477653039251938 
518	 0,47709314498858 
519	 0,476446869897342 
520	 0,476487643374313 
521	 0,477455968392414 
522	 0,478091338858801 
523	 0,477575967922938 
524	 0,477515468223195 
525	 0,477828788916774 
526	 0,477612652223441 
527	 0,47810383280847 
528	 0,479321185724313 
529	 0,479122853939592 
530	 0,478179918260647 
531	 0,477450515874124 
532	 0,478251620709424 
533	 0,480014209944173 
534	 0,47991215773925 
535	 0,48001700234462 
536	 0,48123973313316 
537	 0,480385128106229 
538	 0,478736504851579 
539	 0,479397020612524 
540	 0,479992802191561 
541	 0,479946230463138 
542	 0,480154679675515 
543	 0,480240817803155 
544	 0,479837779274058 
545	 0,479688416763857 
546	 0,479980345137859 
547	 0,48083604265004 
548	 0,481370798502552 
549	 0,481324759482274 
550	 0,48248487307054 
551	 0,483554765618417 
552	 0,482167351008739 
553	 0,482143408811529 
554	 0,483761555844852 
555	 0,483482189554698 
556	 0,482708761555436 
557	 0,482695585279278 
558	 0,483080312287199 
559	 0,483491145543077 
560	 0,483166789509798 
561	 0,482607272929294 
562	 0,482067868958207 
563	 0,481695217504391 
564	 0,48164247549808 
565	 0,482076388889677 
566	 0,481941628343389 
567	 0,481407806932424 
568	 0,482037033495729 
569	 0,483097281579603 
570	 0,48402766424073 
571	 0,484743892447557 
572	 0,485415911007612 
573	 0,486506174011913 
574	 0,487428280461294 
575	 0,487989356830221 
576	 0,488402016036841 
577	 0,488745556522654 
578	 0,489099035894462 
579	 0,489700668911396 
580	 0,490613628812953 
581	 0,491829000792553 
582	 0,493124457860355 
583	 0,494300587572423 
584	 0,495048302509898 
585	 0,495661976798932 
586	 0,496715635956041 
587	 0,497900265309437 
588	 0,498932480464651 
589	 0,498996285540247 
590	 0,499110213687985 
591	 0,500198220244246 
592	 0,500901508607799 
593	 0,501119147113911 
594	 0,501267539751909 
595	 0,501747322938427 
596	 0,502619620483351 
597	 0,502790382308455 
598	 0,502544801572763 
599	 0,502464573114535 
600	 0,502979384328531 
601	 0,503835927373054 
602	 0,50350908332438 
603	 0,503064272138396 
604	 0,503304254091585 
605	 0,503118123541904 
606	 0,502442493868804 
607	 0,501487442425049 
608	 0,50090053560319 
609	 0,500856433866462 
610	 0,500570113154545 
611	 0,500146279038184 
612	 0,499800353327949 
613	 0,499917596348258 
614	 0,500201807752391 
615	 0,499327773543045 
616	 0,498461048024686 
617	 0,498381854086287 
618	 0,498845500750531 
619	 0,499416169045651 
620	 0,499376117951686 
621	 0,498984135119615 
622	 0,498415444100373 
623	 0,497998641033959 
624	 0,498029244324377 
625	 0,498740585185997 
626	 0,499104827432171 
627	 0,499118021541917 
628	 0,499515908322536 
629	 0,499862924062874 
630	 0,499993027519098 
631	 0,500361941764055 
632	 0,500812777940091 
633	 0,50100444613923 
634	 0,501277450442603 
635	 0,501777956067513 
636	 0,502690587874768 
637	 0,503502326113794 
638	 0,503799048932198 
639	 0,504151693755394 
640	 0,504697457250842 
641	 0,505565956164505 
642	 0,506076848234707 
643	 0,506091871478718 
644	 0,50668639143043 
645	 0,50745631127094 
646	 0,507759497399252 
647	 0,507483037051989 
648	 0,506828921783885 
649	 0,506674276421775 
650	 0,506212273400837 
651	 0,505026721899824 
652	 0,504514385635766 
653	 0,504446808673872 
654	 0,503958835281873 
655	 0,503161425739748 
656	 0,502280936210636 
657	 0,50245275302743 
658	 0,502380997778287 
659	 0,500717914488016 
660	 0,499163642703349 
661	 0,498001923023828 
662	 0,496777501310724 
663	 0,496061346805989 
664	 0,495984542023474 
665	 0,495389829021951 
666	 0,494357698880987 
667	 0,49321391995946 
668	 0,492612915238522 
669	 0,492573361065563 
670	 0,492269934154178 
671	 0,491952875499945 
672	 0,491814447720643 
673	 0,491477930269832 
674	 0,491080641695595 
675	 0,491076815363011 
676	 0,491249164101417 
677	 0,491440907112679 
678	 0,49121128055089 
679	 0,491076880435615 
680	 0,49168003608591 
681	 0,492553217411466 
682	 0,493402702723723 
683	 0,493615231901568 
684	 0,494300110920251 
685	 0,495956425893706 
686	 0,496799124108243 
687	 0,497437501154576 
688	 0,499329411392063 
689	 0,501750512595248 
690	 0,504456926063945 
691	 0,507188088991123 
692	 0,510495085240203 
693	 0,514820762416786 
694	 0,518940472916759 
695	 0,52287240467695 
696	 0,527242716590446 
697	 0,532136796674944 
698	 0,537580261742245 
699	 0,543374475044653 
700	 0,548999391736338 
701	 0,553876926725098 
702	 0,558929660568204 
703	 0,564197267087591 
704	 0,569028722076924 
705	 0,573659800801989 
706	 0,578218040611667 
707	 0,582407289595069 
708	 0,586177195265181 
709	 0,589520168391359 
710	 0,592491544221457 
711	 0,595245074637699 
712	 0,598262142622893 
713	 0,601082827671542 
714	 0,603273712437926 
715	 0,605182824340576 
716	 0,606961380425446 
717	 0,608802483946766 
718	 0,610509019571161 
719	 0,611969784282302 
720	 0,613017298629534 
721	 0,614038112792811 
722	 0,615538193438609 
723	 0,616446289788781 
724	 0,616797292699876 
725	 0,617608013934868 
726	 0,61846820992092 
727	 0,619146382193042 
728	 0,619937466095062 
729	 0,620705181187638 
730	 0,621155834306616 
731	 0,621417649295881 
732	 0,621611347202631 
733	 0,622000174867896 
734	 0,622593964801609 
735	 0,623341822251599 
736	 0,623626914554945 
737	 0,623562727100962 
738	 0,62373711426388 
739	 0,623795595738342 
740	 0,623760769991234 
741	 0,624472051603643 
742	 0,625110175903574 
743	 0,624686503529565 
744	 0,624592492322811 
745	 0,624995267925154 
746	 0,625403341075967 
747	 0,625585713509713 
748	 0,625419098405051 
749	 0,625067989917667 
750	 0,62495367316472 
751	 0,625690889626849 
752	 0,625907924677273 
753	 0,625421637101949 
754	 0,625095079609339 
755	 0,625081971904076 
756	 0,625428779969463 
757	 0,625461660270002 
758	 0,625280769578906 
759	 0,625320150841738 
760	 0,625417309308819 
761	 0,625501218451683 
762	 0,625431293824328 
763	 0,625453096291364 
764	 0,625769448997369 
765	 0,625721894226573 
766	 0,625479489692517 
767	 0,625868482630667 
768	 0,625999557646201 
769	 0,625635112806686 
770	 0,625561312736739 
771	 0,625733930367091 
772	 0,626010755521896 
773	 0,626071180223883 
774	 0,625898567543715 
775	 0,625700644973048 
776	 0,625585484538375 
777	 0,625604051079952 
778	 0,625621676211177 
779	 0,625559008850548 
780	 0,625320548441959 
781	 0,62540948757531 
782	 0,625828407122532 
783	 0,626110171125638 
784	 0,626190853158836 
785	 0,625999806692481 
786	 0,625308119725019 
787	 0,624674507428385 
788	 0,625123290475006 
789	 0,625437446602567 
790	 0,625330251376161 
791	 0,625332296522071 
792	 0,625266219189278 
793	 0,625020728194389 
794	 0,625066490141638 
795	 0,625208688320567 
796	 0,624830926913253 
797	 0,624674159806858 
798	 0,624890339808943 
799	 0,624883725513495 
800	 0,624977301332227 
801	 0,625451344440652 
802	 0,625558356311393 
803	 0,625293915605612 
804	 0,624968822766598 
805	 0,624915622792422 
806	 0,625186905112216 
807	 0,625234163280815 
808	 0,624982458212724 
809	 0,624436524774897 
810	 0,624362198647945 
811	 0,624702983784186 
812	 0,624837528334049 
813	 0,624808386184026 
814	 0,624683567770215 
815	 0,624890649129982 
816	 0,625175803320355 
817	 0,625198263485226 
818	 0,625116304603884 
819	 0,625023475756601 
820	 0,625126485579126 
821	 0,625039918647095 
822	 0,624659397661909 
823	 0,624548532389449 
824	 0,624694192247765 
825	 0,624992923478311 
826	 0,62495130844034 
827	 0,624661361943439 
828	 0,624862963050335 
829	 0,624952039256309 
830	 0,624731503936349 
831	 0,625107478461826 
832	 0,625632629682087 
833	 0,625581646191936 
834	 0,625417043341836 
835	 0,625179046934534 
836	 0,624514024369239 
837	 0,62442724507907 
838	 0,625196628583716 
839	 0,624556570250545 
840	 0,623648011450964 
841	 0,624406084672101 
842	 0,624739086273249 
843	 0,624424308643923 
844	 0,624556609680616 
845	 0,624704485869972 
846	 0,624656907881101 
847	 0,624605006432306 
848	 0,624651468006846 
849	 0,624908802284955 
850	 0,62473058161502 
851	 0,624122997382672 
852	 0,623588425619938 
853	 0,623587103780566 
854	 0,62415903351388 
855	 0,623580748748739 
856	 0,622918645459358 
857	 0,623853114769226 
858	 0,624399585717717 
859	 0,624186775408369 
860	 0,623677816573281 
861	 0,623294499308566 
862	 0,623278155780507 
863	 0,623373421701918 
864	 0,623553966019645 
865	 0,623815041166601 
866	 0,623905970288433 
867	 0,623887039809181 
868	 0,624167748589771 
869	 0,624355941027041 
870	 0,624247109602565 
871	 0,623759512487632 
872	 0,623554144591922 
873	 0,624370330044107 
874	 0,624789599521149 
875	 0,62463514863974 
876	 0,624408740895609 
877	 0,624083063738561 
878	 0,623758442685574 
879	 0,623849056086831 
880	 0,624039813209272 
881	 0,62397110430183 
882	 0,624033886514858 
883	 0,624243928621879 
884	 0,62444588718928 
885	 0,624701376117802 
886	 0,624893459821006 
887	 0,624427927708106 
888	 0,623795871524068 
889	 0,62354255566132 
890	 0,62414682161535 
891	 0,624997369137738 
892	 0,624591759519535 
893	 0,624154297697524 
894	 0,623965027899931 
895	 0,623372313202679 
896	 0,622865953715142 
897	 0,622841144461414 
898	 0,62307380751399 
899	 0,62332325609329 
900	 0,623225054651718 
901	 0,62342216357873 
902	 0,623761907171581 
903	 0,622873409488148 
904	 0,622496583583906 
905	 0,623505409163968 
906	 0,623736864196661 
907	 0,623326848141668 
908	 0,622868520465209 
909	 0,622979492297784 
910	 0,623410370608395 
911	 0,6226354117453 
912	 0,622738742754903 
913	 0,624245710027738 
914	 0,623971289868959 
915	 0,623251192154125 
916	 0,62381188009512 
917	 0,624258956560446 
918	 0,624346951070926 
919	 0,624215533730864 
920	 0,623710834494525 
921	 0,622909372041756 
922	 0,622190388232776 
923	 0,622178069868262 
924	 0,62323516577302 
925	 0,623989547924883 
926	 0,623934871102917 
927	 0,622618212189347 
928	 0,621934539373831 
929	 0,622183702743729 
930	 0,622124328492303 
931	 0,622039981968966 
932	 0,622018393898643 
933	 0,621486876030799 
934	 0,621196189270235 
935	 0,622097841090008 
936	 0,621954915515646 
937	 0,620815894877621 
938	 0,62008346873134 
939	 0,620692287065142 
940	 0,622463521232107 
941	 0,622351179038031 
942	 0,621390536027474 
943	 0,620720841771444 
944	 0,620619121877761 
945	 0,62036995443558 
946	 0,61845727554288 
947	 0,617998999566184 
948	 0,619192796546753 
949	 0,619444094889396 
950	 0,61845799467257 
951	 0,616494561049249 
952	 0,6166161674541 
953	 0,616759171941695 
954	 0,614248067360113 
955	 0,61397201234872 
956	 0,615561552297641 
957	 0,61550167654889 
958	 0,614323901803098 
959	 0,612588313604724 
960	 0,612384253990717 
961	 0,612458033624704 
962	 0,611953249785802 
963	 0,612813808438819 
964	 0,613626664901784 
965	 0,611922512276914 
966	 0,611892412988337 
967	 0,61359189370102 
968	 0,613933028113947 
969	 0,613240163472991 
970	 0,612221638971896 
971	 0,614178301129583 
972	 0,616304835582013 
973	 0,615820113217059 
974	 0,613688614098247 
975	 0,610971192223587 
976	 0,609102827762337 
977	 0,610083095412915 
978	 0,612991573480143 
979	 0,61287280837051 
980	 0,61143871976537 
981	 0,610014719897338 
982	 0,611126441557535 
983	 0,611837765321211 
984	 0,609445672357936 
985	 0,611025427354941 
986	 0,614710620146547 
987	 0,614507455824143 
988	 0,613310691959055 
989	 0,612224946627906 
990	 0,612116163491838 
991	 0,612938835407999 
992	 0,61422934843895 
993	 0,613651146522023 
994	 0,612436765802297 
995	 0,612110106588879 
996	 0,612669699221968 
997	 0,613519403962927 
998	 0,613395299510731 
999	 0,615224333256304 
1000	 0,618137033082952 
1001	 0,61607424509459 
1002	 0,614420245889268 
1003	 0,61568535494302 
1004	 0,617076417731952 
1005	 0,617626351097524 
1006	 0,616773511588179 
1007	 0,616851589433027 
1008	 0,61743095717678 
1009	 0,617020483242746 
1010	 0,615719268245365 
1011	 0,614965558980332 
1012	 0,619792291015003 
1013	 0,621218572775292 
1014	 0,616593127574064 
1015	 0,614723730094159 
1016	 0,615889037296528 
1017	 0,619264387435322 
1018	 0,619701090508821 
1019	 0,617045639659872 
1020	 0,612665195837574 
1021	 0,613978578655115 
1022	 0,619118687799937 
1023	 0,61751993618771 
1024	 0,615825694701367 
1025	 0,615780202252072 
1026	 0,614661660937644 
1027	 0,615005113155372 
1028	 0,617823814410061 
1029	 0,617923129426636 
1030	 0,617589761908718 
1031	 0,619808262081622 
1032	 0,618406148955713 
1033	 0,615699724226816 
1034	 0,618561027304116 
1035	 0,621031612542777 
1036	 0,62081915054573 
1037	 0,61613409710978 
1038	 0,614015143258681 
1039	 0,616490490448009 
1040	 0,614589453499013 
1041	 0,61268998941734 
1042	 0,614695571048942 
1043	 0,619501546289339 
1044	 0,622611288558755 
1045	 0,6183201135678 
1046	 0,616838984138366 
1047	 0,618450701593519 
1048	 0,618389233777824 
1049	 0,617573330710642 
1050	 0,615185700494391 
1051	 0,607051469277928 
1052	 0,60243815343742 
1053	 0,606255924584678 
1054	 0,615760923707907 
1055	 0,622654582454726 
1056	 0,62060251564903 
1057	 0,616475620068138 
1058	 0,613411521008216 
1059	 0,614089807763384 
1060	 0,615806845558561 
1061	 0,617057448192317 
1062	 0,615859465494355 
1063	 0,615578191773328 
1064	 0,615289841129515 
1065	 0,608253109708982 
1066	 0,597408413133727 
1067	 0,590267143371081 
1068	 0,612543734581727 
1069	 0,625561896723055 
1070	 0,604672122880074 
1071	 0,60222964182743 
1072	 0,608211679654013 
1073	 0,604715888344037 
1074	 0,606835079328444 
1075	 0,609337978672137 
