Wavelength	AVEN00519.asd
325	 2,48499280028425E-02 
326	-1,53523348843169E-02 
327	-7,31628883514498E-02 
328	-0,137104268062673 
329	-4,40338431537382E-02 
330	 7,14220181148155E-02 
331	 0,128653243489492 
332	 7,46130628999155E-02 
333	-9,04505251520177E-03 
334	 7,47726320031312E-02 
335	 9,15901057016672E-02 
336	 2,15112751019672E-02 
337	 9,79792548982483E-02 
338	 0,149996562744023 
339	 2,62819413479678E-02 
340	-0,021422142504589 
341	 1,73253582385665E-02 
342	 6,77532630492029E-02 
343	 7,95771540804418E-02 
344	 5,25427413270591E-02 
345	 4,86666045500752E-02 
346	 4,97842887411013E-02 
347	 3,59873283632402E-02 
348	 3,86491553650341E-02 
349	 4,85620569096906E-02 
350	 2,38571492584129E-02 
351	 2,60777374247527E-02 
352	 6,95398745633939E-02 
353	 9,91636977762271E-02 
354	 0,105025851146368 
355	 8,02968830981809E-02 
356	 5,59058571527186E-02 
357	 4,42645715231458E-02 
358	 5,82291826688025E-02 
359	 4,49399343835606E-02 
360	-9,72084988793565E-03 
361	 5,9546733273915E-03 
362	 4,84092288939295E-02 
363	 4,35307892823102E-02 
364	 4,99450388433343E-02 
365	 6,93780232706707E-02 
366	 0,068487851391661 
367	 6,10149506729849E-02 
368	 5,44689978974422E-02 
369	 3,36199370903599E-02 
370	 9,29187594595065E-03 
371	 3,70474824987929E-03 
372	 2,06753137442376E-02 
373	 5,06357233270432E-02 
374	 5,63472190958436E-02 
375	 4,70783466297118E-02 
376	 0,032768460810698 
377	 2,55162492446838E-02 
378	 2,29147248573883E-02 
379	 1,25660858145991E-02 
380	 2,30260110381519E-02 
381	 5,12273748193663E-02 
382	 5,17716370361651E-02 
383	 3,25302755289214E-02 
384	 5,63682924675478E-03 
385	 5,33544068783815E-03 
386	 2,58584609582403E-02 
387	 3,56479287335014E-02 
388	 3,96273036102435E-02 
389	 4,09274447338607E-02 
390	 5,38421190905846E-02 
391	 5,76952209796276E-02 
392	 2,88811179027897E-02 
393	 2,37038419139044E-02 
394	 4,25718034698936E-02 
395	 4,58929892946548E-02 
396	 4,23937584524823E-02 
397	 3,69924524315846E-02 
398	 3,28394603364292E-02 
399	 3,07589981714495E-02 
400	 3,11702532616626E-02 
401	 2,95336630801638E-02 
402	 2,76561573351622E-02 
403	 3,65619267796775E-02 
404	 4,57090815108365E-02 
405	 4,74624760723465E-02 
406	 4,15216701737456E-02 
407	 3,50403219139191E-02 
408	 4,20110648745616E-02 
409	 4,33889465092807E-02 
410	 3,50561792237499E-02 
411	 2,55127551171715E-02 
412	 0,022181441714371 
413	 3,05184075824536E-02 
414	 3,61536497048804E-02 
415	 3,74215273840528E-02 
416	 3,73630617836266E-02 
417	 0,039648767054935 
418	 4,46244437285167E-02 
419	 0,044512742097779 
420	 4,06818195752306E-02 
421	 3,56554445170745E-02 
422	 3,46150841921706E-02 
423	 3,69064995190594E-02 
424	 0,035603274832459 
425	 3,50378048551131E-02 
426	 3,71746940710886E-02 
427	 3,49489149210878E-02 
428	 3,16970265712277E-02 
429	 3,52320425907271E-02 
430	 3,57231024543545E-02 
431	 0,032405471324849 
432	 3,51032315792558E-02 
433	 3,81356707362789E-02 
434	 3,64574370663233E-02 
435	 3,55936488376521E-02 
436	 3,59239327231636E-02 
437	 3,56035922766684E-02 
438	 3,62781503692617E-02 
439	 3,81209113197393E-02 
440	 3,82599857903836E-02 
441	 3,78260447926613E-02 
442	 3,85723088727807E-02 
443	 3,65547181101729E-02 
444	 3,32929156626506E-02 
445	 0,037101562807698 
446	 3,96919018000493E-02 
447	 3,66202026625981E-02 
448	 3,74231050369801E-02 
449	 4,01172385378174E-02 
450	 3,84702907819968E-02 
451	 3,87761800560779E-02 
452	 4,12687538146816E-02 
453	 3,80413563325909E-02 
454	 0,034375712185652 
455	 3,53734533379295E-02 
456	 3,80056366145361E-02 
457	 4,02151246722922E-02 
458	 3,78567212787484E-02 
459	 3,77489037948554E-02 
460	 0,041629624321361 
461	 4,05660875360444E-02 
462	 3,76994960118576E-02 
463	 0,038296675857593 
464	 3,83564793331252E-02 
465	 3,78965897808402E-02 
466	 4,03372163246974E-02 
467	 4,27915831274914E-02 
468	 0,043357113890549 
469	 4,33429841812524E-02 
470	 4,26924667354324E-02 
471	 4,08764123819896E-02 
472	 3,91646904429391E-02 
473	 3,78738470233019E-02 
474	 3,56652189084972E-02 
475	 3,48869438839654E-02 
476	 0,037644257936978 
477	 0,03841078652221 
478	 3,77725972299452E-02 
479	 4,11955305466659E-02 
480	 4,24130327371601E-02 
481	 0,039497701764872 
482	 4,06022090823672E-02 
483	 4,29258443139311E-02 
484	 4,10812513688017E-02 
485	 3,93210071901591E-02 
486	 3,87038314322479E-02 
487	 3,87038997651165E-02 
488	 3,87402164219176E-02 
489	 3,84447366414811E-02 
490	 3,90214086583661E-02 
491	 3,98036870241004E-02 
492	 3,89338436286872E-02 
493	 3,76236662580278E-02 
494	 3,67203910328746E-02 
495	 3,80411549277226E-02 
496	 3,99856011497927E-02 
497	 4,06102484383425E-02 
498	 3,95958213894706E-02 
499	 3,79875385048743E-02 
500	 3,93660339445065E-02 
501	 0,039735573804131 
502	 3,74926244658245E-02 
503	 3,93682289671509E-02 
504	 4,24709356075409E-02 
505	 4,03641308103636E-02 
506	 3,85900863018978E-02 
507	 3,86477077248025E-02 
508	 0,03921469075853 
509	 4,01553309881928E-02 
510	 4,12863803623957E-02 
511	 4,09267216665285E-02 
512	 3,97848630412857E-02 
513	 4,06096745982692E-02 
514	 4,09536082801416E-02 
515	 4,01619160447705E-02 
516	 4,12714513275128E-02 
517	 0,042785968338779 
518	 4,22938076686288E-02 
519	 4,15538118301759E-02 
520	 4,12423450313927E-02 
521	 4,20129303592725E-02 
522	 4,29126200314849E-02 
523	 4,31908312732174E-02 
524	 0,042686294698917 
525	 4,20595034052043E-02 
526	 4,28262094317942E-02 
527	 0,043730544879714 
528	 4,41340532105142E-02 
529	 4,33572103966269E-02 
530	 4,18746099044023E-02 
531	 4,02972804385636E-02 
532	 4,09008316934618E-02 
533	 4,30993107685125E-02 
534	 0,043523768283902 
535	 4,31190436745196E-02 
536	 4,25113385875531E-02 
537	 4,21515490852169E-02 
538	 4,22121147812283E-02 
539	 4,29258242933019E-02 
540	 4,27913326818006E-02 
541	 4,17762644085869E-02 
542	 4,21439093968002E-02 
543	 4,28616404866468E-02 
544	 4,28248423028399E-02 
545	 4,25455226853137E-02 
546	 4,23787227252378E-02 
547	 4,30579906946691E-02 
548	 4,36441213128841E-02 
549	 4,37006156904085E-02 
550	 4,38014615499902E-02 
551	 4,38173745892283E-02 
552	 4,34193204377781E-02 
553	 4,36365728583598E-02 
554	 4,42275415482161E-02 
555	 4,28769798515165E-02 
556	 4,18318369960071E-02 
557	 4,28854049994596E-02 
558	 4,35193973405758E-02 
559	 4,34233934062982E-02 
560	 4,29714411697072E-02 
561	 4,27316119933324E-02 
562	 4,28914641040136E-02 
563	 4,27636491152908E-02 
564	 4,25817466033208E-02 
565	 4,27266448910183E-02 
566	 4,30583970905395E-02 
567	 4,33880679895046E-02 
568	 4,31540283853724E-02 
569	 0,043132530059559 
570	 4,37910849925441E-02 
571	 4,39350232747632E-02 
572	 4,39843449114125E-02 
573	 4,53727200981178E-02 
574	 4,60835695465492E-02 
575	 4,56296776218839E-02 
576	 4,55162572618553E-02 
577	 4,58302709380528E-02 
578	 4,65242900097823E-02 
579	 4,68611253848269E-02 
580	 0,046924008645407 
581	 0,047583639720538 
582	 4,83255487927639E-02 
583	 0,048814659346462 
584	 4,89128961355226E-02 
585	 4,88931823084652E-02 
586	 4,92080905447176E-02 
587	 5,02268666413991E-02 
588	 5,14717828823544E-02 
589	 5,02855973335768E-02 
590	 4,91955511003338E-02 
591	 5,05436528314008E-02 
592	 5,12593342564966E-02 
593	 5,11764076900684E-02 
594	 5,16633268777392E-02 
595	 5,16651387369844E-02 
596	 5,09217582754094E-02 
597	 5,11016313243077E-02 
598	 5,14698992254862E-02 
599	 5,06542479273751E-02 
600	 0,050144744946785 
601	 5,03272016864598E-02 
602	 5,09865996986172E-02 
603	 5,14843525117437E-02 
604	 5,13152203110996E-02 
605	 0,050717132854415 
606	 5,01363161043523E-02 
607	 5,05742177859573E-02 
608	 5,07478276500371E-02 
609	 5,02294141317015E-02 
610	 4,96702324938265E-02 
611	 4,91836343371047E-02 
612	 4,88347573836259E-02 
613	 4,88246703384323E-02 
614	 4,89788498188949E-02 
615	 4,85965404326302E-02 
616	 4,80836285027582E-02 
617	 4,77460325473832E-02 
618	 4,77302299487109E-02 
619	 4,80558054846512E-02 
620	 4,88089058255869E-02 
621	 4,88958887987206E-02 
622	 4,81210823697889E-02 
623	 4,74369614287481E-02 
624	 4,74672265924058E-02 
625	 4,86951174648124E-02 
626	 4,87464329553685E-02 
627	 4,78434367922857E-02 
628	 4,82539048153989E-02 
629	 4,87043426999591E-02 
630	 4,85938111525566E-02 
631	 4,84699431009619E-02 
632	 4,83732628758556E-02 
633	 4,82412235595799E-02 
634	 4,85097882660926E-02 
635	 4,91742578462862E-02 
636	 4,96941684106459E-02 
637	 4,99936121607822E-02 
638	 5,00668704046327E-02 
639	 5,05768682711858E-02 
640	 5,13414923755027E-02 
641	 0,05157957682664 
642	 5,18161488089742E-02 
643	 5,21857704971004E-02 
644	 0,05218875173783 
645	 5,21982511583372E-02 
646	 5,27463291678093E-02 
647	 5,29433920506206E-02 
648	 5,26845796929313E-02 
649	 5,24843769156653E-02 
650	 5,21361890483205E-02 
651	 5,15634439966662E-02 
652	 5,12645984830017E-02 
653	 5,13090225149752E-02 
654	 5,17889662489066E-02 
655	 5,14454787027423E-02 
656	 5,01496823165594E-02 
657	 4,96363058472035E-02 
658	 4,94132863590645E-02 
659	 4,88657606143806E-02 
660	 4,83878391960807E-02 
661	 4,79582965621417E-02 
662	 4,73213742596529E-02 
663	 4,65975811716885E-02 
664	 4,58913902827638E-02 
665	 4,53970854593547E-02 
666	 4,51629177988674E-02 
667	 4,52463655399486E-02 
668	 4,49315490678345E-02 
669	 4,41326743546977E-02 
670	 4,33583197325202E-02 
671	 4,29770437124097E-02 
672	 4,32441717061689E-02 
673	 4,36767836966098E-02 
674	 4,39884866343293E-02 
675	 4,37569833752323E-02 
676	 4,35393320456447E-02 
677	 4,34920339364556E-02 
678	 4,31391758026601E-02 
679	 4,28976339059088E-02 
680	 4,32895346401392E-02 
681	 4,38275168112306E-02 
682	 4,43055764056026E-02 
683	 0,04449290999183 
684	 4,47203349996159E-02 
685	 4,51801703275878E-02 
686	 4,55889065714981E-02 
687	 4,62553883479946E-02 
688	 4,78102449301241E-02 
689	 4,91103211248723E-02 
690	 5,00247536840049E-02 
691	 5,15656171242651E-02 
692	 5,36619272896809E-02 
693	 0,0561751828486 
694	 5,84182920266569E-02 
695	 6,07267684175793E-02 
696	 6,43838300779684E-02 
697	 6,79210272340428E-02 
698	 7,10166077735676E-02 
699	 7,56566590771218E-02 
700	 0,080795822859664 
701	 0,084907006784533 
702	 8,95018590706588E-02 
703	 9,47098899317981E-02 
704	 9,98513771626691E-02 
705	 0,104505397463015 
706	 0,108484165536071 
707	 0,112620834230316 
708	 0,116865380687245 
709	 0,120884803560134 
710	 0,124713108905365 
711	 0,128339766788791 
712	 0,131717026717279 
713	 0,134904890309911 
714	 0,137949631369662 
715	 0,140675448161037 
716	 0,143100331583487 
717	 0,145265649582201 
718	 0,147693526561358 
719	 0,150457304731311 
720	 0,152461855533419 
721	 0,154140489021185 
722	 0,156186281212221 
723	 0,157840658887618 
724	 0,159050854029392 
725	 0,16021641183152 
726	 0,161482961897915 
727	 0,162891979131161 
728	 0,163934728383603 
729	 0,164795995076521 
730	 0,165961697200116 
731	 0,166705881556363 
732	 0,166998713110411 
733	 0,167640948008187 
734	 0,16855719011765 
735	 0,169605831922541 
736	 0,170135557042241 
737	 0,170435919016453 
738	 0,171660199670088 
739	 0,172256553081975 
740	 0,171943025858566 
741	 0,172679891540333 
742	 0,173771250328441 
743	 0,174235416104184 
744	 0,174730894668277 
745	 0,175295144705208 
746	 0,175594307940585 
747	 0,175958016129796 
748	 0,176523543566047 
749	 0,176917532941774 
750	 0,177186257746454 
751	 0,177463485206305 
752	 0,177841286558175 
753	 0,178341318136005 
754	 0,178960877252777 
755	 0,179375476286884 
756	 0,179382867413926 
757	 0,17937258112134 
758	 0,179617914214491 
759	 0,180554534739467 
760	 0,18129483710152 
761	 0,181537230147279 
762	 0,181444723093423 
763	 0,181545168786771 
764	 0,182284316222998 
765	 0,182818746854088 
766	 0,183096347053766 
767	 0,183439859352727 
768	 0,183793715465081 
769	 0,184111812981035 
770	 0,184179929442275 
771	 0,184280356071854 
772	 0,184751685267724 
773	 0,185099228006758 
774	 0,185295077711469 
775	 0,185635006515305 
776	 0,185920865093969 
777	 0,186089989413703 
778	 0,186415921825528 
779	 0,186875677077114 
780	 0,187389002573011 
781	 0,187905083611549 
782	 0,188321300838317 
783	 0,188400039108224 
784	 0,188314309990633 
785	 0,188243271505871 
786	 0,188566998574003 
787	 0,189136117383276 
788	 0,18959105828662 
789	 0,189966258468039 
790	 0,190234490008295 
791	 0,190332357882852 
792	 0,190362493072311 
793	 0,190446394867047 
794	 0,190907126299462 
795	 0,191566052656735 
796	 0,191945766798667 
797	 0,192191052930818 
798	 0,192367174667119 
799	 0,192598955336191 
800	 0,192846839117865 
801	 0,193065043774706 
802	 0,193220723283294 
803	 0,193394732307269 
804	 0,193790021628836 
805	 0,194304053698761 
806	 0,194814122828505 
807	 0,194940773313817 
808	 0,194917547397017 
809	 0,195027631789931 
810	 0,195219492402686 
811	 0,195484651797461 
812	 0,19578124451423 
813	 0,196225213277963 
814	 0,196812205050908 
815	 0,197262834003581 
816	 0,197541536162005 
817	 0,197649312026905 
818	 0,19772897380292 
819	 0,19788210062952 
820	 0,198258787291168 
821	 0,198711264130675 
822	 0,199115627566669 
823	 0,199218403825589 
824	 0,1992635400984 
825	 0,19959283822227 
826	 0,200166227078029 
827	 0,20068651512851 
828	 0,200238076081821 
829	 0,199900031089508 
830	 0,20024318016836 
831	 0,200932719049318 
832	 0,201467357845207 
833	 0,201238630987484 
834	 0,201335479100794 
835	 0,20174327020433 
836	 0,201305684336614 
837	 0,201617611188714 
838	 0,203232674842185 
839	 0,203589643846712 
840	 0,203206140491537 
841	 0,203232073678056 
842	 0,203210544796983 
843	 0,203199465913618 
844	 0,203593028501713 
845	 0,204259390080212 
846	 0,204975891694062 
847	 0,204829450998664 
848	 0,204422564872337 
849	 0,20473979106035 
850	 0,205055084045969 
851	 0,205136491626351 
852	 0,204756459095034 
853	 0,204744351712573 
854	 0,205437192279397 
855	 0,205739866851504 
856	 0,20581233100317 
857	 0,206045271159623 
858	 0,206259967679796 
859	 0,206464335322771 
860	 0,20681684837567 
861	 0,207054745429808 
862	 0,207072294564744 
863	 0,207172362892008 
864	 0,207279307233617 
865	 0,207258988691445 
866	 0,207683546525691 
867	 0,208402894504303 
868	 0,208531168783047 
869	 0,208722376796176 
870	 0,209236534369733 
871	 0,209665428323353 
872	 0,209949953251322 
873	 0,210070975935285 
874	 0,210068629013905 
875	 0,210080732807359 
876	 0,210418210114128 
877	 0,210887703357059 
878	 0,211336151427249 
879	 0,211394835540301 
880	 0,211585438985888 
881	 0,21242989442897 
882	 0,212452816338676 
883	 0,211944188081761 
884	 0,212433349260489 
885	 0,213117868534628 
886	 0,213635302417514 
887	 0,213613280360943 
888	 0,213704014764316 
889	 0,214479059765542 
890	 0,214948032678427 
891	 0,215024722173013 
892	 0,214898100703103 
893	 0,215017742344417 
894	 0,215511397660369 
895	 0,216080979220397 
896	 0,216765999436547 
897	 0,217452709728277 
898	 0,216764998846382 
899	 0,215671503967455 
900	 0,216237255032946 
901	 0,216866851087025 
902	 0,217246568116819 
903	 0,218083824644417 
904	 0,218411931481386 
905	 0,217824070195593 
906	 0,218123458705441 
907	 0,218628905000699 
908	 0,21807409730758 
909	 0,218269481401446 
910	 0,219140432889309 
911	 0,219086806496291 
912	 0,21858418419534 
913	 0,218103291847319 
914	 0,218995641938735 
915	 0,220271311692384 
916	 0,22067642929594 
917	 0,219836451437312 
918	 0,218637133200609 
919	 0,219515957619424 
920	 0,220372795159249 
921	 0,220553985519643 
922	 0,22074978025019 
923	 0,220732818764095 
924	 0,220313894028363 
925	 0,219642060469272 
926	 0,219075145806045 
927	 0,219154692788048 
928	 0,219509967001128 
929	 0,219975028768717 
930	 0,220515912346412 
931	 0,220531267904976 
932	 0,219773077732081 
933	 0,219055096683767 
934	 0,218958178484255 
935	 0,220004120334028 
936	 0,220121276982377 
937	 0,219359907360322 
938	 0,219277447316965 
939	 0,219391463853662 
940	 0,219440385328802 
941	 0,218930524942507 
942	 0,218273498851056 
943	 0,217846215692037 
944	 0,217249894317471 
945	 0,216788344936758 
946	 0,217156088178206 
947	 0,216883692928792 
948	 0,21573143470235 
949	 0,21437943265309 
950	 0,213900104078924 
951	 0,214642737207282 
952	 0,214530253178476 
953	 0,213716049696867 
954	 0,212662946584956 
955	 0,210585798426871 
956	 0,208779368054859 
957	 0,211155036720841 
958	 0,211399723237136 
959	 0,208360171871832 
960	 0,207561507492325 
961	 0,208321957524978 
962	 0,209761362073004 
963	 0,210649051929607 
964	 0,210164686551865 
965	 0,20750120305318 
966	 0,207074222091366 
967	 0,208918488481697 
968	 0,209402727071372 
969	 0,209358678122447 
970	 0,209160788436368 
971	 0,209327687525139 
972	 0,209564976722611 
973	 0,209542718611774 
974	 0,209131242110967 
975	 0,208592796094733 
976	 0,208410857260179 
977	 0,208316003004925 
978	 0,208587159331473 
979	 0,210523997431969 
980	 0,211661813227657 
981	 0,211033137530576 
982	 0,211007068168595 
983	 0,211726124814358 
984	 0,212918289709811 
985	 0,211730061645931 
986	 0,209755990399162 
987	 0,211072617072929 
988	 0,212099395416951 
989	 0,212243123866817 
990	 0,213486937006581 
991	 0,213538540129431 
992	 0,211853693607333 
993	 0,212622583036027 
994	 0,214305926102171 
995	 0,21506356589094 
996	 0,217399179063544 
997	 0,219284396894316 
998	 0,216062161631462 
999	 0,215086030448556 
1000	 0,217335098522064 
1001	 0,218236717263106 
1002	 0,217235926693509 
1003	 0,215211920284674 
1004	 0,219329880246295 
1005	 0,22338150867522 
1006	 0,221477968766438 
1007	 0,223876897998708 
1008	 0,227296135760644 
1009	 0,222942727811667 
1010	 0,220405760393659 
1011	 0,221914135834157 
1012	 0,226220581486823 
1013	 0,227482559966482 
1014	 0,224312488587371 
1015	 0,225133464871047 
1016	 0,227741805746461 
1017	 0,229519918654242 
1018	 0,228293971949017 
1019	 0,226158437371757 
1020	 0,226772023053963 
1021	 0,226913547912887 
1022	 0,227014851521282 
1023	 0,230348099691097 
1024	 0,2331772017751 
1025	 0,234303913276828 
1026	 0,234708765475008 
1027	 0,235885425724608 
1028	 0,238178526201698 
1029	 0,236831345057366 
1030	 0,234834418839063 
1031	 0,23606097469726 
1032	 0,23619842939984 
1033	 0,235885692535967 
1034	 0,23811863613186 
1035	 0,238137180445771 
1036	 0,235097660611288 
1037	 0,23046100777754 
1038	 0,230002076013411 
1039	 0,235037641718569 
1040	 0,236202000355829 
1041	 0,238184952053243 
1042	 0,244141091369785 
1043	 0,24562765476224 
1044	 0,242566688938575 
1045	 0,237026932044485 
1046	 0,238407117196301 
1047	 0,244613160439564 
1048	 0,246044258802324 
1049	 0,24114522558207 
1050	 0,232650306586684 
1051	 0,232637853177945 
1052	 0,234049074284763 
1053	 0,234398723690788 
1054	 0,241762440644217 
1055	 0,244827438113212 
1056	 0,235924013587028 
1057	 0,238829300127364 
1058	 0,244644428471624 
1059	 0,236948488982784 
1060	 0,234858394404267 
1061	 0,239063617795665 
1062	 0,24169241665428 
1063	 0,247818562514724 
1064	 0,253384643386463 
1065	 0,238683176864236 
1066	 0,232245880597613 
1067	 0,244344062214747 
1068	 0,249400264665811 
1069	 0,251293418156791 
1070	 0,253238666109518 
1071	 0,252472740520225 
1072	 0,250766804772431 
1073	 0,249993037490278 
1074	 0,242156378759125 
1075	 0,232975263543347 
