Wavelength	AVEN00080.asd
325	 0,329921519981549 
326	 0,152556987301155 
327	-1,36869800940814E-03 
328	-8,72412005900519E-02 
329	 7,28531356957204E-02 
330	 0,150219426788927 
331	-3,64848763979695E-02 
332	-8,18906193408185E-02 
333	 1,00815367606412E-02 
334	 9,19013684924813E-02 
335	 0,107311392098736 
336	 5,48640844369212E-02 
337	 0,030219186450487 
338	 2,27475837853178E-02 
339	 2,18881838449666E-02 
340	-3,60181042186184E-02 
341	-9,60281141237829E-02 
342	-3,39019135859144E-02 
343	 2,26011215166093E-02 
344	 3,78939000635099E-02 
345	 3,67328906304799E-02 
346	 1,35908072443688E-02 
347	-3,38457137198376E-02 
348	-3,91538129738902E-02 
349	-1,57575779774845E-02 
350	-3,08025272214007E-02 
351	-0,024855423898331 
352	 1,75781747954007E-02 
353	 6,16752211817111E-02 
354	 7,51758725531602E-02 
355	 2,56347191537506E-02 
356	 1,70015779260487E-02 
357	 4,76345537212435E-02 
358	 3,77664216175283E-02 
359	 2,15414150997285E-02 
360	 1,65347651371883E-02 
361	 4,18667145925869E-02 
362	 5,92487222710294E-02 
363	 1,72140038672557E-02 
364	 1,49276522547548E-03 
365	 2,30336135429855E-02 
366	 4,43919004398571E-02 
367	 0,045798513273456 
368	 1,75024813182363E-02 
369	 2,44472641828774E-04 
370	-9,45192644635699E-03 
371	-2,79000471030168E-02 
372	-2,10302214585349E-02 
373	 7,97478512318462E-03 
374	 7,26676119288686E-03 
375	 5,42145340785417E-03 
376	 0,022020554478626 
377	 2,02332287538411E-02 
378	 5,14592126670969E-03 
379	-1,33319838332154E-03 
380	 8,94324571295173E-03 
381	 2,81798237505872E-02 
382	 1,28707851640544E-02 
383	-1,21570774150797E-02 
384	-0,019131708664573 
385	-1,16741140141781E-02 
386	 3,9269017601603E-03 
387	 1,63759442014185E-02 
388	 0,015485087392005 
389	 2,29391999845071E-03 
390	 6,59112741850487E-03 
391	 1,62531102335243E-02 
392	 1,55535010824845E-02 
393	 6,53071728051016E-03 
394	-0,004001169670564 
395	 7,86269800346782E-04 
396	 1,37946573351434E-02 
397	 2,70373153217433E-02 
398	 1,37306458443314E-02 
399	-6,85449080390715E-03 
400	-2,00707373837725E-03 
401	 4,2511892365004E-03 
402	 6,51511461863915E-03 
403	 7,41375746712432E-03 
404	 1,04140385585763E-02 
405	 1,68151398686886E-02 
406	 1,41578766312385E-02 
407	 7,71084477004943E-03 
408	 1,08477652322267E-02 
409	 1,38768582576353E-02 
410	 1,27572119986452E-02 
411	 1,69396022514962E-03 
412	-4,71911198180688E-03 
413	 6,08157171022789E-03 
414	 1,32228160895142E-02 
415	 1,45431717982117E-02 
416	 1,52152151419937E-02 
417	 1,60456139495229E-02 
418	 1,72847435743002E-02 
419	 1,75645512932797E-02 
420	 1,53702424647187E-02 
421	 8,94238298377447E-03 
422	 8,04831876854802E-03 
423	 0,011601356746554 
424	 7,80214827229797E-03 
425	 4,88226894267965E-03 
426	 7,23384929762343E-03 
427	 6,55526243418207E-03 
428	 5,00411671674704E-03 
429	 8,74784406493958E-03 
430	 8,33233866809451E-03 
431	 3,92505903751395E-03 
432	 8,77787880047622E-03 
433	 1,43181675048808E-02 
434	 1,28485403761955E-02 
435	 1,01844805095159E-02 
436	 8,48983872895369E-03 
437	 1,05536399700022E-02 
438	 0,011969198652169 
439	 1,09952247119023E-02 
440	 9,02577779840532E-03 
441	 8,23131223571136E-03 
442	 1,10965927082143E-02 
443	 1,03960482789102E-02 
444	 6,61397590361446E-03 
445	 7,60137040585636E-03 
446	 8,31830259108428E-03 
447	 6,13340121039926E-03 
448	 6,70931519039262E-03 
449	 9,19615362519026E-03 
450	 1,08262958986194E-02 
451	 1,07671115581349E-02 
452	 9,17399810482306E-03 
453	 8,35169320799424E-03 
454	 8,49001343121377E-03 
455	 9,54863898714749E-03 
456	 9,67329916475321E-03 
457	 9,34085658128967E-03 
458	 1,11772348528191E-02 
459	 1,14426262171685E-02 
460	 9,17514948775674E-03 
461	 8,74992974845282E-03 
462	 1,03850973294577E-02 
463	 1,38024358601336E-02 
464	 1,21591434396255E-02 
465	 6,77082839091476E-03 
466	 8,76005904065477E-03 
467	 1,09470058339238E-02 
468	 9,11887432767011E-03 
469	 1,07182160739827E-02 
470	 0,013905753451637 
471	 1,32158692633676E-02 
472	 1,15487735013588E-02 
473	 9,85255142300085E-03 
474	 7,84194582847926E-03 
475	 7,04487248716373E-03 
476	 8,79703978732453E-03 
477	 1,01296878758688E-02 
478	 1,10337200570742E-02 
479	 1,41078241412456E-02 
480	 1,37047390492438E-02 
481	 8,47011657123382E-03 
482	 8,47305206490023E-03 
483	 1,06308031311363E-02 
484	 8,68929763819448E-03 
485	 0,008599908741052 
486	 1,07215491483283E-02 
487	 1,07340869746101E-02 
488	 9,41303008925986E-03 
489	 7,68265980914469E-03 
490	 8,4644354457079E-03 
491	 1,05610878889113E-02 
492	 1,01790834848292E-02 
493	 9,7185114349183E-03 
494	 9,77908543044005E-03 
495	 9,06355226176506E-03 
496	 8,54265185630882E-03 
497	 9,35101671829506E-03 
498	 8,54790643583023E-03 
499	 6,90788001964113E-03 
500	 9,00940517760476E-03 
501	 1,04944428583343E-02 
502	 9,19068079642121E-03 
503	 9,01773852942334E-03 
504	 9,66398445877857E-03 
505	 9,73149211830702E-03 
506	 9,58521773713937E-03 
507	 9,22974180781077E-03 
508	 8,03680573561144E-03 
509	 8,19195617508539E-03 
510	 1,13233279932639E-02 
511	 1,10957661044705E-02 
512	 8,40307752415256E-03 
513	 8,8366067033722E-03 
514	 8,99811395646824E-03 
515	 7,99859987061833E-03 
516	 9,74584352888597E-03 
517	 1,19550503480521E-02 
518	 1,10919634433214E-02 
519	 9,11697988194886E-03 
520	 7,34181347485332E-03 
521	 8,35713391106192E-03 
522	 9,90143710832916E-03 
523	 1,01872497087892E-02 
524	 8,83028987413631E-03 
525	 7,29102986102239E-03 
526	 9,0444020210567E-03 
527	 1,06004014355162E-02 
528	 1,06621299977026E-02 
529	 9,46195277439966E-03 
530	 8,07086976674389E-03 
531	 7,65950379254999E-03 
532	 8,75436855470568E-03 
533	 1,06672971596435E-02 
534	 1,11293484039412E-02 
535	 1,07347728969957E-02 
536	 9,96097431308927E-03 
537	 9,71880467970275E-03 
538	 9,98156946466615E-03 
539	 1,04805935320919E-02 
540	 1,04320245985036E-02 
541	 9,76400738913043E-03 
542	 9,45571981660487E-03 
543	 9,51888121220765E-03 
544	 9,88282016862011E-03 
545	 1,00382762509971E-02 
546	 9,92489803723659E-03 
547	 9,6933406599834E-03 
548	 9,5634042563247E-03 
549	 9,7336398014709E-03 
550	 1,07877907677731E-02 
551	 1,15047292165134E-02 
552	 9,83572777745979E-03 
553	 9,99980721531989E-03 
554	 1,19778379770076E-02 
555	 1,04495610307151E-02 
556	 8,74976661195095E-03 
557	 0,009652197161019 
558	 1,03399177010414E-02 
559	 1,04101572324962E-02 
560	 1,01514319206142E-02 
561	 9,7816764588655E-03 
562	 9,53049457111323E-03 
563	 1,00088276963437E-02 
564	 1,04468700451752E-02 
565	 9,78267541398901E-03 
566	 9,53790678318345E-03 
567	 9,78651484799454E-03 
568	 9,25512582411958E-03 
569	 8,90882758758632E-03 
570	 9,41753364116731E-03 
571	 1,02613671200607E-02 
572	 1,12130463106726E-02 
573	 1,21252289614208E-02 
574	 1,21553215129106E-02 
575	 1,13151934596773E-02 
576	 1,14385893908053E-02 
577	 1,18904068430621E-02 
578	 1,18078041399143E-02 
579	 1,15763027770641E-02 
580	 0,011455482127924 
581	 1,19764018407712E-02 
582	 1,26053098042349E-02 
583	 1,29721627714077E-02 
584	 1,28228830879081E-02 
585	 1,26463920652021E-02 
586	 1,33711786947854E-02 
587	 1,39571579403324E-02 
588	 1,40096885354767E-02 
589	 1,33115906410068E-02 
590	 1,28228445499353E-02 
591	 1,33696437741304E-02 
592	 1,30720719129716E-02 
593	 1,23882880990221E-02 
594	 1,37192399970413E-02 
595	 0,014568120671414 
596	 1,39504152824093E-02 
597	 1,37822729797773E-02 
598	 1,38116166750086E-02 
599	 1,33462273176183E-02 
600	 1,28763255351411E-02 
601	 1,27084619152055E-02 
602	 1,35104931439139E-02 
603	 0,014047523778221 
604	 1,34084776756266E-02 
605	 1,29858186847229E-02 
606	 1,29229395237079E-02 
607	 1,29687397474199E-02 
608	 1,28682328643424E-02 
609	 1,25900652465529E-02 
610	 1,26696109162952E-02 
611	 1,28892572953554E-02 
612	 1,29274943052053E-02 
613	 1,27772868051437E-02 
614	 1,23994099868005E-02 
615	 1,16009663359458E-02 
616	 1,12015906616981E-02 
617	 1,16651626301206E-02 
618	 1,20576660594505E-02 
619	 1,21855273086881E-02 
620	 1,19497912361653E-02 
621	 1,19790168804605E-02 
622	 1,22368912014817E-02 
623	 1,12812491115792E-02 
624	 1,06821043700127E-02 
625	 1,20375838497758E-02 
626	 1,27086237003051E-02 
627	 1,24159806911488E-02 
628	 1,20714563076679E-02 
629	 1,19975932389973E-02 
630	 1,23145824667426E-02 
631	 0,012287909169356 
632	 1,20271614962995E-02 
633	 1,18236712620313E-02 
634	 1,21520681083651E-02 
635	 1,29050658587963E-02 
636	 1,30480603626517E-02 
637	 1,28705353615047E-02 
638	 1,26900775918573E-02 
639	 1,29511371975964E-02 
640	 1,35401453207148E-02 
641	 1,39818265612664E-02 
642	 1,41813534650316E-02 
643	 1,41773642589329E-02 
644	 1,46583244617153E-02 
645	 1,50571325044923E-02 
646	 1,45636466727694E-02 
647	 1,45926730386267E-02 
648	 1,51749916418614E-02 
649	 0,01508221631188 
650	 1,49891061654486E-02 
651	 1,52527078397229E-02 
652	 1,46860591937636E-02 
653	 1,39704645736685E-02 
654	 1,49308154592704E-02 
655	 1,51130723430441E-02 
656	 1,40237173451831E-02 
657	 1,35516437645015E-02 
658	 1,35625419829927E-02 
659	 1,37703363964967E-02 
660	 1,36521830956369E-02 
661	 1,31846967753009E-02 
662	 1,26906964031742E-02 
663	 1,22545440438871E-02 
664	 1,19370337341907E-02 
665	 1,16271520604492E-02 
666	 1,15300958105509E-02 
667	 1,20066322698457E-02 
668	 1,20041527352173E-02 
669	 1,14963388793814E-02 
670	 1,17425035658111E-02 
671	 1,18821843422895E-02 
672	 1,12653513096445E-02 
673	 1,08761286541266E-02 
674	 1,09958274750603E-02 
675	 1,19303898077475E-02 
676	 1,26746763429622E-02 
677	 1,27868645285462E-02 
678	 1,23647383234124E-02 
679	 1,18945806374756E-02 
680	 1,19373730611369E-02 
681	 1,27402804246908E-02 
682	 1,38545902558547E-02 
683	 1,37316176698567E-02 
684	 1,34482551480628E-02 
685	 1,36335724860363E-02 
686	 1,38154033158144E-02 
687	 1,40067893701839E-02 
688	 1,43162447973314E-02 
689	 1,47426720409473E-02 
690	 1,52665434314893E-02 
691	 1,57099227303622E-02 
692	 1,65022265188509E-02 
693	 1,79740853611309E-02 
694	 1,90292018852814E-02 
695	 1,99110863155527E-02 
696	 2,17480105075423E-02 
697	 2,39336786441518E-02 
698	 2,63368457799946E-02 
699	 2,96960874301728E-02 
700	 3,31446117778984E-02 
701	 3,55404228772341E-02 
702	 3,82499465806833E-02 
703	 4,15611611381737E-02 
704	 4,52171997222303E-02 
705	 4,89208889359703E-02 
706	 5,24838164733622E-02 
707	 5,60931947440202E-02 
708	 5,96429720893656E-02 
709	 6,29005216585937E-02 
710	 6,60862477877441E-02 
711	 6,92329686364394E-02 
712	 7,21318770204064E-02 
713	 7,48999170956994E-02 
714	 7,76588440931884E-02 
715	 8,05410504110146E-02 
716	 8,32826895126558E-02 
717	 8,51148057319149E-02 
718	 8,69275143121422E-02 
719	 8,90710464653873E-02 
720	 9,11076396657469E-02 
721	 9,30356079514389E-02 
722	 9,49161587890479E-02 
723	 0,096289617003317 
724	 9,72770079442034E-02 
725	 0,098669026790255 
726	 9,99567505391804E-02 
727	 0,100839190820129 
728	 0,101610952807292 
729	 0,102357227464521 
730	 0,103146479803888 
731	 0,103896972610515 
732	 0,104585839818839 
733	 0,105230665887981 
734	 0,105857959109646 
735	 0,106475890293521 
736	 0,106870491508579 
737	 0,107185579547286 
738	 0,107939063652564 
739	 0,108321325851443 
740	 0,108148721717675 
741	 0,108235977097334 
742	 0,108610620341965 
743	 0,109209850500591 
744	 0,109646641563051 
745	 0,109863877353811 
746	 0,110028455434253 
747	 0,110170164240842 
748	 0,110317585422944 
749	 0,110495803336929 
750	 0,110637236739893 
751	 0,110628933511909 
752	 0,110716232842105 
753	 0,110968654754395 
754	 0,111423725491443 
755	 0,111570995844605 
756	 0,111127436630834 
757	 0,111137195040125 
758	 0,111507181127051 
759	 0,111705590651986 
760	 0,111832097715646 
761	 0,111926213414903 
762	 0,112108209288015 
763	 0,112326587837622 
764	 0,112521362549727 
765	 0,112619843129179 
766	 0,112679944520304 
767	 0,112912159284305 
768	 0,113033634550133 
769	 0,112963813429262 
770	 0,112957570019742 
771	 0,112948787709442 
772	 0,112840070566322 
773	 0,112917705219608 
774	 0,113173477334706 
775	 0,113445425493069 
776	 0,113364166410942 
777	 0,112847617333239 
778	 0,112729179101265 
779	 0,11312014077825 
780	 0,114033925826257 
781	 0,114345298641699 
782	 0,114024984204945 
783	 0,114236153923451 
784	 0,114455130711005 
785	 0,114352564519115 
786	 0,114168956967146 
787	 0,114101026717921 
788	 0,1144314878249 
789	 0,114794061087438 
790	 0,115004828385986 
791	 0,114882506654856 
792	 0,114646771836915 
793	 0,114509118158572 
794	 0,114645401138013 
795	 0,114962969574206 
796	 0,115214783208489 
797	 0,11530119978591 
798	 0,115267471644352 
799	 0,115568462233252 
800	 0,115881816317285 
801	 0,115887851092889 
802	 0,1157126953018 
803	 0,115590897197102 
804	 0,116077861147133 
805	 0,116401607134487 
806	 0,116351207136278 
807	 0,116533105587917 
808	 0,11671438375724 
809	 0,116620164893159 
810	 0,11663669733417 
811	 0,116810733098991 
812	 0,1170620698576 
813	 0,117153928732092 
814	 0,11708319513129 
815	 0,117572705316235 
816	 0,11800081791418 
817	 0,117597022900124 
818	 0,117477202364598 
819	 0,117834783757619 
820	 0,118488167831941 
821	 0,118840374552371 
822	 0,118661162670433 
823	 0,118671322124874 
824	 0,118701989758709 
825	 0,118450636954508 
826	 0,118611379700067 
827	 0,119193997838647 
828	 0,119767673814599 
829	 0,119883861965371 
830	 0,1194182052383 
831	 0,119363407831909 
832	 0,119540258492369 
833	 0,119544172004976 
834	 0,11993117053245 
835	 0,120449565439878 
836	 0,119781658662161 
837	 0,119577180267646 
838	 0,120516227728431 
839	 0,120576922874858 
840	 0,120105626729081 
841	 0,119914266236275 
842	 0,11986419340396 
843	 0,120013631775826 
844	 0,120642386935469 
845	 0,120922191713707 
846	 0,120491498695465 
847	 0,120322922014076 
848	 0,120501417288492 
849	 0,12097188740357 
850	 0,120905100359708 
851	 0,120337565650049 
852	 0,120032181760142 
853	 0,120461304763182 
854	 0,121600978038941 
855	 0,121266287976327 
856	 0,12074536878321 
857	 0,122092994340583 
858	 0,12225404973371 
859	 0,121209648695094 
860	 0,121415131432693 
861	 0,121537773369215 
862	 0,121040713047295 
863	 0,121018642160423 
864	 0,121339417519629 
865	 0,121681937128445 
866	 0,122381499394228 
867	 0,123155095322579 
868	 0,123035633830323 
869	 0,122566056730312 
870	 0,122169697357053 
871	 0,122597790069968 
872	 0,123377339281735 
873	 0,123832718991123 
874	 0,123574780026974 
875	 0,122958029001155 
876	 0,123199854721014 
877	 0,123846371328591 
878	 0,124648952185045 
879	 0,125397801177746 
880	 0,125662699686368 
881	 0,125089822189725 
882	 0,125089342281191 
883	 0,125489148934459 
884	 0,124879119499324 
885	 0,125036088240644 
886	 0,126198532526607 
887	 0,12612643392278 
888	 0,125670549642666 
889	 0,12578072864952 
890	 0,126546835132709 
891	 0,127438082193954 
892	 0,127233990401665 
893	 0,127182716603783 
894	 0,127562565039378 
895	 0,127733423197257 
896	 0,12752256262693 
897	 0,126966769537238 
898	 0,127645346060186 
899	 0,128589206131158 
900	 0,127606437076053 
901	 0,127465798479053 
902	 0,128434015662097 
903	 0,128373869763863 
904	 0,128196340031502 
905	 0,128430594372053 
906	 0,12856475673839 
907	 0,128402266386146 
908	 0,127762004776636 
909	 0,128023047128952 
910	 0,128943960001719 
911	 0,128624722382069 
912	 0,128210609400183 
913	 0,12831837710841 
914	 0,129214799717198 
915	 0,129970765630873 
916	 0,129597669800527 
917	 0,129403365547136 
918	 0,129467097229031 
919	 0,129188171477953 
920	 0,12952506613883 
921	 0,130390181305882 
922	 0,129778465869048 
923	 0,128933193094454 
924	 0,128937255170082 
925	 0,129023589796 
926	 0,128924639581023 
927	 0,128319273535339 
928	 0,12879127463671 
929	 0,1301174282372 
930	 0,129878421881203 
931	 0,128832596102814 
932	 0,12774984500693 
933	 0,12840010520908 
934	 0,129782773161488 
935	 0,130339873752778 
936	 0,130041669680841 
937	 0,129048996306654 
938	 0,127720808613082 
939	 0,127493940137065 
940	 0,128625405501333 
941	 0,129169137061743 
942	 0,128968624315891 
943	 0,128039974102102 
944	 0,126776911997184 
945	 0,125799601712408 
946	 0,125994163904674 
947	 0,127211534205098 
948	 0,128485213774774 
949	 0,126595083240406 
950	 0,12511960164086 
951	 0,125787341094642 
952	 0,125175802748894 
953	 0,1239959420859 
954	 0,123484874622393 
955	 0,122487939851042 
956	 0,121480678864484 
957	 0,122428578298914 
958	 0,122060808068407 
959	 0,119991805772003 
960	 0,119999919121275 
961	 0,120796085973736 
962	 0,121202899605386 
963	 0,121010219704299 
964	 0,120302790465913 
965	 0,119317737887119 
966	 0,119399593155713 
967	 0,120431697304731 
968	 0,120998142031022 
969	 0,120901558961489 
970	 0,120293640315401 
971	 0,120912055985472 
972	 0,120823697965659 
973	 0,118488581781536 
974	 0,117852920492961 
975	 0,118530461563927 
976	 0,118573615149034 
977	 0,119302340107221 
978	 0,12036381814695 
979	 0,119513298559483 
980	 0,11879057784855 
981	 0,119237516811044 
982	 0,120393010245407 
983	 0,121058053992175 
984	 0,120253337593603 
985	 0,120680694037689 
986	 0,122284782527801 
987	 0,124101921064411 
988	 0,123108883304449 
989	 0,120331869605153 
990	 0,123080717839023 
991	 0,124970741475316 
992	 0,123274006252242 
993	 0,123292951243943 
994	 0,124339648754479 
995	 0,125206637080714 
996	 0,125678310033762 
997	 0,125352920655083 
998	 0,123466613097775 
999	 0,125503622152747 
1000	 0,130246217777348 
1001	 0,127470447788718 
1002	 0,124662526398623 
1003	 0,125494023196304 
1004	 0,12734204550964 
1005	 0,12789490806084 
1006	 0,12560517740042 
1007	 0,127110515372473 
1008	 0,130018808495007 
1009	 0,128025918477026 
1010	 0,128362975379667 
1011	 0,131287617368934 
1012	 0,131230567158029 
1013	 0,131420670666926 
1014	 0,13268211146934 
1015	 0,13187837631988 
1016	 0,130935908846987 
1017	 0,131424563176959 
1018	 0,13078594167452 
1019	 0,130181513246763 
1020	 0,131786364879095 
1021	 0,132452429280203 
1022	 0,132608458901464 
1023	 0,135732364685233 
1024	 0,137318234636286 
1025	 0,136649870186206 
1026	 0,13802394121389 
1027	 0,139266626969663 
1028	 0,138908997872597 
1029	 0,137868030614044 
1030	 0,136420136408194 
1031	 0,134937653102469 
1032	 0,135054896707654 
1033	 0,137219203963514 
1034	 0,14176747457369 
1035	 0,14202312243452 
1036	 0,137565648152602 
1037	 0,133552644870753 
1038	 0,135317453347365 
1039	 0,143137841406612 
1040	 0,144283496105398 
1041	 0,142980259234566 
1042	 0,142913557594643 
1043	 0,139885595609087 
1044	 0,13628807868598 
1045	 0,136205026659965 
1046	 0,139184109605648 
1047	 0,142488401750866 
1048	 0,140003625708736 
1049	 0,139601200358216 
1050	 0,142653385065537 
1051	 0,145520367879598 
1052	 0,140963023056656 
1053	 0,130002315229404 
1054	 0,139116682193568 
1055	 0,15045405608247 
1056	 0,147865443101435 
1057	 0,140231185681856 
1058	 0,134579285266656 
1059	 0,138444494129779 
1060	 0,143153936179331 
1061	 0,146535624178067 
1062	 0,148366960293589 
1063	 0,14519852435542 
1064	 0,13851197379027 
1065	 0,136577617064351 
1066	 0,135065875991168 
1067	 0,135339087927587 
1068	 0,154487957333115 
1069	 0,166756554282167 
1070	 0,154614967123432 
1071	 0,146542411882828 
1072	 0,140807826137871 
1073	 0,132652056054908 
1074	 0,138730210630695 
1075	 0,149399622343753 
