Wavelength	AVEN00241.asd
325	 0,157321581070046 
326	 0,302297644693954 
327	 0,313580673452574 
328	 0,156308556672892 
329	 0,161935887868104 
330	 0,255228270121768 
331	 0,344891716811678 
332	 0,28141977544368 
333	 0,131384742951907 
334	 6,53258883389804E-02 
335	 7,80943450040189E-02 
336	 0,140366236503788 
337	 0,152271261764459 
338	 0,161464658839124 
339	 0,202841708111816 
340	 0,145798317972276 
341	 7,26006595507455E-02 
342	 0,187217655927113 
343	 0,279360346512577 
344	 0,288631297179563 
345	 0,229404947481818 
346	 0,143889441545768 
347	 9,12791971295762E-02 
348	 8,49433974121539E-02 
349	 0,111048435688607 
350	 0,138563426983914 
351	 0,149928548268947 
352	 0,140332203044132 
353	 0,140741949406798 
354	 0,13569877782068 
355	 0,105674242732089 
356	 0,121502397569032 
357	 0,165458792565452 
358	 0,1402287479419 
359	 0,116819366038898 
360	 0,12288348267899 
361	 0,109906238805569 
362	 9,34008471790529E-02 
363	 9,87535931649371E-02 
364	 0,107076010325287 
365	 0,116679109087473 
366	 0,148165554390363 
367	 0,15508571031886 
368	 0,111533567173097 
369	 6,66895632946598E-02 
370	 4,09898278463018E-02 
371	 6,08490257255317E-02 
372	 9,84820422514725E-02 
373	 0,134022055406324 
374	 0,137021867117175 
375	 0,121670176119722 
376	 0,102875784138608 
377	 0,103639925425289 
378	 0,11366196926172 
379	 9,83789838604322E-02 
380	 9,95013119181921E-02 
381	 0,120245097447797 
382	 0,119215551416594 
383	 0,10634974598327 
384	 9,40931976901718E-02 
385	 8,94102483277611E-02 
386	 9,26067941302319E-02 
387	 9,99735071376944E-02 
388	 0,106503076086674 
389	 0,110914114370003 
390	 0,122129279112378 
391	 0,130051563247171 
392	 0,123339403485169 
393	 0,112369362830687 
394	 0,10521336113468 
395	 0,117357513645508 
396	 0,125419498339537 
397	 0,117744907334515 
398	 0,10432752829521 
399	 9,29011721813278E-02 
400	 9,24779242017666E-02 
401	 9,84378188472394E-02 
402	 0,107574247830711 
403	 0,114144877609021 
404	 0,120124987692762 
405	 0,126273532586333 
406	 0,124919739269902 
407	 0,118675415454043 
408	 0,113452815014986 
409	 0,113225652851703 
410	 0,116183340859893 
411	 0,106579368798154 
412	 9,71452882073522E-02 
413	 9,98727998645912E-02 
414	 0,102956379916185 
415	 0,104944541058083 
416	 0,108617566348264 
417	 0,110168525783938 
418	 0,108590154140645 
419	 0,10787175616082 
420	 0,106993394783014 
421	 0,104121015896693 
422	 0,10582377480429 
423	 0,109637732659672 
424	 0,101941988240508 
425	 9,70799688625424E-02 
426	 0,102706532873875 
427	 0,104642567442673 
428	 0,103001860772893 
429	 0,101253145322872 
430	 0,101117588285927 
431	 0,10280177314185 
432	 0,10441943540362 
433	 0,104233056527724 
434	 0,10133039942896 
435	 0,104534803378108 
436	 0,110614278400811 
437	 0,106929333351616 
438	 0,104967543218005 
439	 0,107984179188628 
440	 0,105940367102444 
441	 0,102291558322534 
442	 0,102360258729765 
443	 0,106709968931663 
444	 0,112434248995984 
445	 0,109759929152276 
446	 0,106091153531955 
447	 0,10606273347602 
448	 0,10658723171181 
449	 0,107099874915643 
450	 0,107191921400343 
451	 0,108273796583205 
452	 0,1101109626279 
453	 0,109837565203452 
454	 0,108542148179468 
455	 0,107559054800869 
456	 0,109815945646191 
457	 0,113929689933383 
458	 0,11527390033582 
459	 0,11396006725631 
460	 0,110729119278603 
461	 0,110000043231721 
462	 0,112124465396573 
463	 0,116919966927873 
464	 0,11610171598939 
465	 0,110666774655064 
466	 0,111978461498211 
467	 0,114503190460706 
468	 0,114644892427218 
469	 0,114855260507438 
470	 0,115203445044197 
471	 0,115286141235618 
472	 0,11498995758826 
473	 0,114232232646143 
474	 0,112852213944726 
475	 0,111447611651066 
476	 0,110636540877694 
477	 0,111128394370469 
478	 0,112664974155619 
479	 0,114580438329241 
480	 0,114426720142116 
481	 0,111665170436433 
482	 0,111388642189041 
483	 0,112188552338134 
484	 0,111145472787391 
485	 0,109874944861868 
486	 0,10919630467438 
487	 0,110703615465177 
488	 0,111568982620644 
489	 0,109983301595161 
490	 0,111255469057394 
491	 0,113396263190056 
492	 0,109751257629851 
493	 0,107004254978946 
494	 0,107257130739664 
495	 0,107807897083863 
496	 0,108603019204735 
497	 0,109778873641472 
498	 0,109485305641743 
499	 0,108347848375293 
500	 0,109692937996544 
501	 0,110544348066732 
502	 0,109573970065368 
503	 0,110690218796889 
504	 0,112411808518531 
505	 0,111376048747412 
506	 0,110085864785895 
507	 0,109545229845294 
508	 0,110421682297593 
509	 0,1117966016495 
510	 0,112793703821157 
511	 0,113386165285262 
512	 0,113946999902325 
513	 0,115822538474867 
514	 0,116026112202875 
515	 0,114062008310452 
516	 0,115799653273265 
517	 0,118582110968309 
518	 0,118034541904854 
519	 0,116756184119313 
520	 0,115683417128473 
521	 0,115575303728684 
522	 0,115906493677749 
523	 0,116252751804548 
524	 0,116498714078011 
525	 0,116870873177896 
526	 0,118118508639108 
527	 0,118684207916824 
528	 0,118062566164385 
529	 0,116871065534302 
530	 0,115679580324724 
531	 0,115047535895499 
532	 0,11551709645221 
533	 0,116712061614389 
534	 0,1172598765683 
535	 0,117182542572209 
536	 0,116599147132183 
537	 0,116461661038279 
538	 0,11683309962812 
539	 0,11759365175673 
540	 0,118052167082946 
541	 0,117981170627972 
542	 0,117635041185829 
543	 0,11718666896073 
544	 0,116809068510378 
545	 0,116797619370654 
546	 0,117142012711073 
547	 0,117624739543489 
548	 0,118179396345853 
549	 0,118732304641954 
550	 0,119305359311696 
551	 0,119495325947071 
552	 0,11862472849745 
553	 0,118976406747416 
554	 0,120243888379539 
555	 0,118225876057975 
556	 0,116594255923515 
557	 0,118262294134487 
558	 0,11877992925341 
559	 0,117902647385788 
560	 0,117051792029123 
561	 0,116290280584706 
562	 0,115856433295762 
563	 0,116480534955309 
564	 0,117026251142189 
565	 0,115952845536573 
566	 0,115658273583384 
567	 0,116323811250899 
568	 0,116290795395617 
569	 0,116081466537233 
570	 0,116085715817163 
571	 0,116136020665372 
572	 0,116836416272827 
573	 0,11967240395561 
574	 0,121758973652362 
575	 0,122262595451238 
576	 0,123036140163033 
577	 0,12402821992557 
578	 0,12503655544754 
579	 0,126252307271031 
580	 0,127631035958138 
581	 0,128907601883711 
582	 0,130375135174697 
583	 0,13201838384414 
584	 0,132425056443575 
585	 0,132408031687119 
586	 0,13370436675233 
587	 0,134952149547891 
588	 0,135680531338279 
589	 0,13567784240197 
590	 0,135914048523999 
591	 0,137232307575268 
592	 0,138101466076271 
593	 0,138400730766481 
594	 0,138669781256413 
595	 0,139026976024312 
596	 0,139436880663024 
597	 0,139124693476027 
598	 0,13846554935784 
599	 0,138118746301646 
600	 0,13796292177569 
601	 0,137992793557681 
602	 0,138310056033285 
603	 0,138301143334851 
604	 0,137533931495699 
605	 0,13690530861295 
606	 0,136445778369492 
607	 0,135782769609303 
608	 0,135255104370892 
609	 0,134876023107836 
610	 0,134026641425759 
611	 0,132906197544706 
612	 0,131824049332881 
613	 0,131577573670694 
614	 0,131911730894113 
615	 0,131297620532992 
616	 0,130495560289625 
617	 0,130040322580645 
618	 0,130083680917497 
619	 0,130320689934215 
620	 0,130151416402143 
621	 0,129662734852907 
622	 0,128957799222878 
623	 0,128238358369775 
624	 0,128354917197409 
625	 0,130050888011099 
626	 0,130624769918705 
627	 0,130091555975426 
628	 0,130372935236132 
629	 0,130605962090525 
630	 0,130506941104738 
631	 0,131145623888998 
632	 0,132009690943708 
633	 0,132066382488278 
634	 0,132515656912374 
635	 0,133519917373599 
636	 0,134245796129122 
637	 0,134868284834881 
638	 0,135585799716915 
639	 0,136786551610417 
640	 0,138234582719935 
641	 0,139280942239102 
642	 0,139691025182913 
643	 0,139582160462283 
644	 0,140416416313555 
645	 0,14147121433252 
646	 0,141640237469757 
647	 0,141469685192485 
648	 0,141176399337598 
649	 0,141098114683609 
650	 0,140689375876059 
651	 0,139632645372178 
652	 0,138550044922402 
653	 0,13761505899784 
654	 0,137001992087389 
655	 0,136067316487308 
656	 0,134673575020176 
657	 0,133418362698253 
658	 0,132116544365847 
659	 0,130535619551763 
660	 0,12859878309888 
661	 0,126575035019259 
662	 0,125262600021601 
663	 0,123849065831569 
664	 0,122035265137834 
665	 0,120773242383268 
666	 0,119918303303987 
667	 0,119074584986129 
668	 0,118250315295081 
669	 0,117468267118378 
670	 0,116863967492909 
671	 0,1164781859032 
672	 0,116309851913759 
673	 0,116028261306451 
674	 0,115591807331538 
675	 0,11494144628789 
676	 0,114924138253476 
677	 0,115666732096916 
678	 0,115897797827572 
679	 0,115829662447081 
680	 0,115851583687064 
681	 0,116624437072058 
682	 0,117810099752984 
683	 0,117611867949469 
684	 0,118221487840379 
685	 0,120704027140684 
686	 0,122229417340011 
687	 0,123604915629831 
688	 0,126935705904432 
689	 0,130434868020554 
690	 0,133832436152615 
691	 0,138225428892588 
692	 0,143453850997812 
693	 0,149357314752948 
694	 0,15599810565492 
695	 0,163464038171027 
696	 0,171962349598243 
697	 0,181089839722324 
698	 0,190736595229291 
699	 0,201446395773452 
700	 0,212455397963308 
701	 0,22281149056509 
702	 0,233659130702835 
703	 0,244809443158245 
704	 0,25480957617279 
705	 0,264584410352879 
706	 0,274653558131248 
707	 0,283964532373654 
708	 0,292462465842052 
709	 0,300315363880726 
710	 0,307842958653081 
711	 0,315109376497663 
712	 0,321741969560583 
713	 0,327814270051641 
714	 0,333413552225674 
715	 0,338614077142313 
716	 0,343358609782794 
717	 0,347327710269034 
718	 0,351420430996402 
719	 0,355844963769238 
720	 0,359285746416983 
721	 0,362070060962631 
722	 0,364791490151616 
723	 0,367469127089551 
724	 0,370049709952829 
725	 0,37232150569372 
726	 0,37407344356578 
727	 0,375303799104623 
728	 0,377156958436438 
729	 0,379249787686052 
730	 0,380622634559957 
731	 0,381607793550251 
732	 0,382407583014047 
733	 0,383430566235699 
734	 0,384614133118405 
735	 0,385846515286411 
736	 0,386645626761931 
737	 0,387141576976429 
738	 0,387902067851867 
739	 0,388565558226484 
740	 0,389059936536954 
741	 0,38970612757494 
742	 0,390407160928439 
743	 0,391019999866265 
744	 0,391567020225913 
745	 0,391980134257443 
746	 0,391999198126032 
747	 0,392234331652319 
748	 0,392917194784979 
749	 0,393113711731874 
750	 0,39309062917701 
751	 0,39341429836287 
752	 0,394072532466907 
753	 0,394789516728673 
754	 0,394539620733244 
755	 0,394256458891198 
756	 0,394606958142478 
757	 0,394970369575136 
758	 0,395232434956477 
759	 0,395336589492613 
760	 0,395642835360192 
761	 0,39614741917946 
762	 0,396229047609028 
763	 0,396229239088451 
764	 0,396481032103192 
765	 0,396527872381658 
766	 0,396537789201879 
767	 0,397206746951593 
768	 0,397673535438165 
769	 0,397629402170579 
770	 0,397500022371546 
771	 0,397452812977023 
772	 0,397637522878192 
773	 0,39805010185259 
774	 0,398569705272407 
775	 0,398907889356113 
776	 0,399014061465853 
777	 0,398901725309178 
778	 0,398867274564833 
779	 0,399019334148784 
780	 0,399458038808931 
781	 0,399561013972939 
782	 0,399345072923889 
783	 0,399546235969246 
784	 0,399740971402973 
785	 0,399664114534159 
786	 0,399550093987403 
787	 0,39954228276812 
788	 0,399837020578702 
789	 0,40005353857135 
790	 0,400128182714106 
791	 0,400381887189877 
792	 0,400509821923406 
793	 0,400295980640204 
794	 0,400165870063262 
795	 0,400215693678845 
796	 0,400493462090515 
797	 0,400688840179559 
798	 0,400723200930506 
799	 0,400843607343695 
800	 0,400926076692776 
801	 0,400864644165491 
802	 0,40098604319922 
803	 0,401253449418031 
804	 0,401423060267308 
805	 0,401535040602181 
806	 0,401612939511971 
807	 0,401747554622252 
808	 0,401906295297373 
809	 0,402050074042791 
810	 0,402315102248641 
811	 0,402550581549164 
812	 0,402198512310323 
813	 0,402193185611666 
814	 0,402851894189316 
815	 0,403412125685016 
816	 0,403814142788943 
817	 0,404073755519166 
818	 0,404098123198084 
819	 0,403998075474671 
820	 0,404128452737178 
821	 0,404266231705336 
822	 0,404367883590116 
823	 0,404848155408793 
824	 0,40533669229001 
825	 0,405324989680776 
826	 0,405558256008424 
827	 0,405992332029072 
828	 0,405923143915933 
829	 0,405701700105958 
830	 0,405590368083631 
831	 0,405999606337123 
832	 0,406554011058847 
833	 0,406686701425882 
834	 0,406844375603443 
835	 0,407060408339997 
836	 0,406993421705471 
837	 0,407428082474785 
838	 0,40853816633525 
839	 0,408408762485569 
840	 0,407720361766706 
841	 0,407732644109403 
842	 0,407643765178527 
843	 0,407516972708294 
844	 0,408225030050631 
845	 0,408558880285912 
846	 0,408000829701948 
847	 0,408003790610208 
848	 0,408341766495006 
849	 0,408457751357397 
850	 0,408638507675514 
851	 0,408843610650966 
852	 0,40873362381341 
853	 0,408754539319909 
854	 0,409047424015677 
855	 0,408711273003883 
856	 0,408471953105492 
857	 0,409418102362007 
858	 0,409783325524775 
859	 0,409469733677878 
860	 0,409697318728272 
861	 0,409762203397241 
862	 0,409381573495373 
863	 0,409035944468799 
864	 0,409205655132926 
865	 0,410394147782788 
866	 0,410999644517204 
867	 0,410902966383562 
868	 0,411027390480234 
869	 0,411268513234666 
870	 0,411584480834487 
871	 0,411855722967309 
872	 0,412071763880933 
873	 0,412239582370535 
874	 0,412394529717915 
875	 0,412522487044609 
876	 0,412520209533655 
877	 0,412723617111094 
878	 0,413106800954835 
879	 0,412553441720608 
880	 0,412272502363533 
881	 0,413547572991228 
882	 0,414309002608095 
883	 0,414282146267394 
884	 0,413841565790233 
885	 0,413858429516486 
886	 0,414514483871683 
887	 0,414746926700521 
888	 0,414575286082918 
889	 0,414151980732774 
890	 0,414347585891906 
891	 0,414964979124967 
892	 0,415217569964629 
893	 0,415310708576487 
894	 0,415280179625092 
895	 0,415034301352961 
896	 0,415063545926672 
897	 0,415679895811002 
898	 0,416087017973532 
899	 0,416118508794041 
900	 0,415693035595361 
901	 0,415838617197433 
902	 0,41656556591045 
903	 0,416702927822706 
904	 0,416556882201552 
905	 0,416389254733476 
906	 0,416579945300997 
907	 0,416955627181374 
908	 0,417192429451361 
909	 0,417523753712233 
910	 0,417761345833454 
911	 0,417170403111062 
912	 0,416617311775569 
913	 0,416501576586776 
914	 0,416270063477358 
915	 0,416657127032682 
916	 0,418351781936344 
917	 0,418252620356898 
918	 0,416840602083063 
919	 0,41704893114405 
920	 0,41710151371723 
921	 0,416622437275051 
922	 0,416615546516732 
923	 0,416800356080473 
924	 0,416867095656011 
925	 0,416494456951641 
926	 0,416010637733157 
927	 0,416113884543598 
928	 0,41581069330158 
929	 0,415213137613743 
930	 0,415831581123431 
931	 0,416244221837421 
932	 0,415673740930606 
933	 0,41497730111048 
934	 0,414722047639367 
935	 0,415434159924012 
936	 0,415122030328978 
937	 0,41409463124924 
938	 0,414672848618651 
939	 0,414595619113931 
940	 0,413368196979546 
941	 0,413163345223083 
942	 0,413068983941615 
943	 0,412192171414488 
944	 0,411061395232101 
945	 0,409839996406323 
946	 0,408645926032331 
947	 0,408086736726545 
948	 0,408009516754424 
949	 0,407164080776452 
950	 0,40638758667731 
951	 0,406071607430865 
952	 0,405576683681339 
953	 0,404313439825173 
954	 0,401795493788903 
955	 0,400763650307705 
956	 0,401137114409067 
957	 0,401274862622369 
958	 0,400014796292759 
959	 0,397578450922076 
960	 0,397266703504506 
961	 0,397662485089082 
962	 0,397604617229036 
963	 0,397855384820636 
964	 0,397847790878873 
965	 0,396644191916726 
966	 0,396220883743705 
967	 0,396716236276621 
968	 0,396920414403907 
969	 0,396850608026969 
970	 0,396688096174473 
971	 0,3977120784609 
972	 0,398170085376861 
973	 0,396594205199127 
974	 0,395655649542976 
975	 0,395373234778421 
976	 0,394873947560551 
977	 0,395601872995252 
978	 0,397108224571575 
979	 0,39648412505762 
980	 0,396518700205591 
981	 0,398130241396325 
982	 0,398056484120813 
983	 0,397156692226573 
984	 0,3967319959511 
985	 0,398623251415279 
986	 0,401330254999665 
987	 0,401423822194796 
988	 0,399486562917116 
989	 0,396962486056072 
990	 0,398438553483279 
991	 0,399325480806327 
992	 0,398012012051446 
993	 0,400582364356005 
994	 0,403130895465185 
995	 0,401582066627035 
996	 0,402936180019525 
997	 0,40513983186797 
998	 0,401662083449837 
999	 0,402850527424634 
1000	 0,408213637563511 
1001	 0,404721868798952 
1002	 0,402662871957543 
1003	 0,406266358075932 
1004	 0,407657126234304 
1005	 0,407082734969104 
1006	 0,405747207531857 
1007	 0,408019647025922 
1008	 0,410814318829125 
1009	 0,407265207297952 
1010	 0,406890594201796 
1011	 0,410626365333076 
1012	 0,412985411320684 
1013	 0,414455401098326 
1014	 0,414796466884332 
1015	 0,412549100573026 
1016	 0,412130426574844 
1017	 0,416567258746883 
1018	 0,418161539275186 
1019	 0,417222382826406 
1020	 0,416063423504151 
1021	 0,414028213993786 
1022	 0,41225507954461 
1023	 0,413733422334478 
1024	 0,417172174580617 
1025	 0,421094226903636 
1026	 0,421454466269466 
1027	 0,421497754147 
1028	 0,4233634101287 
1029	 0,425643463630119 
1030	 0,426777688703541 
1031	 0,425177984330955 
1032	 0,421697620499238 
1033	 0,419157660258748 
1034	 0,422501803035218 
1035	 0,423706983296438 
1036	 0,421955760202582 
1037	 0,423226736958509 
1038	 0,424689386280916 
1039	 0,424864398149889 
1040	 0,423206191151334 
1041	 0,42197532607313 
1042	 0,422663762662625 
1043	 0,420373254211962 
1044	 0,42041838363059 
1045	 0,430280128028296 
1046	 0,434529184128951 
1047	 0,432421239449857 
1048	 0,430424946188576 
1049	 0,430946081108781 
1050	 0,432691668271833 
1051	 0,42613370758186 
1052	 0,422455927194351 
1053	 0,427216613736737 
1054	 0,43664212811587 
1055	 0,441007654883738 
1056	 0,433935380885219 
1057	 0,43396805013175 
1058	 0,432632471880282 
1059	 0,415978499431914 
1060	 0,413986637937971 
1061	 0,425257495626995 
1062	 0,431609944591967 
1063	 0,43749176945255 
1064	 0,441107049065238 
1065	 0,434725076376143 
1066	 0,423470310156041 
1067	 0,415280890086765 
1068	 0,430641167360615 
1069	 0,442340564072344 
1070	 0,432336949995917 
1071	 0,435755871873608 
1072	 0,439192344012967 
1073	 0,424409579175598 
1074	 0,424768340428442 
1075	 0,42938843742182 
