Wavelength	AVEN00127.asd
325	 0,229758201754113 
326	 0,19166526517548 
327	 0,176843755813644 
328	 0,188727677544599 
329	 0,212995130543189 
330	 0,192680166978435 
331	 0,104688767183636 
332	 0,126886393818665 
333	 0,197701308273448 
334	 0,1132404947787 
335	 0,082986180133618 
336	 0,141066996819337 
337	 0,147277004445889 
338	 0,124574970078246 
339	 9,64671582918882E-02 
340	 9,61262391808583E-02 
341	 0,120068282207595 
342	 0,138975491037509 
343	 0,201899082481759 
344	 0,285321534979476 
345	 0,265421752462591 
346	 0,204818024154199 
347	 0,18118199923378 
348	 0,222223597599353 
349	 0,283108953285851 
350	 0,239752654926737 
351	 0,204780832751484 
352	 0,22128677689111 
353	 0,24200880967169 
354	 0,266393219950985 
355	 0,298264712445293 
356	 0,314821697145579 
357	 0,311262831700035 
358	 0,291885968966109 
359	 0,277032010987401 
360	 0,275663805703915 
361	 0,281024392092712 
362	 0,28492390947046 
363	 0,278266570480181 
364	 0,273103054133652 
365	 0,276336838681814 
366	 0,299423804978216 
367	 0,319635845765461 
368	 0,319574788306678 
369	 0,299691786313095 
370	 0,27929209961901 
371	 0,293000452326776 
372	 0,310501583509009 
373	 0,319811478267819 
374	 0,315789204981888 
375	 0,301283624020296 
376	 0,282908514530763 
377	 0,300678440640207 
378	 0,332517375302184 
379	 0,309812765363889 
380	 0,304140143635554 
381	 0,326970955002808 
382	 0,326991413578409 
383	 0,314583153264763 
384	 0,303064952786791 
385	 0,301469193228217 
386	 0,310361989663813 
387	 0,328021479490051 
388	 0,333538259723302 
389	 0,323362350275483 
390	 0,329286257899728 
391	 0,338583141696799 
392	 0,334748860097768 
393	 0,328742916093221 
394	 0,325458344595239 
395	 0,330298771837488 
396	 0,340106232524662 
397	 0,350293272958101 
398	 0,342113888582716 
399	 0,33020683020683 
400	 0,339370583107032 
401	 0,343850227333053 
402	 0,33925704956813 
403	 0,332119233215451 
404	 0,332867901800549 
405	 0,346675733334128 
406	 0,351290471020806 
407	 0,349498407289088 
408	 0,354404189734874 
409	 0,353747889890597 
410	 0,346906553261046 
411	 0,346783343910699 
412	 0,35157648732583 
413	 0,35830508535169 
414	 0,357260837703356 
415	 0,350755710273035 
416	 0,349080580548912 
417	 0,347307625210212 
418	 0,344927811483417 
419	 0,351017395186923 
420	 0,356018510590482 
421	 0,347328329955984 
422	 0,349022107130153 
423	 0,359291783171536 
424	 0,353171577325606 
425	 0,346703021223287 
426	 0,34932284413027 
427	 0,35229951347709 
428	 0,354068356960382 
429	 0,353978859561277 
430	 0,353084508835903 
431	 0,352337405374819 
432	 0,353980134952485 
433	 0,356154576289485 
434	 0,357111271041743 
435	 0,356537130340682 
436	 0,355270215069683 
437	 0,355453547255427 
438	 0,356118039810131 
439	 0,356853127856417 
440	 0,357732691912796 
441	 0,357849945330617 
442	 0,356124466727894 
443	 0,355140034670369 
444	 0,355649799196787 
445	 0,358002533662675 
446	 0,359127106494494 
447	 0,357647689245177 
448	 0,359618400366275 
449	 0,36328659457159 
450	 0,363864935545156 
451	 0,364891240052881 
452	 0,366479282610313 
453	 0,364007922442898 
454	 0,362674263870297 
455	 0,366995445732909 
456	 0,367777616573135 
457	 0,365871423647099 
458	 0,368894775142373 
459	 0,369107480331809 
460	 0,364707255384868 
461	 0,365790704770347 
462	 0,369309222783212 
463	 0,369961717022194 
464	 0,369199604607056 
465	 0,368090774693905 
466	 0,369367264267977 
467	 0,370424009320495 
468	 0,369886397592419 
469	 0,372077877106249 
470	 0,374834188314506 
471	 0,37273551743895 
472	 0,370914489993253 
473	 0,370652936005528 
474	 0,369261880758171 
475	 0,368468189609063 
476	 0,369997456127916 
477	 0,372325135301972 
478	 0,37405930905815 
479	 0,372436735730601 
480	 0,370571564380341 
481	 0,370181211657014 
482	 0,372219900753146 
483	 0,373641278754654 
484	 0,369819452101175 
485	 0,368521738815234 
486	 0,370519709902728 
487	 0,370240559418939 
488	 0,369427145571549 
489	 0,369467946358526 
490	 0,369911913846776 
491	 0,370595636535733 
492	 0,37141615414819 
493	 0,371781274110686 
494	 0,371426926634735 
495	 0,370290051888996 
496	 0,369447548052968 
497	 0,370060693377899 
498	 0,370694530884444 
499	 0,371141655148249 
500	 0,37196395525566 
501	 0,372473397249905 
502	 0,372414985415887 
503	 0,372943692830923 
504	 0,374180948438516 
505	 0,37623231263765 
506	 0,376832945678687 
507	 0,375984796948703 
508	 0,377015959087034 
509	 0,378494340091386 
510	 0,379012655554584 
511	 0,378977429074253 
512	 0,379088156437702 
513	 0,381075098078261 
514	 0,382520847191966 
515	 0,382596488339298 
516	 0,383648800710208 
517	 0,384568050370739 
518	 0,383532200767078 
519	 0,38257787175322 
520	 0,382520300369122 
521	 0,384270633673872 
522	 0,385387626547823 
523	 0,384275406389622 
524	 0,383879377691216 
525	 0,384230941702113 
526	 0,384330290890531 
527	 0,384235516548679 
528	 0,383974313219577 
529	 0,383841151922245 
530	 0,383654010035815 
531	 0,383188256834081 
532	 0,383875286871618 
533	 0,385257421442242 
534	 0,384920534184952 
535	 0,384464794581638 
536	 0,384800171617996 
537	 0,385081511908298 
538	 0,385357960510518 
539	 0,385958731164164 
540	 0,386246347629146 
541	 0,386104742228319 
542	 0,385977200329632 
543	 0,386063203633692 
544	 0,386486806341818 
545	 0,386041036718168 
546	 0,385453502383722 
547	 0,387619189329934 
548	 0,388962775425825 
549	 0,388013634068276 
550	 0,387918541221589 
551	 0,388274283040108 
552	 0,387869371499839 
553	 0,387937618230294 
554	 0,388436766735823 
555	 0,387814238476457 
556	 0,387043899599086 
557	 0,386956178702789 
558	 0,386973859267801 
559	 0,386848012459543 
560	 0,386231644668261 
561	 0,38546008888475 
562	 0,384796415884152 
563	 0,384800536630563 
564	 0,385069356872636 
565	 0,385009974675002 
566	 0,384990348106828 
567	 0,385041959826022 
568	 0,384852763676082 
569	 0,385199638756034 
570	 0,386526449254154 
571	 0,387330094900797 
572	 0,388297404313948 
573	 0,391669532246547 
574	 0,393775612518018 
575	 0,39384211148408 
576	 0,395367906245331 
577	 0,397496438346041 
578	 0,398989096724756 
579	 0,400391588123667 
580	 0,401779945342361 
581	 0,403024379146221 
582	 0,404558774008722 
583	 0,406487378123357 
584	 0,407587899878509 
585	 0,408265141464592 
586	 0,409504004668612 
587	 0,41081574530294 
588	 0,411959208022654 
589	 0,412561172702815 
590	 0,412895427065004 
591	 0,413252201449248 
592	 0,413781098026131 
593	 0,414547965159945 
594	 0,415667586215518 
595	 0,416505280392058 
596	 0,416823600464152 
597	 0,417454915518599 
598	 0,417780174304305 
599	 0,416735968932791 
600	 0,416200298031104 
601	 0,416465097561913 
602	 0,416389175126011 
603	 0,416092073109736 
604	 0,415677903883317 
605	 0,415050717005854 
606	 0,414419710166788 
607	 0,414378033815859 
608	 0,413924447961342 
609	 0,412830770195539 
610	 0,412185052281899 
611	 0,411761183665647 
612	 0,411164428542425 
613	 0,41026447469328 
614	 0,409193847202139 
615	 0,408436601306933 
616	 0,408079407639324 
617	 0,408142185579501 
618	 0,408272929570814 
619	 0,408314349867947 
620	 0,408126545570442 
621	 0,40773122244527 
622	 0,407230724472752 
623	 0,40695742414746 
624	 0,407036138382299 
625	 0,407543927399472 
626	 0,407895883256926 
627	 0,408025127692844 
628	 0,408183591272446 
629	 0,408301164248793 
630	 0,408402105542443 
631	 0,408835037792135 
632	 0,409415873492512 
633	 0,409768455159833 
634	 0,410430412893677 
635	 0,411459512246478 
636	 0,4124482116751 
637	 0,413374571137744 
638	 0,414236360994477 
639	 0,415171534553308 
640	 0,416178841606091 
641	 0,417225045755919 
642	 0,418094528155515 
643	 0,41869281252758 
644	 0,419124519714692 
645	 0,419495280337155 
646	 0,419927658629276 
647	 0,419920151464392 
648	 0,419523260026014 
649	 0,419544548024096 
650	 0,418761874976588 
651	 0,416539596207996 
652	 0,414910024572805 
653	 0,413991543081228 
654	 0,4134193166877 
655	 0,41227242063055 
656	 0,4104244354935 
657	 0,409205165965652 
658	 0,408031366536815 
659	 0,406222614209794 
660	 0,404073654268765 
661	 0,401862665295724 
662	 0,400178349526174 
663	 0,39842515644699 
664	 0,396398930402307 
665	 0,394866835713198 
666	 0,393710357446744 
667	 0,392610784388531 
668	 0,39151017244131 
669	 0,390334794344096 
670	 0,388872215988351 
671	 0,387843153088826 
672	 0,387751309957556 
673	 0,387296356948378 
674	 0,386725254419096 
675	 0,387312451973712 
676	 0,387527380390166 
677	 0,386940119757763 
678	 0,38657019486644 
679	 0,386568193029003 
680	 0,387000828554612 
681	 0,387640358176863 
682	 0,388380759180416 
683	 0,389012633988865 
684	 0,390208322435861 
685	 0,392301100404458 
686	 0,394433579332352 
687	 0,396701953360624 
688	 0,399440017590418 
689	 0,402958957565838 
690	 0,407323098162109 
691	 0,412141301659835 
692	 0,417542599318743 
693	 0,423615085581785 
694	 0,429392928531396 
695	 0,435221664076274 
696	 0,442542547936837 
697	 0,449845269918405 
698	 0,456701986900432 
699	 0,464610980493703 
700	 0,472789783708209 
701	 0,4801264801321 
702	 0,487475923722772 
703	 0,494777797185575 
704	 0,501233201490207 
705	 0,507380472151689 
706	 0,513560837536242 
707	 0,519406831769042 
708	 0,524839967514702 
709	 0,529813639439251 
710	 0,534429456353182 
711	 0,538690720469462 
712	 0,542324966317687 
713	 0,545866979306713 
714	 0,549765126166751 
715	 0,553059231297757 
716	 0,555638254413451 
717	 0,557645784450644 
718	 0,55975185548591 
719	 0,562179513129038 
720	 0,564142603305834 
721	 0,565871068617405 
722	 0,567760828821629 
723	 0,569192842753417 
724	 0,570248445441052 
725	 0,571758069202269 
726	 0,572909388928828 
727	 0,573309083981081 
728	 0,574120455883069 
729	 0,575223573149698 
730	 0,576145876466607 
731	 0,576502438094077 
732	 0,576446547876801 
733	 0,577210565607969 
734	 0,578133777681565 
735	 0,578616057217213 
736	 0,579209395572087 
737	 0,579735784870798 
738	 0,57941539709138 
739	 0,579627604413014 
740	 0,580682679917471 
741	 0,581093192873625 
742	 0,581032399844282 
743	 0,580860192988531 
744	 0,581008590328072 
745	 0,581396829717736 
746	 0,581366767842515 
747	 0,58142565815121 
748	 0,581772194381782 
749	 0,581779364719156 
750	 0,581664120679778 
751	 0,581874166854444 
752	 0,581988713646355 
753	 0,581923719075177 
754	 0,581750145818367 
755	 0,58188697386839 
756	 0,582526227578784 
757	 0,582410316970396 
758	 0,581901708769234 
759	 0,582122273434452 
760	 0,582598636672739 
761	 0,582985660040645 
762	 0,582396066239297 
763	 0,581739573930505 
764	 0,581906417556793 
765	 0,582486375442346 
766	 0,583072361911445 
767	 0,582836467655059 
768	 0,582589968711353 
769	 0,582656270238396 
770	 0,582891530814567 
771	 0,582931733712543 
772	 0,582387395800818 
773	 0,582288433605626 
774	 0,5826078505214 
775	 0,582512730237094 
776	 0,582241184452088 
777	 0,581964668771068 
778	 0,582014393587275 
779	 0,582230053994042 
780	 0,582316904573285 
781	 0,582432691222808 
782	 0,582564644289084 
783	 0,582588421249888 
784	 0,582437909033356 
785	 0,5821114641734 
786	 0,581904552092705 
787	 0,581967749997088 
788	 0,582508952344151 
789	 0,58260924624909 
790	 0,582220213968326 
791	 0,582528186911634 
792	 0,582627091602241 
793	 0,581869065220224 
794	 0,581602465425126 
795	 0,581790191275163 
796	 0,581864623084241 
797	 0,581850052044257 
798	 0,581745478237729 
799	 0,58163267070178 
800	 0,581620529694258 
801	 0,58177978256304 
802	 0,581663707495272 
803	 0,581450052709415 
804	 0,58186112110255 
805	 0,58202606657906 
806	 0,581718534991808 
807	 0,581628552436748 
808	 0,581584666514209 
809	 0,581367139970541 
810	 0,581322759077778 
811	 0,581401494274255 
812	 0,581198928354198 
813	 0,581348169851646 
814	 0,581980093008538 
815	 0,58217948949279 
816	 0,582127524934833 
817	 0,582138935377278 
818	 0,582108601824069 
819	 0,582017966303155 
820	 0,581823804355825 
821	 0,581718208940555 
822	 0,581800639344414 
823	 0,582083128565924 
824	 0,582148525269692 
825	 0,581493223766034 
826	 0,581545978892528 
827	 0,582302123765466 
828	 0,582690622227827 
829	 0,582436805292593 
830	 0,581604743155221 
831	 0,58183097135607 
832	 0,582411245716652 
833	 0,582144463693414 
834	 0,58223406395476 
835	 0,58267226593053 
836	 0,582470407002823 
837	 0,582292457882561 
838	 0,582413250474296 
839	 0,582066419783515 
840	 0,581612433832019 
841	 0,581662838787138 
842	 0,581560111356917 
843	 0,581374508791329 
844	 0,581946225969579 
845	 0,582249843285745 
846	 0,581824722480087 
847	 0,581746494879214 
848	 0,581923254315637 
849	 0,582047397510262 
850	 0,582064151262603 
851	 0,581906649452368 
852	 0,581430882294921 
853	 0,581085216041193 
854	 0,581077614113734 
855	 0,58090665816101 
856	 0,580803631452354 
857	 0,581147194920191 
858	 0,581169253073118 
859	 0,580939725443099 
860	 0,581363349241013 
861	 0,581627839786286 
862	 0,581372110639568 
863	 0,581229529796759 
864	 0,5811386316723 
865	 0,580939458666213 
866	 0,581201542466215 
867	 0,581784576393498 
868	 0,581927683561613 
869	 0,581676212716249 
870	 0,581175858914699 
871	 0,581176269210654 
872	 0,581554063241968 
873	 0,582047635860825 
874	 0,582429497448749 
875	 0,582436463775211 
876	 0,581389971723901 
877	 0,581152974906465 
878	 0,582222288881588 
879	 0,582362256940683 
880	 0,582087843307111 
881	 0,582125506518406 
882	 0,581796540997934 
883	 0,58139775784651 
884	 0,582047495898724 
885	 0,582504380557211 
886	 0,582383750454277 
887	 0,582363083006254 
888	 0,582113845174813 
889	 0,581399873575235 
890	 0,581611426702747 
891	 0,582274598562148 
892	 0,581728147948621 
893	 0,581877669677619 
894	 0,582775569341588 
895	 0,581837682642362 
896	 0,580794279771179 
897	 0,580993817240487 
898	 0,580972234403954 
899	 0,580884597838046 
900	 0,581410213151359 
901	 0,581483466013472 
902	 0,581139307639736 
903	 0,581700652282746 
904	 0,582433904329583 
905	 0,582746533299697 
906	 0,581976883080048 
907	 0,581030586447989 
908	 0,581274387662783 
909	 0,582149173007603 
910	 0,583033480422225 
911	 0,582452618670703 
912	 0,581984215973238 
913	 0,582195605697817 
914	 0,581445250698613 
915	 0,581076770429587 
916	 0,582546426711447 
917	 0,582568012749044 
918	 0,581319034743101 
919	 0,580925642486772 
920	 0,581263284625619 
921	 0,581985066690998 
922	 0,581338482158948 
923	 0,580644625290935 
924	 0,580975094373601 
925	 0,580867115410635 
926	 0,580378207553078 
927	 0,579992727008516 
928	 0,580219655118913 
929	 0,580928967610081 
930	 0,581090852657251 
931	 0,58093635151263 
932	 0,580637306678739 
933	 0,580406123247913 
934	 0,58017996586918 
935	 0,579849913480003 
936	 0,580036614536028 
937	 0,580450713458119 
938	 0,579872270348849 
939	 0,579421167972386 
940	 0,579464603720842 
941	 0,579476781748645 
942	 0,579626810329127 
943	 0,579922253811427 
944	 0,578594523010952 
945	 0,576587977521484 
946	 0,576124694312281 
947	 0,576549698541846 
948	 0,577419879828929 
949	 0,577995400763501 
950	 0,577329822507214 
951	 0,575355405995146 
952	 0,575563844803069 
953	 0,575662181167283 
954	 0,57266667352213 
955	 0,571613893244836 
956	 0,572578629610633 
957	 0,573050656461234 
958	 0,572473766490976 
959	 0,570953223949235 
960	 0,570367030762638 
961	 0,570579186062354 
962	 0,5713419890885 
963	 0,572224879833636 
964	 0,572351157739513 
965	 0,570597247094693 
966	 0,570138128673728 
967	 0,570833523066205 
968	 0,569420440607363 
969	 0,568619102467622 
970	 0,569524493113825 
971	 0,571630018364157 
972	 0,572242381562756 
973	 0,569377923806012 
974	 0,56845118792537 
975	 0,568962564881822 
976	 0,568297878960823 
977	 0,567561493101386 
978	 0,5673733532103 
979	 0,569019473876911 
980	 0,57005348958888 
981	 0,5694206274495 
982	 0,568971209280862 
983	 0,569159790359572 
984	 0,570146900966001 
985	 0,56991950306971 
986	 0,56933513701489 
987	 0,570876337969827 
988	 0,570446923993465 
989	 0,568194509641903 
990	 0,569056899852243 
991	 0,570356136299189 
992	 0,57059776288263 
993	 0,569908067664796 
994	 0,569312884905649 
995	 0,569898619931706 
996	 0,571717540082939 
997	 0,573902015268058 
998	 0,574826602383997 
999	 0,576457882951248 
1000	 0,577904242572015 
1001	 0,573990763744339 
1002	 0,571030162649764 
1003	 0,572284349763908 
1004	 0,576144710474005 
1005	 0,577451108128081 
1006	 0,572246607207565 
1007	 0,572214519990193 
1008	 0,574723073581844 
1009	 0,571391663757902 
1010	 0,572137537984686 
1011	 0,577112092274232 
1012	 0,578395889134466 
1013	 0,578836373430696 
1014	 0,579126275573499 
1015	 0,576824610326206 
1016	 0,575079094670236 
1017	 0,576480703297978 
1018	 0,578757871845538 
1019	 0,579526402285287 
1020	 0,575993326919952 
1021	 0,575228656980383 
1022	 0,577092649815464 
1023	 0,576301354656704 
1024	 0,575123854036321 
1025	 0,573988793402983 
1026	 0,571044099180399 
1027	 0,571617130853078 
1028	 0,577826860951903 
1029	 0,57884840820881 
1030	 0,578183930915314 
1031	 0,580948383187215 
1032	 0,580499631788155 
1033	 0,577315274381668 
1034	 0,574633610718219 
1035	 0,576196848685696 
1036	 0,580809914629777 
1037	 0,580246004955228 
1038	 0,579025217531711 
1039	 0,57884166285993 
1040	 0,577462585647413 
1041	 0,574816495055561 
1042	 0,571610888750548 
1043	 0,573060493812646 
1044	 0,574677898470624 
1045	 0,569702992995225 
1046	 0,569924738331733 
1047	 0,575320203383335 
1048	 0,579994454798404 
1049	 0,581548133233645 
1050	 0,579289605175055 
1051	 0,575298118380744 
1052	 0,56989215191548 
1053	 0,565356554689026 
1054	 0,570936824345077 
1055	 0,576174968397906 
1056	 0,573014674506276 
1057	 0,576718805371058 
1058	 0,581500775976878 
1059	 0,577052432730873 
1060	 0,579130414279314 
1061	 0,584341062296899 
1062	 0,57679482755165 
1063	 0,580080056214259 
1064	 0,591073714865181 
1065	 0,571872411116638 
1066	 0,557978954895338 
1067	 0,566048363879316 
1068	 0,58302772285895 
1069	 0,593005133704953 
1070	 0,584993491928551 
1071	 0,571860129860997 
1072	 0,562181624009685 
1073	 0,563675245853954 
1074	 0,567571827289668 
1075	 0,569483437701168 
