Wavelength	AVEN00000.asd
325	 0,371072103127357 
326	 0,369913588057693 
327	 0,404108751694262 
328	 0,463479036902779 
329	 0,479019589341523 
330	 0,478564474777388 
331	 0,493236681117775 
332	 0,452113968368948 
333	 0,367028284503409 
334	 0,252319998888346 
335	 0,258405140748295 
336	 0,363809205322772 
337	 0,308490058820062 
338	 0,233428460126949 
339	 0,267031383982164 
340	 0,275511882909708 
341	 0,259202853831006 
342	 0,265005236047961 
343	 0,290433188162402 
344	 0,319375002664007 
345	 0,296607073125536 
346	 0,255311371087443 
347	 0,238573470586058 
348	 0,237938445102298 
349	 0,246760667590926 
350	 0,25466863825783 
351	 0,258967492464544 
352	 0,261022709889606 
353	 0,279886788650592 
354	 0,298251307770267 
355	 0,296280691548556 
356	 0,288563139006011 
357	 0,280717700580883 
358	 0,279109332541221 
359	 0,270326939745631 
360	 0,252696754951582 
361	 0,272458245153308 
362	 0,296013742970882 
363	 0,27374778529453 
364	 0,268175076266324 
365	 0,286088915967726 
366	 0,301315702804233 
367	 0,297000799365481 
368	 0,267485855861036 
369	 0,261938084086712 
370	 0,273278773675172 
371	 0,278015589769638 
372	 0,280981698010383 
373	 0,284536432614374 
374	 0,296116457540941 
375	 0,306246736568141 
376	 0,307173821915693 
377	 0,293995101465045 
378	 0,279581880867232 
379	 0,29776677576071 
380	 0,301564874140335 
381	 0,285406824167412 
382	 0,295705327489551 
383	 0,305393605885121 
384	 0,286928835643992 
385	 0,27453176940266 
386	 0,273832662595577 
387	 0,280976726824338 
388	 0,290709318319779 
389	 0,298361624045007 
390	 0,296793539709541 
391	 0,290082916832067 
392	 0,283081938888882 
393	 0,281682437845351 
394	 0,284559712263254 
395	 0,281524663437519 
396	 0,283327721976428 
397	 0,293397023623271 
398	 0,29674027385393 
399	 0,292508417508418 
400	 0,28205894364493 
401	 0,275767041181304 
402	 0,27633337971752 
403	 0,281842771975136 
404	 0,289142016294783 
405	 0,295468504946539 
406	 0,295944387110033 
407	 0,293549908606844 
408	 0,296061587608284 
409	 0,293043857349639 
410	 0,284637718863359 
411	 0,286242504403941 
412	 0,288708554986211 
413	 0,283415954067702 
414	 0,284609147284423 
415	 0,290003833174741 
416	 0,287120788470558 
417	 0,286490784449632 
418	 0,291517363443999 
419	 0,296860511920221 
420	 0,297742898646504 
421	 0,289045240017684 
422	 0,286849603355249 
423	 0,291655358995165 
424	 0,291661961826799 
425	 0,290843945282845 
426	 0,291122623771603 
427	 0,28690615611528 
428	 0,282697012185989 
429	 0,287919640397286 
430	 0,290186353129009 
431	 0,287880789807306 
432	 0,290977508890705 
433	 0,294070946807139 
434	 0,292399645941256 
435	 0,291885344444703 
436	 0,292706752834864 
437	 0,292294494118408 
438	 0,29288333822808 
439	 0,294777321225686 
440	 0,29434771087829 
441	 0,293303839751569 
442	 0,294164390365036 
443	 0,294691383744906 
444	 0,294743710843373 
445	 0,296023202425729 
446	 0,295457526863239 
447	 0,291969682578357 
448	 0,293375512591705 
449	 0,297665387878628 
450	 0,299244771156355 
451	 0,29988101753917 
452	 0,300131861215904 
453	 0,300506413377587 
454	 0,301510440458998 
455	 0,303417068980207 
456	 0,303468524623446 
457	 0,302370120304415 
458	 0,303777690210483 
459	 0,303330800177988 
460	 0,2999840421233 
461	 0,298890924319231 
462	 0,300703781869498 
463	 0,305557003014019 
464	 0,306349045288567 
465	 0,303293708653335 
466	 0,304414150135065 
467	 0,304937892077794 
468	 0,302325514385725 
469	 0,303590235779956 
470	 0,306682351753191 
471	 0,305583922202206 
472	 0,305092648325103 
473	 0,306037359301079 
474	 0,305042958893418 
475	 0,303119299514955 
476	 0,301562151067164 
477	 0,303274589793292 
478	 0,306944128866809 
479	 0,30782342168037 
480	 0,305664165683405 
481	 0,301316631022342 
482	 0,301797231148526 
483	 0,30428696455703 
484	 0,303460295690929 
485	 0,303114861045867 
486	 0,303806504356503 
487	 0,30409713682069 
488	 0,30365864943092 
489	 0,302429056372077 
490	 0,302480751033024 
491	 0,303165565774945 
492	 0,302045883371857 
493	 0,301780858938087 
494	 0,302907374232037 
495	 0,302992258981801 
496	 0,302927195758553 
497	 0,303880427203817 
498	 0,302413351156378 
499	 0,300022223798741 
500	 0,303765406818505 
501	 0,306624121488463 
502	 0,305083993967863 
503	 0,305465590121074 
504	 0,307060809508182 
505	 0,307273320576933 
506	 0,307088169781653 
507	 0,307008843119052 
508	 0,307935316455561 
509	 0,309325187043604 
510	 0,310593869718708 
511	 0,310811156684781 
512	 0,310708230034011 
513	 0,312882690555436 
514	 0,313907391750326 
515	 0,312829170822533 
516	 0,313869282882411 
517	 0,31580218164942 
518	 0,316399306683682 
519	 0,316575707392892 
520	 0,316626454852335 
521	 0,3169856415137 
522	 0,316772559796795 
523	 0,315485354911294 
524	 0,314724107713892 
525	 0,314779692755656 
526	 0,315724848951157 
527	 0,316653190453801 
528	 0,317022804691922 
529	 0,316243107389558 
530	 0,31503630705191 
531	 0,314265258335117 
532	 0,315563976837395 
533	 0,31797552720242 
534	 0,317394584224696 
535	 0,31668558989827 
536	 0,317361490308534 
537	 0,317061158213762 
538	 0,316169728090423 
539	 0,315901779872403 
540	 0,315943821415967 
541	 0,316155846032356 
542	 0,316216851933149 
543	 0,316235788308518 
544	 0,316362088959536 
545	 0,31712234576864 
546	 0,318262368347567 
547	 0,318922619705819 
548	 0,318959567284621 
549	 0,31855560195032 
550	 0,319731230107893 
551	 0,321043937491779 
552	 0,319879740562556 
553	 0,319577966794575 
554	 0,320418048474168 
555	 0,319366132404049 
556	 0,318477881771836 
557	 0,319368773272378 
558	 0,319225472271867 
559	 0,318106296467848 
560	 0,317457998522181 
561	 0,316667193025689 
562	 0,315710955314415 
563	 0,315624616302167 
564	 0,315872063398985 
565	 0,31563268643645 
566	 0,315631743170227 
567	 0,316030084021025 
568	 0,316822388380378 
569	 0,317341609387489 
570	 0,317224921320228 
571	 0,317669732544152 
572	 0,319016956877106 
573	 0,321682597496894 
574	 0,323729969190361 
575	 0,324780154861221 
576	 0,327122162993208 
577	 0,329787723621511 
578	 0,331525553244292 
579	 0,333252705620388 
580	 0,335056436920897 
581	 0,336598936959359 
582	 0,338050193052354 
583	 0,339458118379125 
584	 0,340431138949071 
585	 0,341246564293101 
586	 0,342461937943377 
587	 0,343619145595322 
588	 0,344637144432554 
589	 0,345757555867095 
590	 0,347011585242103 
591	 0,34836090560025 
592	 0,348864016109421 
593	 0,348735227158654 
594	 0,349027155166576 
595	 0,349446180875028 
596	 0,349907198650283 
597	 0,350646660027039 
598	 0,351133648780437 
599	 0,350569391954442 
600	 0,350020176615143 
601	 0,349861434728091 
602	 0,35032328037608 
603	 0,350240180957417 
604	 0,348785431161399 
605	 0,347493202409398 
606	 0,346794089317902 
607	 0,347074044443105 
608	 0,347148561003083 
609	 0,346431920843884 
610	 0,344726618527116 
611	 0,342996026036273 
612	 0,342415536104924 
613	 0,342088676018006 
614	 0,341751508142468 
615	 0,341359554853473 
616	 0,340781559148129 
617	 0,34001617466306 
618	 0,339814387884131 
619	 0,339991441241715 
620	 0,340035898505135 
621	 0,339535822928383 
622	 0,338603816332491 
623	 0,338484071310133 
624	 0,338947798113896 
625	 0,339639514324105 
626	 0,339750813414961 
627	 0,33945219507993 
628	 0,339840851225846 
629	 0,340211187070258 
630	 0,340295049703697 
631	 0,340819187541813 
632	 0,34161858152394 
633	 0,342278897899932 
634	 0,343342970782985 
635	 0,344695991294459 
636	 0,345257477098638 
637	 0,345859247104767 
638	 0,347191745157916 
639	 0,348378504102036 
640	 0,349348071812179 
641	 0,350344770941251 
642	 0,35135008357724 
643	 0,352296026306949 
644	 0,352855529593668 
645	 0,353135207765909 
646	 0,353316279104684 
647	 0,353312464530256 
648	 0,353080973576345 
649	 0,352610840341881 
650	 0,351648231505092 
651	 0,350102626988802 
652	 0,348700477009644 
653	 0,347547328910661 
654	 0,346646465672015 
655	 0,345331806703886 
656	 0,343558703033535 
657	 0,34250572642419 
658	 0,341228062330813 
659	 0,338720365399453 
660	 0,336231554715252 
661	 0,33394093812028 
662	 0,331467766943929 
663	 0,329074163438232 
664	 0,326924336215989 
665	 0,325046519856637 
666	 0,323512543911346 
667	 0,322418524059585 
668	 0,321542143942554 
669	 0,320681518034822 
670	 0,31941175157737 
671	 0,318254321309477 
672	 0,317620259424808 
673	 0,317030540702478 
674	 0,316548558577026 
675	 0,316558835118541 
676	 0,316557230136301 
677	 0,316367473814421 
678	 0,31619600209808 
679	 0,316118530540018 
680	 0,316206575776917 
681	 0,316868455581949 
682	 0,317985839968784 
683	 0,318720654969375 
684	 0,320232183094663 
685	 0,32303047454789 
686	 0,325227685513997 
687	 0,327396405739992 
688	 0,330944884752083 
689	 0,335418622623763 
690	 0,340560314512114 
691	 0,345621961375921 
692	 0,351415439737473 
693	 0,358636887654695 
694	 0,365875617406096 
695	 0,373043979289028 
696	 0,380617724985214 
697	 0,388779923094454 
698	 0,397503908534729 
699	 0,406070167739542 
700	 0,414349153916084 
701	 0,422332515466774 
702	 0,430143972983977 
703	 0,437613311426782 
704	 0,444128417670142 
705	 0,45030517994087 
706	 0,456541756546807 
707	 0,462487474481178 
708	 0,467895124770267 
709	 0,472389311973934 
710	 0,476564692324751 
711	 0,480647768934103 
712	 0,484613662461092 
713	 0,488174317375003 
714	 0,491105106941086 
715	 0,494271352767538 
716	 0,49733167301951 
717	 0,498850073614761 
718	 0,500560273074513 
719	 0,503060564785556 
720	 0,505124776708821 
721	 0,506672027208397 
722	 0,507766135538512 
723	 0,508939454180872 
724	 0,510231487143048 
725	 0,511208046545637 
726	 0,512186168224299 
727	 0,513291593671109 
728	 0,51387580777427 
729	 0,514209096026135 
730	 0,514922715744894 
731	 0,515563120173606 
732	 0,516022938944638 
733	 0,516411800444344 
734	 0,516871766235021 
735	 0,517503765024125 
736	 0,518018280588772 
737	 0,518387806868866 
738	 0,518691583611047 
739	 0,518969325679488 
740	 0,519209195568615 
741	 0,519198868955209 
742	 0,519215314692259 
743	 0,519584848952224 
744	 0,519844968352431 
745	 0,519912789775305 
746	 0,519866433018062 
747	 0,519911859647347 
748	 0,520129347134221 
749	 0,520192313019443 
750	 0,520146423177739 
751	 0,520115367661396 
752	 0,520284951914446 
753	 0,520607334514929 
754	 0,520686973950746 
755	 0,520722594167645 
756	 0,520840694593461 
757	 0,520771088864435 
758	 0,520585515035222 
759	 0,520471064899511 
760	 0,520675174858073 
761	 0,521096677093836 
762	 0,520818902576382 
763	 0,520525694128794 
764	 0,520869799531391 
765	 0,521124913150973 
766	 0,521145985693963 
767	 0,520911408990757 
768	 0,520779441884171 
769	 0,520874573502444 
770	 0,520920964098569 
771	 0,520885844468571 
772	 0,520768621952488 
773	 0,521114158635315 
774	 0,52166339817793 
775	 0,521287068915708 
776	 0,520665201106441 
777	 0,520229684061195 
778	 0,520238935395493 
779	 0,520596914410998 
780	 0,521114560501662 
781	 0,521262012824342 
782	 0,520969730182856 
783	 0,520598301508111 
784	 0,520342151209196 
785	 0,5203343127945 
786	 0,520452215301537 
787	 0,520596286345984 
788	 0,520644813595389 
789	 0,520535941412099 
790	 0,520293280893974 
791	 0,520106868168035 
792	 0,519925936707514 
793	 0,519751441424033 
794	 0,520115382671913 
795	 0,520604587903711 
796	 0,520121331359834 
797	 0,519973146327858 
798	 0,520385210097914 
799	 0,520174624657141 
800	 0,519887391445938 
801	 0,520055025138849 
802	 0,519967734730886 
803	 0,519767384101673 
804	 0,520168120421029 
805	 0,520495839373873 
806	 0,520488150978764 
807	 0,520240072048574 
808	 0,51990807528575 
809	 0,519665199401329 
810	 0,519685208026895 
811	 0,519869632333289 
812	 0,519844809875875 
813	 0,519763977020114 
814	 0,519725715969188 
815	 0,519915643524429 
816	 0,520220229532521 
817	 0,520477736589204 
818	 0,520417482624543 
819	 0,520166924148289 
820	 0,520317124657043 
821	 0,520424321176056 
822	 0,520294093140075 
823	 0,520134498314244 
824	 0,519919782546246 
825	 0,519601323292667 
826	 0,520063714195235 
827	 0,521045941656098 
828	 0,521126952026362 
829	 0,520747871756161 
830	 0,520247445747386 
831	 0,520299764368695 
832	 0,520602606403269 
833	 0,52063000192745 
834	 0,520750114856237 
835	 0,520923980589672 
836	 0,520777989959766 
837	 0,520585996485734 
838	 0,520460880492352 
839	 0,520014699809711 
840	 0,519653698206234 
841	 0,519984516373904 
842	 0,520254785018434 
843	 0,520290924349719 
844	 0,520247563214924 
845	 0,52008817346659 
846	 0,519874376467367 
847	 0,520114217902855 
848	 0,520461602684073 
849	 0,520356547035121 
850	 0,520323414848322 
851	 0,520423644572624 
852	 0,520423137282649 
853	 0,520403765270986 
854	 0,520361146636373 
855	 0,5199101942898 
856	 0,519607477930165 
857	 0,520236928703478 
858	 0,520285946225003 
859	 0,51971996170295 
860	 0,519722843499919 
861	 0,519648547646339 
862	 0,51931162565742 
863	 0,519756777221264 
864	 0,520273699138137 
865	 0,519831953811842 
866	 0,519395222728816 
867	 0,519260125206102 
868	 0,519573738705591 
869	 0,519928530230097 
870	 0,520130066751341 
871	 0,520414096821439 
872	 0,520607752099696 
873	 0,520503578836065 
874	 0,520687409419311 
875	 0,521044673386001 
876	 0,520884232249421 
877	 0,520553770310964 
878	 0,520234221632212 
879	 0,520003992000178 
880	 0,520011440130872 
881	 0,520372445398722 
882	 0,520576411667161 
883	 0,520609921816579 
884	 0,520711643458145 
885	 0,521090018305571 
886	 0,521612784943501 
887	 0,521201583512507 
888	 0,520632455734652 
889	 0,520664428905963 
890	 0,520602219365759 
891	 0,520401213105131 
892	 0,520200728695734 
893	 0,520198770121956 
894	 0,520417897970609 
895	 0,520653993239344 
896	 0,520686926397566 
897	 0,520382831416905 
898	 0,520106244563611 
899	 0,51996754079816 
900	 0,520039985903367 
901	 0,520157918656411 
902	 0,520274423858249 
903	 0,520414363110681 
904	 0,520733142940134 
905	 0,521166924796538 
906	 0,520456803777439 
907	 0,519704377948237 
908	 0,520638909665651 
909	 0,521029627662659 
910	 0,520558484434272 
911	 0,520002361011906 
912	 0,519814278768473 
913	 0,520136704023186 
914	 0,52010132304169 
915	 0,520288743497721 
916	 0,52133427362116 
917	 0,521525953711227 
918	 0,520858034702874 
919	 0,520153302867915 
920	 0,520097079878804 
921	 0,520702240539459 
922	 0,520546735744504 
923	 0,520212752405406 
924	 0,520201976773727 
925	 0,519902511856232 
926	 0,519541497854334 
927	 0,519683513365651 
928	 0,519608848904864 
929	 0,519406849365051 
930	 0,520273805287535 
931	 0,520687062957612 
932	 0,519872984020973 
933	 0,519186634778921 
934	 0,518909560115999 
935	 0,519155381429941 
936	 0,518857778406092 
937	 0,518183736368834 
938	 0,518361810591559 
939	 0,518406775244173 
940	 0,518073250680679 
941	 0,518202618791899 
942	 0,518061029712893 
943	 0,517072775482036 
944	 0,516579543717018 
945	 0,516483910058878 
946	 0,516175391175172 
947	 0,51576077237032 
948	 0,515480319536107 
949	 0,516288357310994 
950	 0,516363121515083 
951	 0,514874470369603 
952	 0,513830128993009 
953	 0,513171557343459 
954	 0,512576971391673 
955	 0,512336979988278 
956	 0,512500810044232 
957	 0,513250752765762 
958	 0,512759947288649 
959	 0,511027015031665 
960	 0,51121321301206 
961	 0,511994446053286 
962	 0,512251719828046 
963	 0,512466664159328 
964	 0,511987621023475 
965	 0,509810543540315 
966	 0,510837672323455 
967	 0,514089828648449 
968	 0,512671818362023 
969	 0,510550022683827 
970	 0,509810920153953 
971	 0,512300062842162 
972	 0,513459135426602 
973	 0,50954973039299 
974	 0,507702755483389 
975	 0,50798545743406 
976	 0,508212688483721 
977	 0,509191411631528 
978	 0,510582815748152 
979	 0,511007079327969 
980	 0,51076742699923 
981	 0,510205094738525 
982	 0,51031539642951 
983	 0,51066949374041 
984	 0,510766981888876 
985	 0,511141116987562 
986	 0,511622732066462 
987	 0,511689679069454 
988	 0,512523153144057 
989	 0,513783032677668 
990	 0,513315191836565 
991	 0,511130169255409 
992	 0,508098983702972 
993	 0,508810830628686 
994	 0,510887071698996 
995	 0,511505083190502 
996	 0,512660957680021 
997	 0,513234070085222 
998	 0,510364947123341 
999	 0,511734768324822 
1000	 0,517092941066117 
1001	 0,517501099485925 
1002	 0,515575760963764 
1003	 0,513458041805028 
1004	 0,515566163517947 
1005	 0,517277998308277 
1006	 0,514274922642496 
1007	 0,514016305736987 
1008	 0,515191782234927 
1009	 0,513180027591709 
1010	 0,514035766258751 
1011	 0,51767373527703 
1012	 0,51895738120212 
1013	 0,518008888356851 
1014	 0,51575343203912 
1015	 0,517069811920792 
1016	 0,519011856488162 
1017	 0,518988833083508 
1018	 0,519655210809719 
1019	 0,519902575054656 
1020	 0,517693262887296 
1021	 0,517900474457514 
1022	 0,519040401708173 
1023	 0,51297225054627 
1024	 0,512130200854344 
1025	 0,518508949333143 
1026	 0,520865919163906 
1027	 0,51978220139064 
1028	 0,516561791846425 
1029	 0,515825120632853 
1030	 0,517661621280343 
1031	 0,521318483118591 
1032	 0,525894197549479 
1033	 0,527769582054056 
1034	 0,520673640538217 
1035	 0,51634978717195 
1036	 0,517340492201521 
1037	 0,519228723502948 
1038	 0,51846731379313 
1039	 0,514633431498837 
1040	 0,51564476939822 
1041	 0,517147652914021 
1042	 0,516042552971344 
1043	 0,520394024996909 
1044	 0,525718638337849 
1045	 0,524397804725358 
1046	 0,522895449412951 
1047	 0,52250491700561 
1048	 0,522897061590018 
1049	 0,522637336673991 
1050	 0,521530290626748 
1051	 0,521203283942091 
1052	 0,51797394411737 
1053	 0,512794606701185 
1054	 0,521377152825763 
1055	 0,527195110619986 
1056	 0,518128927521602 
1057	 0,523956261030353 
1058	 0,532378237823782 
1059	 0,521671130741888 
1060	 0,520579978315 
1061	 0,52664737811203 
1062	 0,520018114126538 
1063	 0,520949368411377 
1064	 0,529562807145272 
1065	 0,525193020174452 
1066	 0,516565978544233 
1067	 0,511904951410079 
1068	 0,52729191558632 
1069	 0,539259556020999 
1070	 0,531718322982858 
1071	 0,531594772352578 
1072	 0,530845844841452 
1073	 0,518563856013236 
1074	 0,52750156006907 
1075	 0,541060690586364 
