Wavelength	AVEN00039.asd
325	 0,406207339346602 
326	 0,223856850355445 
327	 0,162545512530895 
328	 0,27055291299801 
329	 0,327391623848043 
330	 0,301142242587656 
331	 0,211099652572664 
332	 0,12615960400821 
333	 9,48267919660954E-02 
334	 0,185111246465287 
335	 0,215668565205742 
336	 0,158721272114812 
337	 0,170454931114616 
338	 0,19578786313728 
339	 0,182882867432687 
340	 0,144820845014081 
341	 0,120468902580025 
342	 0,179418805329459 
343	 0,219571034129401 
344	 0,217186893938425 
345	 0,200540623727351 
346	 0,186445538553332 
347	 0,193016395705568 
348	 0,191495662325024 
349	 0,187174349798452 
350	 0,206355692969485 
351	 0,232581817807521 
352	 0,251401441756113 
353	 0,237977685573824 
354	 0,226427354910124 
355	 0,254678275648443 
356	 0,250249448980972 
357	 0,214146255478155 
358	 0,1950444957646 
359	 0,192327322218442 
360	 0,203398518949549 
361	 0,207684285555348 
362	 0,205625165967313 
363	 0,201876335155171 
364	 0,216157344977538 
365	 0,240883330922284 
366	 0,242850361807816 
367	 0,242776569836205 
368	 0,249028848293328 
369	 0,222205341182852 
370	 0,184353820957172 
371	 0,182611554660418 
372	 0,21053833488161 
373	 0,251536091551389 
374	 0,252884403405729 
375	 0,240057373491182 
376	 0,233929727856696 
377	 0,224875870092057 
378	 0,217092033290393 
379	 0,222267772576343 
380	 0,236322400885795 
381	 0,25045623012446 
382	 0,238239541236903 
383	 0,21848166181682 
384	 0,212139806346971 
385	 0,221098373641041 
386	 0,23671494802937 
387	 0,236980400874055 
388	 0,235389304527694 
389	 0,237914717948221 
390	 0,248311485593921 
391	 0,25487891249071 
392	 0,244861550406937 
393	 0,243373708463714 
394	 0,249448846693205 
395	 0,239984344067176 
396	 0,238801476036069 
397	 0,253603630087434 
398	 0,248270042561256 
399	 0,233005429503484 
400	 0,22867176628304 
401	 0,232046224923788 
402	 0,23895745741766 
403	 0,236179678579052 
404	 0,236178779552755 
405	 0,246299972270757 
406	 0,24881442861419 
407	 0,246031603980149 
408	 0,248426981462632 
409	 0,244890305970612 
410	 0,234748592451515 
411	 0,228426325185796 
412	 0,229844241142319 
413	 0,24099138831296 
414	 0,24687121958458 
415	 0,245122113450272 
416	 0,236231871866585 
417	 0,234684440909522 
418	 0,24417143751396 
419	 0,247634123069473 
420	 0,246008445155642 
421	 0,242538472727213 
422	 0,24419416065294 
423	 0,248547147503503 
424	 0,241341508035804 
425	 0,235451655977883 
426	 0,237961740148469 
427	 0,237094432747719 
428	 0,234695756439298 
429	 0,236891656624558 
430	 0,238696807979436 
431	 0,238944814576935 
432	 0,239003069082191 
433	 0,239537617672374 
434	 0,241014316768344 
435	 0,242212746456745 
436	 0,242764065507332 
437	 0,242687871829571 
438	 0,24069131063765 
439	 0,237482816651148 
440	 0,239846371002668 
441	 0,244469187461636 
442	 0,246490816617462 
443	 0,244434276546489 
444	 0,240779437751004 
445	 0,245654834792524 
446	 0,24792023478289 
447	 0,241856660505922 
448	 0,24181907859127 
449	 0,245830829632541 
450	 0,246496017205077 
451	 0,248125285787932 
452	 0,250600319345821 
453	 0,248087121434823 
454	 0,245416290388102 
455	 0,247162692668795 
456	 0,250077900311625 
457	 0,252243904687845 
458	 0,250698229382336 
459	 0,247402537940961 
460	 0,244283382584485 
461	 0,247193408027129 
462	 0,251289092831503 
463	 0,249491662527432 
464	 0,248043240108404 
465	 0,248466241083509 
466	 0,250518404419764 
467	 0,251680617978133 
468	 0,250525004268761 
469	 0,2501354511145 
470	 0,250723959167868 
471	 0,25174224319037 
472	 0,253087630287186 
473	 0,254074487084285 
474	 0,251952767662846 
475	 0,250192979215489 
476	 0,252133260059461 
477	 0,252904284348604 
478	 0,25240232285438 
479	 0,253441157225379 
480	 0,253375067577677 
481	 0,251625796307931 
482	 0,253351962297502 
483	 0,254947799585951 
484	 0,250256997716957 
485	 0,248907140870278 
486	 0,251793555824846 
487	 0,252099106421096 
488	 0,250910491723571 
489	 0,249392520721351 
490	 0,250225995441504 
491	 0,25231665605399 
492	 0,252247623920298 
493	 0,251673770645383 
494	 0,251204066069146 
495	 0,251074444605872 
496	 0,251298019181231 
497	 0,251829655118653 
498	 0,251036759461584 
499	 0,249697410680051 
500	 0,251253090987451 
501	 0,253255728758186 
502	 0,254173959385502 
503	 0,253774229127965 
504	 0,253220151057598 
505	 0,254634325551628 
506	 0,25522613461323 
507	 0,254597643342079 
508	 0,254712277505753 
509	 0,25575304259959 
510	 0,257698419804185 
511	 0,258912199539206 
512	 0,259284757135473 
513	 0,259512901676921 
514	 0,259317021193764 
515	 0,259013890932143 
516	 0,261169848926209 
517	 0,263552370611337 
518	 0,262859890782679 
519	 0,261283591558228 
520	 0,260064429897634 
521	 0,261314549272692 
522	 0,262890688185042 
523	 0,263147160308223 
524	 0,262325708809761 
525	 0,261216296279783 
526	 0,261382766235758 
527	 0,262200421102386 
528	 0,263098597148381 
529	 0,262278877171441 
530	 0,260988735861055 
531	 0,260781300938067 
532	 0,261528823262503 
533	 0,262600685139346 
534	 0,262083831809011 
535	 0,26182099362911 
536	 0,262700238236256 
537	 0,262339506494347 
538	 0,261598675561696 
539	 0,262754447696856 
540	 0,262746631534442 
541	 0,261300967925247 
542	 0,261792125284053 
543	 0,26264471736242 
544	 0,262214339503095 
545	 0,262043285205524 
546	 0,262309918043531 
547	 0,262652215108806 
548	 0,262965532599012 
549	 0,263209589013939 
550	 0,263687555153046 
551	 0,264058318213864 
552	 0,263702044591187 
553	 0,264320219664373 
554	 0,265571405014174 
555	 0,264025741223783 
556	 0,262441455426156 
557	 0,263071394690856 
558	 0,263187796901343 
559	 0,26266282080728 
560	 0,262462331576515 
561	 0,262028475485232 
562	 0,261295879903567 
563	 0,261165785727911 
564	 0,261090353231862 
565	 0,260243429041729 
566	 0,260061492456127 
567	 0,260759157187855 
568	 0,261780565120211 
569	 0,262457820879043 
570	 0,26241800943148 
571	 0,262917118223068 
572	 0,264141594104716 
573	 0,266120190212465 
574	 0,267681796281165 
575	 0,268501450953198 
576	 0,269502705811825 
577	 0,270844350258109 
578	 0,272614857103431 
579	 0,274594495003448 
580	 0,276438306970002 
581	 0,277350069025551 
582	 0,278267864742824 
583	 0,279659590226449 
584	 0,280571071875193 
585	 0,281331810726113 
586	 0,282738257295062 
587	 0,283970491093183 
588	 0,284847878466213 
589	 0,285757260814171 
590	 0,286708429586429 
591	 0,287661846406783 
592	 0,288073417448207 
593	 0,288072774552176 
594	 0,288170349550105 
595	 0,288855400667194 
596	 0,290197761481236 
597	 0,291002652125716 
598	 0,290848636989871 
599	 0,289310312300907 
600	 0,288586965587416 
601	 0,289000153527526 
602	 0,289010469535966 
603	 0,288634122640296 
604	 0,287948619228184 
605	 0,287560764800825 
606	 0,287317151272939 
607	 0,286481289739569 
608	 0,286031833341281 
609	 0,286096421268181 
610	 0,285155050452611 
611	 0,283932972691189 
612	 0,28346913642142 
613	 0,282953798689708 
614	 0,282271147104017 
615	 0,281675872269818 
616	 0,281135403484597 
617	 0,280669724254033 
618	 0,280580832087277 
619	 0,280759765465449 
620	 0,280991493428388 
621	 0,280728607563699 
622	 0,279903343034998 
623	 0,279063667125994 
624	 0,27901349403339 
625	 0,28042844648033 
626	 0,280479965736659 
627	 0,27948391904251 
628	 0,280259538133979 
629	 0,281163278547409 
630	 0,281448090705371 
631	 0,28205510204343 
632	 0,282807272339855 
633	 0,283265385953029 
634	 0,283716620032476 
635	 0,284230827525555 
636	 0,284660483183475 
637	 0,285446246400794 
638	 0,286904882486583 
639	 0,288149573063999 
640	 0,289085658728237 
641	 0,289922934291136 
642	 0,290883924664052 
643	 0,291958216313127 
644	 0,292482028040791 
645	 0,292635872341322 
646	 0,292734774949979 
647	 0,292919842871017 
648	 0,293072566724014 
649	 0,292691451976604 
650	 0,29185510546678 
651	 0,290676267115022 
652	 0,289644084473147 
653	 0,288650603986198 
654	 0,287297293681839 
655	 0,285863605109573 
656	 0,28448350622231 
657	 0,283430853825209 
658	 0,282051974291096 
659	 0,279702478465715 
660	 0,277642582329 
661	 0,276045313639831 
662	 0,27458808914828 
663	 0,272830174413304 
664	 0,270662684564979 
665	 0,26907886730619 
666	 0,267997777918574 
667	 0,267085930238585 
668	 0,266472323031761 
669	 0,265995505647303 
670	 0,265030026258235 
671	 0,264029301538369 
672	 0,263377100314265 
673	 0,26291413409083 
674	 0,2626297438297 
675	 0,262570497374358 
676	 0,262541734011931 
677	 0,262471302776475 
678	 0,262472183742042 
679	 0,262508126484617 
680	 0,262530754867814 
681	 0,263151691312801 
682	 0,264260881853533 
683	 0,264929666765859 
684	 0,266109898614872 
685	 0,26827175801692 
686	 0,270281145356739 
687	 0,272438519321164 
688	 0,2755451318144 
689	 0,27884342838586 
690	 0,282408978290289 
691	 0,2873860165095 
692	 0,293208805764287 
693	 0,299328020422726 
694	 0,305585579701975 
695	 0,312423117237931 
696	 0,321116417567705 
697	 0,330127005574861 
698	 0,338876691203858 
699	 0,348171589890998 
700	 0,357837203689551 
701	 0,367618366533037 
702	 0,377298918024341 
703	 0,38666566725176 
704	 0,395425752866718 
705	 0,403792619995955 
706	 0,4119639808606 
707	 0,420185725900356 
708	 0,428038182211132 
709	 0,434672734814708 
710	 0,441002447501416 
711	 0,447244920780713 
712	 0,452876580979306 
713	 0,45815438890529 
714	 0,463314237532354 
715	 0,468017120440035 
716	 0,472185192331834 
717	 0,475725519170668 
718	 0,479215651187668 
719	 0,482819855838951 
720	 0,485814484539194 
721	 0,488308465526104 
722	 0,490544938025295 
723	 0,492737450466736 
724	 0,494924681626212 
725	 0,496995398001505 
726	 0,498847102803738 
727	 0,500394436487654 
728	 0,501527425637783 
729	 0,502595781631824 
730	 0,504250090381669 
731	 0,505521230772009 
732	 0,506254011341761 
733	 0,50718247464976 
734	 0,508072168420563 
735	 0,50872067926813 
736	 0,509581256912288 
737	 0,510460831543301 
738	 0,510683166845633 
739	 0,510783332994433 
740	 0,511062856031173 
741	 0,511910696331094 
742	 0,512849498177869 
743	 0,51329611989506 
744	 0,513666868953895 
745	 0,51398757559558 
746	 0,514008425686893 
747	 0,514184361964677 
748	 0,514686468305664 
749	 0,514810259924355 
750	 0,514780810057806 
751	 0,515064658977585 
752	 0,515505344444592 
753	 0,515934637637748 
754	 0,515893097492441 
755	 0,515825364559824 
756	 0,516035081294103 
757	 0,516050135537722 
758	 0,516047515049807 
759	 0,516532345721445 
760	 0,517037148596634 
761	 0,517303265074089 
762	 0,516894413162153 
763	 0,516703157643152 
764	 0,517507987063735 
765	 0,517742091595317 
766	 0,517491728563006 
767	 0,517841663019628 
768	 0,517969770785728 
769	 0,517682765493663 
770	 0,517766203284484 
771	 0,518006230788544 
772	 0,51807680974385 
773	 0,518225250759401 
774	 0,518422556030778 
775	 0,518440594416286 
776	 0,518386187237437 
777	 0,518357473946781 
778	 0,518613163725686 
779	 0,518926746038662 
780	 0,5189312899584 
781	 0,51888754686574 
782	 0,518852125230151 
783	 0,51876195312988 
784	 0,518696217646742 
785	 0,51871446131365 
786	 0,518863428893127 
787	 0,518976159228318 
788	 0,518745335253048 
789	 0,518564982530917 
790	 0,518606832951127 
791	 0,519053917160714 
792	 0,519315068493151 
793	 0,518967252823304 
794	 0,518837689161351 
795	 0,518897704326536 
796	 0,518728677239463 
797	 0,51891736531758 
798	 0,519456654400631 
799	 0,519390855958861 
800	 0,519091548359512 
801	 0,518964848452111 
802	 0,519007408697623 
803	 0,519164662892808 
804	 0,519277409935066 
805	 0,519403367188907 
806	 0,519505504269544 
807	 0,51933404895678 
808	 0,51911514716614 
809	 0,519102675003111 
810	 0,519084056825098 
811	 0,519084257503472 
812	 0,519295203470471 
813	 0,519484116002174 
814	 0,519578286514653 
815	 0,519804731175089 
816	 0,520074973456975 
817	 0,52026455038973 
818	 0,520432946948605 
819	 0,520553698189313 
820	 0,520511770594386 
821	 0,520494484706354 
822	 0,520572434124644 
823	 0,520519874961657 
824	 0,520532470942731 
825	 0,520876921216527 
826	 0,520980793890475 
827	 0,520887176109361 
828	 0,521286411946336 
829	 0,521209159461428 
830	 0,520404576467356 
831	 0,520786532764646 
832	 0,521600922053149 
833	 0,52154941870569 
834	 0,521491227848082 
835	 0,521433366840471 
836	 0,52061500344152 
837	 0,520438403548978 
838	 0,521409919026154 
839	 0,521255545076539 
840	 0,520645764099498 
841	 0,520880544037902 
842	 0,521053268597167 
843	 0,521073425692841 
844	 0,521387842727685 
845	 0,521652819510817 
846	 0,521659476125813 
847	 0,521363604671734 
848	 0,521147026718564 
849	 0,521536032145153 
850	 0,521485678148048 
851	 0,521071855968012 
852	 0,521491977017663 
853	 0,52181253455667 
854	 0,521515070603405 
855	 0,520728816914324 
856	 0,520185660263271 
857	 0,520821410012154 
858	 0,521260250939675 
859	 0,521326453935722 
860	 0,521746119496527 
861	 0,521771716290143 
862	 0,521155451597972 
863	 0,520909201209691 
864	 0,521063956227177 
865	 0,521493255957794 
866	 0,52181061242661 
867	 0,521987175316048 
868	 0,52238381506284 
869	 0,52231127606736 
870	 0,521674377112893 
871	 0,522036890440741 
872	 0,52263264059471 
873	 0,52239097120294 
874	 0,522144615479739 
875	 0,522152507587031 
876	 0,522633874368079 
877	 0,523041502939944 
878	 0,523155163709227 
879	 0,52328152254771 
880	 0,523418132413202 
881	 0,523528962948652 
882	 0,523391617245548 
883	 0,523151262718989 
884	 0,523322301809047 
885	 0,523280700695337 
886	 0,523053454240548 
887	 0,524101825997343 
888	 0,524691960402721 
889	 0,52330239235277 
890	 0,522645355695468 
891	 0,52297845337028 
892	 0,523774814876086 
893	 0,52411476283379 
894	 0,523788196591368 
895	 0,523642363721917 
896	 0,523461421890545 
897	 0,523099345716579 
898	 0,522932915312167 
899	 0,522978644935468 
900	 0,523156286986904 
901	 0,523309415209657 
902	 0,523454587768847 
903	 0,523957272571133 
904	 0,524094379101703 
905	 0,523529149403273 
906	 0,523330000504445 
907	 0,523452977082057 
908	 0,523628948936301 
909	 0,524054109323542 
910	 0,524438657039561 
911	 0,523793912271366 
912	 0,523201034614063 
913	 0,523098286734535 
914	 0,522525616677221 
915	 0,522540311491988 
916	 0,524227476924635 
917	 0,524605804783411 
918	 0,523710100585092 
919	 0,523248833842389 
920	 0,522965226680763 
921	 0,522915950442443 
922	 0,523397673774407 
923	 0,52387823781429 
924	 0,523923160824585 
925	 0,524092503208045 
926	 0,523973411652328 
927	 0,522652922559187 
928	 0,522112134017342 
929	 0,52253026814803 
930	 0,522267689101321 
931	 0,521882543579678 
932	 0,521688698225484 
933	 0,521504933051095 
934	 0,52130121667023 
935	 0,521053043218358 
936	 0,520514116501742 
937	 0,519894822861001 
938	 0,519876456888449 
939	 0,52017411503567 
940	 0,520469749265266 
941	 0,519794003328022 
942	 0,519081847554515 
943	 0,519118326759375 
944	 0,518612588620208 
945	 0,517690965667034 
946	 0,51698918618747 
947	 0,516176882010783 
948	 0,515353151062704 
949	 0,515203874123139 
950	 0,514790866412938 
951	 0,513696549910505 
952	 0,512974266324347 
953	 0,512543092430962 
954	 0,512165787773897 
955	 0,511830568692676 
956	 0,511366945690683 
957	 0,51035533098246 
958	 0,509712042233698 
959	 0,509437347094609 
960	 0,507784784617364 
961	 0,506958953006785 
962	 0,508362632336857 
963	 0,508938698477826 
964	 0,508227326404709 
965	 0,506281236099409 
966	 0,505944429586901 
967	 0,507243393880887 
968	 0,507894381299555 
969	 0,507618403623622 
970	 0,506597620686563 
971	 0,506990664154905 
972	 0,507257515098764 
973	 0,50604043600778 
974	 0,50567421182692 
975	 0,506276579634594 
976	 0,507410375833936 
977	 0,506310820305696 
978	 0,503710243418669 
979	 0,504851428945526 
980	 0,506632945852213 
981	 0,507353461534832 
982	 0,507194811923573 
983	 0,506193373015513 
984	 0,504662594367597 
985	 0,505623537823856 
986	 0,507845103167467 
987	 0,507890020899752 
988	 0,507202600006607 
989	 0,506610400943898 
990	 0,507845646120472 
991	 0,507835016375877 
992	 0,505766416648132 
993	 0,506957202420512 
994	 0,509555723151152 
995	 0,511130716042088 
996	 0,512027217720896 
997	 0,511586057658797 
998	 0,508474652955926 
999	 0,508164465303961 
1000	 0,5108838259866 
1001	 0,510970851332095 
1002	 0,51178973471475 
1003	 0,514170937607824 
1004	 0,513051699339011 
1005	 0,510980377489394 
1006	 0,510964685234694 
1007	 0,513907612179257 
1008	 0,517085906272197 
1009	 0,515414401985717 
1010	 0,514343312242108 
1011	 0,515388866515851 
1012	 0,518519556931203 
1013	 0,520697302069461 
1014	 0,520443364405723 
1015	 0,518678494081083 
1016	 0,517145017876836 
1017	 0,517447416943356 
1018	 0,520495033592248 
1019	 0,523030050689581 
1020	 0,520189046691421 
1021	 0,517590552810944 
1022	 0,516099018428414 
1023	 0,513537880891382 
1024	 0,516442527321146 
1025	 0,523945122758596 
1026	 0,522014975334549 
1027	 0,518911431875846 
1028	 0,520340719718397 
1029	 0,523722482380185 
1030	 0,526406847962738 
1031	 0,525559109552971 
1032	 0,521713663755207 
1033	 0,517875958620628 
1034	 0,519453418586327 
1035	 0,520879183296536 
1036	 0,520725261400121 
1037	 0,520724507353059 
1038	 0,517189221744685 
1039	 0,510849709838915 
1040	 0,513704247432644 
1041	 0,516786777900375 
1042	 0,513654049884259 
1043	 0,519120582304028 
1044	 0,525855396391557 
1045	 0,521344977307854 
1046	 0,519630004842902 
1047	 0,521405755371467 
1048	 0,520964990856433 
1049	 0,521315141172851 
1050	 0,522574365042239 
1051	 0,522811241357026 
1052	 0,518242790860857 
1053	 0,510974249781426 
1054	 0,522761365166292 
1055	 0,533801789508905 
1056	 0,528278325134849 
1057	 0,532153370595315 
1058	 0,535176898984863 
1059	 0,519808174048741 
1060	 0,517954498926417 
1061	 0,526886486030565 
1062	 0,524418846708807 
1063	 0,525566185573202 
1064	 0,530577914142333 
1065	 0,524313616513798 
1066	 0,525206552679292 
1067	 0,536311568571892 
1068	 0,526338764787341 
1069	 0,517939894804131 
1070	 0,526076473441785 
1071	 0,519863722134971 
1072	 0,510769547203596 
1073	 0,515525623067259 
1074	 0,523313415739174 
1075	 0,524155881042411 
