Wavelength	AVEN00023.asd
325	 0,129488913684447 
326	 0,125877934121906 
327	 6,00898291120738E-03 
328	-0,220327963370166 
329	-0,191775964955923 
330	-0,109741428083571 
331	-0,140270032139532 
332	-6,02994084268985E-02 
333	 3,68435599778883E-02 
334	-0,130188587481386 
335	-0,165872967857359 
336	-2,18926540404562E-02 
337	-1,90714182368986E-02 
338	-5,73263789125227E-02 
339	-4,88200994683588E-02 
340	-7,88123864857105E-02 
341	-0,108437035585988 
342	-3,83555482814186E-02 
343	 3,19008378165533E-02 
344	 6,59469585565771E-02 
345	 0,051553979143482 
346	 1,84208066035903E-02 
347	 7,80223924266264E-04 
348	-2,89844860633564E-02 
349	-6,25642143279679E-02 
350	-7,51113500918582E-02 
351	-4,86163410880906E-02 
352	 2,40691048619432E-03 
353	-2,67658819973201E-02 
354	-5,08938331777025E-02 
355	 2,91479261171435E-02 
356	 4,61126749367749E-02 
357	-2,15695007528469E-03 
358	-7,18446762846276E-03 
359	-2,01853751338034E-03 
360	-1,92704072668328E-03 
361	-7,23840333329666E-03 
362	-1,60399000043283E-02 
363	-2,75441529155509E-02 
364	-4,59001447291746E-03 
365	 3,74925160686737E-02 
366	 3,23285033044173E-02 
367	 2,02732141071689E-02 
368	 2,34806457177572E-02 
369	 1,06004129311181E-03 
370	-2,60777934901199E-02 
371	-9,99450218706641E-03 
372	-3,70180382330638E-03 
373	-1,44621170355015E-02 
374	-4,50430589365568E-03 
375	 4,60362952038673E-03 
376	-1,94366444556247E-03 
377	 5,04605009923942E-03 
378	 1,56892398647328E-02 
379	-6,54479206357847E-03 
380	-3,96656802282562E-03 
381	 2,60373227182559E-02 
382	 1,57192060887353E-02 
383	-1,27098639161793E-02 
384	-3,21095862702433E-02 
385	-2,45740321462608E-02 
386	-2,0570170877086E-03 
387	-2,97887421412664E-03 
388	-8,97125941085685E-03 
389	-1,03570149022494E-02 
390	 0,007159689157503 
391	 0,020497228249414 
392	 3,86097797840627E-03 
393	 4,92991982033181E-04 
394	 1,06927476275302E-02 
395	 3,34037761255039E-03 
396	-2,75325995775241E-03 
397	 3,74189588062605E-04 
398	-3,8759071580645E-03 
399	-8,16250329869007E-03 
400	 9,79605858490342E-04 
401	 9,0995448189114E-03 
402	 1,12017811527796E-02 
403	 2,77069154077038E-03 
404	-1,85954672442864E-03 
405	 5,53653104184432E-03 
406	 2,87106905594796E-03 
407	-4,13455377246709E-03 
408	 1,58170291054309E-03 
409	 8,11307780272551E-03 
410	 1,03165511503365E-02 
411	 1,48977751943962E-03 
412	-5,31966905174026E-03 
413	 1,48374949864502E-03 
414	 7,01981028604953E-03 
415	 9,28711852344176E-03 
416	 1,08174165648991E-02 
417	 1,22161965959067E-02 
418	 1,38322369856185E-02 
419	 1,65203564923063E-02 
420	 1,53297566261999E-02 
421	 4,05466478646228E-03 
422	 3,15425239491837E-03 
423	 0,011510283060304 
424	 8,99210359784053E-03 
425	 5,06052492395681E-03 
426	 5,40915142341291E-03 
427	 5,89521914685612E-03 
428	 7,15733304450031E-03 
429	 1,17597799181816E-02 
430	 1,10947117843623E-02 
431	 5,29215272219078E-03 
432	 6,73427841286404E-03 
433	 8,73872009644711E-03 
434	 5,46323887792289E-03 
435	 6,2834941719842E-03 
436	 1,01379036012622E-02 
437	 1,03734143680519E-02 
438	 9,05078806581895E-03 
439	 7,45477998650276E-03 
440	 8,52502778646503E-03 
441	 1,05493660269745E-02 
442	 1,10608551010836E-02 
443	 8,69900447625482E-03 
444	 5,63534136546185E-03 
445	 1,08590732667997E-02 
446	 1,27200394506432E-02 
447	 5,36990936084056E-03 
448	 5,16502249990813E-03 
449	 9,3646834068807E-03 
450	 8,69852731414857E-03 
451	 8,06342267699855E-03 
452	 8,54434375592167E-03 
453	 8,84813573980676E-03 
454	 8,63715497559401E-03 
455	 7,74449368335846E-03 
456	 7,74510452773334E-03 
457	 8,82058427288128E-03 
458	 1,10290737718136E-02 
459	 1,08172750610971E-02 
460	 7,75199078518477E-03 
461	 9,7473310669293E-03 
462	 1,32803003272215E-02 
463	 1,27413680472886E-02 
464	 0,010597321328261 
465	 8,30988374107413E-03 
466	 8,54285352990296E-03 
467	 9,8271681242503E-03 
468	 1,11016071885939E-02 
469	 1,24156835287644E-02 
470	 1,32550247356193E-02 
471	 1,28573861964663E-02 
472	 1,13809230761684E-02 
473	 9,27026880842604E-03 
474	 7,96170560264256E-03 
475	 7,47784624179371E-03 
476	 7,67220169216041E-03 
477	 6,8994803393234E-03 
478	 6,38440514916134E-03 
479	 1,12153587742944E-02 
480	 1,27846527153421E-02 
481	 8,23453085763213E-03 
482	 8,03493353867082E-03 
483	 9,45405030787138E-03 
484	 6,67301224608127E-03 
485	 6,36163071299441E-03 
486	 8,90984690900962E-03 
487	 9,09709397406788E-03 
488	 8,37215422623709E-03 
489	 7,99801947245501E-03 
490	 0,008945851346907 
491	 9,90425744326528E-03 
492	 7,19708545495421E-03 
493	 5,99847235004514E-03 
494	 7,72641633446602E-03 
495	 9,18640245798941E-03 
496	 1,00216482203127E-02 
497	 1,01344192623611E-02 
498	 9,56599769678413E-03 
499	 8,63003277748981E-03 
500	 7,87037788595192E-03 
501	 8,04556437145374E-03 
502	 9,46373953528801E-03 
503	 1,10191798815509E-02 
504	 1,16788535269657E-02 
505	 9,97630834901593E-03 
506	 8,5132161709243E-03 
507	 8,14274310416969E-03 
508	 8,45678794994262E-03 
509	 8,8603653710759E-03 
510	 8,83890851166978E-03 
511	 8,60953413893594E-03 
512	 8,62970498920639E-03 
513	 1,02525294320986E-02 
514	 1,05116935122134E-02 
515	 8,65108860941903E-03 
516	 8,91074694275756E-03 
517	 1,01410557428701E-02 
518	 1,01809247274689E-02 
519	 1,00938017211416E-02 
520	 1,00964584641971E-02 
521	 1,01420848770381E-02 
522	 9,91912042934832E-03 
523	 9,29028220894638E-03 
524	 9,20539406853436E-03 
525	 9,66108292613498E-03 
526	 1,04612801713865E-02 
527	 1,04592833822388E-02 
528	 9,49525486224394E-03 
529	 9,21945883285728E-03 
530	 9,31747130679136E-03 
531	 9,27827842314221E-03 
532	 9,59094388851458E-03 
533	 1,01609784527485E-02 
534	 1,04773620263588E-02 
535	 1,05228763321679E-02 
536	 1,03229944001567E-02 
537	 1,02571907988181E-02 
538	 1,02347125099593E-02 
539	 9,97935593500277E-03 
540	 9,65666548347454E-03 
541	 9,39379830804566E-03 
542	 9,47530454752821E-03 
543	 9,69710182567777E-03 
544	 9,84226595771802E-03 
545	 9,90952932671582E-03 
546	 9,97319618832448E-03 
547	 1,02862200698584E-02 
548	 0,010458950748161 
549	 1,03734986535736E-02 
550	 1,07155099445654E-02 
551	 1,10185016236886E-02 
552	 1,04212394072583E-02 
553	 1,04209549283787E-02 
554	 1,08931780807119E-02 
555	 9,40288425760462E-03 
556	 8,2711368188858E-03 
557	 9,34419461657625E-03 
558	 9,94885592596593E-03 
559	 9,76073861318803E-03 
560	 9,19487200486005E-03 
561	 8,79852809270312E-03 
562	 8,86620853334425E-03 
563	 9,44740589082951E-03 
564	 9,76958374490107E-03 
565	 8,83891617494841E-03 
566	 8,78869390674294E-03 
567	 9,65756039979117E-03 
568	 9,51069991529609E-03 
569	 9,20924619594305E-03 
570	 9,36386285666612E-03 
571	 9,7032243592157E-03 
572	 1,01075096406777E-02 
573	 0,010412748334217 
574	 1,06845057295964E-02 
575	 1,08686382881763E-02 
576	 1,06403366467376E-02 
577	 1,02953654900234E-02 
578	 1,01873296169474E-02 
579	 1,00526728284044E-02 
580	 1,00096119456115E-02 
581	 1,05271403928269E-02 
582	 1,13988235226971E-02 
583	 0,012307626464757 
584	 0,011840992282642 
585	 0,011086538801965 
586	 1,23140872739391E-02 
587	 1,30438708105474E-02 
588	 1,26888374101512E-02 
589	 1,22339525952577E-02 
590	 1,20133776785949E-02 
591	 1,22780720439719E-02 
592	 1,24368715338671E-02 
593	 1,25304647409779E-02 
594	 1,30917078084908E-02 
595	 1,33443663425683E-02 
596	 1,30590980488895E-02 
597	 1,34333717057469E-02 
598	 1,37955820205471E-02 
599	 1,29643818825475E-02 
600	 1,21367308302592E-02 
601	 1,17874894385599E-02 
602	 1,22913551586848E-02 
603	 1,27609786072567E-02 
604	 1,24877781445834E-02 
605	 1,18328419587871E-02 
606	 1,12633933974663E-02 
607	 1,17803503921775E-02 
608	 1,21025507664659E-02 
609	 1,18375450878965E-02 
610	 1,18232146592172E-02 
611	 1,19862684167503E-02 
612	 0,012150959589667 
613	 1,17789766979082E-02 
614	 1,10479651584996E-02 
615	 1,10371674532424E-02 
616	 1,09470414790795E-02 
617	 1,03831676708679E-02 
618	 1,06052720136771E-02 
619	 1,13863114967565E-02 
620	 0,01206200984871 
621	 1,17635145716767E-02 
622	 1,05544934632109E-02 
623	 1,02963729275438E-02 
624	 0,010760911621846 
625	 0,011533946245432 
626	 0,011281189817963 
627	 1,04283648315042E-02 
628	 1,11914637746909E-02 
629	 1,18018542267993E-02 
630	 1,14669558533702E-02 
631	 1,14824126670288E-02 
632	 1,16710096005489E-02 
633	 1,15056748791675E-02 
634	 1,12592723901445E-02 
635	 1,11365259700479E-02 
636	 1,16533525481301E-02 
637	 0,012002763452482 
638	 1,16150122705479E-02 
639	 1,26883447254301E-02 
640	 1,44027902495935E-02 
641	 1,36308060092178E-02 
642	 0,013132121184544 
643	 1,37831550332093E-02 
644	 1,36817365707574E-02 
645	 1,33579480899942E-02 
646	 1,37079986628637E-02 
647	 1,37596955035902E-02 
648	 1,34604651048482E-02 
649	 1,34895742332398E-02 
650	 1,35965269532022E-02 
651	 1,35680351972079E-02 
652	 0,01297584181709 
653	 1,24249515911957E-02 
654	 1,33495194542584E-02 
655	 1,36332483194868E-02 
656	 1,28331544288664E-02 
657	 1,25758949855383E-02 
658	 1,26406456619388E-02 
659	 1,26776551771515E-02 
660	 1,22537794039306E-02 
661	 1,15693700658272E-02 
662	 0,011514934393444 
663	 1,14085496213637E-02 
664	 1,09689432457079E-02 
665	 1,07567158012317E-02 
666	 1,07505929520497E-02 
667	 1,08092106470459E-02 
668	 1,10527175776058E-02 
669	 1,13093659455189E-02 
670	 1,08615274191917E-02 
671	 1,03032012037709E-02 
672	 1,01203024640349E-02 
673	 9,88366626245004E-03 
674	 9,77060268697224E-03 
675	 1,04280914506455E-02 
676	 0,010898520350999 
677	 1,07865809386794E-02 
678	 1,01361481576833E-02 
679	 9,64961120084001E-03 
680	 1,01328917299307E-02 
681	 1,08436498331614E-02 
682	 1,13854647119619E-02 
683	 1,11308488436419E-02 
684	 0,010993594136063 
685	 1,14609052637016E-02 
686	 1,16405685175681E-02 
687	 1,17585313266144E-02 
688	 1,24316116185473E-02 
689	 0,01302655974203 
690	 1,34219975493292E-02 
691	 1,38744218794742E-02 
692	 1,48005398650095E-02 
693	 1,64987320133329E-02 
694	 1,78216356223952E-02 
695	 1,89309566411522E-02 
696	 2,08097681798192E-02 
697	 0,02291106815765 
698	 2,52047000054779E-02 
699	 2,88101868183032E-02 
700	 3,26666136209293E-02 
701	 0,035334140618366 
702	 3,87221658233637E-02 
703	 4,29466796551616E-02 
704	 0,046758217508305 
705	 5,05770329266277E-02 
706	 5,46626845205164E-02 
707	 5,88243889595551E-02 
708	 6,29322063066242E-02 
709	 6,67781481339366E-02 
710	 7,08241708673577E-02 
711	 7,50488557972289E-02 
712	 7,87222497828635E-02 
713	 8,19318006823917E-02 
714	 8,48301504895022E-02 
715	 8,80076477517989E-02 
716	 9,13060662512096E-02 
717	 9,39906309907024E-02 
718	 9,64530536856196E-02 
719	 9,88877614317997E-02 
720	 0,101450327256972 
721	 0,103880762773556 
722	 0,10584930937188 
723	 0,107444282138304 
724	 0,108811838236615 
725	 0,110337654260255 
726	 0,111757627606039 
727	 0,112916160549504 
728	 0,114009953583093 
729	 0,114983571735976 
730	 0,115665884113938 
731	 0,116454567716497 
732	 0,117442088282177 
733	 0,11845848344696 
734	 0,119266119289699 
735	 0,119688784031613 
736	 0,120173954933274 
737	 0,120732241011292 
738	 0,121186485342742 
739	 0,121453756888151 
740	 0,121596611635362 
741	 0,122197029191324 
742	 0,122772027381623 
743	 0,122728846257352 
744	 0,123053058411012 
745	 0,123700758247979 
746	 0,123778120227331 
747	 0,123998718678412 
748	 0,124646291774217 
749	 0,124921146903956 
750	 0,124828959588244 
751	 0,124509352527966 
752	 0,124586788016558 
753	 0,125134732747028 
754	 0,125694354574451 
755	 0,125963237107067 
756	 0,125777512951519 
757	 0,125786682412303 
758	 0,126004089068947 
759	 0,126240144228992 
760	 0,126346484497218 
761	 0,126336310737047 
762	 0,126599991540483 
763	 0,126805956565068 
764	 0,126644024612131 
765	 0,126481270243898 
766	 0,126458478899683 
767	 0,126734501046266 
768	 0,127051013556993 
769	 0,12725911089959 
770	 0,127227912998976 
771	 0,127164985351232 
772	 0,127324279283659 
773	 0,127560621677871 
774	 0,127797882933024 
775	 0,127972751594864 
776	 0,127853512051845 
777	 0,127409199470257 
778	 0,127260332083888 
779	 0,127486937185532 
780	 0,128089036496789 
781	 0,128372220423412 
782	 0,128317124050332 
783	 0,128703996914796 
784	 0,128848133977065 
785	 0,128393761955442 
786	 0,12834672987487 
787	 0,128613099423405 
788	 0,128769484967825 
789	 0,128793403990447 
790	 0,12873960259024 
791	 0,128959443870504 
792	 0,129101569716343 
793	 0,128920971090629 
794	 0,129012530600128 
795	 0,129278691047956 
796	 0,129295968242735 
797	 0,12930582184553 
798	 0,129371051200756 
799	 0,129427607398094 
800	 0,129436576216336 
801	 0,129379566122601 
802	 0,12946184635439 
803	 0,12972324850076 
804	 0,130206597978153 
805	 0,130475209339941 
806	 0,1303918871424 
807	 0,13025778932532 
808	 0,13024762679815 
809	 0,130509554973464 
810	 0,13078670760019 
811	 0,130936584875819 
812	 0,130710812106623 
813	 0,130623167170502 
814	 0,130919810171089 
815	 0,131605877698378 
816	 0,13204322215416 
817	 0,131525901963378 
818	 0,131287761946319 
819	 0,131534599339084 
820	 0,131968672255484 
821	 0,132319393127508 
822	 0,132380549460578 
823	 0,131907325438794 
824	 0,131470209409746 
825	 0,131808086758494 
826	 0,132504806855281 
827	 0,133104172918675 
828	 0,132512032305957 
829	 0,132118932673958 
830	 0,132574494788896 
831	 0,132881143194164 
832	 0,132961681409158 
833	 0,132866361697684 
834	 0,132762896360719 
835	 0,132749169550249 
836	 0,132924916466655 
837	 0,13325061162291 
838	 0,133606110686428 
839	 0,133403568843008 
840	 0,133006246324001 
841	 0,133010636577927 
842	 0,133305193117358 
843	 0,133686867946679 
844	 0,133553182326195 
845	 0,133509340247614 
846	 0,133824023106037 
847	 0,133908076279548 
848	 0,133707808159268 
849	 0,133251111266977 
850	 0,13309045666386 
851	 0,133241560808082 
852	 0,133198180918244 
853	 0,133240995153444 
854	 0,133461817582313 
855	 0,133393384132907 
856	 0,133401417105899 
857	 0,134036661961004 
858	 0,134249117985893 
859	 0,133988925499182 
860	 0,134045206321193 
861	 0,133769076582389 
862	 0,133070028878609 
863	 0,133570151197471 
864	 0,134452396109891 
865	 0,134449750074532 
866	 0,134279290924183 
867	 0,134212150363041 
868	 0,134637726409527 
869	 0,134658734955 
870	 0,134104457281589 
871	 0,134758021220088 
872	 0,135803475865002 
873	 0,136074820041482 
874	 0,136041602027145 
875	 0,135924377082586 
876	 0,136074722845744 
877	 0,136261767293177 
878	 0,136392905594876 
879	 0,136523017527659 
880	 0,136611016612954 
881	 0,136620467623172 
882	 0,136715416137477 
883	 0,136924959639629 
884	 0,137199293170735 
885	 0,137721357192422 
886	 0,138313912566179 
887	 0,137828618623803 
888	 0,13716922324836 
889	 0,137265977999924 
890	 0,137988314620326 
891	 0,138934024849089 
892	 0,139333412674564 
893	 0,139350188650056 
894	 0,139055517234285 
895	 0,138493965369221 
896	 0,138443185622627 
897	 0,139337052627964 
898	 0,139358029877862 
899	 0,138683081797076 
900	 0,138121624243845 
901	 0,138225721800093 
902	 0,138956486311371 
903	 0,13952143170773 
904	 0,139387187348336 
905	 0,138450196588532 
906	 0,138539686758501 
907	 0,139207110342069 
908	 0,139475582505168 
909	 0,13953501326179 
910	 0,139468163700423 
911	 0,139435183879041 
912	 0,139616483943753 
913	 0,139989046070789 
914	 0,139829014096336 
915	 0,139631831653457 
916	 0,139958693571366 
917	 0,139519914213756 
918	 0,13877113708797 
919	 0,139566670401505 
920	 0,140092677128117 
921	 0,139758529925002 
922	 0,138971352905479 
923	 0,138538857094671 
924	 0,138994777660843 
925	 0,138703165033289 
926	 0,138096064795435 
927	 0,138432040872629 
928	 0,138536327837055 
929	 0,138388040419955 
930	 0,139304148691059 
931	 0,139513835135226 
932	 0,138214441229073 
933	 0,137537660502496 
934	 0,13760807038687 
935	 0,138208861790475 
936	 0,13809995664317 
937	 0,137357929797061 
938	 0,137164357370995 
939	 0,136566319622788 
940	 0,135598847791651 
941	 0,136236488999038 
942	 0,136990018725895 
943	 0,136440979537968 
944	 0,135041007391138 
945	 0,133597723808263 
946	 0,133472498616084 
947	 0,132811661694009 
948	 0,131629205588674 
949	 0,132067753392454 
950	 0,132334839941904 
951	 0,131397751001497 
952	 0,129983016914969 
953	 0,128184339326617 
954	 0,12612385944238 
955	 0,125680386665191 
956	 0,126429950338361 
957	 0,126277491739981 
958	 0,125562042051963 
959	 0,124662505485102 
960	 0,125027672448217 
961	 0,125592254388213 
962	 0,125538284532941 
963	 0,125808441620372 
964	 0,125397194383078 
965	 0,122668030126938 
966	 0,122159647470595 
967	 0,124015855596588 
968	 0,125044790632086 
969	 0,124908383256043 
970	 0,123869590102846 
971	 0,124911039778499 
972	 0,125610880480447 
973	 0,123803363414679 
974	 0,122601870194142 
975	 0,122258956836254 
976	 0,122187146544203 
977	 0,123185215704276 
978	 0,124799117880158 
979	 0,125043139528524 
980	 0,124646978022354 
981	 0,12399334940385 
982	 0,123023243326136 
983	 0,122171423216097 
984	 0,122002395168588 
985	 0,124316154437452 
986	 0,127220672079604 
987	 0,126636684136778 
988	 0,124383328995255 
989	 0,122082488404358 
990	 0,123349572749023 
991	 0,125012314057728 
992	 0,125403609360471 
993	 0,125594027040783 
994	 0,12608070150417 
995	 0,127214152969822 
996	 0,127969493503183 
997	 0,127444949343837 
998	 0,124149390246661 
999	 0,125161644402317 
1000	 0,130006187468778 
1001	 0,129308535741088 
1002	 0,12730499847757 
1003	 0,12645088535923 
1004	 0,127626480760218 
1005	 0,128987633486257 
1006	 0,128794452385684 
1007	 0,129714423379612 
1008	 0,130621113389786 
1009	 0,128696873493676 
1010	 0,130584103304842 
1011	 0,135669310900769 
1012	 0,136317464739928 
1013	 0,135568929656287 
1014	 0,134732868512931 
1015	 0,133513658540618 
1016	 0,133271139233661 
1017	 0,134721855043704 
1018	 0,133665599502477 
1019	 0,132145975877101 
1020	 0,134047509416608 
1021	 0,134051180018573 
1022	 0,132279213600924 
1023	 0,13222352792568 
1024	 0,135297929352215 
1025	 0,140026779951257 
1026	 0,1373300705152 
1027	 0,134948431049581 
1028	 0,137623994787028 
1029	 0,139226639546694 
1030	 0,139563205094123 
1031	 0,139211109848711 
1032	 0,138942062904132 
1033	 0,139825041038562 
1034	 0,143709197454037 
1035	 0,142777287307829 
1036	 0,137173351722499 
1037	 0,135580317954313 
1038	 0,134808078803014 
1039	 0,13465505799721 
1040	 0,140983815094404 
1041	 0,146524277415449 
1042	 0,145345862167875 
1043	 0,142881030192931 
1044	 0,139081340391411 
1045	 0,133468994957721 
1046	 0,134374353124317 
1047	 0,140030329651747 
1048	 0,142435940343693 
1049	 0,138899134750438 
1050	 0,131485586756923 
1051	 0,131557772521275 
1052	 0,131962143818072 
1053	 0,1315359206906 
1054	 0,145921411495551 
1055	 0,152783654209647 
1056	 0,136602618766082 
1057	 0,140745029104344 
1058	 0,152790638776108 
1059	 0,146915863969666 
1060	 0,136166380914206 
1061	 0,12825934465085 
1062	 0,134609908276398 
1063	 0,146025383667794 
1064	 0,153534725291869 
1065	 0,136421685162165 
1066	 0,126269502249526 
1067	 0,137505133699033 
1068	 0,156302296408945 
1069	 0,163571987133264 
1070	 0,148766828527927 
1071	 0,144626141753202 
1072	 0,144377490645457 
1073	 0,136597478230553 
1074	 0,138901711374399 
1075	 0,142930862375646 
