Wavelength	AVEN00159.asd
325	 0,229814303435293 
326	 0,146742801006938 
327	 7,78005155872113E-02 
328	 8,89218058532905E-02 
329	 0,278165218410721 
330	 0,336882559520472 
331	 0,118966328584159 
332	-1,03802969938428E-02 
333	-2,87520729684909E-02 
334	-7,37466679327171E-02 
335	 6,03052643405962E-03 
336	 0,156151191386472 
337	 9,86526579773258E-02 
338	 2,26506355398166E-02 
339	 9,25415880637969E-02 
340	 8,56030814593058E-02 
341	 3,64800197953596E-02 
342	 9,73146458981186E-02 
343	 0,12965993946467 
344	 0,113853262236317 
345	 0,131333667646224 
346	 0,156857328037632 
347	 0,156717978059703 
348	 0,161112417719386 
349	 0,171842578059899 
350	 0,182093471344715 
351	 0,175860465834407 
352	 0,156195025877674 
353	 0,172321719946282 
354	 0,192128675466512 
355	 0,177845408912909 
356	 0,191002962707813 
357	 0,221202429024501 
358	 0,200642401426312 
359	 0,176114448779688 
360	 0,167301141677168 
361	 0,158384162928567 
362	 0,153329816093594 
363	 0,15722239980623 
364	 0,177293238823348 
365	 0,202303730931154 
366	 0,203167033824143 
367	 0,195897384888521 
368	 0,189814719904797 
369	 0,172933216408766 
370	 0,154133105352496 
371	 0,15119034786833 
372	 0,167221654412977 
373	 0,195889073188692 
374	 0,214690859809571 
375	 0,212447728921039 
376	 0,18598485127052 
377	 0,174373651988982 
378	 0,179894857813956 
379	 0,193218932012411 
380	 0,213124569172922 
381	 0,228919910937341 
382	 0,202789490730804 
383	 0,179088997090092 
384	 0,201472964578961 
385	 0,199862913685821 
386	 0,18011027137439 
387	 0,19091078126682 
388	 0,204456542291852 
389	 0,211229782550457 
390	 0,224320705780388 
391	 0,229494841451835 
392	 0,210601236492261 
393	 0,20423619337154 
394	 0,213744569732478 
395	 0,221540800269303 
396	 0,225989278785101 
397	 0,225463676205927 
398	 0,217413132303432 
399	 0,208375678220036 
400	 0,207850892358314 
401	 0,211788703106188 
402	 0,217131005509779 
403	 0,216706506610614 
404	 0,218309823944962 
405	 0,226734829420429 
406	 0,234830967730406 
407	 0,235881278730291 
408	 0,217608107337542 
409	 0,211784224929747 
410	 0,222810660799222 
411	 0,220420643064312 
412	 0,216659433106148 
413	 0,223563141027977 
414	 0,22652477333874 
415	 0,226182109629815 
416	 0,231501370372714 
417	 0,23367558880384 
418	 0,23037444290695 
419	 0,230133575753412 
420	 0,230428162583517 
421	 0,22710315234914 
422	 0,227022888230509 
423	 0,229586224785907 
424	 0,22761333511536 
425	 0,225250606533637 
426	 0,224884605273751 
427	 0,223034288264737 
428	 0,222413301437593 
429	 0,22914672555669 
430	 0,230592723013134 
431	 0,225607962033963 
432	 0,226579706014232 
433	 0,228691891065147 
434	 0,227460956308957 
435	 0,227479565391291 
436	 0,228162230716952 
437	 0,225348171884454 
438	 0,225757122168796 
439	 0,230897873758126 
440	 0,232355560976281 
441	 0,231891965625426 
442	 0,232724480129496 
443	 0,230581316033196 
444	 0,226890666666667 
445	 0,229519464451163 
446	 0,231774045480465 
447	 0,229841143388174 
448	 0,229086841898792 
449	 0,230269687101714 
450	 0,233695656825813 
451	 0,234181747954557 
452	 0,231769268391358 
453	 0,235243808176765 
454	 0,237996825631425 
455	 0,234061457543217 
456	 0,233618029629675 
457	 0,236162500002925 
458	 0,234809228696367 
459	 0,234414594932125 
460	 0,236697724617417 
461	 0,23921834999992 
462	 0,241072352758514 
463	 0,241493062971451 
464	 0,239052091599365 
465	 0,235328658053636 
466	 0,236434493870281 
467	 0,239187374691237 
468	 0,241272517715359 
469	 0,242065394066671 
470	 0,242441928877584 
471	 0,244803518244181 
472	 0,244329925773834 
473	 0,240414022703916 
474	 0,237822111894036 
475	 0,236771481330884 
476	 0,23719985707711 
477	 0,240471534087409 
478	 0,244631691403513 
479	 0,244040784957834 
480	 0,242372470038456 
481	 0,241563837629374 
482	 0,242315012171359 
483	 0,24318697966183 
484	 0,241932144899795 
485	 0,241017479445808 
486	 0,240874100005998 
487	 0,24037572454898 
488	 0,240156888809733 
489	 0,240618767301949 
490	 0,240667950334767 
491	 0,240290471365485 
492	 0,239730347752736 
493	 0,239981877484573 
494	 0,241130045359012 
495	 0,241461519406449 
496	 0,241435717551026 
497	 0,241721461256162 
498	 0,242116553739432 
499	 0,242493108810478 
500	 0,242666034855509 
501	 0,242229156794647 
502	 0,241394293638815 
503	 0,243789397358673 
504	 0,247063560729911 
505	 0,24655689226233 
506	 0,245031761413238 
507	 0,243770211405758 
508	 0,244175555055252 
509	 0,245834244047762 
510	 0,248137667856791 
511	 0,24841447142975 
512	 0,24772543945425 
513	 0,250608921393431 
514	 0,251665363320452 
515	 0,249427583171745 
516	 0,250719653175665 
517	 0,253123045950682 
518	 0,252422826361631 
519	 0,251452574910511 
520	 0,251208684208123 
521	 0,252661967080111 
522	 0,253608416373243 
523	 0,252651625895968 
524	 0,25298349689833 
525	 0,254193464305588 
526	 0,254203944982476 
527	 0,254240379554058 
528	 0,254535496953776 
529	 0,254316503898619 
530	 0,25341313322825 
531	 0,251727410363274 
532	 0,252521484978211 
533	 0,255144601313197 
534	 0,255204537294002 
535	 0,25488193704085 
536	 0,255362063605099 
537	 0,25536359054994 
538	 0,254996824344273 
539	 0,25467625052657 
540	 0,25488755992064 
541	 0,255577703101582 
542	 0,255709445298887 
543	 0,255497804175501 
544	 0,255238724052908 
545	 0,255473688205316 
546	 0,256075958063717 
547	 0,256315940948841 
548	 0,256729494371699 
549	 0,257460094516438 
550	 0,257759734026106 
551	 0,257654795988698 
552	 0,257284643122889 
553	 0,257544436868765 
554	 0,258240756097462 
555	 0,257384073335964 
556	 0,256647475475531 
557	 0,257357125389304 
558	 0,257437361879565 
559	 0,256836147500046 
560	 0,256377779412602 
561	 0,255847080332607 
562	 0,255328972308091 
563	 0,255599599632588 
564	 0,256032268808052 
565	 0,255728644818178 
566	 0,255681939571021 
567	 0,255989292796291 
568	 0,256043056135184 
569	 0,256155378953887 
570	 0,256602221356537 
571	 0,257676150695688 
572	 0,259390077219575 
573	 0,261846262377539 
574	 0,263426760513124 
575	 0,263773325471476 
576	 0,264572430423911 
577	 0,265792778094595 
578	 0,267241009022798 
579	 0,268485494899776 
580	 0,269561718456342 
581	 0,270973711674649 
582	 0,272444203611619 
583	 0,273775128326939 
584	 0,274732344638942 
585	 0,27572351880598 
586	 0,277548048766834 
587	 0,278960041150035 
588	 0,27970839770565 
589	 0,280498690756099 
590	 0,281559347455309 
591	 0,283003776328107 
592	 0,283558148093603 
593	 0,283464424750637 
594	 0,284064023936051 
595	 0,28480291680184 
596	 0,285383237623945 
597	 0,285529460658548 
598	 0,285334908848859 
599	 0,284977696474115 
600	 0,284888451480054 
601	 0,285054321409362 
602	 0,284857749567503 
603	 0,28454844346816 
604	 0,284304337386546 
605	 0,283664710583474 
606	 0,282906688837705 
607	 0,282886637212368 
608	 0,282825568698441 
609	 0,282395827010409 
610	 0,281646061057777 
611	 0,280634664562323 
612	 0,27943495325776 
613	 0,278906182725723 
614	 0,278890534925936 
615	 0,278043144226169 
616	 0,277320092158607 
617	 0,277301685621249 
618	 0,277318618521331 
619	 0,277372835580167 
620	 0,277771172317119 
621	 0,277412453670088 
622	 0,2762568802277 
623	 0,275876978365931 
624	 0,276288073643648 
625	 0,277334737618958 
626	 0,277464488559096 
627	 0,276819067240205 
628	 0,276833644366968 
629	 0,277244543747732 
630	 0,277926620877039 
631	 0,278748187318446 
632	 0,279547768730493 
633	 0,280133156328676 
634	 0,280609397914802 
635	 0,281104928450655 
636	 0,281982984777537 
637	 0,282931390718944 
638	 0,283684072243488 
639	 0,284524093965322 
640	 0,285455780929951 
641	 0,286364503427489 
642	 0,287320014507242 
643	 0,288281999540223 
644	 0,289000333922467 
645	 0,289285684565792 
646	 0,288934534636379 
647	 0,28884476344169 
648	 0,289093004380639 
649	 0,289136720417667 
650	 0,288608908290552 
651	 0,287328619785254 
652	 0,28606780972971 
653	 0,2849528462946 
654	 0,284001915854524 
655	 0,282646473871859 
656	 0,280861914148153 
657	 0,279661224533039 
658	 0,27838075615198 
659	 0,276294893590183 
660	 0,274097152841517 
661	 0,272104337265314 
662	 0,270771367907761 
663	 0,269254866825578 
664	 0,267235428280413 
665	 0,265754314513437 
666	 0,264666478752005 
667	 0,263547611619841 
668	 0,262577103797181 
669	 0,26175148462358 
670	 0,260914840469625 
671	 0,260217814335439 
672	 0,259758909902465 
673	 0,259110798339248 
674	 0,258555576837685 
675	 0,258995300788797 
676	 0,2593501662355 
677	 0,259207298297085 
678	 0,258737120835719 
679	 0,258506730764626 
680	 0,259153015883777 
681	 0,259923277877993 
682	 0,260681729767836 
683	 0,26157530803277 
684	 0,262795748944574 
685	 0,264462349356088 
686	 0,266447361341649 
687	 0,268763383719563 
688	 0,271420801065516 
689	 0,27477621219773 
690	 0,278880385540032 
691	 0,283243263995367 
692	 0,288302497594404 
693	 0,29443383629392 
694	 0,300761989218416 
695	 0,3073140436387 
696	 0,314604311228193 
697	 0,322384778855317 
698	 0,330594635694294 
699	 0,339529328904776 
700	 0,348483596839355 
701	 0,356604410485412 
702	 0,364738793104519 
703	 0,37283634470431 
704	 0,380065612399282 
705	 0,387132925768404 
706	 0,394415895782654 
707	 0,400937750502448 
708	 0,406665706120592 
709	 0,411783601905814 
710	 0,416667149845105 
711	 0,421441118838082 
712	 0,42590125611712 
713	 0,429899507854725 
714	 0,43333773407541 
715	 0,436789741972038 
716	 0,440105580396762 
717	 0,442525376328344 
718	 0,444953349850464 
719	 0,447630831985941 
720	 0,449465640089541 
721	 0,45101522612697 
722	 0,453114969073217 
723	 0,454623040592995 
724	 0,455609423620718 
725	 0,457274522628687 
726	 0,458733400431344 
727	 0,459517649401264 
728	 0,460599796807003 
729	 0,461823747546585 
730	 0,462685593886847 
731	 0,463271616432111 
732	 0,463696520923732 
733	 0,464302092137446 
734	 0,465131358843251 
735	 0,466144229368549 
736	 0,466422327743729 
737	 0,466412938959233 
738	 0,467778877878288 
739	 0,468501212084777 
740	 0,468082479461416 
741	 0,468375047672613 
742	 0,469038429091535 
743	 0,46949935165877 
744	 0,469835700655921 
745	 0,470072553375069 
746	 0,470268102157301 
747	 0,470539038586683 
748	 0,4709180068366 
749	 0,471168744376268 
750	 0,471215846164529 
751	 0,470972962269176 
752	 0,471185190499828 
753	 0,471823767947179 
754	 0,471904224621812 
755	 0,471960014922759 
756	 0,472343100919545 
757	 0,472404680748276 
758	 0,472365484774739 
759	 0,472872315406958 
760	 0,473381903860627 
761	 0,473677850528894 
762	 0,473653785948807 
763	 0,473668826249603 
764	 0,474043229152727 
765	 0,474269823270359 
766	 0,474351884259139 
767	 0,474562960135554 
768	 0,474764205821512 
769	 0,474901726612084 
770	 0,474943655663985 
771	 0,475083825994882 
772	 0,475539364561958 
773	 0,475904611745736 
774	 0,476045724257396 
775	 0,475879859926007 
776	 0,475713631955486 
777	 0,475726843547824 
778	 0,475831114297804 
779	 0,476055971349485 
780	 0,476455798459772 
781	 0,476787436501867 
782	 0,476997858982923 
783	 0,477246618089183 
784	 0,477208303724206 
785	 0,476761105216627 
786	 0,476728217396548 
787	 0,477039627065244 
788	 0,47734906952083 
789	 0,477620179785102 
790	 0,477833993326674 
791	 0,478099946671903 
792	 0,478194714243328 
793	 0,477999858441599 
794	 0,478266634152856 
795	 0,478715490257285 
796	 0,478438670076982 
797	 0,478416158409043 
798	 0,478839167729621 
799	 0,47894168348284 
800	 0,478987721642068 
801	 0,479245257099856 
802	 0,479434519670764 
803	 0,479539583616812 
804	 0,479645999375272 
805	 0,47978667705009 
806	 0,4799464800689 
807	 0,479982642580991 
808	 0,47985004623649 
809	 0,479549493658061 
810	 0,479883955725456 
811	 0,480584394216184 
812	 0,480402934065993 
813	 0,480306502341117 
814	 0,480670336008038 
815	 0,481132661138041 
816	 0,481528618080403 
817	 0,481703937058022 
818	 0,481688049531199 
819	 0,481634884786113 
820	 0,481977621006143 
821	 0,482222249814622 
822	 0,48219252546334 
823	 0,482389825257524 
824	 0,482694989406532 
825	 0,482893057712666 
826	 0,483101432936173 
827	 0,483258986486876 
828	 0,483111361204529 
829	 0,482890207320795 
830	 0,482804797406078 
831	 0,483247945306349 
832	 0,484009870053519 
833	 0,484744812472873 
834	 0,484473158363151 
835	 0,483496410313978 
836	 0,483572956812686 
837	 0,484129986246114 
838	 0,484747528488846 
839	 0,484791445980639 
840	 0,484521321399094 
841	 0,484420762589147 
842	 0,484573292659754 
843	 0,484902803452123 
844	 0,485037205691531 
845	 0,485121059080201 
846	 0,485250689638712 
847	 0,485537943018477 
848	 0,485833442437155 
849	 0,485916278415815 
850	 0,485685197194842 
851	 0,485319057658225 
852	 0,485456948550594 
853	 0,485694183845703 
854	 0,485749271528651 
855	 0,485230588701047 
856	 0,48500139234388 
857	 0,486253007978619 
858	 0,486541457394772 
859	 0,485851325454397 
860	 0,48622902001105 
861	 0,486541434152623 
862	 0,486309868568283 
863	 0,486361773263242 
864	 0,486635625685525 
865	 0,486936060056358 
866	 0,487177448907532 
867	 0,487341728771385 
868	 0,487475304318283 
869	 0,487599664485184 
870	 0,487761468438845 
871	 0,488145134712263 
872	 0,488524331119286 
873	 0,48861815519874 
874	 0,488647406603418 
875	 0,48874793712337 
876	 0,489209642434317 
877	 0,489340443479118 
878	 0,488982436683931 
879	 0,489086297917629 
880	 0,489322852049876 
881	 0,489276947268285 
882	 0,489410513372029 
883	 0,489758496921514 
884	 0,490196288505534 
885	 0,490556338336694 
886	 0,490767229613685 
887	 0,490942393755513 
888	 0,491021589287291 
889	 0,490936277564541 
890	 0,490522000972242 
891	 0,490160416495903 
892	 0,49074740185893 
893	 0,491045031069246 
894	 0,490874183386953 
895	 0,491439680343372 
896	 0,491913267387207 
897	 0,491689642202084 
898	 0,491813559729188 
899	 0,491996968369196 
900	 0,491405007576599 
901	 0,491591928251121 
902	 0,49256121288171 
903	 0,492626704724332 
904	 0,492280543906784 
905	 0,491963215136361 
906	 0,492461665725987 
907	 0,493125978746902 
908	 0,492905536399002 
909	 0,492973784692018 
910	 0,49329702895154 
911	 0,492765513701706 
912	 0,492699711915532 
913	 0,493447308243695 
914	 0,492954671848568 
915	 0,492638318047195 
916	 0,494120993224473 
917	 0,494781266862774 
918	 0,494394712372178 
919	 0,4937023015195 
920	 0,493793823956185 
921	 0,494751366324997 
922	 0,494835373923589 
923	 0,494102261393474 
924	 0,492874494261104 
925	 0,493053818009192 
926	 0,494051509526228 
927	 0,494226532462828 
928	 0,494298726227994 
929	 0,494338318054738 
930	 0,493945268855563 
931	 0,493777593737383 
932	 0,494088691837294 
933	 0,493718136102861 
934	 0,493135808388554 
935	 0,493100272976028 
936	 0,493714678012886 
937	 0,494452181308947 
938	 0,493818463347039 
939	 0,493002535790805 
940	 0,492452403446686 
941	 0,491888642137911 
942	 0,491414782757151 
943	 0,491163531749267 
944	 0,491694402530727 
945	 0,491975191837637 
946	 0,489897283671196 
947	 0,48968774070172 
948	 0,491314993709686 
949	 0,489862631221603 
950	 0,488579432946271 
951	 0,489044847924938 
952	 0,488467480408607 
953	 0,487518434274477 
954	 0,487296458823447 
955	 0,486590184077291 
956	 0,485798393425444 
957	 0,486756231607402 
958	 0,486410834339273 
959	 0,484306485847232 
960	 0,483449931766353 
961	 0,483755450554907 
962	 0,484880333113602 
963	 0,485433691110453 
964	 0,485176569428544 
965	 0,484142726944218 
966	 0,484688457547774 
967	 0,48615361759871 
968	 0,484412629673991 
969	 0,483302140638794 
970	 0,484273826461074 
971	 0,485697482427235 
972	 0,486300056634855 
973	 0,485144523455398 
974	 0,484014452919101 
975	 0,483253029299273 
976	 0,482795598966592 
977	 0,48347340028165 
978	 0,485040821418809 
979	 0,48590101872599 
980	 0,48702162527417 
981	 0,488350876116967 
982	 0,486983606462772 
983	 0,485176470789925 
984	 0,485371363536089 
985	 0,485809305179858 
986	 0,486283865543431 
987	 0,48696255719189 
988	 0,488016713798888 
989	 0,489017564973622 
990	 0,48824677270503 
991	 0,488072915074332 
992	 0,489386741932122 
993	 0,489452979509048 
994	 0,488830216348152 
995	 0,488438684353121 
996	 0,489567655211928 
997	 0,490823974288736 
998	 0,488948249012097 
999	 0,490266492844876 
1000	 0,494163697952944 
1001	 0,491571213688987 
1002	 0,489951328094535 
1003	 0,492371846212577 
1004	 0,492931642613572 
1005	 0,492402863599261 
1006	 0,492204446741466 
1007	 0,49510916250496 
1008	 0,49804216906798 
1009	 0,494738238895445 
1010	 0,493414543627868 
1011	 0,495671274192022 
1012	 0,499582720691528 
1013	 0,499957683041793 
1014	 0,495677067962372 
1015	 0,494428188506673 
1016	 0,496335575443957 
1017	 0,500393186697265 
1018	 0,500839092848062 
1019	 0,498319593743635 
1020	 0,495438535409562 
1021	 0,496248483658005 
1022	 0,498934035819663 
1023	 0,494747381714505 
1024	 0,495174228062263 
1025	 0,501565415184481 
1026	 0,501638777837235 
1027	 0,499612298323704 
1028	 0,498539294926037 
1029	 0,49725027993154 
1030	 0,4976390423458 
1031	 0,501471892315154 
1032	 0,501190679105016 
1033	 0,499046030160925 
1034	 0,502675318940987 
1035	 0,503908955720112 
1036	 0,501553635861914 
1037	 0,499455535090877 
1038	 0,500915900717886 
1039	 0,505359392700179 
1040	 0,5004064249311 
1041	 0,498288324700902 
1042	 0,506904942152722 
1043	 0,501249156669316 
1044	 0,492600786131084 
1045	 0,50067994563458 
1046	 0,503728776835063 
1047	 0,500801576940453 
1048	 0,500937871867563 
1049	 0,499344163532462 
1050	 0,496313564568944 
1051	 0,49801767082052 
1052	 0,495940246525148 
1053	 0,489687400346848 
1054	 0,502064064619068 
1055	 0,513514722795622 
1056	 0,507833164750521 
1057	 0,505484037346189 
1058	 0,501920695666689 
1059	 0,48821566274406 
1060	 0,490699477860828 
1061	 0,50204479830009 
1062	 0,492158119178967 
1063	 0,492994421794023 
1064	 0,50476070620661 
1065	 0,493426904089684 
1066	 0,482814425332476 
1067	 0,485681584676812 
1068	 0,501886745010975 
1069	 0,51195497356067 
1070	 0,502368601797284 
1071	 0,48962752865615 
1072	 0,484257544313034 
1073	 0,495207730345609 
1074	 0,507726081790361 
1075	 0,509032567553323 
