Wavelength	AVEN00259.asd
325	 2,77204640232386E-02 
326	 0,105301373995264 
327	 8,15956626890265E-02 
328	-5,62573411475344E-02 
329	 7,91465440581476E-03 
330	 0,098239998368953 
331	 8,50245802336874E-02 
332	 4,85162380779911E-02 
333	 0,018790307720656 
334	 2,19296925118519E-02 
335	 6,52446349705712E-02 
336	 0,110784006132122 
337	 5,28433864494153E-02 
338	-1,83937262146293E-02 
339	-1,84119362030527E-02 
340	-2,39819603010488E-02 
341	-1,84903976304483E-02 
342	 6,30880574195531E-02 
343	 0,116296860322792 
344	 0,115584866735718 
345	 8,13626146757776E-02 
346	 4,58324710835565E-02 
347	 4,74156082795762E-02 
348	 6,02161267623739E-02 
349	 0,067509060973622 
350	 4,19070663619662E-02 
351	 1,25851116208135E-02 
352	-4,7405221426204E-04 
353	 2,37100177306298E-02 
354	 5,11140587205331E-02 
355	 4,45994780093063E-02 
356	 3,14553247508474E-02 
357	 0,017614868019683 
358	-8,47781203607086E-05 
359	-1,35802683767009E-02 
360	-0,018688516537599 
361	-8,39070383859724E-03 
362	 8,69639475128007E-03 
363	 2,24308979870125E-02 
364	 3,27964842824566E-02 
365	 3,83214241591335E-02 
366	 4,29657890086957E-02 
367	 3,34086073478421E-02 
368	 7,46120518314254E-03 
369	 1,51058358687885E-02 
370	 3,34421047137855E-02 
371	 8,21817211747502E-03 
372	 1,04523230940195E-02 
373	 4,43129768995234E-02 
374	 4,14456478101555E-02 
375	 3,32189278598448E-02 
376	 4,27636459909163E-02 
377	 4,26959575259603E-02 
378	 3,35826956670544E-02 
379	 2,33090706820532E-02 
380	 3,13946165848172E-02 
381	 5,28919482826327E-02 
382	 4,33721610994559E-02 
383	 1,36229796306433E-02 
384	-2,05985597914483E-02 
385	-2,93687311801604E-02 
386	-1,52905176766359E-02 
387	-1,11214100074516E-03 
388	 1,39178049687234E-02 
389	 2,73872809608191E-02 
390	 3,49890307007939E-02 
391	 0,036009485526686 
392	 3,01728710846646E-02 
393	 2,72845955982207E-02 
394	 2,62877096339855E-02 
395	 1,36577976430608E-02 
396	 1,09483330660849E-02 
397	 2,50789236095195E-02 
398	 2,21698988855951E-02 
399	 1,13219933258844E-02 
400	 1,17018169228478E-02 
401	 0,015360671950541 
402	 1,90622442657549E-02 
403	 1,85624972220334E-02 
404	 1,58417227671594E-02 
405	 1,27679375406248E-02 
406	 1,20727506667918E-02 
407	 0,014829675305847 
408	 2,30316130846304E-02 
409	 2,73473661149039E-02 
410	 2,47853396523711E-02 
411	 1,60384996352292E-02 
412	 1,17019281298587E-02 
413	 0,020398908754562 
414	 2,25849878054635E-02 
415	 1,93326053607979E-02 
416	 0,02249493539358 
417	 2,78729247308399E-02 
418	 3,25766496237848E-02 
419	 0,030091934875242 
420	 2,42322014000278E-02 
421	 2,03307264067886E-02 
422	 0,018662925345214 
423	 1,88865748781841E-02 
424	 1,89236356891213E-02 
425	 1,99628350499149E-02 
426	 2,22343408122134E-02 
427	 2,14276945250653E-02 
428	 2,03385269685141E-02 
429	 2,54283323782366E-02 
430	 2,56814575384999E-02 
431	 1,99119109606485E-02 
432	 1,71747109590947E-02 
433	 1,78759293081059E-02 
434	 2,16289086932668E-02 
435	 2,33341509421801E-02 
436	 2,30856800372452E-02 
437	 2,44784761197562E-02 
438	 2,28464193360366E-02 
439	 0,017890228171637 
440	 1,89661006475818E-02 
441	 2,26249856133201E-02 
442	 2,35050972076053E-02 
443	 2,31896219943315E-02 
444	 2,26248995983936E-02 
445	 2,43104411043241E-02 
446	 0,024444713492484 
447	 2,12761564160909E-02 
448	 2,12116630068935E-02 
449	 2,33104303784609E-02 
450	 2,43277401913977E-02 
451	 2,39728658810814E-02 
452	 0,022311313489619 
453	 2,02723732700703E-02 
454	 2,00474538936116E-02 
455	 2,33274506544041E-02 
456	 2,52237440620885E-02 
457	 2,53962856781138E-02 
458	 2,58281978360831E-02 
459	 2,57948723966134E-02 
460	 2,53260890220569E-02 
461	 2,58991003478788E-02 
462	 2,73344909329204E-02 
463	 0,029225938227045 
464	 2,84893627130777E-02 
465	 2,57622395616672E-02 
466	 2,60807404936479E-02 
467	 2,69949262737616E-02 
468	 2,69718475198497E-02 
469	 2,76199919510577E-02 
470	 2,86712344943385E-02 
471	 0,029359788987937 
472	 2,90483938579314E-02 
473	 0,027750652218199 
474	 2,66281194154087E-02 
475	 2,59397704196501E-02 
476	 2,59073952885935E-02 
477	 0,028123242741824 
478	 0,03105721615996 
479	 0,029795701410703 
480	 2,81594880069682E-02 
481	 0,027804439461663 
482	 2,70416890436882E-02 
483	 2,59406736741095E-02 
484	 2,47984852540557E-02 
485	 2,42712208339673E-02 
486	 2,44879899702297E-02 
487	 2,53607055477638E-02 
488	 2,52903358363771E-02 
489	 2,34403960399286E-02 
490	 2,47449872120243E-02 
491	 2,72907497251506E-02 
492	 0,024853258252325 
493	 2,25507401879204E-02 
494	 2,24811494916579E-02 
495	 2,55806136940304E-02 
496	 2,82646476938336E-02 
497	 0,026552458782955 
498	 2,51048258505317E-02 
499	 2,52745360424857E-02 
500	 2,79062713901537E-02 
501	 2,92202472867748E-02 
502	 2,74744527926724E-02 
503	 2,76045691485955E-02 
504	 2,90034698225207E-02 
505	 2,95863325564649E-02 
506	 2,92228088688159E-02 
507	 2,81707206645753E-02 
508	 2,77513695806734E-02 
509	 0,028478170915912 
510	 3,05165378124305E-02 
511	 2,96944878908133E-02 
512	 2,73501213252603E-02 
513	 2,93112518242858E-02 
514	 3,00007130319388E-02 
515	 2,79079288789092E-02 
516	 2,99043675124451E-02 
517	 3,30246524155483E-02 
518	 3,23819991433553E-02 
519	 0,030757038482158 
520	 2,93525457038938E-02 
521	 2,97669165904359E-02 
522	 3,03115669840578E-02 
523	 2,98056356530849E-02 
524	 2,95698598796875E-02 
525	 2,98567139071065E-02 
526	 3,09651916131582E-02 
527	 3,11132357206544E-02 
528	 3,00507031980516E-02 
529	 3,02378950767644E-02 
530	 3,07701726196283E-02 
531	 3,04237522569927E-02 
532	 3,07699990418331E-02 
533	 3,17013911120914E-02 
534	 0,03188542809529 
535	 3,16262989940979E-02 
536	 0,031174855595042 
537	 3,09641258919434E-02 
538	 3,12787857797545E-02 
539	 3,25796912017886E-02 
540	 3,32547263998274E-02 
541	 3,29609836386885E-02 
542	 0,032837093083381 
543	 3,28331860291525E-02 
544	 3,28294182801753E-02 
545	 3,24629601802579E-02 
546	 3,20245552802496E-02 
547	 3,24946521772037E-02 
548	 3,30812744236772E-02 
549	 3,34411252280626E-02 
550	 3,42232451830845E-02 
551	 3,48020688162683E-02 
552	 3,40821481613139E-02 
553	 3,42056151591503E-02 
554	 3,50698817639958E-02 
555	 3,34356396550889E-02 
556	 3,23771736049705E-02 
557	 3,42887957765814E-02 
558	 3,49803817367138E-02 
559	 3,43888506092046E-02 
560	 3,43707302758118E-02 
561	 3,40529554444387E-02 
562	 3,34092888205462E-02 
563	 3,41159796465786E-02 
564	 3,50223456371922E-02 
565	 3,44487226368677E-02 
566	 3,43993738279905E-02 
567	 3,49515692203374E-02 
568	 3,45060316385426E-02 
569	 3,39301805129849E-02 
570	 3,39215197166474E-02 
571	 3,48690060649739E-02 
572	 3,63570876298482E-02 
573	 3,75506820827577E-02 
574	 3,75663167995677E-02 
575	 3,65275136185564E-02 
576	 3,70351101812696E-02 
577	 3,81919933703555E-02 
578	 3,87587940231026E-02 
579	 3,85780646419025E-02 
580	 3,80384436197258E-02 
581	 3,84536715821123E-02 
582	 3,92990600917067E-02 
583	 4,01460794444932E-02 
584	 4,00977475574868E-02 
585	 3,98618141587958E-02 
586	 4,09102795787817E-02 
587	 4,18308381612432E-02 
588	 4,21606104001005E-02 
589	 0,041915301316385 
590	 4,17750527285699E-02 
591	 4,23258995458685E-02 
592	 4,23932688338404E-02 
593	 4,21234088018359E-02 
594	 4,25613168578516E-02 
595	 4,30319682420473E-02 
596	 4,32341244442656E-02 
597	 4,34064385764042E-02 
598	 4,34140527040903E-02 
599	 4,30300579572094E-02 
600	 4,25491554652731E-02 
601	 4,22424719617016E-02 
602	 0,042750076021689 
603	 4,31823007151329E-02 
604	 4,28338356148482E-02 
605	 4,20908323916648E-02 
606	 4,15204444506616E-02 
607	 4,23953444427111E-02 
608	 4,28988016751928E-02 
609	 4,23875219535295E-02 
610	 0,041626057535371 
611	 4,10652225026818E-02 
612	 4,11612665600759E-02 
613	 4,08429720560171E-02 
614	 4,02472674225965E-02 
615	 4,08293280881668E-02 
616	 4,11845847863382E-02 
617	 4,05346789242004E-02 
618	 4,05495169227902E-02 
619	 4,10007934802152E-02 
620	 4,09541874193965E-02 
621	 0,041016754699431 
622	 4,11920400491071E-02 
623	 4,05676097843296E-02 
624	 4,00115424549658E-02 
625	 4,04262822839952E-02 
626	 4,05120797154566E-02 
627	 4,03878373116714E-02 
628	 4,13817371463897E-02 
629	 4,17078484595856E-02 
630	 4,07520407809399E-02 
631	 4,12820216016211E-02 
632	 4,24225183774652E-02 
633	 4,22441100321029E-02 
634	 4,19142837850971E-02 
635	 4,19018934006881E-02 
636	 4,27523565799582E-02 
637	 0,043412159932326 
638	 4,30572257873711E-02 
639	 4,32653115016247E-02 
640	 4,40802901031316E-02 
641	 4,49300267270399E-02 
642	 4,54590145870945E-02 
643	 4,55268618312233E-02 
644	 4,55610052743422E-02 
645	 0,045550283845497 
646	 4,54202087751999E-02 
647	 4,54755138555255E-02 
648	 4,57060606137739E-02 
649	 4,58352200314079E-02 
650	 4,57350485278731E-02 
651	 4,53406223129795E-02 
652	 4,48610692760011E-02 
653	 4,45515840064189E-02 
654	 4,49637773839127E-02 
655	 4,43829713287003E-02 
656	 4,27558520398641E-02 
657	 4,29022217042601E-02 
658	 4,34364099291539E-02 
659	 4,27709093172006E-02 
660	 4,17844548366224E-02 
661	 4,09034045605037E-02 
662	 4,08847667573035E-02 
663	 4,05030073715959E-02 
664	 3,93109094653757E-02 
665	 3,89136287917178E-02 
666	 0,039000320194917 
667	 3,87883294039698E-02 
668	 3,87113761025328E-02 
669	 3,87287209125696E-02 
670	 3,83456168026115E-02 
671	 0,037704898969006 
672	 3,70101060017028E-02 
673	 3,70701672573331E-02 
674	 3,76575726386579E-02 
675	 3,79226620250461E-02 
676	 3,80387633833245E-02 
677	 3,80120490169061E-02 
678	 0,037714150223282 
679	 3,74621680712664E-02 
680	 3,76321275507269E-02 
681	 3,81903735722361E-02 
682	 3,89155518800775E-02 
683	 3,91141230470661E-02 
684	 3,95691253565695E-02 
685	 4,06229796377058E-02 
686	 4,09764070360014E-02 
687	 4,11996028044766E-02 
688	 4,26049988276126E-02 
689	 4,39889142424309E-02 
690	 4,51424876919182E-02 
691	 4,67354104549381E-02 
692	 4,87961800030343E-02 
693	 5,12838214402139E-02 
694	 5,33989142155086E-02 
695	 5,54700574452882E-02 
696	 5,87347601100094E-02 
697	 6,22820052937784E-02 
698	 6,57688650000877E-02 
699	 0,069556275758756 
700	 7,34482172270526E-02 
701	 7,71863372644033E-02 
702	 8,11261710334548E-02 
703	 8,51459993772177E-02 
704	 8,85660328682905E-02 
705	 9,20280284998769E-02 
706	 9,58872996779237E-02 
707	 9,93460835577535E-02 
708	 0,102554448011726 
709	 0,106031026215724 
710	 0,109217139953975 
711	 0,111884994694105 
712	 0,113814090913328 
713	 0,115761784113812 
714	 0,118379193462443 
715	 0,120546501898455 
716	 0,122184106405882 
717	 0,123648548024121 
718	 0,125102726199788 
719	 0,126622481527431 
720	 0,127989970985464 
721	 0,129381354539241 
722	 0,131051006163587 
723	 0,132025815876592 
724	 0,132396666529501 
725	 0,133305281027692 
726	 0,134205104241553 
727	 0,134769730955387 
728	 0,135230638534392 
729	 0,135688599505266 
730	 0,136253763637665 
731	 0,136908701530114 
732	 0,137565512258391 
733	 0,137895246283497 
734	 0,138167612569014 
735	 0,13862109435214 
736	 0,139074855836179 
737	 0,139450655179097 
738	 0,139671375667691 
739	 0,139632100000973 
740	 0,139471924131089 
741	 0,140140753219036 
742	 0,140993424706469 
743	 0,141203721212285 
744	 0,14132700714056 
745	 0,141485399935272 
746	 0,141627765907877 
747	 0,141941147667977 
748	 0,142452349100361 
749	 0,142603468243508 
750	 0,142554019042825 
751	 0,142643054458604 
752	 0,142973497078203 
753	 0,143433942242925 
754	 0,143482053700166 
755	 0,143425834467529 
756	 0,143498255650009 
757	 0,143602109557422 
758	 0,143707184784133 
759	 0,143774781054591 
760	 0,143847076696712 
761	 0,143912067227221 
762	 0,143760927543278 
763	 0,143956875561502 
764	 0,144947679014355 
765	 0,145177541902324 
766	 0,144825817029547 
767	 0,145210386424088 
768	 0,145426887930219 
769	 0,145269125922871 
770	 0,14565544847279 
771	 0,14602310340756 
772	 0,145650659608329 
773	 0,145620509315216 
774	 0,146011808616428 
775	 0,146324101653075 
776	 0,146316416662479 
777	 0,145957143714333 
778	 0,146027596244727 
779	 0,14647227359133 
780	 0,147082862304495 
781	 0,14697834589931 
782	 0,146326046996154 
783	 0,14664475881904 
784	 0,147151134605798 
785	 0,147309530661357 
786	 0,147239353526174 
787	 0,14718391091345 
788	 0,147563397550247 
789	 0,147828917669599 
790	 0,14782705125408 
791	 0,147679530489614 
792	 0,14759236918564 
793	 0,147705195080958 
794	 0,147611921124082 
795	 0,14752616277621 
796	 0,14808901232672 
797	 0,148346591806034 
798	 0,148114727960137 
799	 0,148202731532742 
800	 0,148391990473971 
801	 0,148446162070489 
802	 0,148492724746024 
803	 0,148616801614382 
804	 0,149019869422411 
805	 0,149220035770939 
806	 0,14911702704226 
807	 0,149293120254226 
808	 0,149436284567457 
809	 0,149199601535076 
810	 0,149260586469722 
811	 0,149589698743289 
812	 0,149747094984012 
813	 0,149602586137651 
814	 0,149261877183485 
815	 0,149746387367752 
816	 0,150500175240128 
817	 0,150757300172627 
818	 0,150365244782208 
819	 0,149779658852317 
820	 0,150503751651895 
821	 0,151069537248524 
822	 0,150861590663508 
823	 0,150802715986533 
824	 0,150938706752058 
825	 0,151207551847766 
826	 0,151503911291451 
827	 0,151684795545943 
828	 0,151432306358411 
829	 0,151141028187705 
830	 0,15107582892428 
831	 0,151412973599098 
832	 0,151847097892341 
833	 0,151942545320217 
834	 0,152236833814834 
835	 0,152574667583193 
836	 0,151968392734782 
837	 0,151659593796125 
838	 0,152198130480117 
839	 0,152310885739714 
840	 0,151980622190811 
841	 0,15139399659942 
842	 0,15176122466547 
843	 0,152876239134015 
844	 0,153024347061988 
845	 0,152722312872257 
846	 0,152337474044335 
847	 0,152401292911752 
848	 0,152607249720144 
849	 0,152430355051361 
850	 0,151968292938366 
851	 0,15150114320624 
852	 0,151838376628733 
853	 0,152263476722332 
854	 0,152367544228882 
855	 0,152276277959956 
856	 0,152269027861263 
857	 0,152700360067234 
858	 0,15278938064597 
859	 0,152601593562497 
860	 0,153069266732629 
861	 0,153168785262903 
862	 0,152565441623672 
863	 0,152773031357892 
864	 0,153359660070458 
865	 0,153552767433798 
866	 0,153076217882466 
867	 0,152419478095163 
868	 0,153363013946292 
869	 0,15392193491135 
870	 0,153390227904653 
871	 0,153865160362357 
872	 0,154286350643826 
873	 0,153238213502712 
874	 0,153061482940195 
875	 0,153872013803066 
876	 0,154495062433011 
877	 0,154796265146506 
878	 0,154756381633347 
879	 0,154998246143953 
880	 0,15511741915309 
881	 0,154673505021777 
882	 0,15463185659517 
883	 0,154917351450358 
884	 0,154743912569129 
885	 0,154853631143253 
886	 0,155375466809188 
887	 0,155582851446154 
888	 0,155605184071194 
889	 0,15562769614769 
890	 0,155929618634142 
891	 0,156290920484502 
892	 0,15613428256429 
893	 0,155769350596891 
894	 0,155407215540364 
895	 0,155419226561507 
896	 0,155705107619247 
897	 0,15607634359103 
898	 0,155693815882607 
899	 0,155075204293908 
900	 0,155386789996299 
901	 0,15540889247554 
902	 0,155109832019244 
903	 0,155738442620219 
904	 0,15623944895903 
905	 0,156041306836457 
906	 0,156169871718607 
907	 0,15659782478562 
908	 0,157103405655818 
909	 0,156833820158531 
910	 0,155987473286668 
911	 0,155837996891625 
912	 0,15605169405565 
913	 0,156412497929711 
914	 0,156529746132688 
915	 0,156588531061863 
916	 0,156812606090831 
917	 0,156525135505836 
918	 0,156073301194685 
919	 0,156673253381086 
920	 0,157246616079333 
921	 0,157412947867566 
922	 0,157366209673434 
923	 0,157149690465044 
924	 0,156794263102932 
925	 0,156083988840712 
926	 0,155629984077174 
927	 0,156552868209582 
928	 0,157180534564161 
929	 0,157173906067082 
930	 0,1574143653224 
931	 0,15694289895516 
932	 0,155548346976483 
933	 0,155667046427022 
934	 0,156652115867067 
935	 0,157299092972873 
936	 0,157521208361643 
937	 0,157323868844719 
938	 0,156840932717292 
939	 0,156745352289759 
940	 0,157142117845564 
941	 0,1569318420249 
942	 0,156829262136697 
943	 0,15735407434275 
944	 0,156508116461076 
945	 0,15507661884984 
946	 0,155110371660208 
947	 0,155103274871404 
948	 0,15474106742295 
949	 0,154393834321076 
950	 0,154500880554735 
951	 0,155142118321154 
952	 0,155195429794679 
953	 0,154618984482737 
954	 0,153545775159205 
955	 0,152082872191843 
956	 0,151016299275386 
957	 0,152296576639427 
958	 0,152687720581376 
959	 0,151613759868958 
960	 0,152052650183237 
961	 0,153179616663141 
962	 0,154104720012366 
963	 0,153587985551263 
964	 0,152638326803449 
965	 0,153059828145407 
966	 0,153602021580651 
967	 0,153819436538908 
968	 0,15335641502634 
969	 0,152740347582077 
970	 0,152302964440284 
971	 0,152425812138391 
972	 0,15232839163112 
973	 0,151405738360056 
974	 0,151303017422646 
975	 0,151763834801752 
976	 0,151810579485032 
977	 0,152398987869619 
978	 0,15334278840143 
979	 0,15319762578355 
980	 0,153050479507545 
981	 0,153386797495397 
982	 0,15367219555053 
983	 0,153500732424299 
984	 0,152693991758613 
985	 0,153839056340049 
986	 0,155573736168832 
987	 0,154358920902242 
988	 0,153611095415809 
989	 0,15411371087312 
990	 0,154872781060373 
991	 0,155734331140016 
992	 0,156202916344876 
993	 0,153963710635578 
994	 0,152624278349435 
995	 0,155726372867272 
996	 0,158158814692323 
997	 0,158802411787794 
998	 0,157460011093828 
999	 0,157498498201483 
1000	 0,158837842870153 
1001	 0,157257238385957 
1002	 0,155306929392908 
1003	 0,154437255394822 
1004	 0,154427281138387 
1005	 0,155840606866687 
1006	 0,15870144595495 
1007	 0,157529594509155 
1008	 0,15487956731104 
1009	 0,156944799960108 
1010	 0,158925484072652 
1011	 0,160133428381923 
1012	 0,163026150049636 
1013	 0,163776683775008 
1014	 0,161299064869158 
1015	 0,159522924186907 
1016	 0,158724128479629 
1017	 0,159004467336245 
1018	 0,160740992310074 
1019	 0,162204892078974 
1020	 0,160877564651325 
1021	 0,159188557259115 
1022	 0,15833663771028 
1023	 0,159760539024224 
1024	 0,162506298442085 
1025	 0,165376797938709 
1026	 0,164884997618655 
1027	 0,165607404792178 
1028	 0,169156935274214 
1029	 0,164323308340318 
1030	 0,158045099716993 
1031	 0,159544550154885 
1032	 0,162730332716369 
1033	 0,165533114361785 
1034	 0,166436381086732 
1035	 0,165319971658835 
1036	 0,162878117809128 
1037	 0,16074506961358 
1038	 0,163214650686936 
1039	 0,169964479677414 
1040	 0,168336201934217 
1041	 0,167064606551505 
1042	 0,172604872081841 
1043	 0,173004368752806 
1044	 0,169591680580455 
1045	 0,16677386076356 
1046	 0,170143088095037 
1047	 0,174765772154422 
1048	 0,165786215525689 
1049	 0,16282759028046 
1050	 0,169425402208708 
1051	 0,175182176266028 
1052	 0,17221706661684 
1053	 0,16055304652363 
1054	 0,16517593564829 
1055	 0,170618813178673 
1056	 0,163992068127808 
1057	 0,164006224364845 
1058	 0,168998914279917 
1059	 0,172530925318379 
1060	 0,170664581253815 
1061	 0,166083470330306 
1062	 0,166999228641435 
1063	 0,172819277773393 
1064	 0,17675113757508 
1065	 0,154231024873316 
1066	 0,139303985520543 
1067	 0,148654868520453 
1068	 0,170105056122748 
1069	 0,185661977681385 
1070	 0,182950293703741 
1071	 0,180234630771274 
1072	 0,177381498698596 
1073	 0,172259453025236 
1074	 0,173837641688465 
1075	 0,172242843810437 
