Wavelength	AVEN00597.asd
325	 0,228271507202833 
326	 0,126678786228547 
327	 0,131519919206952 
328	 0,270322903153588 
329	 0,280003774329413 
330	 0,17135422772474 
331	-6,4654525065831E-03 
332	 2,64469395146686E-02 
333	 0,159996314722683 
334	 5,37600541004982E-02 
335	-4,80886407439738E-02 
336	-5,62280307883647E-02 
337	-1,70690711503046E-02 
338	 2,83035996002207E-02 
339	 3,85319842222603E-02 
340	-4,24426500808109E-02 
341	-0,120192003204963 
342	 3,95996918249789E-03 
343	 9,38238308047024E-02 
344	 9,66586959579556E-02 
345	 9,73928829042926E-02 
346	 7,58870843212002E-02 
347	 1,29707225973854E-02 
348	 2,16717116557816E-02 
349	 6,99183001448657E-02 
350	 0,026370031814312 
351	-9,75277529502789E-03 
352	 8,87553221324223E-04 
353	 3,02984731205758E-02 
354	 4,87154838116115E-02 
355	 2,68117290353581E-02 
356	 2,31131651188395E-02 
357	 4,00354423362339E-02 
358	 4,72494599378761E-02 
359	 3,17632493300517E-02 
360	-5,62620321966942E-03 
361	 8,18041663762992E-03 
362	 3,07497218768022E-02 
363	-6,31733272314304E-03 
364	-8,57652288438845E-03 
365	 2,83190905452737E-02 
366	 4,72770576937353E-02 
367	 4,85815277672007E-02 
368	 3,34289192952806E-02 
369	 2,43472976370284E-02 
370	 0,022522385945379 
371	 2,52116805637793E-02 
372	 2,35611207326226E-02 
373	 1,65769929470839E-02 
374	 1,22579312681443E-02 
375	 1,20723387696154E-02 
376	 1,56012273680759E-02 
377	 9,09002939551046E-03 
378	-1,87977272470624E-03 
379	-1,60068858527026E-03 
380	 0,019513686271773 
381	 5,02991523012718E-02 
382	 3,49476821431511E-02 
383	 0,010767620309814 
384	 1,65478317245897E-02 
385	 0,018535811861768 
386	 1,20538466327501E-02 
387	 2,1494868493346E-04 
388	-6,78751256775126E-03 
389	-2,87167668864724E-03 
390	 2,10038287058383E-02 
391	 3,72872271199023E-02 
392	 1,62856499978432E-02 
393	 6,16382625684426E-03 
394	 1,19052987349133E-02 
395	 1,05319544000919E-02 
396	 1,44608018792288E-02 
397	 2,63223192380284E-02 
398	 1,90725571753713E-02 
399	 7,08773860524833E-03 
400	 1,60512222036838E-02 
401	 2,22535122414809E-02 
402	 2,13719282900469E-02 
403	 1,96603296806021E-02 
404	 1,94135139625614E-02 
405	 0,022066365322345 
406	 2,64334570863099E-02 
407	 2,93049602883397E-02 
408	 2,53385430833392E-02 
409	 0,0212715807363 
410	 1,87110684606058E-02 
411	 1,33770069810616E-02 
412	 0,011683915706433 
413	 1,88195975932761E-02 
414	 0,018273355205601 
415	 1,16937265402457E-02 
416	 1,03213490792395E-02 
417	 1,24335599664974E-02 
418	 1,68080082469432E-02 
419	 2,02544688725683E-02 
420	 2,02646949323358E-02 
421	 1,42727152610731E-02 
422	 1,40658761135033E-02 
423	 1,80064859546877E-02 
424	 1,02260754886923E-02 
425	 5,52254094130718E-03 
426	 1,16827457917677E-02 
427	 1,31103514693658E-02 
428	 1,15785091308185E-02 
429	 1,44613742424564E-02 
430	 1,25056983532658E-02 
431	 6,40778088463452E-03 
432	 1,09980430708494E-02 
433	 1,60629725263685E-02 
434	 1,26452495376642E-02 
435	 1,10285222375485E-02 
436	 1,22246342816473E-02 
437	 1,42052652174784E-02 
438	 1,47249285040006E-02 
439	 1,34987399731764E-02 
440	 1,56074395140128E-02 
441	 1,84230094163484E-02 
442	 1,81515511041213E-02 
443	 1,57582082519631E-02 
444	 1,28279518072289E-02 
445	 1,36150910343036E-02 
446	 1,47656821867506E-02 
447	 1,42572498250201E-02 
448	 1,39815005169368E-02 
449	 0,014168460249286 
450	 1,47864081551949E-02 
451	 1,56948329299073E-02 
452	 1,63175615285476E-02 
453	 1,43661169782986E-02 
454	 1,29834072410937E-02 
455	 0,014883280390013 
456	 1,41010751538399E-02 
457	 1,20058115113042E-02 
458	 1,56644983906901E-02 
459	 0,017452140389724 
460	 1,49233048877122E-02 
461	 1,45091345214169E-02 
462	 1,56834125039493E-02 
463	 1,69212305032004E-02 
464	 1,58665628745387E-02 
465	 1,34798098845135E-02 
466	 1,54363623282251E-02 
467	 1,75570632686771E-02 
468	 1,72078566549987E-02 
469	 1,71194689387263E-02 
470	 1,73154029302195E-02 
471	 1,71941280009085E-02 
472	 1,59873825532436E-02 
473	 1,40943329176459E-02 
474	 1,46077994587916E-02 
475	 1,54421732174356E-02 
476	 1,44699716290297E-02 
477	 1,40500885194404E-02 
478	 1,43874381198246E-02 
479	 1,49587334007046E-02 
480	 1,43152945651041E-02 
481	 1,21984789610488E-02 
482	 1,20632024906953E-02 
483	 1,26878992776351E-02 
484	 1,16901136234525E-02 
485	 0,011341345145156 
486	 1,17975122543674E-02 
487	 0,011287564515671 
488	 1,09057522911955E-02 
489	 1,16001449326448E-02 
490	 0,01449628163028 
491	 1,73804634033987E-02 
492	 1,49070546881898E-02 
493	 1,27603066597543E-02 
494	 1,28653941492005E-02 
495	 1,37425731811638E-02 
496	 1,39455258679854E-02 
497	 1,20412514703021E-02 
498	 1,16144245708159E-02 
499	 1,27271841589822E-02 
500	 1,30165496302254E-02 
501	 1,26518932518969E-02 
502	 1,19420051462115E-02 
503	 1,27740416846414E-02 
504	 1,42479118010742E-02 
505	 1,44588365701741E-02 
506	 0,014280907813714 
507	 1,39143994490082E-02 
508	 1,30314227313936E-02 
509	 1,26823447825969E-02 
510	 1,37042893242352E-02 
511	 1,41128640171746E-02 
512	 1,38267446748033E-02 
513	 1,38023709034924E-02 
514	 1,31636909749199E-02 
515	 1,19822098642987E-02 
516	 1,30334644572564E-02 
517	 1,47595775531949E-02 
518	 1,47250199769935E-02 
519	 1,35566393324205E-02 
520	 1,22039663837955E-02 
521	 1,35672067601338E-02 
522	 1,46739639385234E-02 
523	 1,34923237219851E-02 
524	 1,26635010294703E-02 
525	 0,012824797672646 
526	 1,47219886113029E-02 
527	 1,52276935967812E-02 
528	 1,35969996102693E-02 
529	 1,25086807363834E-02 
530	 1,21463769938709E-02 
531	 1,24374317579371E-02 
532	 1,30509848749971E-02 
533	 1,37333475353268E-02 
534	 0,014147348701229 
535	 1,44961222259737E-02 
536	 1,47605138495067E-02 
537	 1,36597023875718E-02 
538	 1,24087992564196E-02 
539	 1,35888687212482E-02 
540	 1,40172792000297E-02 
541	 1,30467887953597E-02 
542	 1,25725536537267E-02 
543	 1,26098321124859E-02 
544	 1,30500441874282E-02 
545	 1,34030075998284E-02 
546	 1,35411488849475E-02 
547	 1,34530392565274E-02 
548	 1,34800384777951E-02 
549	 1,37852018568359E-02 
550	 1,42882673999752E-02 
551	 1,43742358176546E-02 
552	 1,30472452093544E-02 
553	 1,31361205926848E-02 
554	 1,45800223294223E-02 
555	 1,35508392545903E-02 
556	 1,25018001693486E-02 
557	 1,34190222652809E-02 
558	 1,35394915091727E-02 
559	 1,29160824513032E-02 
560	 1,29031267394102E-02 
561	 1,30642693587357E-02 
562	 1,31799154523099E-02 
563	 1,27959257912801E-02 
564	 1,24530955112312E-02 
565	 1,29007895667498E-02 
566	 0,013329271817591 
567	 0,013397197159088 
568	 1,26796161664111E-02 
569	 1,21357290935449E-02 
570	 1,24548178619062E-02 
571	 1,32039769905682E-02 
572	 1,41380213038689E-02 
573	 1,50025720144423E-02 
574	 1,52849128593719E-02 
575	 0,014931256682317 
576	 1,48232170311321E-02 
577	 1,48708910297241E-02 
578	 1,49027709649297E-02 
579	 1,54522082189558E-02 
580	 1,62024736907655E-02 
581	 1,57815518183466E-02 
582	 1,55807898443752E-02 
583	 1,62826560838033E-02 
584	 1,64290003840918E-02 
585	 1,64375169187743E-02 
586	 1,74263701090954E-02 
587	 0,017898830472684 
588	 0,017563897947369 
589	 1,72542754344708E-02 
590	 1,73692252262366E-02 
591	 1,81550883221227E-02 
592	 0,0177817868771 
593	 1,67479007421239E-02 
594	 1,74606022975525E-02 
595	 1,80867291518599E-02 
596	 1,79219624259306E-02 
597	 1,83616086692679E-02 
598	 0,0187702464925 
599	 1,80070302239321E-02 
600	 1,71349994202891E-02 
601	 1,67603323305746E-02 
602	 1,79434742767083E-02 
603	 1,89118899270985E-02 
604	 1,82922939330516E-02 
605	 1,73383010626004E-02 
606	 1,66096780151325E-02 
607	 1,68778510703327E-02 
608	 1,72202167193244E-02 
609	 1,72173783315197E-02 
610	 1,68001402954956E-02 
611	 1,62242847533368E-02 
612	 1,58137091045733E-02 
613	 1,58964281501947E-02 
614	 1,62555799917386E-02 
615	 1,58842475734031E-02 
616	 1,54464019114551E-02 
617	 1,53729565653016E-02 
618	 1,53661571233309E-02 
619	 1,55648257304918E-02 
620	 0,016436579546154 
621	 1,64263324743613E-02 
622	 1,53688103462335E-02 
623	 1,51463500804215E-02 
624	 1,55410643571691E-02 
625	 1,61621673656364E-02 
626	 1,58993090331532E-02 
627	 1,51255503730106E-02 
628	 1,57499552698736E-02 
629	 1,61690402431224E-02 
630	 1,57261439776939E-02 
631	 1,60892809807789E-02 
632	 0,016578998449241 
633	 1,57490975387287E-02 
634	 0,015678354121857 
635	 1,66552462410161E-02 
636	 1,72102057274986E-02 
637	 1,74312965966424E-02 
638	 0,017457615446829 
639	 1,76832458542885E-02 
640	 1,80905462943882E-02 
641	 1,84098458077414E-02 
642	 1,87804994470564E-02 
643	 1,91570025650734E-02 
644	 1,89913300842668E-02 
645	 1,87497554429762E-02 
646	 0,019089486567035 
647	 1,93923942653769E-02 
648	 1,94582578891919E-02 
649	 1,92003447738507E-02 
650	 1,88355967477918E-02 
651	 1,85564493570158E-02 
652	 1,86513932518992E-02 
653	 1,88448883035209E-02 
654	 0,018540353725639 
655	 1,78319915351547E-02 
656	 1,69480777337001E-02 
657	 1,68047612489008E-02 
658	 1,69390355060747E-02 
659	 1,68049286465139E-02 
660	 1,64556348684854E-02 
661	 1,59890753385583E-02 
662	 1,57030343833886E-02 
663	 1,53292682113241E-02 
664	 1,47961676655933E-02 
665	 1,45365942484674E-02 
666	 1,45432053293657E-02 
667	 1,47428601001706E-02 
668	 1,46405116080189E-02 
669	 1,41356730034955E-02 
670	 1,34367386888484E-02 
671	 1,30598127978259E-02 
672	 1,33547590429328E-02 
673	 1,33553062609817E-02 
674	 1,31339828409036E-02 
675	 1,32598970979233E-02 
676	 1,36905567788919E-02 
677	 1,42306823677093E-02 
678	 1,38198944102517E-02 
679	 1,33637270842113E-02 
680	 1,40170945698526E-02 
681	 1,43814382748912E-02 
682	 1,42494082132994E-02 
683	 1,39781088141586E-02 
684	 1,41788785468598E-02 
685	 1,50683949221158E-02 
686	 1,50552862911204E-02 
687	 1,48513416154677E-02 
688	 0,016131230934532 
689	 1,70446024463905E-02 
690	 1,73535919223284E-02 
691	 1,85529022037447E-02 
692	 2,01823213433377E-02 
693	 2,17646718639146E-02 
694	 2,31107258801479E-02 
695	 2,46658846918922E-02 
696	 2,77054105096004E-02 
697	 3,07094945663535E-02 
698	 3,33487112114844E-02 
699	 3,76575664426706E-02 
700	 4,27314887999918E-02 
701	 4,72097681160335E-02 
702	 5,21081412868862E-02 
703	 5,75110400257223E-02 
704	 6,29291057431955E-02 
705	 6,85670319865667E-02 
706	 7,44932437171901E-02 
707	 0,080071975668367 
708	 8,54370722252846E-02 
709	 9,10360846777005E-02 
710	 9,64271728830534E-02 
711	 0,101508271519118 
712	 0,106429999458663 
713	 0,11128592202452 
714	 0,116122495164578 
715	 0,120387955686744 
716	 0,124225752919736 
717	 0,128341331253441 
718	 0,132003099444045 
719	 0,135068145504076 
720	 0,138569237726236 
721	 0,142123730504059 
722	 0,145147411793388 
723	 0,147570607829313 
724	 0,149565813091273 
725	 0,151774391331078 
726	 0,153882372393961 
727	 0,155689863692138 
728	 0,157267408278912 
729	 0,158707062323874 
730	 0,160170616353147 
731	 0,161222892354846 
732	 0,161941204423878 
733	 0,163210653041917 
734	 0,164554595278435 
735	 0,165531982125979 
736	 0,166407009746785 
737	 0,167224150722424 
738	 0,168019192386468 
739	 0,16859164877125 
740	 0,168912942230806 
741	 0,169229770164346 
742	 0,169760402560563 
743	 0,170707878565452 
744	 0,171305377771126 
745	 0,171509977183193 
746	 0,171742624682769 
747	 0,172233790087521 
748	 0,172999520299713 
749	 0,173108821128969 
750	 0,172961158149183 
751	 0,173333185929095 
752	 0,173803802237424 
753	 0,174219889026216 
754	 0,17447876062416 
755	 0,174566888213129 
756	 0,174509632611865 
757	 0,174573633216136 
758	 0,174830165506052 
759	 0,175360952831047 
760	 0,175583630931642 
761	 0,175437432602319 
762	 0,175650701856832 
763	 0,176044607551285 
764	 0,176399624887116 
765	 0,176538115183715 
766	 0,176498887549809 
767	 0,176466796713286 
768	 0,176546230020566 
769	 0,176757606121625 
770	 0,176886485924463 
771	 0,176933219689752 
772	 0,176928457783873 
773	 0,177189158664649 
774	 0,177631608442308 
775	 0,177841711240341 
776	 0,177679227287648 
777	 0,177164525298891 
778	 0,176908319555289 
779	 0,177218984085797 
780	 0,178431055445596 
781	 0,178733815568266 
782	 0,17808849544477 
783	 0,178308623634946 
784	 0,178660545680523 
785	 0,178676788190112 
786	 0,178691310182967 
787	 0,178765386097327 
788	 0,178952154473481 
789	 0,178867285890547 
790	 0,178562533058481 
791	 0,178736564778019 
792	 0,179109994905699 
793	 0,1793992783892 
794	 0,179230295683183 
795	 0,178917416736475 
796	 0,179281298854151 
797	 0,179602352544222 
798	 0,179649202095932 
799	 0,1795089058967 
800	 0,179572200756283 
801	 0,180143373746725 
802	 0,180230628079446 
803	 0,179985612613346 
804	 0,180258067035193 
805	 0,18075189044204 
806	 0,181262836544382 
807	 0,181300419950369 
808	 0,181031350585395 
809	 0,180711312831782 
810	 0,181039043616968 
811	 0,181645459679106 
812	 0,18101704306181 
813	 0,18062045331004 
814	 0,181037723935147 
815	 0,181695074444394 
816	 0,182165238209493 
817	 0,182032815456268 
818	 0,182163406744198 
819	 0,182585008845834 
820	 0,182804056575432 
821	 0,182653604424717 
822	 0,1822197544727 
823	 0,182643679140517 
824	 0,183293425103152 
825	 0,183224015991926 
826	 0,183529459065965 
827	 0,184116450856263 
828	 0,183885513173499 
829	 0,183536972286273 
830	 0,183502592024421 
831	 0,184039625425524 
832	 0,184564987467748 
833	 0,184264141984435 
834	 0,184516048152596 
835	 0,185189091786475 
836	 0,184606176755684 
837	 0,184435536916841 
838	 0,185363057236599 
839	 0,185374893931859 
840	 0,184937824940155 
841	 0,185019812598776 
842	 0,185384534959009 
843	 0,18590232559754 
844	 0,186375680521916 
845	 0,186434494221564 
846	 0,185972553101553 
847	 0,185804563182607 
848	 0,185898884832924 
849	 0,186060873634076 
850	 0,186017675231716 
851	 0,185796590680445 
852	 0,185751825065042 
853	 0,185814178284685 
854	 0,185908019925899 
855	 0,185683178279075 
856	 0,185685125069399 
857	 0,186681240319071 
858	 0,186881924001963 
859	 0,18632430518101 
860	 0,186690175555495 
861	 0,186843341617963 
862	 0,186363688539099 
863	 0,186468754573801 
864	 0,187016457506357 
865	 0,187638161443029 
866	 0,187665410533084 
867	 0,187251921980161 
868	 0,187421093302912 
869	 0,187576396608333 
870	 0,187563279147164 
871	 0,188194036134223 
872	 0,188931147455789 
873	 0,18906405395613 
874	 0,189084265787532 
875	 0,189171699660179 
876	 0,189525566578121 
877	 0,189835663286883 
878	 0,189967900640147 
879	 0,190019847611326 
880	 0,190046430616043 
881	 0,190101939503912 
882	 0,190142716103878 
883	 0,190342976541003 
884	 0,19124346559414 
885	 0,191790702538613 
886	 0,191683119256465 
887	 0,191720955438644 
888	 0,191541207435416 
889	 0,190894143787808 
890	 0,191561058795477 
891	 0,192834126117455 
892	 0,192474867075013 
893	 0,192070600886956 
894	 0,192098710420053 
895	 0,192258337880778 
896	 0,192572600206996 
897	 0,192968627522669 
898	 0,192598634317698 
899	 0,192016071139563 
900	 0,192439019111571 
901	 0,19264520271365 
902	 0,192493990724743 
903	 0,192785034460582 
904	 0,193328585206418 
905	 0,193877372224534 
906	 0,193532017762185 
907	 0,193184934489487 
908	 0,194221975004462 
909	 0,194770291759377 
910	 0,19444625634799 
911	 0,193460684300366 
912	 0,193312566000009 
913	 0,194378360558761 
914	 0,193993175268146 
915	 0,19348376221384 
916	 0,194467172396059 
917	 0,194676274773186 
918	 0,194134556460215 
919	 0,194025286012265 
920	 0,194428797771157 
921	 0,194999444671645 
922	 0,193860478561378 
923	 0,192430472158331 
924	 0,192019046276796 
925	 0,192601529740328 
926	 0,193216638857951 
927	 0,19211855191934 
928	 0,191992344575283 
929	 0,192987203141501 
930	 0,192646223452706 
931	 0,192424109478114 
932	 0,192927922223944 
933	 0,192086596823263 
934	 0,190978936205728 
935	 0,191204864738963 
936	 0,191224367106114 
937	 0,190588853168515 
938	 0,188814503497947 
939	 0,188317317434564 
940	 0,189574284997555 
941	 0,189730434367125 
942	 0,189039066952033 
943	 0,1879249482495 
944	 0,186802104485008 
945	 0,185707898786666 
946	 0,184497734932836 
947	 0,18380226824021 
948	 0,183500724026848 
949	 0,182345708671562 
950	 0,181871395642504 
951	 0,182595997872802 
952	 0,181868706050486 
953	 0,180400762931147 
954	 0,179362070985371 
955	 0,177508509034736 
956	 0,175584595092475 
957	 0,176172656298797 
958	 0,176093880685441 
959	 0,174545047712066 
960	 0,173350895768166 
961	 0,172574876068806 
962	 0,172347858096325 
963	 0,173957077306605 
964	 0,17506849404981 
965	 0,172014408226575 
966	 0,171254358202463 
967	 0,173117318664706 
968	 0,17334179061861 
969	 0,173001774311914 
970	 0,172628193967605 
971	 0,173182134345064 
972	 0,173031103052255 
973	 0,170905266751241 
974	 0,170019093834843 
975	 0,17071793938977 
976	 0,172569501283513 
977	 0,174114591724904 
978	 0,174099139547746 
979	 0,169695717137243 
980	 0,168171559029929 
981	 0,17223747296218 
982	 0,174193728188862 
983	 0,173958003482864 
984	 0,172391330864678 
985	 0,172907456317171 
986	 0,175014484796306 
987	 0,176530363252393 
988	 0,175294155697194 
989	 0,172201476327717 
990	 0,172980340557522 
991	 0,174384042339977 
992	 0,174773009488339 
993	 0,175207358581884 
994	 0,176289913418831 
995	 0,178371243237703 
996	 0,178867929273677 
997	 0,178015892004462 
998	 0,177171010542756 
999	 0,178057444703534 
1000	 0,180115313877463 
1001	 0,179113287318484 
1002	 0,179112592598229 
1003	 0,181613728563137 
1004	 0,182497181909272 
1005	 0,182895643771409 
1006	 0,184096092381476 
1007	 0,18476504892115 
1008	 0,1841191278673 
1009	 0,181138296516685 
1010	 0,181388269095646 
1011	 0,185314524286987 
1012	 0,189296133098578 
1013	 0,192138622454324 
1014	 0,192561891233828 
1015	 0,188213264617339 
1016	 0,186046495389778 
1017	 0,190988722778909 
1018	 0,191492799594634 
1019	 0,189547663680517 
1020	 0,190689166287096 
1021	 0,19200856966443 
1022	 0,192343066665597 
1023	 0,18973880009222 
1024	 0,190217417004116 
1025	 0,194247272005596 
1026	 0,193279964554378 
1027	 0,194175887877078 
1028	 0,200137094382902 
1029	 0,200082552227925 
1030	 0,197099768222374 
1031	 0,196209335677305 
1032	 0,196082550109225 
1033	 0,196687819695236 
1034	 0,198246865568008 
1035	 0,198585781725041 
1036	 0,197286804690077 
1037	 0,195166137045178 
1038	 0,194875019125353 
1039	 0,197015375193034 
1040	 0,196800718182726 
1041	 0,199173573664063 
1042	 0,206399845487671 
1043	 0,202047483985772 
1044	 0,19417514090634 
1045	 0,197057767667187 
1046	 0,202599690595935 
1047	 0,207768186360774 
1048	 0,209949453354683 
1049	 0,207888585386906 
1050	 0,20257895696321 
1051	 0,198440992636049 
1052	 0,197506339768941 
1053	 0,201073305404969 
1054	 0,209340075413951 
1055	 0,214355360549645 
1056	 0,210843334669785 
1057	 0,214181306555232 
1058	 0,21715193102044 
1059	 0,207608061800444 
1060	 0,203125461985192 
1061	 0,204959400017101 
1062	 0,206891186846382 
1063	 0,214841992765438 
1064	 0,22264978288567 
1065	 0,202872631512008 
1066	 0,189169315672742 
1067	 0,196216458127436 
1068	 0,203383382674913 
1069	 0,208877962276701 
1070	 0,212109815900828 
1071	 0,219514994178914 
1072	 0,220832267805409 
1073	 0,205345299222881 
1074	 0,206536315416047 
1075	 0,215481484192904 
