Wavelength	AVEN00151.asd
325	 0,242917162750977 
326	 0,225872328157159 
327	 0,208244080048901 
328	 0,164953860025209 
329	 8,48280535611656E-02 
330	 8,53955034073591E-02 
331	 0,207958288695095 
332	 0,213079802004105 
333	 0,122012622074811 
334	 5,12472527090778E-02 
335	 7,66034588558637E-02 
336	 0,169001595028171 
337	 0,136454327373924 
338	 0,107970379666956 
339	 0,191732121419997 
340	 0,157307013610424 
341	 0,072912907782198 
342	 0,157487282457842 
343	 0,210982940043456 
344	 0,191442996645482 
345	 0,159903810015358 
346	 0,131046559387038 
347	 0,124259662523144 
348	 0,14784849226398 
349	 0,178972314353058 
350	 0,155883855356903 
351	 0,156690300920724 
352	 0,199491529204803 
353	 0,207189702699898 
354	 0,2001922626943 
355	 0,205724360112269 
356	 0,193813665271891 
357	 0,1738968673765 
358	 0,191617037470017 
359	 0,197447242346198 
360	 0,173672971112652 
361	 0,177464669916337 
362	 0,187553299634901 
363	 0,165625325691981 
364	 0,17177129871136 
365	 0,205138913380688 
366	 0,223352679238891 
367	 0,223613038723378 
368	 0,205292145534002 
369	 0,190116574849209 
370	 0,18070596188114 
371	 0,176017132307305 
372	 0,18583394585621 
373	 0,208124053692923 
374	 0,231214074041414 
375	 0,226760096305503 
376	 0,182460905004428 
377	 0,1827540604296 
378	 0,211649465819669 
379	 0,199970826982745 
380	 0,205170618746248 
381	 0,230985351987038 
382	 0,218573704670487 
383	 0,195324555590769 
384	 0,191252178389022 
385	 0,190962638258229 
386	 0,192812243929982 
387	 0,199458399215979 
388	 0,206923748171083 
389	 0,213040194436106 
390	 0,219148518736512 
391	 0,21875914393092 
392	 0,204774065606605 
393	 0,206923969680993 
394	 0,220717222735098 
395	 0,209018458505099 
396	 0,206516409480907 
397	 0,22630971338373 
398	 0,228803247495345 
399	 0,219602687987902 
400	 0,213605964949792 
401	 0,212880897393175 
402	 0,217019807704413 
403	 0,22141674202472 
404	 0,223796544435282 
405	 0,223142327050026 
406	 0,224655167021842 
407	 0,227885251174781 
408	 0,230964509424675 
409	 0,231435469593529 
410	 0,229040013891411 
411	 0,226932544083891 
412	 0,224470105953077 
413	 0,221213011620986 
414	 0,224570446939913 
415	 0,231195251034792 
416	 0,229877599706334 
417	 0,227634082951677 
418	 0,227474595741021 
419	 0,230019243862484 
420	 0,231019805503072 
421	 0,225135477527598 
422	 0,227510653064575 
423	 0,235562379529188 
424	 0,228835808031977 
425	 0,22263245460688 
426	 0,225530112941601 
427	 0,224900841782778 
428	 0,223412821647584 
429	 0,229233778568778 
430	 0,230218425290734 
431	 0,225282900674022 
432	 0,225986429892097 
433	 0,227687008730023 
434	 0,226090620019393 
435	 0,225510279530254 
436	 0,226376815213455 
437	 0,227917880974456 
438	 0,229315858543591 
439	 0,22989757476871 
440	 0,228158921040567 
441	 0,227217493563293 
442	 0,231031805156464 
443	 0,231875581273847 
444	 0,229722473895582 
445	 0,231429780847993 
446	 0,231671930796575 
447	 0,227882857499333 
448	 0,227981337143073 
449	 0,230026940108189 
450	 0,228059595128473 
451	 0,229907446891544 
452	 0,235685408350181 
453	 0,234887929373296 
454	 0,232810667720217 
455	 0,23461852073357 
456	 0,235691072918696 
457	 0,235968736156591 
458	 0,237899859571583 
459	 0,237907979508361 
460	 0,235332776677414 
461	 0,23604696193629 
462	 0,238269709566519 
463	 0,238889370960892 
464	 0,238893949963964 
465	 0,238494711621324 
466	 0,23754575759756 
467	 0,237559787489259 
468	 0,239377241099633 
469	 0,241186070346742 
470	 0,242116147252043 
471	 0,240920338816825 
472	 0,241265493079657 
473	 0,243448878275687 
474	 0,242814563187571 
475	 0,240692736368556 
476	 0,238767833805536 
477	 0,239343909534775 
478	 0,241572649904451 
479	 0,241728410659808 
480	 0,241317895046983 
481	 0,241202493931483 
482	 0,242722434495114 
483	 0,243815206091677 
484	 0,24123537997235 
485	 0,240110586098381 
486	 0,241074434717891 
487	 0,240792512964464 
488	 0,240517155319059 
489	 0,241163904229689 
490	 0,241821378757058 
491	 0,241912437996753 
492	 0,240184287470418 
493	 0,239993684437649 
494	 0,242098185973467 
495	 0,243607571603634 
496	 0,243781369868004 
497	 0,242129074771505 
498	 0,241554236304497 
499	 0,242417496324954 
500	 0,243628204340496 
501	 0,244056342225775 
502	 0,243381199274776 
503	 0,244885674510839 
504	 0,247220782489708 
505	 0,247537346525074 
506	 0,246012862171843 
507	 0,243836341064136 
508	 0,245691047686387 
509	 0,248540591021419 
510	 0,249482424473557 
511	 0,249653521882999 
512	 0,249732766161062 
513	 0,251112243253052 
514	 0,2517246063302 
515	 0,251125367227691 
516	 0,252771861860751 
517	 0,254728873978024 
518	 0,253904831456618 
519	 0,253555142904113 
520	 0,254226288200243 
521	 0,254648755750562 
522	 0,254941435376677 
523	 0,255191216889979 
524	 0,255284365658922 
525	 0,255335148756369 
526	 0,25567445292772 
527	 0,255749068096123 
528	 0,255409017233185 
529	 0,25497516636964 
530	 0,254581666672544 
531	 0,254344002173563 
532	 0,255014160463301 
533	 0,256244150156415 
534	 0,256560821565199 
535	 0,256431470217586 
536	 0,256165470681759 
537	 0,255905091168617 
538	 0,255891311698888 
539	 0,256525547688967 
540	 0,256905709993325 
541	 0,256770526560833 
542	 0,256426372163481 
543	 0,256116023794586 
544	 0,256077761073678 
545	 0,256708967505665 
546	 0,257681812223881 
547	 0,257900080090259 
548	 0,258118528100587 
549	 0,258664961156253 
550	 0,259241490901865 
551	 0,259518476466669 
552	 0,259011956655992 
553	 0,25908755250389 
554	 0,259661805861093 
555	 0,258605541753998 
556	 0,257723979694679 
557	 0,258456075185329 
558	 0,258706501029845 
559	 0,258262632092502 
560	 0,257579374938983 
561	 0,25678230889652 
562	 0,256083689983221 
563	 0,256107954561709 
564	 0,256308956188318 
565	 0,255905072272287 
566	 0,255666170535506 
567	 0,255677881672221 
568	 0,2553848009908 
569	 0,255664831942561 
570	 0,257078628414157 
571	 0,25867007899884 
572	 0,260357451579161 
573	 0,262402373608306 
574	 0,26420639877309 
575	 0,265576343238405 
576	 0,266807526855587 
577	 0,268149170156596 
578	 0,26983038610557 
579	 0,270802062627055 
580	 0,271224050081347 
581	 0,272276994245513 
582	 0,273810890724456 
583	 0,275648719446523 
584	 0,277019577839793 
585	 0,278195006754316 
586	 0,279861813044027 
587	 0,281478152579999 
588	 0,282776494871433 
589	 0,283351537172285 
590	 0,283971349295374 
591	 0,285295486579982 
592	 0,285735076936759 
593	 0,285603983018566 
594	 0,286578918856412 
595	 0,287761246898621 
596	 0,288607581411763 
597	 0,288438903004307 
598	 0,287830793760546 
599	 0,287739864704657 
600	 0,287676031828701 
601	 0,287555258091692 
602	 0,287526139016912 
603	 0,287419029517862 
604	 0,287092300185265 
605	 0,286579251849487 
606	 0,285917320637292 
607	 0,285118255818056 
608	 0,284547096373793 
609	 0,284246350257131 
610	 0,283548290556657 
611	 0,282615264790984 
612	 0,281720168036776 
613	 0,281184468211716 
614	 0,280881977174406 
615	 0,280058010344946 
616	 0,27929503094048 
617	 0,278996190313454 
618	 0,279157792990637 
619	 0,279532203767946 
620	 0,279733566676798 
621	 0,279362225164557 
622	 0,278454612961592 
623	 0,277831362820022 
624	 0,277802607656122 
625	 0,278579873776678 
626	 0,279009305164022 
627	 0,279014763808459 
628	 0,279164919468231 
629	 0,279587066211678 
630	 0,280302310258152 
631	 0,28079621791437 
632	 0,281167851665677 
633	 0,281685759740785 
634	 0,282257671163617 
635	 0,282898994125212 
636	 0,283690322552593 
637	 0,284771341576434 
638	 0,286207225918153 
639	 0,287344935574126 
640	 0,288213077715962 
641	 0,28920832238794 
642	 0,290331427138803 
643	 0,291460450432305 
644	 0,291840316554595 
645	 0,291972093675477 
646	 0,292595276482077 
647	 0,292545109763775 
648	 0,291807632997097 
649	 0,291384798783978 
650	 0,290885724067578 
651	 0,290039171752595 
652	 0,288857618045224 
653	 0,287504981389451 
654	 0,28631870036771 
655	 0,284951315529088 
656	 0,283335357409083 
657	 0,281781219871381 
658	 0,280092430499112 
659	 0,278060097383083 
660	 0,276148054380692 
661	 0,274286284059992 
662	 0,271947936835301 
663	 0,269540996857594 
664	 0,267385162778282 
665	 0,266016858572707 
666	 0,265024064851786 
667	 0,263659890647471 
668	 0,262608503307348 
669	 0,261961592946535 
670	 0,261384873806456 
671	 0,260697137785737 
672	 0,259801596990071 
673	 0,259216026359736 
674	 0,259068575732877 
675	 0,259551554149103 
676	 0,259493131354143 
677	 0,258719972693138 
678	 0,259082314619434 
679	 0,259750247536014 
680	 0,259574466661642 
681	 0,259971162287908 
682	 0,260998736083603 
683	 0,261664602937875 
684	 0,262761904810271 
685	 0,264752603413333 
686	 0,267271128298888 
687	 0,270139602586222 
688	 0,273123473265634 
689	 0,27659652964525 
690	 0,280677237780745 
691	 0,285115935839379 
692	 0,290401895658427 
693	 0,296925403416662 
694	 0,303451737431121 
695	 0,310131869640336 
696	 0,318054222622764 
697	 0,3261864631292 
698	 0,334196193241868 
699	 0,342897419523702 
700	 0,351751527069583 
701	 0,360045739798554 
702	 0,368080172181129 
703	 0,375826889121609 
704	 0,383071244534694 
705	 0,389981932362553 
706	 0,39667342090892 
707	 0,403013919864842 
708	 0,408788044027496 
709	 0,413617639210529 
710	 0,41816924250651 
711	 0,422640210709625 
712	 0,426742982174962 
713	 0,430467870807322 
714	 0,433839320968347 
715	 0,437299361302614 
716	 0,440602055472058 
717	 0,442869921534081 
718	 0,444867526637193 
719	 0,446953841794322 
720	 0,449137613658022 
721	 0,451102587896824 
722	 0,452460992880408 
723	 0,453589052266459 
724	 0,45475577095054 
725	 0,456533736210287 
726	 0,457939381739756 
727	 0,458462402989519 
728	 0,459363111176949 
729	 0,460511679738857 
730	 0,461362997472938 
731	 0,462015498627197 
732	 0,462536386642925 
733	 0,463112486016173 
734	 0,463777583165458 
735	 0,464530472323977 
736	 0,465081279939342 
737	 0,465446759618552 
738	 0,465819070103321 
739	 0,466096492468896 
740	 0,466334058427823 
741	 0,467026236034607 
742	 0,467643160569901 
743	 0,467552848113858 
744	 0,467935138605436 
745	 0,468675469821179 
746	 0,468508416070525 
747	 0,468523414033215 
748	 0,469179691831742 
749	 0,469293922736078 
750	 0,469179852274897 
751	 0,46953945605018 
752	 0,469661499210505 
753	 0,469505209306283 
754	 0,469650330088819 
755	 0,46986693442721 
756	 0,46999969480323 
757	 0,470289326068869 
758	 0,47066027610224 
759	 0,47090836644081 
760	 0,471086695972112 
761	 0,47114994291649 
762	 0,470791435850214 
763	 0,47062540412156 
764	 0,471192774305162 
765	 0,471542086947735 
766	 0,47165021189629 
767	 0,471992344256546 
768	 0,472239529042359 
769	 0,47228346408047 
770	 0,472264822853578 
771	 0,472281793454283 
772	 0,47243327158567 
773	 0,472827913657677 
774	 0,473268522895006 
775	 0,473079896622326 
776	 0,473006711567269 
777	 0,473346105464372 
778	 0,473199569538781 
779	 0,472998460540457 
780	 0,473509754945708 
781	 0,473851640781807 
782	 0,473880794785253 
783	 0,473999820753974 
784	 0,474096595845045 
785	 0,47409242392885 
786	 0,473937570980783 
787	 0,473784591450362 
788	 0,473889602753237 
789	 0,474267944581573 
790	 0,474763743353154 
791	 0,474788193739415 
792	 0,474541261035319 
793	 0,474270412496686 
794	 0,474645261841449 
795	 0,475334343041238 
796	 0,475387113285987 
797	 0,475352002148659 
798	 0,475420889807567 
799	 0,475641280228917 
800	 0,475851947012971 
801	 0,475911454998503 
802	 0,476086079111949 
803	 0,476345355427186 
804	 0,47650200906802 
805	 0,476552564412793 
806	 0,476532436436107 
807	 0,476688138980669 
808	 0,476790226003576 
809	 0,476599526625131 
810	 0,476691055221396 
811	 0,476998532415809 
812	 0,477010371498883 
813	 0,476870773692017 
814	 0,476779264919249 
815	 0,477570153953659 
816	 0,478371630530225 
817	 0,478109313365873 
818	 0,478035376187725 
819	 0,478329654004662 
820	 0,478692211753102 
821	 0,478707240896036 
822	 0,478300116256463 
823	 0,478470275762026 
824	 0,478805889962586 
825	 0,47866011550775 
826	 0,479111397505127 
827	 0,479984524306024 
828	 0,479957306249452 
829	 0,47970086579993 
830	 0,479615873013642 
831	 0,479884499595009 
832	 0,480272479770006 
833	 0,48042740277076 
834	 0,480713375328048 
835	 0,481035640271838 
836	 0,480761678086863 
837	 0,480755545628893 
838	 0,481324949110634 
839	 0,481065682916714 
840	 0,480512402487698 
841	 0,480627266580262 
842	 0,480623953173618 
843	 0,480568018299632 
844	 0,481362557999115 
845	 0,48191129368544 
846	 0,481661176669359 
847	 0,481363623643757 
848	 0,481283395220735 
849	 0,481652484981602 
850	 0,481769053843396 
851	 0,481541945422157 
852	 0,481260660274279 
853	 0,481375956987806 
854	 0,481952997897676 
855	 0,481482411297546 
856	 0,481035436544499 
857	 0,482258975748017 
858	 0,482567834016771 
859	 0,481870421211735 
860	 0,482034788921062 
861	 0,482159382107771 
862	 0,481954386452764 
863	 0,482629377942225 
864	 0,483424812532679 
865	 0,483227358061591 
866	 0,483121777718324 
867	 0,483364113085167 
868	 0,483965237287083 
869	 0,484281161487754 
870	 0,484067525558701 
871	 0,483969056380935 
872	 0,484068309354226 
873	 0,484378131019414 
874	 0,484863922710439 
875	 0,48524062451666 
876	 0,484751471526235 
877	 0,48430036302511 
878	 0,484308172255128 
879	 0,484665818551533 
880	 0,485015128067798 
881	 0,48500226206168 
882	 0,485195094771297 
883	 0,48553995341694 
884	 0,485606784567668 
885	 0,485561523939273 
886	 0,485557005579848 
887	 0,486135756240612 
888	 0,48639456028442 
889	 0,485589368237595 
890	 0,485713892907248 
891	 0,486343101456096 
892	 0,485683722259927 
893	 0,485481788179076 
894	 0,48610363635773 
895	 0,486583434949981 
896	 0,486676058288681 
897	 0,486304365047051 
898	 0,486397254557349 
899	 0,486888873475091 
900	 0,487414085862672 
901	 0,48720110354726 
902	 0,486536952619373 
903	 0,487458227090178 
904	 0,488186462062831 
905	 0,487729676785845 
906	 0,487628330171826 
907	 0,487896378249584 
908	 0,488276594176046 
909	 0,488567390952682 
910	 0,488577763471618 
911	 0,48783065051227 
912	 0,487745208779033 
913	 0,488708459226461 
914	 0,488513005448885 
915	 0,488253130522001 
916	 0,489227795115958 
917	 0,488778316336707 
918	 0,487482713873628 
919	 0,488171157442395 
920	 0,488873415299098 
921	 0,488969909349774 
922	 0,488871916245075 
923	 0,488912190494468 
924	 0,489287745141013 
925	 0,489100199621874 
926	 0,488818573623458 
927	 0,489568005168068 
928	 0,489555995966458 
929	 0,488694623426183 
930	 0,488649396755557 
931	 0,48860980532188 
932	 0,488213828144531 
933	 0,488366900312639 
934	 0,488817698165939 
935	 0,489119128884657 
936	 0,489323518393399 
937	 0,489244343358023 
938	 0,488237535960993 
939	 0,488102786785081 
940	 0,489047298842172 
941	 0,488144887372836 
942	 0,487211686460839 
943	 0,487834684912713 
944	 0,4878328678448 
945	 0,48691481997883 
946	 0,485157284652199 
947	 0,484951040716771 
948	 0,486256574179907 
949	 0,486174961653357 
950	 0,485499099232197 
951	 0,484849701005482 
952	 0,485317151442844 
953	 0,485350852239819 
954	 0,483087941397709 
955	 0,481497769374178 
956	 0,481248661451299 
957	 0,482395089227363 
958	 0,482881431364385 
959	 0,48207238562582 
960	 0,480947046314165 
961	 0,480612633298864 
962	 0,48159710953091 
963	 0,481133317822318 
964	 0,479997002616147 
965	 0,479974769178044 
966	 0,480331435941256 
967	 0,480583895322098 
968	 0,479629001685199 
969	 0,479564329255693 
970	 0,480974363815687 
971	 0,481803145332637 
972	 0,481826244704055 
973	 0,481082888846435 
974	 0,480775377308681 
975	 0,480850382020663 
976	 0,480794069199756 
977	 0,480558507646056 
978	 0,480261568585069 
979	 0,480271192385998 
980	 0,481114949842473 
981	 0,482484564089556 
982	 0,481083484168739 
983	 0,479412366202292 
984	 0,48022850987416 
985	 0,482352822537757 
986	 0,484242319994369 
987	 0,483372063572661 
988	 0,483151967681468 
989	 0,484018510331319 
990	 0,483757569140382 
991	 0,482887746424717 
992	 0,481974167031203 
993	 0,482592449405172 
994	 0,483410781988359 
995	 0,483049224722952 
996	 0,483778588706434 
997	 0,484932578165751 
998	 0,484440318191978 
999	 0,48499044904997 
1000	 0,486567813973746 
1001	 0,485991621525094 
1002	 0,487176612900157 
1003	 0,491031395696963 
1004	 0,490920495499135 
1005	 0,489177656428918 
1006	 0,48871876685542 
1007	 0,490270968461729 
1008	 0,49151914884542 
1009	 0,488059937170686 
1010	 0,487876690377603 
1011	 0,491435913282408 
1012	 0,492994753132668 
1013	 0,493952505648745 
1014	 0,494674370091352 
1015	 0,494804194034017 
1016	 0,494332516646983 
1017	 0,493476622286759 
1018	 0,493790314778266 
1019	 0,495121817895524 
1020	 0,496754087840886 
1021	 0,495885336031243 
1022	 0,492713641067845 
1023	 0,489399068550217 
1024	 0,489344345783551 
1025	 0,492919303469351 
1026	 0,49564096581137 
1027	 0,496958382770159 
1028	 0,496188413002292 
1029	 0,490422291189764 
1030	 0,488246614025177 
1031	 0,498673308413733 
1032	 0,50141930916028 
1033	 0,497199108834416 
1034	 0,495954345608889 
1035	 0,495051117414588 
1036	 0,494840996946928 
1037	 0,498374645458717 
1038	 0,499038071461841 
1039	 0,494305298556729 
1040	 0,487603212862385 
1041	 0,487834790516566 
1042	 0,499550431203213 
1043	 0,500641352910837 
1044	 0,495875470652042 
1045	 0,496185729203275 
1046	 0,495174831352859 
1047	 0,49255799720929 
1048	 0,490271698472281 
1049	 0,488928927642486 
1050	 0,490085377626739 
1051	 0,499340653165227 
1052	 0,500373931680922 
1053	 0,489473350835885 
1054	 0,496617607601105 
1055	 0,504227683352975 
1056	 0,497325740661971 
1057	 0,494209656537162 
1058	 0,495689497007255 
1059	 0,498768827826627 
1060	 0,498287917966775 
1061	 0,496083156936432 
1062	 0,498818950218102 
1063	 0,507939574136003 
1064	 0,516930341402533 
1065	 0,500982196758184 
1066	 0,489986385545939 
1067	 0,496755365767244 
1068	 0,504037038313216 
1069	 0,502777872278065 
1070	 0,489342132438053 
1071	 0,484216409601275 
1072	 0,485088781204538 
1073	 0,486999962866615 
1074	 0,503046943119454 
1075	 0,516534226439075 
