Wavelength	AVEN00240.asd
325	 0,268649133852378 
326	 0,262412540276187 
327	 0,228033061365509 
328	 0,157762218889635 
329	 0,30073113335678 
330	 0,381789870178855 
331	 0,246888673067873 
332	 0,189590727997102 
333	 0,217060530679934 
334	 0,227502321735848 
335	 0,244488042660951 
336	 0,251606770133708 
337	 0,179046625571812 
338	 0,132995365873865 
339	 0,208044932258618 
340	 0,219668497949888 
341	 0,169463890406762 
342	 0,124889390981756 
343	 0,123230432761189 
344	 0,157130587488119 
345	 0,158762679374744 
346	 0,145804423892845 
347	 0,140494321870377 
348	 0,144573930911421 
349	 0,149819696239902 
350	 0,134793206972263 
351	 0,117061609748315 
352	 0,106987609310864 
353	 0,109662215712135 
354	 0,111274026498059 
355	 9,68805317147487E-02 
356	 0,101402143831829 
357	 0,119847977405174 
358	 0,114507831139832 
359	 0,111571541042561 
360	 0,120159176083032 
361	 0,111603207613375 
362	 9,79274411379011E-02 
363	 9,79075945984185E-02 
364	 0,100247690115637 
365	 0,102817337167077 
366	 0,109640680560449 
367	 0,113129124723292 
368	 0,108115473175512 
369	 0,097433235214354 
370	 8,72707661796393E-02 
371	 8,74742889880825E-02 
372	 0,101800817257436 
373	 0,123617018139128 
374	 0,124696638130887 
375	 0,122488449360974 
376	 0,129077401796927 
377	 0,120619649619278 
378	 0,10494804130983 
379	 0,108122601518698 
380	 0,115420640274848 
381	 0,119989009222679 
382	 0,116342896795998 
383	 0,106136544796258 
384	 9,26214407066849E-02 
385	 9,16215679514787E-02 
386	 9,85165797520567E-02 
387	 9,16366437527873E-02 
388	 9,47723884608916E-02 
389	 0,113157036850548 
390	 0,127079400601641 
391	 0,126487820395187 
392	 0,102560889024645 
393	 9,27195811394049E-02 
394	 0,099857996239238 
395	 0,102556779473095 
396	 0,103889160147439 
397	 0,105394657908006 
398	 0,110308776977861 
399	 0,111416415404742 
400	 9,68195015819069E-02 
401	 0,100013668521823 
402	 0,117461327184115 
403	 0,104023213137156 
404	 9,48249603091578E-02 
405	 0,111760590781965 
406	 0,117263138143169 
407	 0,111728410529569 
408	 0,10717286621674 
409	 0,100245551515796 
410	 9,23205160929301E-02 
411	 8,96184141068452E-02 
412	 9,52954409126752E-02 
413	 0,110417719964729 
414	 0,109050804683347 
415	 9,71161655432947E-02 
416	 0,101975821312322 
417	 0,104747924144639 
418	 9,98946921464909E-02 
419	 0,101299258855826 
420	 0,104752826027806 
421	 0,103640372677365 
422	 0,102065736808981 
423	 0,100193043343243 
424	 9,44458823398565E-02 
425	 9,30448516085469E-02 
426	 9,97211488719851E-02 
427	 0,101181956932544 
428	 9,93448793205429E-02 
429	 0,101197323193652 
430	 9,97737116608481E-02 
431	 9,55482678066228E-02 
432	 9,88883531805353E-02 
433	 0,10369376542599 
434	 0,104347671201137 
435	 0,104119698514523 
436	 0,103168161766936 
437	 9,99209271598154E-02 
438	 9,90582885695609E-02 
439	 0,101890877405797 
440	 0,103236060692817 
441	 0,104218174532806 
442	 0,106872788571323 
443	 0,105851582005936 
444	 0,101855871485944 
445	 0,101256264849962 
446	 0,101659527906629 
447	 0,101837123323894 
448	 0,104798933451717 
449	 0,107792609987566 
450	 0,105125475495323 
451	 0,102550451318852 
452	 0,10210354746307 
453	 0,103712574232407 
454	 0,106161043706526 
455	 0,108173767691733 
456	 0,108314936769442 
457	 0,107128005592006 
458	 0,106658298695754 
459	 0,106968811588921 
460	 0,108070942263395 
461	 0,109451455441406 
462	 0,110034758464622 
463	 0,108537542388479 
464	 0,108034327780928 
465	 0,108757244804033 
466	 0,108420869606926 
467	 0,108240551907708 
468	 0,108918669427132 
469	 0,109137703213623 
470	 0,10925101938458 
471	 0,110486597533719 
472	 0,110685679972547 
473	 0,109380770570338 
474	 0,107934980368575 
475	 0,106958926901794 
476	 0,106925983031791 
477	 0,107112895755805 
478	 0,107294191684203 
479	 0,107429408313651 
480	 0,107254681423728 
481	 0,106697434209412 
482	 0,106086480834317 
483	 0,10594253956125 
484	 0,106965714788906 
485	 0,107443688767114 
486	 0,106892689772306 
487	 0,105402438157622 
488	 0,104289733540422 
489	 0,104572961044433 
490	 0,106171600893746 
491	 0,107715036808286 
492	 0,106258802469607 
493	 0,104846553596699 
494	 0,104435436496624 
495	 0,103657830063127 
496	 0,103173263030357 
497	 0,103792655197473 
498	 0,104723104446524 
499	 0,105413770336797 
500	 0,104875001190126 
501	 0,104357463031545 
502	 0,104622341511646 
503	 0,105427062269503 
504	 0,106505621361901 
505	 0,10765961191964 
506	 0,10707859641519 
507	 0,105114663629135 
508	 0,10548171930345 
509	 0,107452595498357 
510	 0,110013262463503 
511	 0,110017699443422 
512	 0,108415424056752 
513	 0,109359200477913 
514	 0,110187290427853 
515	 0,11003801196578 
516	 0,110998254572901 
517	 0,112279773293462 
518	 0,112586310856654 
519	 0,112131459023348 
520	 0,111332379897111 
521	 0,111519060905341 
522	 0,111562532660935 
523	 0,110749719979353 
524	 0,110733021764897 
525	 0,111336440873427 
526	 0,111583981020016 
527	 0,111962518086496 
528	 0,112359259176759 
529	 0,111496611230472 
530	 0,110332513275494 
531	 0,110036040140566 
532	 0,11079192232642 
533	 0,112008185476444 
534	 0,111763260529105 
535	 0,111398024873088 
536	 0,111671514765668 
537	 0,111880460931858 
538	 0,111962707964839 
539	 0,111934887279355 
540	 0,112236754110038 
541	 0,112799848952956 
542	 0,11268069974391 
543	 0,112203262760347 
544	 0,111769443471345 
545	 0,112053294410921 
546	 0,112847893909336 
547	 0,113138411054941 
548	 0,113609582958434 
549	 0,114401224731494 
550	 0,114306139199801 
551	 0,113572514956303 
552	 0,112707946100154 
553	 0,113219808302578 
554	 0,114747195556388 
555	 0,113951003135825 
556	 0,112789632652224 
557	 0,112915845932256 
558	 0,112781422756252 
559	 0,112417296422656 
560	 0,112629179037733 
561	 0,11251265566876 
562	 0,111863475641562 
563	 0,111919730155935 
564	 0,111826663326682 
565	 0,110323533346094 
566	 0,10995974543916 
567	 0,110869456254044 
568	 0,11112410979337 
569	 0,110869481795599 
570	 0,110405695623828 
571	 0,111601464387326 
572	 0,113835487736915 
573	 0,115195596428734 
574	 0,11617507724851 
575	 0,116938791549462 
576	 0,117706147688178 
577	 0,118829320450169 
578	 0,120648041558104 
579	 0,122375922908412 
580	 0,123684777349043 
581	 0,124208373393306 
582	 0,12496008968113 
583	 0,126413304906766 
584	 0,127250273628094 
585	 0,12771819143993 
586	 0,128542147638103 
587	 0,129511465157832 
588	 0,130417019173201 
589	 0,130584571468767 
590	 0,13066258701317 
591	 0,131281420972885 
592	 0,132197457190693 
593	 0,13317429333263 
594	 0,133800322119907 
595	 0,133962351244934 
596	 0,133731895386136 
597	 0,134125801805449 
598	 0,134414831861877 
599	 0,133328204604825 
600	 0,132794845783525 
601	 0,133157138916926 
602	 0,133494726004928 
603	 0,133487750567023 
604	 0,132896499799094 
605	 0,131894085806615 
606	 0,130842274429044 
607	 0,130418366941491 
608	 0,130391380384727 
609	 0,13044858562791 
610	 0,12940751335846 
611	 0,127974913793086 
612	 0,127141411594299 
613	 0,126700879094218 
614	 0,126424371818599 
615	 0,125648654179796 
616	 0,124933448484445 
617	 0,124664480109825 
618	 0,124843170701443 
619	 0,125159900758337 
620	 0,125043942747514 
621	 0,124866277993707 
622	 0,124644774126139 
623	 0,123773614576671 
624	 0,123332329301828 
625	 0,124382611433713 
626	 0,124850176919091 
627	 0,124617058241364 
628	 0,124710442827328 
629	 0,125030107504137 
630	 0,125513406245912 
631	 0,125888138499755 
632	 0,126176922615933 
633	 0,126470270454027 
634	 0,126903310615014 
635	 0,127593442527729 
636	 0,128821071852669 
637	 0,129985249651946 
638	 0,130610047228689 
639	 0,131531219430837 
640	 0,132769893855714 
641	 0,13405855809266 
642	 0,135024640452812 
643	 0,135514381208061 
644	 0,135829907366908 
645	 0,1360370244727 
646	 0,136175288943764 
647	 0,136442537077881 
648	 0,136691706119685 
649	 0,136320527310031 
650	 0,135523712057789 
651	 0,13448675830205 
652	 0,133514030010898 
653	 0,132772605379392 
654	 0,1325670444038 
655	 0,131684937216275 
656	 0,129860026438656 
657	 0,128063409155922 
658	 0,126553571100144 
659	 0,125489306781905 
660	 0,123899632694809 
661	 0,121821467978044 
662	 0,119985978251289 
663	 0,118187722880181 
664	 0,116485602253541 
665	 0,115830917713345 
666	 0,115555829856588 
667	 0,114467965626359 
668	 0,113587848029571 
669	 0,113050104051562 
670	 0,112246992031989 
671	 0,11145231424288 
672	 0,110910209217594 
673	 0,110653913206871 
674	 0,110605646596108 
675	 0,110564341110012 
676	 0,110638382848633 
677	 0,110812919952225 
678	 0,110859799443239 
679	 0,110850675321348 
680	 0,110897000314146 
681	 0,11150911206724 
682	 0,112516138303241 
683	 0,112863443577767 
684	 0,113705018950901 
685	 0,115649992345979 
686	 0,117635300655929 
687	 0,119700701461502 
688	 0,122147677733971 
689	 0,125115710087657 
690	 0,128730181266008 
691	 0,132963449406791 
692	 0,138287326230734 
693	 0,145039860598919 
694	 0,151556163545947 
695	 0,158216876900833 
696	 0,166815002453439 
697	 0,176228120580733 
698	 0,186050371580342 
699	 0,196817188130184 
700	 0,207713432872514 
701	 0,217736498432225 
702	 0,228305760207044 
703	 0,239382256317563 
704	 0,24980774087672 
705	 0,259610231248574 
706	 0,268852893470959 
707	 0,277788701553881 
708	 0,286404054883853 
709	 0,29460807327522 
710	 0,30220049436324 
711	 0,309122447517241 
712	 0,315377745285232 
713	 0,321223249210008 
714	 0,326897013964194 
715	 0,332420419731737 
716	 0,337536838414339 
717	 0,34150926545943 
718	 0,345392920200918 
719	 0,349549288362579 
720	 0,353140222717044 
721	 0,356252237726142 
722	 0,359115444968913 
723	 0,361637519108142 
724	 0,363903109349725 
725	 0,366227281587525 
726	 0,368272379583034 
727	 0,369854392825996 
728	 0,371314047902595 
729	 0,37275521966155 
730	 0,374262477653755 
731	 0,375620385197423 
732	 0,376762278204911 
733	 0,377781324332868 
734	 0,378527118451514 
735	 0,378934341459301 
736	 0,379969811198179 
737	 0,38137035151354 
738	 0,382092400396922 
739	 0,382433191672951 
740	 0,38261658015088 
741	 0,383339267759665 
742	 0,384164866650907 
743	 0,384524967961124 
744	 0,384898603298468 
745	 0,385310261085802 
746	 0,385455642098012 
747	 0,385782293350762 
748	 0,386439771768006 
749	 0,386639203103306 
750	 0,386655593070287 
751	 0,38705066229483 
752	 0,387514762112074 
753	 0,387901922550725 
754	 0,387972433459359 
755	 0,388141053638025 
756	 0,38864186577532 
757	 0,388612281596393 
758	 0,388311915268932 
759	 0,388522633171232 
760	 0,38885370836768 
761	 0,389145332177262 
762	 0,38920059917304 
763	 0,389388408033136 
764	 0,390019617237278 
765	 0,390232477176214 
766	 0,390155961509522 
767	 0,390598814384878 
768	 0,390928066155332 
769	 0,390913503653989 
770	 0,390691189147797 
771	 0,390707409979236 
772	 0,391442287682706 
773	 0,391944386576685 
774	 0,392018851131546 
775	 0,391812929514339 
776	 0,391670471349402 
777	 0,391787476882657 
778	 0,391996934418656 
779	 0,392265076429702 
780	 0,392576589100474 
781	 0,392716551814174 
782	 0,392674405963415 
783	 0,392640864291747 
784	 0,392645724275013 
785	 0,392711105189324 
786	 0,392802982707392 
787	 0,392931983894121 
788	 0,393141950786148 
789	 0,393155735971876 
790	 0,393007278950949 
791	 0,39323597794582 
792	 0,393395043413517 
793	 0,393174638127295 
794	 0,393364785783314 
795	 0,393807121702725 
796	 0,393893175022913 
797	 0,393867441297971 
798	 0,393865051434759 
799	 0,394179700569355 
800	 0,394447807424503 
801	 0,394339067359636 
802	 0,394346197534992 
803	 0,394473556776679 
804	 0,39443666821271 
805	 0,394662476893672 
806	 0,395205871157024 
807	 0,39549833616947 
808	 0,395552764334537 
809	 0,395451731006967 
810	 0,395652409393577 
811	 0,395991387530003 
812	 0,395649737744988 
813	 0,395636361642253 
814	 0,396291063886703 
815	 0,39687561552253 
816	 0,397162886761752 
817	 0,396990046173931 
818	 0,396942587150487 
819	 0,397166062472833 
820	 0,397673142001361 
821	 0,3978996139889 
822	 0,397659660859134 
823	 0,397716157315435 
824	 0,397980374659256 
825	 0,398234416283228 
826	 0,39866807264219 
827	 0,399135108725227 
828	 0,399101095721403 
829	 0,398902517343783 
830	 0,398824400798584 
831	 0,399476555817997 
832	 0,400168827235483 
833	 0,399893731707534 
834	 0,399926923148427 
835	 0,400328389390362 
836	 0,400111593247936 
837	 0,400366703714097 
838	 0,401431940980626 
839	 0,401321166600195 
840	 0,40067919753699 
841	 0,400722746910414 
842	 0,400836763572899 
843	 0,401017571858492 
844	 0,401762127454393 
845	 0,402185339815407 
846	 0,401879579533935 
847	 0,401757252016291 
848	 0,401818618112879 
849	 0,401906208394545 
850	 0,401916683114676 
851	 0,401806309635894 
852	 0,401511293084137 
853	 0,401460987798285 
854	 0,401777772985594 
855	 0,401429696516952 
856	 0,401294335176793 
857	 0,402681041047932 
858	 0,402937051921956 
859	 0,40212768998129 
860	 0,402795609150093 
861	 0,402943972867336 
862	 0,401875689848868 
863	 0,402087939002314 
864	 0,403051151822456 
865	 0,403721052898728 
866	 0,403812663574727 
867	 0,403480576177015 
868	 0,40343802733123 
869	 0,403780114984774 
870	 0,404502202531347 
871	 0,405194883047179 
872	 0,405548342301875 
873	 0,405283543269533 
874	 0,40508996890226 
875	 0,405120767442664 
876	 0,405285038182988 
877	 0,405444320352816 
878	 0,405605178448827 
879	 0,406253307171487 
880	 0,40678398303986 
881	 0,406566337098545 
882	 0,40675069981092 
883	 0,407267983829843 
884	 0,40727296594339 
885	 0,407470810922452 
886	 0,407911585734771 
887	 0,407546351183492 
888	 0,407097661944465 
889	 0,407305378718623 
890	 0,408023392588625 
891	 0,408787344362684 
892	 0,408697554175973 
893	 0,408251801629524 
894	 0,407807026472719 
895	 0,40811996385928 
896	 0,408457116724335 
897	 0,408269226188399 
898	 0,408305712614545 
899	 0,408543153651688 
900	 0,408731005389395 
901	 0,409011528389156 
902	 0,409386653363056 
903	 0,409812146889211 
904	 0,409877535658349 
905	 0,40947597197519 
906	 0,409797118998648 
907	 0,410484711094668 
908	 0,410822009200186 
909	 0,410565297146502 
910	 0,409841381853411 
911	 0,409186189796995 
912	 0,409087255180287 
913	 0,409662005256239 
914	 0,409924178439142 
915	 0,41018224516765 
916	 0,410820388141464 
917	 0,41055748722891 
918	 0,40978684856727 
919	 0,410209436284706 
920	 0,41030514164301 
921	 0,409750147046604 
922	 0,40956525011583 
923	 0,409700416631877 
924	 0,409988193774775 
925	 0,409604280319844 
926	 0,408810202864085 
927	 0,408285239388249 
928	 0,408585224628074 
929	 0,409420562221242 
930	 0,409113283313349 
931	 0,40862872278453 
932	 0,408433590947421 
933	 0,407378986442563 
934	 0,40675204462492 
935	 0,408207239077547 
936	 0,4083313514644 
937	 0,407090383300726 
938	 0,406675416491558 
939	 0,406352002748021 
940	 0,405963593921839 
941	 0,405972407747104 
942	 0,405531584979438 
943	 0,404059115415913 
944	 0,403699723704966 
945	 0,4040910677885 
946	 0,403937546860438 
947	 0,402669299076591 
948	 0,400773818816381 
949	 0,40077607576247 
950	 0,400714605448267 
951	 0,39959610709073 
952	 0,398975085220353 
953	 0,398272666229397 
954	 0,396668168141184 
955	 0,395188157418896 
956	 0,394148112043738 
957	 0,393827575183285 
958	 0,392982291497972 
959	 0,391483750522128 
960	 0,390895533824986 
961	 0,390987512115695 
962	 0,391542419238065 
963	 0,393063116935992 
964	 0,393674262044642 
965	 0,390591247366379 
966	 0,388823326383901 
967	 0,389350237014303 
968	 0,391027458802697 
969	 0,391493465586778 
970	 0,390281244203406 
971	 0,391526282474015 
972	 0,392603594080596 
973	 0,391151936634787 
974	 0,391091144242918 
975	 0,391550108612909 
976	 0,389805604425076 
977	 0,389214446431089 
978	 0,389947788528575 
979	 0,388979732975411 
980	 0,389594130478292 
981	 0,392433635575972 
982	 0,391365606374519 
983	 0,389116489929318 
984	 0,388993892856744 
985	 0,390609552679267 
986	 0,392565477481204 
987	 0,392280104662752 
988	 0,391830934730905 
989	 0,391707097811519 
990	 0,391150581064517 
991	 0,391990750828338 
992	 0,394373023604715 
993	 0,393219787404134 
994	 0,391270681232726 
995	 0,3918337318042 
996	 0,394733976365001 
997	 0,39768378167418 
998	 0,396352609990417 
999	 0,397082533426482 
1000	 0,399881591919614 
1001	 0,397681906813714 
1002	 0,397049539510058 
1003	 0,400320564950077 
1004	 0,400423319650274 
1005	 0,398946762503586 
1006	 0,398212574080352 
1007	 0,400257372718087 
1008	 0,403367956661467 
1009	 0,403820122001895 
1010	 0,403397083388286 
1011	 0,403476236862062 
1012	 0,40735070660623 
1013	 0,408549821185414 
1014	 0,405588670658745 
1015	 0,407052583409679 
1016	 0,410099946007041 
1017	 0,411610413479118 
1018	 0,409955815076013 
1019	 0,407620896649984 
1020	 0,408693874521928 
1021	 0,410050416831238 
1022	 0,411080824301309 
1023	 0,412236459984377 
1024	 0,412357849238058 
1025	 0,411454657951176 
1026	 0,411011712254181 
1027	 0,412964534813116 
1028	 0,417389706845936 
1029	 0,415907453934021 
1030	 0,414286844196698 
1031	 0,419519159600958 
1032	 0,417539849553957 
1033	 0,411870525010827 
1034	 0,414948608118004 
1035	 0,415407154528392 
1036	 0,412918742439444 
1037	 0,417996802067524 
1038	 0,42125528764425 
1039	 0,41905869906455 
1040	 0,417152917848812 
1041	 0,416255231559963 
1042	 0,416971983718723 
1043	 0,421094471919122 
1044	 0,424416494867696 
1045	 0,421111820699923 
1046	 0,421774875332345 
1047	 0,424118023507534 
1048	 0,416905099398012 
1049	 0,416859732370458 
1050	 0,423622194399347 
1051	 0,415325358862288 
1052	 0,406455126140789 
1053	 0,406362699719739 
1054	 0,421390011455002 
1055	 0,431837209655503 
1056	 0,42318780260954 
1057	 0,424535540982916 
1058	 0,427550308987733 
1059	 0,416150248452023 
1060	 0,420409050811541 
1061	 0,434240486077767 
1062	 0,428660247211788 
1063	 0,432764366198641 
1064	 0,443553914558361 
1065	 0,417594780898255 
1066	 0,403220864178991 
1067	 0,418945771310138 
1068	 0,427058121245252 
1069	 0,429413162734807 
1070	 0,428538733831885 
1071	 0,425372168569263 
1072	 0,425618811076019 
1073	 0,434171533546919 
1074	 0,428240829785779 
1075	 0,415255914261408 
