Wavelength	AVEN00216.asd
325	 0,165708782406513 
326	 0,1370071088972 
327	 9,96252690886863E-02 
328	 0,061084481082457 
329	 0,217212657728368 
330	 0,318492504829428 
331	 0,237997737216777 
332	 0,213024266570083 
333	 0,235558319513543 
334	 0,187695842182177 
335	 0,19208663561014 
336	 0,248910815568527 
337	 0,23332791514764 
338	 0,17373125593808 
339	 0,1025433030355 
340	 8,60192333127946E-02 
341	 0,119829677426957 
342	 0,168329294856697 
343	 0,204848756558785 
344	 0,215896448985333 
345	 0,188024828490159 
346	 0,145693075495264 
347	 0,122560174770159 
348	 0,132606880292359 
349	 0,160054613084064 
350	 0,158614509118609 
351	 0,178322248164814 
352	 0,223175018484053 
353	 0,220323001243701 
354	 0,198026228572381 
355	 0,190944366856371 
356	 0,181994211249644 
357	 0,17575779186441 
358	 0,195120349872291 
359	 0,201904664926498 
360	 0,180485626858162 
361	 0,158461798028924 
362	 0,152554814543591 
363	 0,176512680953737 
364	 0,203903645625732 
365	 0,222167958953738 
366	 0,231079714819535 
367	 0,227983386874761 
368	 0,213344366970092 
369	 0,205771236952386 
370	 0,206012331841351 
371	 0,211805581190687 
372	 0,210488395681374 
373	 0,204075060494679 
374	 0,21964025888736 
375	 0,226796044608249 
376	 0,20630702457548 
377	 0,205551386233784 
378	 0,216948270635153 
379	 0,205666794812476 
380	 0,202227220394502 
381	 0,211794302776456 
382	 0,216046476382148 
383	 0,212398321280744 
384	 0,200009132440769 
385	 0,198003352967361 
386	 0,204519535724478 
387	 0,203963933358218 
388	 0,207740420281106 
389	 0,217578650760605 
390	 0,221301107032209 
391	 0,217822627528839 
392	 0,207032884911553 
393	 0,209647693322469 
394	 0,2199589287389 
395	 0,203837306538356 
396	 0,195950645495094 
397	 0,210718065335196 
398	 0,216360461541139 
399	 0,214198685015806 
400	 0,211629979159892 
401	 0,212776184070572 
402	 0,21716931387848 
403	 0,218880446085125 
404	 0,217073715739727 
405	 0,212152750860203 
406	 0,213451814522434 
407	 0,21728592923819 
408	 0,213729633506344 
409	 0,212251361677501 
410	 0,213601618373969 
411	 0,206439243411883 
412	 0,203227740504451 
413	 0,214797180339707 
414	 0,21912803740901 
415	 0,215485466366626 
416	 0,211894818088066 
417	 0,212501653087123 
418	 0,21779246046536 
419	 0,218694369192665 
420	 0,215848398187841 
421	 0,21109893244723 
422	 0,211944865260189 
423	 0,216770455541491 
424	 0,213863955070303 
425	 0,211534253726243 
426	 0,214230793010974 
427	 0,213733512789737 
428	 0,212200036047715 
429	 0,215579898885713 
430	 0,21657569274639 
431	 0,214531631538123 
432	 0,216129916042416 
433	 0,218610528809676 
434	 0,219283026628156 
435	 0,217998778873306 
436	 0,216212297697682 
437	 0,217962227160905 
438	 0,218158053448419 
439	 0,215419584660989 
440	 0,214442634137996 
441	 0,215343820334879 
442	 0,217678750445078 
443	 0,219041703741635 
444	 0,219061975903614 
445	 0,2191571053127 
446	 0,218174593866648 
447	 0,215779678352309 
448	 0,214585487236479 
449	 0,215979606786856 
450	 0,222132632824129 
451	 0,225154339139342 
452	 0,223346728997842 
453	 0,222021338809819 
454	 0,221191913310667 
455	 0,220761025816282 
456	 0,222482583421636 
457	 0,225141069674718 
458	 0,224954661897688 
459	 0,223732087876792 
460	 0,222822614119996 
461	 0,22576520715617 
462	 0,228769517843555 
463	 0,226463561283068 
464	 0,22453092604278 
465	 0,224380267606725 
466	 0,225634556224886 
467	 0,225970059416005 
468	 0,22436710279177 
469	 0,226718086007129 
470	 0,230367666940394 
471	 0,228426132873594 
472	 0,227114552575658 
473	 0,227771276517769 
474	 0,226561201584081 
475	 0,225432968836709 
476	 0,226386070455547 
477	 0,227166611933676 
478	 0,227447585250682 
479	 0,227988639466602 
480	 0,226886825288797 
481	 0,224102503089104 
482	 0,225862567790448 
483	 0,22855171617191 
484	 0,225920819493592 
485	 0,223634263756311 
486	 0,223482678608427 
487	 0,226256586407943 
488	 0,228212457908103 
489	 0,226735072470421 
490	 0,225920002053697 
491	 0,225830166651687 
492	 0,224900554402941 
493	 0,22423082330887 
494	 0,224159464811625 
495	 0,224244014011268 
496	 0,224627314803934 
497	 0,225490539602413 
498	 0,22614672439092 
499	 0,226527584758809 
500	 0,227115973171041 
501	 0,227109320296181 
502	 0,226329984545995 
503	 0,22708869082854 
504	 0,228701191742212 
505	 0,229552085826774 
506	 0,229863916596585 
507	 0,229827069129914 
508	 0,229987921584193 
509	 0,23097370856046 
510	 0,233141276504423 
511	 0,233265330483122 
512	 0,232247277452378 
513	 0,234318523106471 
514	 0,23504812225049 
515	 0,233353555924766 
516	 0,235549494367012 
517	 0,238472626493038 
518	 0,236992684371308 
519	 0,235808192954563 
520	 0,235844479635338 
521	 0,235616760237219 
522	 0,235956160035821 
523	 0,237307906546817 
524	 0,237829775924037 
525	 0,237508220419565 
526	 0,236942554035068 
527	 0,23671496756206 
528	 0,236846934858394 
529	 0,235999541550169 
530	 0,234896830611627 
531	 0,234459748117842 
532	 0,235497824627227 
533	 0,237310838131041 
534	 0,23718743869171 
535	 0,237100487024034 
536	 0,238001507864136 
537	 0,237481858479955 
538	 0,236466565992584 
539	 0,23723994194511 
540	 0,23778093971403 
541	 0,237527213386059 
542	 0,236903405923653 
543	 0,23653059729174 
544	 0,236948079351278 
545	 0,237101100526213 
546	 0,236992441996311 
547	 0,23721332839479 
548	 0,237763061826583 
549	 0,238592639297477 
550	 0,239437613682809 
551	 0,239808709663144 
552	 0,23897556552362 
553	 0,239022558920866 
554	 0,239949603536158 
555	 0,239106233635125 
556	 0,238073575825728 
557	 0,238182552864831 
558	 0,238233970214393 
559	 0,238034752376913 
560	 0,237653354380919 
561	 0,237170474278679 
562	 0,236674365185423 
563	 0,236381895218122 
564	 0,236176889202645 
565	 0,235870614458814 
566	 0,235952615348234 
567	 0,236420008256238 
568	 0,236853738952214 
569	 0,237102085805218 
570	 0,237149933043979 
571	 0,237850051452779 
572	 0,239297738111624 
573	 0,241513557621813 
574	 0,24314292539642 
575	 0,243806483695708 
576	 0,244532736632515 
577	 0,245751729230032 
578	 0,247813522009423 
579	 0,249006549381798 
580	 0,249546179134895 
581	 0,251453668887118 
582	 0,253440652782296 
583	 0,25475454704119 
584	 0,255742593616993 
585	 0,256577596123377 
586	 0,257425515149802 
587	 0,258916887757865 
588	 0,26080965679376 
589	 0,261158399162563 
590	 0,26119517985548 
591	 0,262108525583725 
592	 0,262734623764696 
593	 0,263035240232729 
594	 0,263437801792078 
595	 0,264149878478705 
596	 0,265170831869805 
597	 0,265794677369548 
598	 0,265809240501757 
599	 0,265020808720591 
600	 0,264656799843653 
601	 0,26481407035589 
602	 0,26425579503426 
603	 0,263718078797319 
604	 0,263714011332595 
605	 0,262937596482505 
606	 0,261784927748486 
607	 0,261805184068472 
608	 0,261550547393578 
609	 0,260620855260064 
610	 0,260048144223609 
611	 0,259620464228045 
612	 0,258972658532215 
613	 0,258527245553886 
614	 0,258248491857532 
615	 0,257682234530338 
616	 0,257108087172389 
617	 0,256711223041419 
618	 0,256391702205629 
619	 0,256227058212899 
620	 0,256474589307074 
621	 0,25610591456788 
622	 0,255092570851712 
623	 0,254989465094925 
624	 0,255566138731147 
625	 0,25642819506399 
626	 0,256209835442418 
627	 0,25536051234589 
628	 0,256105131399478 
629	 0,257074470261971 
630	 0,257510279363457 
631	 0,257226807143122 
632	 0,257060190263284 
633	 0,258400764257649 
634	 0,259470768970931 
635	 0,259939740993822 
636	 0,260845802524392 
637	 0,261792525333004 
638	 0,262445818872481 
639	 0,263302831564711 
640	 0,264325611777888 
641	 0,2651671388396 
642	 0,266164021057806 
643	 0,267339000539491 
644	 0,268084878778513 
645	 0,268504268881174 
646	 0,268811163056884 
647	 0,268935647008635 
648	 0,268767213837654 
649	 0,267959004564979 
650	 0,267042339164577 
651	 0,26632951226555 
652	 0,265086375060619 
653	 0,263635042397087 
654	 0,262888627900182 
655	 0,261692455964484 
656	 0,259852688703079 
657	 0,25845275302743 
658	 0,257204412312345 
659	 0,255719759138157 
660	 0,253500632094557 
661	 0,250976397801479 
662	 0,249696536832901 
663	 0,248308731833646 
664	 0,246258502063295 
665	 0,244757718131035 
666	 0,24365830551748 
667	 0,242493885420983 
668	 0,24170894934039 
669	 0,241235148890452 
670	 0,240378047994844 
671	 0,239539533087013 
672	 0,239042838898697 
673	 0,238526587613177 
674	 0,238103768484707 
675	 0,238198498633783 
676	 0,238358622612749 
677	 0,238392391628536 
678	 0,238282189865453 
679	 0,238276348667197 
680	 0,238666025588704 
681	 0,239402500769769 
682	 0,240387895986416 
683	 0,241303394833254 
684	 0,242572191932589 
685	 0,244393952269782 
686	 0,246155849850161 
687	 0,24811920915524 
688	 0,250833054083802 
689	 0,254307216616613 
690	 0,25853191709705 
691	 0,263148541425572 
692	 0,268725861771558 
693	 0,275696497658003 
694	 0,282266110986633 
695	 0,288766036860693 
696	 0,297037919440551 
697	 0,305443677947336 
698	 0,313524487792099 
699	 0,322876995482334 
700	 0,332538682634667 
701	 0,34117444165688 
702	 0,349759127741813 
703	 0,358265453696679 
704	 0,365941868328173 
705	 0,373148301215013 
706	 0,380190825198527 
707	 0,387426681552884 
708	 0,394358814677733 
709	 0,399985466639982 
710	 0,405102102462134 
711	 0,409973406936531 
712	 0,414496551648364 
713	 0,418680011504184 
714	 0,422532365300348 
715	 0,426062166999054 
716	 0,429309935893215 
717	 0,432369977005078 
718	 0,43511077294838 
719	 0,43748979037831 
720	 0,439544290670957 
721	 0,441507500581529 
722	 0,443670792071386 
723	 0,445387836752244 
724	 0,446641578895207 
725	 0,447868151796202 
726	 0,449300129403307 
727	 0,451004977227447 
728	 0,452271426979783 
729	 0,453139700816038 
730	 0,453859053751496 
731	 0,454547290900001 
732	 0,455297168966568 
733	 0,456197525619268 
734	 0,457167429859056 
735	 0,458079013417562 
736	 0,458247195093435 
737	 0,458064809958842 
738	 0,458799581199044 
739	 0,459544930020007 
740	 0,460014994501134 
741	 0,460610836831159 
742	 0,461217477786868 
743	 0,461672175566574 
744	 0,462071473044798 
745	 0,462371252005251 
746	 0,462362081611494 
747	 0,462338285915236 
748	 0,462484020419474 
749	 0,462818653685024 
750	 0,463208898224174 
751	 0,463452907434799 
752	 0,463611860421653 
753	 0,463748117628842 
754	 0,464054223635862 
755	 0,46428558365932 
756	 0,46428719574891 
757	 0,464367642717196 
758	 0,464595256388312 
759	 0,465011323201576 
760	 0,465407253959441 
761	 0,465644667236718 
762	 0,46547465098352 
763	 0,465409595206238 
764	 0,46589344375658 
765	 0,465923895628949 
766	 0,46573172748871 
767	 0,466470584411647 
768	 0,467018006953222 
769	 0,466990005215115 
770	 0,466968572452488 
771	 0,467065953772724 
772	 0,4673508695845 
773	 0,467692723371951 
774	 0,467973133492253 
775	 0,467996292347483 
776	 0,467822167525081 
777	 0,467545661439951 
778	 0,467513663428759 
779	 0,467701579371457 
780	 0,46800239611611 
781	 0,468371867025583 
782	 0,468672789442953 
783	 0,468499792237561 
784	 0,468470661973343 
785	 0,468926963067889 
786	 0,469060074486619 
787	 0,468943167628757 
788	 0,468908579340839 
789	 0,468933791500557 
790	 0,469043090976161 
791	 0,469346831217688 
792	 0,469426023478568 
793	 0,469006911645088 
794	 0,4688973893004 
795	 0,469067548869878 
796	 0,469136055424713 
797	 0,469276766893666 
798	 0,469478362759583 
799	 0,46948540263214 
800	 0,469440036605076 
801	 0,469489080887164 
802	 0,469577248185986 
803	 0,469716128374615 
804	 0,469990936713174 
805	 0,470057809540329 
806	 0,469913228161076 
807	 0,470312218108932 
808	 0,470763960191535 
809	 0,470711032908347 
810	 0,470788170240292 
811	 0,470981511098352 
812	 0,470848723932938 
813	 0,470861083932693 
814	 0,471175690928139 
815	 0,471405622864953 
816	 0,4716357845735 
817	 0,47200652270481 
818	 0,472550244877572 
819	 0,473076925073691 
820	 0,473033049260832 
821	 0,472929063948211 
822	 0,472991071133348 
823	 0,472899093039897 
824	 0,472889896334491 
825	 0,473289660441805 
826	 0,473861866922061 
827	 0,474378961073406 
828	 0,47437330349 
829	 0,474259504594017 
830	 0,474312851760939 
831	 0,474759447909055 
832	 0,475222923763385 
833	 0,475167775788409 
834	 0,475206135388359 
835	 0,475365911796286 
836	 0,475176690533407 
837	 0,475155114997832 
838	 0,475541411530861 
839	 0,475919623728102 
840	 0,476092921387476 
841	 0,475867985866736 
842	 0,475725432334361 
843	 0,475822795013497 
844	 0,476239289905284 
845	 0,47643735350094 
846	 0,476185795452404 
847	 0,476161415869433 
848	 0,476357606380206 
849	 0,476647019524158 
850	 0,476735520045759 
851	 0,476629368840229 
852	 0,476640488027397 
853	 0,476734784763303 
854	 0,476786082028318 
855	 0,475944166404932 
856	 0,475314478887968 
857	 0,476473676524932 
858	 0,476992321387836 
859	 0,476653116235537 
860	 0,476878366148971 
861	 0,476917346026335 
862	 0,476536486375806 
863	 0,476749577689343 
864	 0,477228573988432 
865	 0,477412404688452 
866	 0,477674609911158 
867	 0,478031428727331 
868	 0,47827527345819 
869	 0,478606113493397 
870	 0,479094899682607 
871	 0,479579607445535 
872	 0,479938054672862 
873	 0,480051131511134 
874	 0,479891878643946 
875	 0,479717455352517 
876	 0,480235177682759 
877	 0,480768509731867 
878	 0,481048880652943 
879	 0,481397742233519 
880	 0,481630966433704 
881	 0,481546907822821 
882	 0,481364535228004 
883	 0,481423011928484 
884	 0,482600016661433 
885	 0,482971650087611 
886	 0,482202934662068 
887	 0,482681331538243 
888	 0,483128762691508 
889	 0,482359381091509 
890	 0,482582336253139 
891	 0,483437571885998 
892	 0,483277423170205 
893	 0,483002909250299 
894	 0,483006327160661 
895	 0,483744758787346 
896	 0,484343418941608 
897	 0,484151339948736 
898	 0,48397476901109 
899	 0,484042828552143 
900	 0,484524548795276 
901	 0,484951056177842 
902	 0,485185939131601 
903	 0,485357054226135 
904	 0,485404761484009 
905	 0,48531583013788 
906	 0,485241613834746 
907	 0,485197274108154 
908	 0,485168315357394 
909	 0,485779088187087 
910	 0,486588663294224 
911	 0,485649575577633 
912	 0,485295662467516 
913	 0,486334126192178 
914	 0,486355673859304 
915	 0,486131601673248 
916	 0,486700317022457 
917	 0,487127470494739 
918	 0,487205632187283 
919	 0,486813127524605 
920	 0,486893489635132 
921	 0,487649137570991 
922	 0,488369317600323 
923	 0,488289368139936 
924	 0,487010670484255 
925	 0,486865913995108 
926	 0,487274671562768 
927	 0,486482918721263 
928	 0,485686536778122 
929	 0,485389279969544 
930	 0,486116929598109 
931	 0,486845558023597 
932	 0,487015285711399 
933	 0,487473372008317 
934	 0,487929639664073 
935	 0,487911880371825 
936	 0,487224313363187 
937	 0,486393487651611 
938	 0,486976670492002 
939	 0,487543070931507 
940	 0,487565119427131 
941	 0,487509696343954 
942	 0,487177810133583 
943	 0,486415795381203 
944	 0,485565715259786 
945	 0,484885398659621 
946	 0,484689205807541 
947	 0,484775787730963 
948	 0,485194596442186 
949	 0,486611542289533 
950	 0,486875333515618 
951	 0,485055052980902 
952	 0,483878172518345 
953	 0,483139214045711 
954	 0,482265574162158 
955	 0,48226581351594 
956	 0,482753565577625 
957	 0,482331730985094 
958	 0,481239653701123 
959	 0,480018962086993 
960	 0,480882758097231 
961	 0,481388478287616 
962	 0,480011006049609 
963	 0,481031749050884 
964	 0,482456662369323 
965	 0,480425303715437 
966	 0,479903403722103 
967	 0,481129813712678 
968	 0,480926792612952 
969	 0,48002623642035 
970	 0,47926586600339 
971	 0,481768132755181 
972	 0,483477464281122 
973	 0,480945314357089 
974	 0,480106864296622 
975	 0,480897348392868 
976	 0,481364591186788 
977	 0,481497187488607 
978	 0,481463881348497 
979	 0,482079886998009 
980	 0,483182361536669 
981	 0,484079844064557 
982	 0,481519399020226 
983	 0,478629546882691 
984	 0,478825478304898 
985	 0,480867340272748 
986	 0,483474554804536 
987	 0,484748829437735 
988	 0,484052466359821 
989	 0,482370001151382 
990	 0,484029253263158 
991	 0,485487326913685 
992	 0,485054819962854 
993	 0,484680288460538 
994	 0,484700475726653 
995	 0,485363697598702 
996	 0,487832009395804 
997	 0,489612263042789 
998	 0,485485816459585 
999	 0,485862630579503 
1000	 0,491150176698478 
1001	 0,491720330570797 
1002	 0,489354258477096 
1003	 0,486218952092787 
1004	 0,489459936648512 
1005	 0,493165495420921 
1006	 0,491296654548855 
1007	 0,488950570619887 
1008	 0,48746181938622 
1009	 0,487555418889794 
1010	 0,490635489253558 
1011	 0,495395522050343 
1012	 0,497284143269213 
1013	 0,496153346601027 
1014	 0,492771509157107 
1015	 0,491411194734878 
1016	 0,492208471981488 
1017	 0,494829018809523 
1018	 0,497874895337351 
1019	 0,499400612495707 
1020	 0,497119771965394 
1021	 0,496660773790288 
1022	 0,498073344088005 
1023	 0,497361029688674 
1024	 0,49730652232998 
1025	 0,498325830625487 
1026	 0,498177448698804 
1027	 0,497250678045365 
1028	 0,496481564601353 
1029	 0,499884810844756 
1030	 0,504062598650871 
1031	 0,504605363191775 
1032	 0,503786645455333 
1033	 0,503156211444959 
1034	 0,504984007175616 
1035	 0,504660084739497 
1036	 0,501215538938596 
1037	 0,495607172175843 
1038	 0,493848249556704 
1039	 0,497596235925084 
1040	 0,498881366910551 
1041	 0,498306142904701 
1042	 0,496982928342033 
1043	 0,496888954443339 
1044	 0,497525060821021 
1045	 0,49775509612829 
1046	 0,498333229080887 
1047	 0,499918961015279 
1048	 0,503970369811354 
1049	 0,504143295462852 
1050	 0,500490292186052 
1051	 0,501428202771519 
1052	 0,501490925888981 
1053	 0,500062873143526 
1054	 0,510085430313709 
1055	 0,516260238939757 
1056	 0,506986689081057 
1057	 0,503848124094327 
1058	 0,506870291345681 
1059	 0,511020501284467 
1060	 0,513103631021152 
1061	 0,512539817465479 
1062	 0,510066457491634 
1063	 0,510655527975542 
1064	 0,511267583660522 
1065	 0,49344476221256 
1066	 0,485326131128784 
1067	 0,497750041274258 
1068	 0,508702914024587 
1069	 0,51361601105011 
1070	 0,510202062410244 
1071	 0,50546044201183 
1072	 0,502419645015306 
1073	 0,503428391361124 
1074	 0,507203832640919 
1075	 0,507825454669554 
