Wavelength	AVEN00075.asd
325	 0,238117352249989 
326	-9,26852838086391E-03 
327	-8,86597390171951E-02 
328	 6,78805052856262E-02 
329	 0,139550111371311 
330	 0,116446560274831 
331	 4,56511509156262E-02 
332	-6,13111191597247E-02 
333	-0,131746360788649 
334	-4,35212569102038E-02 
335	 5,84621833487464E-02 
336	 9,62521534759027E-02 
337	 6,73474527680082E-02 
338	 4,58142154331031E-02 
339	 8,69645000857486E-02 
340	-0,030900081617379 
341	-0,185560875885747 
342	-8,08799754098688E-02 
343	 5,82023948459575E-02 
344	 0,139194361682629 
345	 8,86375842369029E-02 
346	 0,011510903214082 
347	 0,027584916871142 
348	 4,80872048348103E-02 
349	 4,91618484935616E-02 
350	 7,11475556750459E-03 
351	-7,00192653767042E-03 
352	 2,67867386482421E-02 
353	 4,42934892946999E-02 
354	 4,74441159574414E-02 
355	 0,043317670760893 
356	 3,81609875041923E-02 
357	 3,57323067524782E-02 
358	 4,23801361676847E-02 
359	 3,75034459806826E-02 
360	 0,01284756792976 
361	-7,4040656340587E-03 
362	-1,76442994395423E-02 
363	-1,93566568092986E-02 
364	 1,7105888085836E-03 
365	 3,36911541251641E-02 
366	 4,22705074091926E-02 
367	 3,94574675915061E-02 
368	 3,28949046098768E-02 
369	 2,57225799682878E-02 
370	 1,99416958891377E-02 
371	 1,69039290412986E-02 
372	 3,25026618078572E-02 
373	 0,05932498069926 
374	 5,28440247748427E-02 
375	 3,71584124870024E-02 
376	 3,14970542214462E-02 
377	 2,55661377481792E-02 
378	 1,94705017273235E-02 
379	 1,60557910565565E-02 
380	 2,23966821060399E-02 
381	 3,48151552855948E-02 
382	 2,87223149257256E-02 
383	 2,55169168419334E-02 
384	 4,49010413246719E-02 
385	 3,18303053031069E-02 
386	-6,8987084624517E-04 
387	 3,32838427092901E-03 
388	 2,06429632895269E-02 
389	 3,99675294284728E-02 
390	 5,59654477084898E-02 
391	 5,91543959498853E-02 
392	 0,040413629161911 
393	 2,60966218637379E-02 
394	 2,16513546240303E-02 
395	 1,91504652697442E-02 
396	 2,34792750161251E-02 
397	 3,41725776331288E-02 
398	 3,22378305942139E-02 
399	 2,48608935379363E-02 
400	 2,57092860820373E-02 
401	 3,08672559079879E-02 
402	 0,03728605293761 
403	 3,88048295858274E-02 
404	 3,40295127564521E-02 
405	 2,37155844310734E-02 
406	 2,39090750693597E-02 
407	 3,00519244042313E-02 
408	 2,87488800435726E-02 
409	 2,77101846258664E-02 
410	 2,89443263647207E-02 
411	 3,15387398501771E-02 
412	 3,38106053718193E-02 
413	 3,43147493170091E-02 
414	 3,45804810973112E-02 
415	 3,43586757818392E-02 
416	 3,19793458419389E-02 
417	 3,05207951325612E-02 
418	 3,12891129493304E-02 
419	 3,40942075087716E-02 
420	 3,57693968920829E-02 
421	 3,25183992868973E-02 
422	 3,38112970992321E-02 
423	 3,80807893207498E-02 
424	 3,26187254951675E-02 
425	 2,74087607814823E-02 
426	 2,82908681037278E-02 
427	 0,028676292854262 
428	 2,93700873353208E-02 
429	 3,39754299021195E-02 
430	 0,032597137249582 
431	 2,58023240906481E-02 
432	 2,90957643536389E-02 
433	 3,46206443602731E-02 
434	 3,50390381708358E-02 
435	 3,41675043717451E-02 
436	 3,33164112598977E-02 
437	 3,41736009222938E-02 
438	 3,48004381497482E-02 
439	 3,46073927268689E-02 
440	 3,51484953484149E-02 
441	 3,58317579030828E-02 
442	 3,57674322660665E-02 
443	 3,51585575517086E-02 
444	 3,42695582329317E-02 
445	 3,36921817808011E-02 
446	 3,35150376509983E-02 
447	 0,033700512719629 
448	 0,033273024045256 
449	 3,28506707781194E-02 
450	 3,36912181154165E-02 
451	 3,61297853205359E-02 
452	 3,91547633921604E-02 
453	 0,038081971630964 
454	 3,61652682851998E-02 
455	 3,65382972352199E-02 
456	 3,67200165056805E-02 
457	 3,64269010678775E-02 
458	 0,035937235349008 
459	 3,63612477389115E-02 
460	 0,037721890612304 
461	 3,66523653098656E-02 
462	 3,56755404053465E-02 
463	 3,85314436806585E-02 
464	 3,86994618410728E-02 
465	 3,63153836460694E-02 
466	 3,79600559883314E-02 
467	 3,93325228866832E-02 
468	 3,79946427046871E-02 
469	 3,90801803030642E-02 
470	 4,12559710983817E-02 
471	 4,06356170605937E-02 
472	 3,89417585083559E-02 
473	 3,69398392214529E-02 
474	 3,51727124486519E-02 
475	 3,52175757049987E-02 
476	 3,82554183504446E-02 
477	 3,74930118128114E-02 
478	 3,45513266249457E-02 
479	 3,84265593959988E-02 
480	 0,040458970016432 
481	 3,74556251368864E-02 
482	 3,70514866233871E-02 
483	 0,037759469377238 
484	 0,036066075723642 
485	 3,68220447924877E-02 
486	 3,97474206533118E-02 
487	 3,90419680142405E-02 
488	 3,73908545869845E-02 
489	 3,70438577004075E-02 
490	 3,88838093620478E-02 
491	 4,11017997550847E-02 
492	 3,92156087629857E-02 
493	 3,77446296498366E-02 
494	 3,80970086610485E-02 
495	 3,82370955779753E-02 
496	 3,91219933108953E-02 
497	 4,19100673963878E-02 
498	 4,30619312942074E-02 
499	 4,23966175225001E-02 
500	 4,22383293882809E-02 
501	 4,11816998247524E-02 
502	 3,89826711882517E-02 
503	 3,99797579396147E-02 
504	 4,22704476410819E-02 
505	 4,17242661897956E-02 
506	 4,04967869196416E-02 
507	 3,95559024709643E-02 
508	 4,01123916271018E-02 
509	 4,13221493534479E-02 
510	 4,23119915087428E-02 
511	 4,23969065539577E-02 
512	 4,20070742888123E-02 
513	 4,28024812442297E-02 
514	 4,27098990414481E-02 
515	 0,04139616549766 
516	 4,27910495620775E-02 
517	 4,49724885777048E-02 
518	 4,48245927278865E-02 
519	 4,44826247620756E-02 
520	 4,43567407165871E-02 
521	 4,38421927947472E-02 
522	 4,35627820840652E-02 
523	 4,39184586626292E-02 
524	 4,39829021746753E-02 
525	 4,40812336073902E-02 
526	 4,54160658377029E-02 
527	 4,62320798045212E-02 
528	 4,59784654691621E-02 
529	 4,53701315944165E-02 
530	 4,48275625632038E-02 
531	 4,47450005191681E-02 
532	 4,55797095896883E-02 
533	 4,69097918247651E-02 
534	 4,72109781402427E-02 
535	 4,72951288702082E-02 
536	 4,76161642521769E-02 
537	 4,77929107655405E-02 
538	 4,77939484337933E-02 
539	 4,76025879623748E-02 
540	 4,76382140380374E-02 
541	 4,80297826240377E-02 
542	 4,87628206379395E-02 
543	 4,90127785013964E-02 
544	 4,80654589934325E-02 
545	 4,76211305845478E-02 
546	 4,79847592501012E-02 
547	 4,89922917047653E-02 
548	 4,97154461458558E-02 
549	 4,97373701950481E-02 
550	 0,049994688824646 
551	 5,02190630798617E-02 
552	 4,98028160952435E-02 
553	 4,98534596947105E-02 
554	 5,03500037001547E-02 
555	 4,98062306380197E-02 
556	 4,93136415742226E-02 
557	 4,97867253101479E-02 
558	 5,05271467820286E-02 
559	 0,051086518592251 
560	 5,06405916504611E-02 
561	 5,04198875420501E-02 
562	 5,08240026197876E-02 
563	 5,08910915504602E-02 
564	 5,08112177945283E-02 
565	 5,09448314187456E-02 
566	 5,11179002743586E-02 
567	 5,12883899602788E-02 
568	 5,14938766832512E-02 
569	 5,15265529709305E-02 
570	 5,12940756424739E-02 
571	 5,12409369380756E-02 
572	 5,17395645072415E-02 
573	 5,35327834858285E-02 
574	 0,054836876550272 
575	 5,49644868137859E-02 
576	 5,42207508357772E-02 
577	 5,37469100976129E-02 
578	 5,47393306288879E-02 
579	 5,47458085984864E-02 
580	 5,39467142581825E-02 
581	 5,47706149685842E-02 
582	 5,55929198954436E-02 
583	 0,055575309625333 
584	 5,58626928634053E-02 
585	 5,64825238819975E-02 
586	 5,72956944642832E-02 
587	 5,73671422383453E-02 
588	 5,67279563882571E-02 
589	 5,69163772974307E-02 
590	 5,73936623230381E-02 
591	 5,75781733729774E-02 
592	 0,057334951444574 
593	 5,70666239796543E-02 
594	 5,80263800785714E-02 
595	 5,86639194740211E-02 
596	 5,84076923252475E-02 
597	 5,88754730320995E-02 
598	 5,91879989060831E-02 
599	 5,77625625498698E-02 
600	 0,057174949015305 
601	 5,78065304484956E-02 
602	 5,80850000834728E-02 
603	 5,80540238731502E-02 
604	 5,78010262590929E-02 
605	 5,77007161219281E-02 
606	 5,78667577552513E-02 
607	 5,84320226578166E-02 
608	 0,058846195878516 
609	 5,87983756498627E-02 
610	 0,057974420202231 
611	 5,72146227586252E-02 
612	 5,75546682921672E-02 
613	 5,80489731773395E-02 
614	 0,058301208532544 
615	 5,78726480527682E-02 
616	 5,73686745210949E-02 
617	 5,72320695219251E-02 
618	 5,75333465945604E-02 
619	 5,81357328254394E-02 
620	 5,88582925117455E-02 
621	 5,88560486339498E-02 
622	 5,80037931074558E-02 
623	 5,71089922583368E-02 
624	 5,70688991300936E-02 
625	 5,86354770107101E-02 
626	 5,89912747872931E-02 
627	 5,82344671784673E-02 
628	 5,86457425690289E-02 
629	 5,88056115145627E-02 
630	 0,058172050369936 
631	 5,81937894012987E-02 
632	 0,058644315949831 
633	 5,89029485930645E-02 
634	 5,88031923703139E-02 
635	 5,85324079914542E-02 
636	 5,91695963977782E-02 
637	 5,98008440808464E-02 
638	 5,96791641145304E-02 
639	 5,99936547481303E-02 
640	 6,05777659790837E-02 
641	 6,04390488029736E-02 
642	 6,03860166601313E-02 
643	 0,060712101911848 
644	 6,11282546237347E-02 
645	 6,13782468098698E-02 
646	 6,11726283604492E-02 
647	 6,10952792611514E-02 
648	 6,11806637656677E-02 
649	 0,060935013460924 
650	 6,08165192521629E-02 
651	 6,10801129300459E-02 
652	 6,10388216749334E-02 
653	 0,060886867053213 
654	 6,13489019594762E-02 
655	 6,08687680061086E-02 
656	 5,94378283502631E-02 
657	 5,96993124053101E-02 
658	 6,03844937667331E-02 
659	 6,00327804365804E-02 
660	 5,94683615069375E-02 
661	 5,89016693150795E-02 
662	 5,84071318292661E-02 
663	 5,81055741573022E-02 
664	 5,80362144397983E-02 
665	 5,79536972862921E-02 
666	 5,78497400279782E-02 
667	 5,77611912008013E-02 
668	 5,78101681613767E-02 
669	 0,057895057954647 
670	 5,74526915680657E-02 
671	 5,71261367600316E-02 
672	 5,73899623915411E-02 
673	 5,72945767049273E-02 
674	 5,70436884678513E-02 
675	 5,75757614698438E-02 
676	 5,79378326746912E-02 
677	 5,77930468934589E-02 
678	 5,73478549563542E-02 
679	 5,71647682919237E-02 
680	 5,78661972019445E-02 
681	 5,84352984524143E-02 
682	 0,058638821985307 
683	 5,85166237713105E-02 
684	 5,88287865510302E-02 
685	 5,98954775193237E-02 
686	 6,02956360653108E-02 
687	 6,03377556355966E-02 
688	 6,08936405439566E-02 
689	 6,17214521410744E-02 
690	 6,27103940354286E-02 
691	 6,35634791993773E-02 
692	 6,46045158014256E-02 
693	 0,066108215527785 
694	 6,75221802739886E-02 
695	 6,88456153283307E-02 
696	 7,03850910534514E-02 
697	 7,18300614981804E-02 
698	 7,32328671708932E-02 
699	 7,56404252309631E-02 
700	 7,83211665180593E-02 
701	 8,02447106169385E-02 
702	 8,21139626687709E-02 
703	 8,40796535630246E-02 
704	 8,61639959510535E-02 
705	 8,78445810617866E-02 
706	 8,89086918527463E-02 
707	 9,04937496408368E-02 
708	 9,24611127085166E-02 
709	 9,42666537383714E-02 
710	 9,57395320326419E-02 
711	 9,68602240294214E-02 
712	 9,79249337016892E-02 
713	 9,89748605694817E-02 
714	 0,100036495423249 
715	 0,101184079956121 
716	 0,10222267293771 
717	 0,102581318498117 
718	 0,103035873564883 
719	 0,103899480172498 
720	 0,104802506424985 
721	 0,105728243595441 
722	 0,106708037171363 
723	 0,106973289595691 
724	 0,106755514199822 
725	 0,107440691473023 
726	 0,108256678648454 
727	 0,108722653787008 
728	 0,109113373549992 
729	 0,109419741691232 
730	 0,109551473606287 
731	 0,109868497522409 
732	 0,110355792031807 
733	 0,110405578622175 
734	 0,110452837796496 
735	 0,110873707282229 
736	 0,111214720494946 
737	 0,111475084089278 
738	 0,111929611510737 
739	 0,112023513814761 
740	 0,111710081166174 
741	 0,111947176543038 
742	 0,112538190834771 
743	 0,113146732571767 
744	 0,113277451896933 
745	 0,113052639327054 
746	 0,11321820746746 
747	 0,113589766901348 
748	 0,114020394444661 
749	 0,114194980364262 
750	 0,114110535611992 
751	 0,113818480784719 
752	 0,113764251193928 
753	 0,11411663909203 
754	 0,115033733528828 
755	 0,115450797601687 
756	 0,114727925676419 
757	 0,114578061676373 
758	 0,115066516007727 
759	 0,115799972379038 
760	 0,116098034732594 
761	 0,115816083519441 
762	 0,115587786337816 
763	 0,115624806608495 
764	 0,116068342884611 
765	 0,116497189811732 
766	 0,1167445761925 
767	 0,116627063400497 
768	 0,116518768820279 
769	 0,116622955282946 
770	 0,117083029541946 
771	 0,117506559762414 
772	 0,117431753480129 
773	 0,117270534067683 
774	 0,117253804448304 
775	 0,117814180457245 
776	 0,118101958725519 
777	 0,117748922619315 
778	 0,117517834689449 
779	 0,117715201598198 
780	 0,118651351415738 
781	 0,118957356445912 
782	 0,118602908045956 
783	 0,119001979853833 
784	 0,119269109348005 
785	 0,118896765593883 
786	 0,118756909106585 
787	 0,11895467677354 
788	 0,119465630629677 
789	 0,119708022450223 
790	 0,119653667711682 
791	 0,120124467555766 
792	 0,120365348119867 
793	 0,119859407791554 
794	 0,119950203451938 
795	 0,120502710059944 
796	 0,12076470425751 
797	 0,120782868553409 
798	 0,120620847595276 
799	 0,120608675255141 
800	 0,120783121699139 
801	 0,121126391926697 
802	 0,121105384252151 
803	 0,120954606871104 
804	 0,121594545403991 
805	 0,12198039195042 
806	 0,121815866857384 
807	 0,121791692256885 
808	 0,121809641335428 
809	 0,121730045490601 
810	 0,121980612062864 
811	 0,122298385066466 
812	 0,121602034868799 
813	 0,121499345900429 
814	 0,122488147142375 
815	 0,123067992677009 
816	 0,123225610416606 
817	 0,123125061265455 
818	 0,123093184408456 
819	 0,123202571476297 
820	 0,12337654938917 
821	 0,123480447138777 
822	 0,12346275957661 
823	 0,123507672544104 
824	 0,123507540150972 
825	 0,123309623326377 
826	 0,123565475670493 
827	 0,124220921400278 
828	 0,12468960659612 
829	 0,124611590313767 
830	 0,123973046038036 
831	 0,1241109573513 
832	 0,124670095507836 
833	 0,12495672392908 
834	 0,124588915582781 
835	 0,123834345229461 
836	 0,123834121223922 
837	 0,124395978680626 
838	 0,125217716880611 
839	 0,124973694050322 
840	 0,124419933414498 
841	 0,124828748749837 
842	 0,124967662449863 
843	 0,124750524425157 
844	 0,124932145611987 
845	 0,125116185042575 
846	 0,125097058954689 
847	 0,125047430057661 
848	 0,124997920726556 
849	 0,12496410941548 
850	 0,125078517423476 
851	 0,125234800310195 
852	 0,12491699618211 
853	 0,124931603497477 
854	 0,125542073469552 
855	 0,125275545323106 
856	 0,124880243459372 
857	 0,12557231941659 
858	 0,126045781604784 
859	 0,126089693892514 
860	 0,126105890382349 
861	 0,126227434099469 
862	 0,126425342439921 
863	 0,125797318870533 
864	 0,125506356879821 
865	 0,127101226126314 
866	 0,127418220820109 
867	 0,126502532419771 
868	 0,126949061425368 
869	 0,127321914418872 
870	 0,127051665429188 
871	 0,12691691384262 
872	 0,126969017787452 
873	 0,127169368971343 
874	 0,126994753909193 
875	 0,126696359388773 
876	 0,127322235727535 
877	 0,128144685509562 
878	 0,128671411003293 
879	 0,128079401732497 
880	 0,127476198360992 
881	 0,12805346535622 
882	 0,128243910585792 
883	 0,127928937455347 
884	 0,127543021342655 
885	 0,127766781940415 
886	 0,128632305768433 
887	 0,128829654915331 
888	 0,128570092459948 
889	 0,128194912554121 
890	 0,128458654720455 
891	 0,128998989960418 
892	 0,128644118229875 
893	 0,12878326085275 
894	 0,129490925077885 
895	 0,128961533748014 
896	 0,128613276293688 
897	 0,129465992606836 
898	 0,129756913466378 
899	 0,129543780730084 
900	 0,129401264038976 
901	 0,129670764807863 
902	 0,130197866043045 
903	 0,129870593253416 
904	 0,129868268589464 
905	 0,130730725037764 
906	 0,130579831324911 
907	 0,130127782028461 
908	 0,130690021205099 
909	 0,130613750751603 
910	 0,12983937259281 
911	 0,129372303588813 
912	 0,129462428910759 
913	 0,13013491161962 
914	 0,130566522436108 
915	 0,130968053973834 
916	 0,131608216868816 
917	 0,131359447273716 
918	 0,130482014111483 
919	 0,130114947770802 
920	 0,130385160274121 
921	 0,131087057291964 
922	 0,130832229871565 
923	 0,13056131691619 
924	 0,131017466194474 
925	 0,1309610858391 
926	 0,130448056509609 
927	 0,129872139946456 
928	 0,130445538138778 
929	 0,131962758414731 
930	 0,132377681088469 
931	 0,132187099155939 
932	 0,131843395349988 
933	 0,132440544987312 
934	 0,132747621996391 
935	 0,131153959431241 
936	 0,131693831273372 
937	 0,133664225899711 
938	 0,13247045708202 
939	 0,131128394801422 
940	 0,130890141092126 
941	 0,131927344417046 
942	 0,132973200303344 
943	 0,132877478505837 
944	 0,131974008308124 
945	 0,131072827798545 
946	 0,131576446454723 
947	 0,131301692769431 
948	 0,130319298617923 
949	 0,131259600279717 
950	 0,132446631988393 
951	 0,132801600390623 
952	 0,132261204745394 
953	 0,131516822236815 
954	 0,131414514892228 
955	 0,131458668148035 
956	 0,132023997264026 
957	 0,13470695665518 
958	 0,134491460858025 
959	 0,131000251113439 
960	 0,131129220456635 
961	 0,132571817580247 
962	 0,133270167178282 
963	 0,133248690894384 
964	 0,132418401967772 
965	 0,130755261027026 
966	 0,130879932351566 
967	 0,132434843834668 
968	 0,131948249384564 
969	 0,132235971576452 
970	 0,134036785806286 
971	 0,134828773456472 
972	 0,134414782111975 
973	 0,133025464771864 
974	 0,133346124821565 
975	 0,13428993255502 
976	 0,133044136150408 
977	 0,133064907617099 
978	 0,134210347518452 
979	 0,132594409224868 
980	 0,13131004111551 
981	 0,131694757229928 
982	 0,131592657910225 
983	 0,131712582804448 
984	 0,132815354315691 
985	 0,133415460189245 
986	 0,133459035113059 
987	 0,133464672980526 
988	 0,132323247995144 
989	 0,130871528753669 
990	 0,13324181560546 
991	 0,134777220295379 
992	 0,133484332053284 
993	 0,133200636048079 
994	 0,134601982802732 
995	 0,137643983892411 
996	 0,137198282535893 
997	 0,13469991967447 
998	 0,13477725023278 
999	 0,135619757243729 
1000	 0,136381116966024 
1001	 0,135816306366229 
1002	 0,134794710002214 
1003	 0,134034284691327 
1004	 0,134594891882283 
1005	 0,135538437383632 
1006	 0,135986863418292 
1007	 0,138037784265325 
1008	 0,140068394329466 
1009	 0,138651829197347 
1010	 0,13805736942293 
1011	 0,139496071817605 
1012	 0,143318555788646 
1013	 0,144306992473327 
1014	 0,1411021432393 
1015	 0,140415566280794 
1016	 0,140705803373462 
1017	 0,140185751908386 
1018	 0,137471743241437 
1019	 0,135194244792141 
1020	 0,137458882951561 
1021	 0,137676038241036 
1022	 0,136765722818094 
1023	 0,142061623968593 
1024	 0,145061687390258 
1025	 0,143982636809853 
1026	 0,145194646465012 
1027	 0,145580591207433 
1028	 0,143546758049776 
1029	 0,143754886908331 
1030	 0,142656602200918 
1031	 0,136436103271527 
1032	 0,139300350147248 
1033	 0,146240339381095 
1034	 0,141719763340811 
1035	 0,140594606266884 
1036	 0,144198687791941 
1037	 0,142028650275407 
1038	 0,140044986639235 
1039	 0,140581718122861 
1040	 0,140201940389687 
1041	 0,142144720804535 
1042	 0,147775637521434 
1043	 0,146049138998117 
1044	 0,140442766200598 
1045	 0,138264513715428 
1046	 0,141367994154984 
1047	 0,146994381341234 
1048	 0,147723842398152 
1049	 0,146918733099882 
1050	 0,144835980710492 
1051	 0,138258901404097 
1052	 0,134784272587432 
1053	 0,138223407780544 
1054	 0,145537084891461 
1055	 0,14883741361373 
1056	 0,143218222139909 
1057	 0,145103312526973 
1058	 0,149754184051499 
1059	 0,147505395675247 
1060	 0,149158667656227 
1061	 0,152456446956926 
1062	 0,146863336972167 
1063	 0,149202552529916 
1064	 0,156098494500637 
1065	 0,135389834111105 
1066	 0,124425348235761 
1067	 0,138262624351494 
1068	 0,152137674647306 
1069	 0,157029421679656 
1070	 0,148976719835929 
1071	 0,148345141542236 
1072	 0,148248922669947 
1073	 0,139065301120809 
1074	 0,141864239797576 
1075	 0,149066606705504 
