Wavelength	AVEN00031.asd
325	 0,167678574767957 
326	 0,257452596229054 
327	 0,25016078879528 
328	 8,73270709319692E-02 
329	 0,191415688057393 
330	 0,300278297390835 
331	 0,234773771739239 
332	 0,199575033200531 
333	 0,197756587433204 
334	 0,147122784508174 
335	 0,159468639533979 
336	 0,225494524488097 
337	 0,191308991985253 
338	 0,163058135456089 
339	 0,230636254501801 
340	 0,198883487158973 
341	 0,127014332488397 
342	 0,202949751237823 
343	 0,252073192716784 
344	 0,239893823340111 
345	 0,234139069277099 
346	 0,2259847242604 
347	 0,205801064905628 
348	 0,205673684581377 
349	 0,216955146578075 
350	 0,202864184254156 
351	 0,195978459833491 
352	 0,207700201412437 
353	 0,222778821296607 
354	 0,237293746826108 
355	 0,248526598926219 
356	 0,239005941452877 
357	 0,215814090548845 
358	 0,206842677943219 
359	 0,214381598587334 
360	 0,23441568787482 
361	 0,218835620206644 
362	 0,201154138157333 
363	 0,232487160094021 
364	 0,248518743494766 
365	 0,243285580483808 
366	 0,261074581236598 
367	 0,262847222761867 
368	 0,228432281887752 
369	 0,202352084154016 
370	 0,196832292425188 
371	 0,225964541321454 
372	 0,245460866091186 
373	 0,242307888068551 
374	 0,226005694779322 
375	 0,217469257460846 
376	 0,229488240462396 
377	 0,228607616168176 
378	 0,220766450400147 
379	 0,231754106336073 
380	 0,241478653627885 
381	 0,241681511091773 
382	 0,227003184230711 
383	 0,208509992605184 
384	 0,199173627322451 
385	 0,208314355085297 
386	 0,227727553916627 
387	 0,232858279264128 
388	 0,238801598560662 
389	 0,250438804592359 
390	 0,266118925498392 
391	 0,27062566944321 
392	 0,247900318158342 
393	 0,233878762772715 
394	 0,233742118625289 
395	 0,23281601072939 
396	 0,236334111705016 
397	 0,244240170921433 
398	 0,238929674341615 
399	 0,229905596637114 
400	 0,234131615191137 
401	 0,237126537681883 
402	 0,237037483392804 
403	 0,240194699829126 
404	 0,24505960549149 
405	 0,249935335702743 
406	 0,249451510724513 
407	 0,245957964432439 
408	 0,245306505939128 
409	 0,24493225488222 
410	 0,243438394290286 
411	 0,23663040706054 
412	 0,233081330952262 
413	 0,240191557821475 
414	 0,246367726277391 
415	 0,248562941009043 
416	 0,244878977942492 
417	 0,243153757267721 
418	 0,24586896430355 
419	 0,247007102909752 
420	 0,244703701800975 
421	 0,237311567408392 
422	 0,237917994412894 
423	 0,244962982220425 
424	 0,24286992907018 
425	 0,239656313660803 
426	 0,240329283638614 
427	 0,243366968115045 
428	 0,246049940470499 
429	 0,243891964752875 
430	 0,241929909415957 
431	 0,241310630455841 
432	 0,239396541158023 
433	 0,240030049753034 
434	 0,245994868709595 
435	 0,246754567221678 
436	 0,243154355352839 
437	 0,242581058450967 
438	 0,241179144898212 
439	 0,238687111847669 
440	 0,241710607373404 
441	 0,246568510435138 
442	 0,24800821964964 
443	 0,247718550853876 
444	 0,246936738955823 
445	 0,248761624251376 
446	 0,249493849865128 
447	 0,247237582370083 
448	 0,246563872725304 
449	 0,247614385120263 
450	 0,249436999108956 
451	 0,251619743125583 
452	 0,253031761256693 
453	 0,24961748428002 
454	 0,247378217409117 
455	 0,251545610393015 
456	 0,252295674489515 
457	 0,250392793014579 
458	 0,253385127108412 
459	 0,254704571045459 
460	 0,252313376982056 
461	 0,251694455941301 
462	 0,252301155293117 
463	 0,252673244563998 
464	 0,252835003821155 
465	 0,253221224751735 
466	 0,255869890356184 
467	 0,256692645465842 
468	 0,253775292410143 
469	 0,255780795966914 
470	 0,259866760218047 
471	 0,257959717755881 
472	 0,256261152983732 
473	 0,256335274275382 
474	 0,255574690295538 
475	 0,255217078011405 
476	 0,256478378058229 
477	 0,25693021058314 
478	 0,25632455640568 
479	 0,255482059182652 
480	 0,254433136975295 
481	 0,253578800053089 
482	 0,255315934137652 
483	 0,257177978977672 
484	 0,255203197135631 
485	 0,254664075329109 
486	 0,255774947315762 
487	 0,253550598752138 
488	 0,25170059058833 
489	 0,252997105445877 
490	 0,255531499784701 
491	 0,257347199859622 
492	 0,254832865016379 
493	 0,252448630879612 
494	 0,251973964030343 
495	 0,253153602986092 
496	 0,254639927385843 
497	 0,254949682994157 
498	 0,254126950010676 
499	 0,252978853173933 
500	 0,253886710587954 
501	 0,254826045183346 
502	 0,254727497117695 
503	 0,254680529938518 
504	 0,255540746777272 
505	 0,258784934042964 
506	 0,259804851080282 
507	 0,258030219924032 
508	 0,257426542235747 
509	 0,258572974690215 
510	 0,261582215427151 
511	 0,262404698958576 
512	 0,261563213698176 
513	 0,262734495617835 
514	 0,263149303386838 
515	 0,26219050065267 
516	 0,263866781862686 
517	 0,265947480328656 
518	 0,264878713549914 
519	 0,264064821403868 
520	 0,264338796247391 
521	 0,265405613198694 
522	 0,265939781793706 
523	 0,265091052447787 
524	 0,264471092836554 
525	 0,264468281398573 
526	 0,265430280467423 
527	 0,265998936501627 
528	 0,265566606957823 
529	 0,263849450949659 
530	 0,262439646603264 
531	 0,263089091869303 
532	 0,264451915230067 
533	 0,265710712996471 
534	 0,265496626310741 
535	 0,265399679116179 
536	 0,266148435869189 
537	 0,265301061252529 
538	 0,263999178335093 
539	 0,264950321305889 
540	 0,265449999185753 
541	 0,264944492886975 
542	 0,264967994513629 
543	 0,265284417005815 
544	 0,265571361111259 
545	 0,265385137456341 
546	 0,265112920475693 
547	 0,266100577099206 
548	 0,267143112013876 
549	 0,26761765947017 
550	 0,267807165263936 
551	 0,26771166297596 
552	 0,267254819264405 
553	 0,267334545841203 
554	 0,267863121402908 
555	 0,267368994224827 
556	 0,266585943593632 
557	 0,266206402795229 
558	 0,266643650968246 
559	 0,267173172528454 
560	 0,265756308839199 
561	 0,264442388698695 
562	 0,264025352123037 
563	 0,263686705520202 
564	 0,263633770662598 
565	 0,264222407058187 
566	 0,264262273085557 
567	 0,263788059091239 
568	 0,264073560792775 
569	 0,264598900424069 
570	 0,265038080045357 
571	 0,265877557848521 
572	 0,267179427571733 
573	 0,268962411926164 
574	 0,270728284747579 
575	 0,272229110835567 
576	 0,273365587492416 
577	 0,274618222014232 
578	 0,276509858358774 
579	 0,278101377939446 
580	 0,279246455415749 
581	 0,280177258781696 
582	 0,281409882583926 
583	 0,283116676113002 
584	 0,284020318469794 
585	 0,284661414507386 
586	 0,286284865234518 
587	 0,287933401916725 
588	 0,289140053229741 
589	 0,289262083325939 
590	 0,289305229927821 
591	 0,290200777243133 
592	 0,290924375348407 
593	 0,29152363952943 
594	 0,292745530482107 
595	 0,293710566848758 
596	 0,29399067691873 
597	 0,293779840036294 
598	 0,293459666974546 
599	 0,293562724091932 
600	 0,293138339399189 
601	 0,29234415568801 
602	 0,292891774919264 
603	 0,293244463997354 
604	 0,292214380253921 
605	 0,290932407331583 
606	 0,289965167181916 
607	 0,290224868496521 
608	 0,290205953223363 
609	 0,289405103067525 
610	 0,288729371570898 
611	 0,288027813558142 
612	 0,287026540299887 
613	 0,286291863353687 
614	 0,285909742356636 
615	 0,285686981918348 
616	 0,285311590342719 
617	 0,284656448603212 
618	 0,284591162325627 
619	 0,284765419851923 
620	 0,284222979146518 
621	 0,283875102625797 
622	 0,283921330815304 
623	 0,283733206611978 
624	 0,283786707323066 
625	 0,284540886139008 
626	 0,28421538408036 
627	 0,283230948166483 
628	 0,283941764606717 
629	 0,28477640895992 
630	 0,284997083484633 
631	 0,285430801253268 
632	 0,286029514315354 
633	 0,286569230864576 
634	 0,28722992724775 
635	 0,288034918367403 
636	 0,288892956135605 
637	 0,289708467697967 
638	 0,290455760501129 
639	 0,292004537347612 
640	 0,293806845948002 
641	 0,294056893020979 
642	 0,294512608854503 
643	 0,295720552366216 
644	 0,296440114071393 
645	 0,296717075365348 
646	 0,296760933010266 
647	 0,296841858577575 
648	 0,296899448762219 
649	 0,296494886632838 
650	 0,295632926996063 
651	 0,29438232126982 
652	 0,29325734039658 
653	 0,292331336812268 
654	 0,291606980220701 
655	 0,290550593141898 
656	 0,289003166664383 
657	 0,287284053948107 
658	 0,285562769098223 
659	 0,283970704117194 
660	 0,28194889887841 
661	 0,279699424822608 
662	 0,27811456825966 
663	 0,276613614007622 
664	 0,274924257865589 
665	 0,273210573947723 
666	 0,271845707370689 
667	 0,271384929208677 
668	 0,270718136797066 
669	 0,269646918553166 
670	 0,268811186840903 
671	 0,268151286444324 
672	 0,267593457724524 
673	 0,266874650795409 
674	 0,266309011001951 
675	 0,266804137441724 
676	 0,26723639630738 
677	 0,267179748660166 
678	 0,266888385939733 
679	 0,266721439372534 
680	 0,267072640585558 
681	 0,267654708732093 
682	 0,268412633705054 
683	 0,269306576183108 
684	 0,270751151879488 
685	 0,272887904871406 
686	 0,274646328286377 
687	 0,276570028927343 
688	 0,27986114029187 
689	 0,283473699462661 
690	 0,287301654792195 
691	 0,2921246207408 
692	 0,29783143021623 
693	 0,304273220059628 
694	 0,31086827777731 
695	 0,317860761870807 
696	 0,32622896704268 
697	 0,33492819938485 
698	 0,343639022960741 
699	 0,35331449231374 
700	 0,363234651519906 
701	 0,372443641212377 
702	 0,382104662903358 
703	 0,392006948597843 
704	 0,400620541129317 
705	 0,408853238535521 
706	 0,417254219424619 
707	 0,425073358089852 
708	 0,432342093101391 
709	 0,43931786126121 
710	 0,445762783826029 
711	 0,451741701416322 
712	 0,457837249506023 
713	 0,463351718578767 
714	 0,46768306303373 
715	 0,472093285542122 
716	 0,476596196365377 
717	 0,480577218091646 
718	 0,484065649554933 
719	 0,487096228809826 
720	 0,489865687914398 
721	 0,492522832601554 
722	 0,495233259701759 
723	 0,497574491763614 
724	 0,499521620670809 
725	 0,501396004210762 
726	 0,502962415528397 
727	 0,504164596686115 
728	 0,505791137259276 
729	 0,50752642006012 
730	 0,508618764231149 
731	 0,509468505647508 
732	 0,510240254990084 
733	 0,51108976327819 
734	 0,511927751070765 
735	 0,512670134363009 
736	 0,51337938595857 
737	 0,514068097087682 
738	 0,51475796152532 
739	 0,515354565740349 
740	 0,515804332127097 
741	 0,516073031416871 
742	 0,516232821127059 
743	 0,516376028486017 
744	 0,516842190890024 
745	 0,517542430573077 
746	 0,517981952699708 
747	 0,518246097952001 
748	 0,518366981820034 
749	 0,518269747710286 
750	 0,518237800961689 
751	 0,518698552804696 
752	 0,519210035325181 
753	 0,519543564002131 
754	 0,519398395389155 
755	 0,519186589138314 
756	 0,519222345733779 
757	 0,519382055342333 
758	 0,519612473633613 
759	 0,519852807486502 
760	 0,520027528579446 
761	 0,520099800966976 
762	 0,520060643626091 
763	 0,520035893463421 
764	 0,520143896706081 
765	 0,520335623653294 
766	 0,520568125477731 
767	 0,520781724677753 
768	 0,52090878136216 
769	 0,520913718820089 
770	 0,52080931943201 
771	 0,520665622731444 
772	 0,520567131821027 
773	 0,520860447178576 
774	 0,521359499176153 
775	 0,521298282866461 
776	 0,52102034640968 
777	 0,52077014235783 
778	 0,520876810807613 
779	 0,52125196466666 
780	 0,521707606784713 
781	 0,521897750660649 
782	 0,521780483371485 
783	 0,521664706729059 
784	 0,52136250914952 
785	 0,52086503476532 
786	 0,52113695014576 
787	 0,521711483736196 
788	 0,521505089977786 
789	 0,521523136655142 
790	 0,521891480267498 
791	 0,521894419292722 
792	 0,521653240478976 
793	 0,521328525590613 
794	 0,52135630640101 
795	 0,521634041442726 
796	 0,521782876907518 
797	 0,521826855566943 
798	 0,521776839217054 
799	 0,52172147438642 
800	 0,521728473440474 
801	 0,521842125605305 
802	 0,521849114566287 
803	 0,521756228727314 
804	 0,521667348976771 
805	 0,521711977554295 
806	 0,521877905293751 
807	 0,521748224992685 
808	 0,521692239198631 
809	 0,522104367018569 
810	 0,522265207249677 
811	 0,522176944044305 
812	 0,522302125130319 
813	 0,522330896425812 
814	 0,522218402997724 
815	 0,522466501379086 
816	 0,522778234078294 
817	 0,522762358581106 
818	 0,522724759774613 
819	 0,522808279352613 
820	 0,523289637790747 
821	 0,523427096905756 
822	 0,522972025706037 
823	 0,522825210317574 
824	 0,522947148534658 
825	 0,523160459031499 
826	 0,523629287912707 
827	 0,524104700970275 
828	 0,523754201215451 
829	 0,523310403048738 
830	 0,523258789938855 
831	 0,524060873308524 
832	 0,524724375667627 
833	 0,523872269217987 
834	 0,523486120281083 
835	 0,523719919203818 
836	 0,523271705724059 
837	 0,523116974911494 
838	 0,523640530138742 
839	 0,523638353759409 
840	 0,523388845960213 
841	 0,523472749175995 
842	 0,523590908739007 
843	 0,523714198991916 
844	 0,524029412695546 
845	 0,524021340444214 
846	 0,52357749453879 
847	 0,524116840468843 
848	 0,524718283320009 
849	 0,523891679533631 
850	 0,523303512086265 
851	 0,523358106314776 
852	 0,523957922016436 
853	 0,524192024199766 
854	 0,523644267945763 
855	 0,523284319098131 
856	 0,523233475655352 
857	 0,52348833323484 
858	 0,523390835929322 
859	 0,523111797652758 
860	 0,523957900261225 
861	 0,523832985973284 
862	 0,522151932327687 
863	 0,522753887882822 
864	 0,524194623731931 
865	 0,524091960045354 
866	 0,523752496917173 
867	 0,523592552934957 
868	 0,524026703288265 
869	 0,524241944862267 
870	 0,523980983619041 
871	 0,524328172292132 
872	 0,524722122422132 
873	 0,524405915061798 
874	 0,5244004028664 
875	 0,524788024879156 
876	 0,525169593747144 
877	 0,525354612763699 
878	 0,525267727866737 
879	 0,525101365258273 
880	 0,525073261024843 
881	 0,525362577918854 
882	 0,525253592165665 
883	 0,52493016660646 
884	 0,525291434901858 
885	 0,525542398685924 
886	 0,525443248835354 
887	 0,525351824459515 
888	 0,525304039015903 
889	 0,525321720197559 
890	 0,525466107529337 
891	 0,525602335253819 
892	 0,525413426263127 
893	 0,525299412133765 
894	 0,525337338477648 
895	 0,52520429642905 
896	 0,525190204015667 
897	 0,525455231359071 
898	 0,52516462097372 
899	 0,524791025560776 
900	 0,525418189882371 
901	 0,525573078426365 
902	 0,525113946555864 
903	 0,525125061794932 
904	 0,52557692287437 
905	 0,526251253383161 
906	 0,525701369331058 
907	 0,524843106586752 
908	 0,525203802946747 
909	 0,526212133698376 
910	 0,527081645462977 
911	 0,525735278568306 
912	 0,524989482670378 
913	 0,525837054048568 
914	 0,525311709939451 
915	 0,524794194723266 
916	 0,525974282348693 
917	 0,526689505554611 
918	 0,526630028616753 
919	 0,526160872525876 
920	 0,5258141286914 
921	 0,52583719483417 
922	 0,526266571548571 
923	 0,526266854316479 
924	 0,525260169691418 
925	 0,524759909225441 
926	 0,524495693455211 
927	 0,523483525523272 
928	 0,523234579211197 
929	 0,52385627408597 
930	 0,524074690270152 
931	 0,524362522011914 
932	 0,524805816825023 
933	 0,524117737274252 
934	 0,523202215695549 
935	 0,523347298853582 
936	 0,523534752682458 
937	 0,523239631622133 
938	 0,521371328055893 
939	 0,52117332894621 
940	 0,523141210026098 
941	 0,522736207509032 
942	 0,521781975311872 
943	 0,52194645380064 
944	 0,520658396803526 
945	 0,518877208476429 
946	 0,519092475352285 
947	 0,519183849633912 
948	 0,518734004240383 
949	 0,518662971007269 
950	 0,518031985893484 
951	 0,516586974077862 
952	 0,516316559225659 
953	 0,516431285873962 
954	 0,515729491250011 
955	 0,514258722199014 
956	 0,512689342900022 
957	 0,512761347760521 
958	 0,512611933878997 
959	 0,511784402259345 
960	 0,511315192788438 
961	 0,511329256257604 
962	 0,511811371607685 
963	 0,51220770420415 
964	 0,51199144979847 
965	 0,510557013622469 
966	 0,509836868666535 
967	 0,510074530866502 
968	 0,510331590621167 
969	 0,510414363357318 
970	 0,510336912851016 
971	 0,511156860076866 
972	 0,510955068380304 
973	 0,508279378821784 
974	 0,50723909015285 
975	 0,507784454054639 
976	 0,508511929069738 
977	 0,508631875599538 
978	 0,50810958502065 
979	 0,507699311357072 
980	 0,50865976771941 
981	 0,511012135867095 
982	 0,511156964042373 
983	 0,509874102452541 
984	 0,508451802127224 
985	 0,508595459257368 
986	 0,509860944461024 
987	 0,510724637108995 
988	 0,510331265567296 
989	 0,509355116928072 
990	 0,511527687234114 
991	 0,512569437940303 
992	 0,510858735287576 
993	 0,511250318877153 
994	 0,512224081245298 
995	 0,511927084560373 
996	 0,512697198837943 
997	 0,513468448951077 
998	 0,511320590814202 
999	 0,512374202194022 
1000	 0,51623777159666 
1001	 0,514915322845223 
1002	 0,513637918837751 
1003	 0,51480008006185 
1004	 0,515721815052443 
1005	 0,516361750941833 
1006	 0,516922528108369 
1007	 0,518686934981132 
1008	 0,519453778934137 
1009	 0,514972713018522 
1010	 0,514536414659759 
1011	 0,518586128604491 
1012	 0,519892615988312 
1013	 0,521072348830598 
1014	 0,522442914933068 
1015	 0,520468404690585 
1016	 0,518763283213699 
1017	 0,520263161914981 
1018	 0,521406788098565 
1019	 0,521344885231163 
1020	 0,519710939873033 
1021	 0,519926581941608 
1022	 0,521450916687281 
1023	 0,52029128932213 
1024	 0,519424496719481 
1025	 0,519546875974448 
1026	 0,518627910815116 
1027	 0,519999974247112 
1028	 0,524773980363608 
1029	 0,524789497712973 
1030	 0,524114513239293 
1031	 0,527907500018017 
1032	 0,525139563579733 
1033	 0,519423462151507 
1034	 0,521993683185749 
1035	 0,524265727314704 
1036	 0,524024431377675 
1037	 0,522162876028165 
1038	 0,522416183339283 
1039	 0,525936987591853 
1040	 0,529102207657897 
1041	 0,528849138004921 
1042	 0,523710457231183 
1043	 0,520608977088126 
1044	 0,52128575712262 
1045	 0,526221238035136 
1046	 0,525086556399821 
1047	 0,519737399233025 
1048	 0,520162604560409 
1049	 0,519953521124192 
1050	 0,518552277959697 
1051	 0,521235670833829 
1052	 0,521945682289294 
1053	 0,51917084832876 
1054	 0,522821998059111 
1055	 0,52731823672316 
1056	 0,527599584275464 
1057	 0,52771666859643 
1058	 0,524445610028629 
1059	 0,513799513590714 
1060	 0,515075828261087 
1061	 0,52359797833868 
1062	 0,518653005926979 
1063	 0,520311215641459 
1064	 0,52873220832575 
1065	 0,523517841135881 
1066	 0,515418645025231 
1067	 0,513332608665002 
1068	 0,532813159161749 
1069	 0,541727321973156 
1070	 0,520179104047492 
1071	 0,513191205081925 
1072	 0,515682402449772 
1073	 0,516097580347362 
1074	 0,52489859551042 
1075	 0,531126091004642 
