Wavelength	AVEN00273.asd
325	 0,307945244759168 
326	 0,297489862547083 
327	 0,266593137906291 
328	 0,224888291885559 
329	 0,231343518304068 
330	 0,212076883476984 
331	 0,116713557675941 
332	 0,136064227936738 
333	 0,216825594250967 
334	 0,173885856286288 
335	 0,16986594988894 
336	 0,224840732022116 
337	 0,240533506715276 
338	 0,197571710854502 
339	 8,53215571943063E-02 
340	 4,27491185000468E-02 
341	 7,75170963271065E-02 
342	 0,145164273519968 
343	 0,200356048314404 
344	 0,222604418415321 
345	 0,206045270432258 
346	 0,156002256380736 
347	 8,82263209541138E-02 
348	 0,097147541888962 
349	 0,151773826377277 
350	 0,131870771160998 
351	 0,133093216631698 
352	 0,175721196746807 
353	 0,160980282757677 
354	 0,135532884237429 
355	 0,156046843710055 
356	 0,161195291184184 
357	 0,144340058047927 
358	 0,125894871306176 
359	 0,114969091726418 
360	 0,116359883042482 
361	 0,13864345193776 
362	 0,142859398926345 
363	 7,67098865383753E-02 
364	 7,33380565869739E-02 
365	 0,133582498529612 
366	 0,155164896748069 
367	 0,153711817087771 
368	 0,139102825327697 
369	 0,126580411703806 
370	 0,120122871067393 
371	 0,122789738925254 
372	 0,129554406576847 
373	 0,135521400631989 
374	 0,130879209878377 
375	 0,122442165921189 
376	 0,117130332802247 
377	 0,128969522855171 
378	 0,145736677197679 
379	 0,13116758409994 
380	 0,132748408414071 
381	 0,154979690024274 
382	 0,152125295131797 
383	 0,13554025372862 
384	 0,119605538938539 
385	 0,11570911716266 
386	 0,119234657211202 
387	 0,108136314514314 
388	 0,116283929557902 
389	 0,148514777983274 
390	 0,161279035995256 
391	 0,156420177170286 
392	 0,140187572355083 
393	 0,136473760729993 
394	 0,143186157164661 
395	 0,132194315239955 
396	 0,129923450092523 
397	 0,14525132984289 
398	 0,140452868388841 
399	 0,126648409235958 
400	 0,126626358196684 
401	 0,127892517782489 
402	 0,12816012980946 
403	 0,129971962220053 
404	 0,132143774691396 
405	 0,134000822932382 
406	 0,137850987119862 
407	 0,141119113161654 
408	 0,13808907086383 
409	 0,138464175946083 
410	 0,142597117163992 
411	 0,137146572636848 
412	 0,131801476789992 
413	 0,135606811745312 
414	 0,136830489131779 
415	 0,135261850093108 
416	 0,13630773886003 
417	 0,135282201902668 
418	 0,131889899183 
419	 0,136092477322625 
420	 0,141051604327989 
421	 0,137403893138323 
422	 0,135304193812392 
423	 0,135477329081423 
424	 0,132064399533933 
425	 0,128650360021119 
426	 0,127484828657124 
427	 0,126824547610683 
428	 0,128059338262111 
429	 0,135043812994064 
430	 0,132829353633772 
431	 0,12190475757076 
432	 0,124453913681891 
433	 0,130365995195638 
434	 0,13019291432064 
435	 0,131138665518973 
436	 0,132619847344584 
437	 0,130001234084789 
438	 0,127807100435287 
439	 0,128010251065684 
440	 0,130378289886428 
441	 0,132131330671975 
442	 0,129924136417804 
443	 0,127550611793766 
444	 0,126915084337349 
445	 0,131484321257415 
446	 0,133146426390478 
447	 0,127698485668165 
448	 0,125546234803499 
449	 0,126913281502926 
450	 0,129513009884629 
451	 0,131311626863623 
452	 0,131593415228417 
453	 0,131378371639699 
454	 0,131028680433795 
455	 0,13093183127325 
456	 0,132541580395359 
457	 0,134830560770824 
458	 0,134604863787449 
459	 0,133345377900302 
460	 0,131897746413542 
461	 0,131220845607919 
462	 0,131589002405088 
463	 0,133155288487666 
464	 0,13505484389661 
465	 0,136329044031239 
466	 0,13458064347337 
467	 0,133791372081154 
468	 0,1361487236404 
469	 0,135861743579955 
470	 0,134499095363991 
471	 0,137078917892151 
472	 0,137610216669606 
473	 0,135001913308183 
474	 0,133718895628334 
475	 0,133401554731837 
476	 0,133489978891687 
477	 0,13565165752544 
478	 0,138723392999391 
479	 0,139104903827769 
480	 0,137711787450355 
481	 0,135269393355864 
482	 0,133501475308101 
483	 0,133135001377202 
484	 0,134861390172078 
485	 0,135673462814482 
486	 0,135071984185187 
487	 0,134718895074672 
488	 0,134784117031145 
489	 0,135318314879287 
490	 0,135681745784311 
491	 0,135496108874565 
492	 0,134112454308568 
493	 0,132868350312452 
494	 0,132567488265583 
495	 0,134281013160612 
496	 0,136288745569585 
497	 0,136608938757767 
498	 0,136369431055709 
499	 0,135733958898307 
500	 0,134219595064119 
501	 0,133260514484434 
502	 0,133842177282864 
503	 0,136805016206768 
504	 0,139489677637492 
505	 0,137155085166753 
506	 0,136183692893792 
507	 0,137933471145768 
508	 0,139042477303474 
509	 0,140072352848012 
510	 0,141574462758027 
511	 0,14208346680192 
512	 0,141942707698859 
513	 0,142821510711241 
514	 0,143254860677368 
515	 0,14282451341455 
516	 0,143049762769129 
517	 0,143739519529249 
518	 0,144444956675048 
519	 0,144408948181428 
520	 0,143881310651303 
521	 0,144622568803543 
522	 0,145222428555308 
523	 0,144736082538683 
524	 0,144763287249955 
525	 0,145050514317463 
526	 0,144364951301202 
527	 0,144203004238293 
528	 0,144682659716009 
529	 0,143531511522024 
530	 0,141995287312142 
531	 0,141649771203466 
532	 0,142575810692309 
533	 0,144252847560558 
534	 0,145130175703597 
535	 0,145678644261155 
536	 0,146057573072126 
537	 0,14529830219303 
538	 0,144267759183872 
539	 0,144767010383199 
540	 0,144914412503212 
541	 0,144352425933935 
542	 0,144312488276454 
543	 0,144309141211174 
544	 0,143858969827926 
545	 0,144108766655983 
546	 0,144866449517588 
547	 0,144927001889357 
548	 0,145148427989045 
549	 0,145848953599667 
550	 0,146363264248373 
551	 0,146391483227543 
552	 0,145552268571377 
553	 0,145553181869235 
554	 0,146225964163942 
555	 0,144584941809368 
556	 0,14336556064026 
557	 0,144675893632351 
558	 0,144306708608544 
559	 0,142766464068969 
560	 0,143376600835703 
561	 0,14346758004941 
562	 0,142252988583142 
563	 0,141776184684402 
564	 0,141484362323832 
565	 0,140398088978662 
566	 0,140469155370894 
567	 0,14158894294804 
568	 0,141556774681967 
569	 0,141456023423999 
570	 0,14207490664171 
571	 0,143163828248114 
572	 0,144723654082487 
573	 0,146994815832442 
574	 0,148391083359721 
575	 0,14859322761921 
576	 0,149400027746723 
577	 0,150484555050677 
578	 0,151335254659847 
579	 0,152427015298418 
580	 0,153631779172427 
581	 0,154156782212317 
582	 0,155126443388227 
583	 0,157053991258319 
584	 0,158568531955811 
585	 0,159663805950703 
586	 0,160628928134206 
587	 0,162088134170773 
588	 0,163840337550365 
589	 0,164009871872198 
590	 0,164123873308548 
591	 0,165580549691364 
592	 0,166006395181807 
593	 0,165688126049577 
594	 0,166791958670307 
595	 0,167349942697445 
596	 0,166708869531012 
597	 0,16704970521128 
598	 0,167573258891945 
599	 0,166730969066809 
600	 0,166320950997648 
601	 0,16662750121928 
602	 0,16680456746706 
603	 0,166358678565814 
604	 0,164995888202277 
605	 0,163833744578844 
606	 0,16317372963051 
607	 0,163170459971754 
608	 0,163367164369902 
609	 0,163428650878483 
610	 0,162814702411246 
611	 0,161941813848108 
612	 0,16137964934261 
613	 0,161202477388922 
614	 0,16113668376543 
615	 0,160192723703606 
616	 0,159162363457214 
617	 0,158581928163525 
618	 0,158204587579863 
619	 0,158224728168711 
620	 0,159187099726181 
621	 0,159479099930238 
622	 0,15872418258128 
623	 0,157988051058565 
624	 0,157821421055929 
625	 0,158657685920704 
626	 0,158858017094662 
627	 0,158465572147303 
628	 0,158709585707631 
629	 0,159095064300616 
630	 0,159463883649844 
631	 0,160549756336451 
632	 0,161541451310082 
633	 0,160994722943843 
634	 0,161024992001147 
635	 0,162060468657965 
636	 0,163031734760439 
637	 0,163881100115207 
638	 0,164615528545428 
639	 0,165802213996779 
640	 0,16721901272025 
641	 0,168081739004085 
642	 0,168785183519737 
643	 0,169429341443729 
644	 0,169738633569386 
645	 0,16986005761011 
646	 0,170007509248011 
647	 0,170208433952035 
648	 0,170309789611894 
649	 0,169801744542043 
650	 0,169011189592794 
651	 0,168169796133824 
652	 0,167124083493902 
653	 0,166192955170986 
654	 0,166173454035656 
655	 0,165137177243199 
656	 0,162829880021811 
657	 0,161489580132857 
658	 0,160604931370198 
659	 0,159471138426695 
660	 0,15748716755278 
661	 0,155033484099377 
662	 0,153626236911897 
663	 0,152133089505082 
664	 0,150121609081172 
665	 0,148703598027358 
666	 0,147759806333929 
667	 0,146886864754237 
668	 0,146386236374713 
669	 0,14614745641615 
670	 0,145553788544673 
671	 0,144792369123447 
672	 0,144069488005359 
673	 0,143759150093578 
674	 0,143834136898965 
675	 0,144133642583759 
676	 0,144150282343736 
677	 0,143727919180516 
678	 0,143230419820604 
679	 0,143145183015019 
680	 0,143985235061672 
681	 0,14506727814972 
682	 0,146021644109728 
683	 0,146188863903986 
684	 0,146981184837799 
685	 0,149105857353567 
686	 0,150800358861955 
687	 0,152485300063857 
688	 0,155329129792324 
689	 0,158348131774083 
690	 0,161478742142389 
691	 0,165515981504606 
692	 0,170641644769794 
693	 0,17689699721067 
694	 0,182583081086006 
695	 0,188219453447909 
696	 0,196082956967875 
697	 0,204116294812898 
698	 0,211713737617281 
699	 0,220694747406011 
700	 0,230154423234667 
701	 0,238795116408622 
702	 0,24792713768614 
703	 0,257414612407665 
704	 0,265829646443944 
705	 0,274080179886364 
706	 0,282720579701717 
707	 0,291123598185289 
708	 0,298938960367003 
709	 0,305688788472023 
710	 0,312121862215839 
711	 0,318526273406968 
712	 0,324887709676143 
713	 0,330830864174486 
714	 0,336013938912896 
715	 0,340616842849031 
716	 0,344968377957087 
717	 0,34986393078662 
718	 0,354107953521258 
719	 0,357331222749537 
720	 0,360664883888587 
721	 0,363791352561394 
722	 0,366190326208592 
723	 0,368793216775708 
724	 0,371625162497703 
725	 0,374016047408483 
726	 0,375923105679367 
727	 0,377384065155183 
728	 0,379019712959387 
729	 0,380727433666736 
730	 0,382141737484517 
731	 0,383465450835813 
732	 0,384713011929839 
733	 0,385661449027129 
734	 0,386692486841305 
735	 0,388094738290948 
736	 0,389136414271612 
737	 0,38978266318013 
738	 0,390291483206883 
739	 0,390729944019542 
740	 0,391213548782419 
741	 0,392023250477001 
742	 0,392988660340102 
743	 0,393876231007011 
744	 0,394322640867618 
745	 0,394429598433393 
746	 0,394765761664436 
747	 0,395224827380993 
748	 0,395707357141979 
749	 0,395858945539519 
750	 0,395899695349524 
751	 0,396225221320419 
752	 0,396701819783032 
753	 0,397178532686688 
754	 0,397245651875715 
755	 0,397265752913015 
756	 0,397492142257803 
757	 0,397552618159371 
758	 0,397699517994349 
759	 0,398598980810074 
760	 0,399171841253928 
761	 0,399109548580441 
762	 0,398795368030098 
763	 0,39878798209168 
764	 0,399531743360002 
765	 0,399869281421973 
766	 0,399841514748331 
767	 0,400181867064095 
768	 0,400523585171005 
769	 0,400740842445582 
770	 0,400951259432802 
771	 0,401052343397994 
772	 0,400928368445921 
773	 0,401163333963745 
774	 0,401685657418829 
775	 0,401885513679578 
776	 0,401844264267026 
777	 0,401667020257543 
778	 0,401774433897651 
779	 0,40218792056776 
780	 0,402866747895448 
781	 0,402996051670869 
782	 0,402633771837361 
783	 0,402860712258527 
784	 0,403172762753195 
785	 0,403259197533527 
786	 0,403453646775852 
787	 0,403740029712221 
788	 0,40403066117219 
789	 0,404092703588817 
790	 0,403987946179043 
791	 0,404381159785706 
792	 0,404450123438821 
793	 0,403649622735627 
794	 0,403549366702549 
795	 0,404080306890192 
796	 0,404548345951129 
797	 0,404719744617309 
798	 0,404574929110881 
799	 0,404634694405121 
800	 0,404773008689884 
801	 0,404852179748011 
802	 0,404977881130272 
803	 0,405200887844065 
804	 0,405618025055374 
805	 0,406017918066609 
806	 0,406267721955318 
807	 0,406189360511138 
808	 0,406075234554649 
809	 0,406243387949844 
810	 0,406487084245316 
811	 0,406649500736993 
812	 0,406360282355028 
813	 0,406358883524661 
814	 0,406937823101844 
815	 0,407703512489374 
816	 0,40838022215105 
817	 0,408694121988417 
818	 0,408602816362698 
819	 0,40832520740109 
820	 0,408472302327126 
821	 0,408833069464589 
822	 0,409216201310167 
823	 0,409066325198632 
824	 0,408788085319592 
825	 0,408968976123579 
826	 0,409483811933094 
827	 0,410064911976757 
828	 0,40998850712516 
829	 0,409810305192436 
830	 0,409874850581756 
831	 0,410336234826987 
832	 0,410915036627609 
833	 0,411210213303544 
834	 0,411374243397421 
835	 0,411408487972784 
836	 0,411156445536538 
837	 0,411177645891919 
838	 0,411686495438262 
839	 0,4118450850504 
840	 0,411750345816199 
841	 0,411678866914152 
842	 0,411801214765101 
843	 0,412118955322718 
844	 0,412481065154485 
845	 0,412624674137721 
846	 0,412475944296286 
847	 0,412695255713622 
848	 0,412944024367095 
849	 0,412648362428527 
850	 0,412464985881566 
851	 0,41257333925014 
852	 0,412964637968852 
853	 0,413416520302179 
854	 0,413690487458901 
855	 0,413182988233556 
856	 0,41253718980021 
857	 0,412696672631706 
858	 0,413126128311514 
859	 0,413545856252115 
860	 0,413574267515511 
861	 0,413256236834683 
862	 0,412785712541115 
863	 0,413167748850401 
864	 0,413932235979586 
865	 0,414321541709504 
866	 0,414382526029958 
867	 0,414354506010575 
868	 0,415015439891467 
869	 0,415456686049286 
870	 0,41535258179827 
871	 0,415570251073833 
872	 0,415998460043538 
873	 0,416408205442936 
874	 0,417091688980881 
875	 0,417752742743705 
876	 0,417373663656844 
877	 0,417148758836295 
878	 0,41749096935965 
879	 0,417480060016993 
880	 0,417593619941954 
881	 0,418351067081745 
882	 0,418453331651751 
883	 0,418043306978356 
884	 0,41812732899602 
885	 0,41870914331665 
886	 0,419569384475873 
887	 0,419499688948507 
888	 0,419141892868359 
889	 0,419165017440431 
890	 0,419215199725287 
891	 0,419290222446675 
892	 0,419509724488374 
893	 0,419576821182092 
894	 0,419527650330977 
895	 0,419977927597101 
896	 0,420508059154448 
897	 0,420725871810084 
898	 0,420356129900152 
899	 0,419929363453397 
900	 0,420487401759262 
901	 0,420282417844952 
902	 0,419451620276741 
903	 0,420478733194885 
904	 0,421455373946154 
905	 0,42122656447823 
906	 0,420789386708723 
907	 0,420662299299153 
908	 0,421378895698264 
909	 0,422204417747907 
910	 0,422624385345974 
911	 0,421596491869685 
912	 0,421288675346099 
913	 0,422392694087063 
914	 0,422144632543943 
915	 0,421765183002765 
916	 0,422761524045523 
917	 0,422899856384285 
918	 0,422338894163742 
919	 0,422610724042685 
920	 0,42312769040164 
921	 0,423555623534626 
922	 0,423237756646973 
923	 0,422850027063279 
924	 0,422904223745585 
925	 0,42226297363965 
926	 0,42149074902122 
927	 0,421909113504348 
928	 0,421899123541647 
929	 0,421372529711311 
930	 0,421814121071818 
931	 0,422206426891247 
932	 0,421921223783351 
933	 0,421087879307274 
934	 0,420372129911859 
935	 0,420569761723204 
936	 0,421123192500072 
937	 0,421661441265233 
938	 0,421642858268271 
939	 0,421142083698735 
940	 0,420374055516854 
941	 0,420281988586671 
942	 0,420242380090379 
943	 0,419623762498627 
944	 0,41834571614208 
945	 0,416851568148995 
946	 0,415914067591146 
947	 0,416226195429877 
948	 0,417299267835804 
949	 0,416707069782628 
950	 0,415570383372069 
951	 0,414594131981468 
952	 0,413794916840022 
953	 0,413010211154336 
954	 0,412013385067091 
955	 0,410355263404019 
956	 0,408825619604809 
957	 0,409810165735184 
958	 0,409832951823554 
959	 0,408147447745916 
960	 0,407326357785288 
961	 0,407232218890446 
962	 0,407664794611285 
963	 0,408684825043615 
964	 0,408884070709817 
965	 0,406244090167726 
966	 0,406239266861557 
967	 0,408567065257483 
968	 0,407711861273493 
969	 0,407071464212439 
970	 0,407780493462984 
971	 0,407938999667802 
972	 0,407946308156566 
973	 0,40816506760304 
974	 0,407376911021075 
975	 0,406144654903156 
976	 0,405761215546827 
977	 0,405963089961294 
978	 0,406508991254559 
979	 0,406606389418807 
980	 0,407711156767632 
981	 0,409908032556949 
982	 0,409475637504357 
983	 0,408186094274476 
984	 0,40813783691939 
985	 0,40843556068325 
986	 0,409156528305541 
987	 0,410736465724953 
988	 0,411262053606302 
989	 0,410441112770382 
990	 0,409365052926203 
991	 0,409232372780214 
992	 0,410448785868522 
993	 0,410990264935415 
994	 0,411656021173148 
995	 0,413439032581636 
996	 0,416418502062995 
997	 0,418434957514729 
998	 0,415422954451059 
999	 0,414215618723015 
1000	 0,415838664398834 
1001	 0,416012570581831 
1002	 0,416438302172055 
1003	 0,417627936465345 
1004	 0,417640742925481 
1005	 0,417683029582141 
1006	 0,419021659266285 
1007	 0,421234271238439 
1008	 0,422355331489116 
1009	 0,419066702125891 
1010	 0,41924656072891 
1011	 0,423486722985775 
1012	 0,426710968083313 
1013	 0,427707372547846 
1014	 0,425913943461308 
1015	 0,422407779050948 
1016	 0,421225186947288 
1017	 0,424986270184641 
1018	 0,426307607921143 
1019	 0,425175621354621 
1020	 0,423425799504678 
1021	 0,422815077033342 
1022	 0,423189405585767 
1023	 0,422097890855427 
1024	 0,42498730929128 
1025	 0,431301529593889 
1026	 0,429986637088789 
1027	 0,428617703291485 
1028	 0,43166375774504 
1029	 0,431963626498154 
1030	 0,431176479140014 
1031	 0,431982844960943 
1032	 0,432232175960829 
1033	 0,432427756504035 
1034	 0,434306365204341 
1035	 0,436387353415997 
1036	 0,437097922408906 
1037	 0,43294206489296 
1038	 0,428697827465721 
1039	 0,42736634208967 
1040	 0,429843803634698 
1041	 0,435513890530369 
1042	 0,442164506195726 
1043	 0,439030383181198 
1044	 0,430537371753935 
1045	 0,425687408913359 
1046	 0,431903828085351 
1047	 0,442878117764554 
1048	 0,440189340744435 
1049	 0,43478387140358 
1050	 0,432096610348275 
1051	 0,439681632417652 
1052	 0,440436348628386 
1053	 0,4302501259023 
1054	 0,439158631880043 
1055	 0,447785305961018 
1056	 0,439969763638078 
1057	 0,438183180180275 
1058	 0,43826468977833 
1059	 0,430774832654216 
1060	 0,433608306919476 
1061	 0,442049023313796 
1062	 0,43621309182223 
1063	 0,440645806544952 
1064	 0,454315088795861 
1065	 0,447259083033302 
1066	 0,438704224578379 
1067	 0,440154145140758 
1068	 0,458953052084779 
1069	 0,465043154382039 
1070	 0,441325052953127 
1071	 0,43829356242626 
1072	 0,445993122903454 
1073	 0,445777779382307 
1074	 0,438267746319947 
1075	 0,428503056175335 
