Wavelength	AVEN00085.asd
325	 0,252600936274724 
326	 4,66870083101754E-02 
327	-2,65952640391208E-02 
328	 0,112112931766813 
329	 0,151507873193969 
330	 9,42413847588854E-02 
331	-1,05604894019644E-02 
332	-1,47531087770132E-02 
333	 3,74009581721024E-02 
334	-2,26985865781667E-02 
335	-1,03540962637097E-02 
336	 7,84419449198634E-02 
337	 6,96302356196291E-02 
338	 2,29361921902019E-02 
339	-7,62819413479678E-03 
340	-5,16157337660452E-02 
341	-7,83021355127867E-02 
342	-0,033686350747351 
343	 5,12154507415103E-02 
344	 0,132436308922505 
345	 0,103022111761707 
346	 3,26124750122641E-02 
347	 5,33153014915281E-03 
348	-2,91692097918811E-02 
349	-5,24748957461499E-02 
350	 8,24662813102119E-03 
351	 5,40811547560434E-02 
352	 4,59129528592917E-02 
353	 3,38641493884512E-02 
354	 2,17219174400519E-02 
355	 8,84004998905687E-03 
356	 1,07484445609663E-02 
357	 2,38266958565837E-02 
358	 2,82668101307942E-02 
359	 2,70121422699513E-02 
360	 2,08227456299943E-02 
361	 8,71652674009602E-03 
362	-4,32363128877201E-03 
363	-1,57316140872444E-02 
364	 1,78317795625339E-02 
365	 0,071533184305866 
366	 4,74344108978333E-02 
367	 2,13129590976651E-02 
368	 3,76415351422164E-02 
369	 3,77824054920235E-02 
370	 0,021069008109391 
371	-1,14090692749039E-03 
372	-1,87844119877353E-02 
373	-2,39928533747873E-02 
374	-4,89602502546871E-03 
375	 1,87187305935334E-02 
376	 3,14036129750092E-02 
377	 4,50570599758729E-02 
378	 4,92632489665159E-02 
379	 1,14803902890425E-02 
380	-3,48130725740329E-04 
381	 2,19994574665869E-02 
382	 1,12648219823471E-02 
383	-7,06829160544335E-03 
384	-4,63527975081267E-03 
385	 3,14848212156758E-03 
386	 1,01573315781272E-02 
387	 7,35823522586039E-03 
388	 1,16042938819698E-02 
389	 2,58347615866038E-02 
390	 3,00382932183151E-02 
391	 2,56846812420123E-02 
392	 1,61620707223209E-02 
393	 9,4986545427157E-03 
394	 0,007893339766337 
395	 1,01878444772762E-02 
396	 1,11999418412503E-02 
397	 8,72942953775877E-03 
398	 7,87557262388883E-03 
399	 1,01052211947154E-02 
400	 0,016758864426575 
401	 2,05405481957015E-02 
402	 1,91367902805249E-02 
403	 1,04844195689234E-02 
404	 7,20127256839747E-03 
405	 1,61957043525967E-02 
406	 1,51185928795129E-02 
407	 9,9312816878048E-03 
408	 1,94416898413807E-02 
409	 2,31942655679534E-02 
410	 0,017057475100995 
411	 1,23365203826832E-02 
412	 8,72230161031065E-03 
413	 5,39834019704402E-03 
414	 3,52167580347652E-03 
415	 4,54054428029028E-03 
416	 1,25405470250398E-02 
417	 1,64769407242819E-02 
418	 1,34620220309061E-02 
419	 1,62863316935551E-02 
420	 1,97286539737749E-02 
421	 1,59595279753522E-02 
422	 1,46535421906134E-02 
423	 1,57994476216571E-02 
424	 1,13874718864218E-02 
425	 7,78124514050617E-03 
426	 8,72609648898451E-03 
427	 1,05109270846808E-02 
428	 0,012265277334703 
429	 1,39293836130328E-02 
430	 1,01775425520985E-02 
431	 3,20157586106738E-03 
432	 9,15601083436482E-03 
433	 0,017295852114429 
434	 1,77056604795691E-02 
435	 1,36649305695113E-02 
436	 9,12628944594182E-03 
437	 1,27960880566962E-02 
438	 1,49436845321813E-02 
439	 1,23826722819726E-02 
440	 1,12955117202352E-02 
441	 1,25417879765721E-02 
442	 1,64671535915638E-02 
443	 1,43399811915522E-02 
444	 8,06444979919679E-03 
445	 1,16184200513947E-02 
446	 1,43564651738376E-02 
447	 1,04084424853868E-02 
448	 9,99975916010937E-03 
449	 1,18269811865532E-02 
450	 1,06757710363997E-02 
451	 1,23712869418267E-02 
452	 1,64122781451784E-02 
453	 0,012409023531436 
454	 8,36321046268829E-03 
455	 1,17097028889669E-02 
456	 1,36717107756327E-02 
457	 1,34306076204887E-02 
458	 1,36967267878365E-02 
459	 1,25805329427535E-02 
460	 1,00552366905699E-02 
461	 1,04379578153965E-02 
462	 1,25043782481296E-02 
463	 1,40885853525006E-02 
464	 1,32972192383712E-02 
465	 1,10140441559261E-02 
466	 1,22832032825558E-02 
467	 0,013691523474598 
468	 1,31084585503287E-02 
469	 0,012800922123316 
470	 1,30674629800246E-02 
471	 1,39749036044453E-02 
472	 1,40248355270217E-02 
473	 1,28751739543404E-02 
474	 1,15779420153201E-02 
475	 1,05679726500649E-02 
476	 0,010211607435874 
477	 1,08071467927284E-02 
478	 1,20105676325055E-02 
479	 1,32384585006167E-02 
480	 1,20778630933973E-02 
481	 8,35769448611091E-03 
482	 9,32993520670787E-03 
483	 1,19766408700365E-02 
484	 1,06707885505766E-02 
485	 1,06345931826442E-02 
486	 1,19506918469608E-02 
487	 9,58655362103524E-03 
488	 7,43446631968317E-03 
489	 8,49741408355105E-03 
490	 1,17702494579581E-02 
491	 1,47814218205579E-02 
492	 1,24515609764956E-02 
493	 1,04335266226728E-02 
494	 1,05731565482463E-02 
495	 1,07360096733237E-02 
496	 1,11711544699014E-02 
497	 1,22884421194949E-02 
498	 1,21958715877652E-02 
499	 1,11844455430517E-02 
500	 1,15665142552392E-02 
501	 1,17384352696168E-02 
502	 1,09758151381406E-02 
503	 1,11109205935264E-02 
504	 1,17553965366929E-02 
505	 1,18901753512684E-02 
506	 1,16404440564478E-02 
507	 1,10904091564068E-02 
508	 1,02556574301404E-02 
509	 1,06112610667054E-02 
510	 1,32013511469303E-02 
511	 1,32760914228336E-02 
512	 1,13064332568397E-02 
513	 1,08603194019532E-02 
514	 1,08683946159953E-02 
515	 1,10530642391113E-02 
516	 1,23013570167023E-02 
517	 1,33186807413278E-02 
518	 1,22715085630322E-02 
519	 1,16803079231759E-02 
520	 1,18989537083903E-02 
521	 1,15807182716024E-02 
522	 0,011280034249038 
523	 0,011364393274389 
524	 1,10555751722675E-02 
525	 1,08031103409663E-02 
526	 1,20393000819632E-02 
527	 1,26037985153992E-02 
528	 1,18522556496723E-02 
529	 1,07751673114416E-02 
530	 1,00259809055429E-02 
531	 1,02170624095602E-02 
532	 1,10524519401136E-02 
533	 0,012044463171729 
534	 1,20894444751776E-02 
535	 1,18748129340752E-02 
536	 1,18091530263795E-02 
537	 1,15703306789116E-02 
538	 1,15677138728984E-02 
539	 1,27028597705377E-02 
540	 1,30188130251682E-02 
541	 1,21512095971733E-02 
542	 1,15702256511675E-02 
543	 1,12140950147947E-02 
544	 1,09487472420872E-02 
545	 1,07987902684925E-02 
546	 1,09306108647569E-02 
547	 1,18905041519287E-02 
548	 0,012572676773151 
549	 1,24920777621136E-02 
550	 1,26066546585265E-02 
551	 1,26990965902237E-02 
552	 1,22333249987197E-02 
553	 1,23524987648609E-02 
554	 1,28412024479557E-02 
555	 1,13705193130256E-02 
556	 1,01464532860035E-02 
557	 1,09580353347412E-02 
558	 1,16067531430163E-02 
559	 1,18332001386201E-02 
560	 1,21685982650201E-02 
561	 1,18357012957883E-02 
562	 1,07968823240431E-02 
563	 1,07808434698219E-02 
564	 1,10873785578667E-02 
565	 1,05792794067408E-02 
566	 1,08507355096411E-02 
567	 1,18352700201112E-02 
568	 1,19135407023113E-02 
569	 1,17644758563335E-02 
570	 1,18327189437208E-02 
571	 0,011450050130604 
572	 1,11522946852864E-02 
573	 1,23640849015913E-02 
574	 1,31737630869153E-02 
575	 1,29780342494165E-02 
576	 1,26061233394723E-02 
577	 1,23279669878671E-02 
578	 1,23781762230742E-02 
579	 1,26345626383236E-02 
580	 1,29884881664557E-02 
581	 1,32614370519992E-02 
582	 1,33250804445425E-02 
583	 1,31902428784059E-02 
584	 1,36014547464889E-02 
585	 1,41928312555814E-02 
586	 1,41091471478242E-02 
587	 1,45530348150956E-02 
588	 1,54630790712838E-02 
589	 0,014904635901484 
590	 1,42007269467524E-02 
591	 1,46078731263643E-02 
592	 1,46000953648098E-02 
593	 1,43109308165791E-02 
594	 1,49951921624434E-02 
595	 1,53127527366695E-02 
596	 1,48429384355473E-02 
597	 1,53221238903253E-02 
598	 1,59893497902466E-02 
599	 1,54474338832155E-02 
600	 1,49429226776917E-02 
601	 0,014867352834001 
602	 1,53160786717196E-02 
603	 1,56049232502924E-02 
604	 1,51961245033614E-02 
605	 1,43587734893052E-02 
606	 1,37024914643732E-02 
607	 1,47010055705285E-02 
608	 1,49746242021829E-02 
609	 1,38820523138186E-02 
610	 1,35421523784102E-02 
611	 1,35262616242976E-02 
612	 1,30840049857065E-02 
613	 1,33816585190695E-02 
614	 1,41187268633738E-02 
615	 1,34216552090371E-02 
616	 1,24576682124307E-02 
617	 1,20829635943868E-02 
618	 1,26976812004243E-02 
619	 1,37359503077496E-02 
620	 0,014049608069816 
621	 1,39020700750295E-02 
622	 0,013379765136123 
623	 1,24546352358544E-02 
624	 0,012215909410601 
625	 1,36562981846322E-02 
626	 1,36925161732214E-02 
627	 1,25416381645241E-02 
628	 1,28532756762466E-02 
629	 1,34601465852641E-02 
630	 1,37980924576656E-02 
631	 1,42327744715897E-02 
632	 1,44415169763001E-02 
633	 0,013829590121084 
634	 1,37712556542516E-02 
635	 1,44687641526301E-02 
636	 1,49773756004511E-02 
637	 1,49837776912604E-02 
638	 1,43295592533208E-02 
639	 1,42568120936443E-02 
640	 0,014691183387981 
641	 1,47273509988999E-02 
642	 1,52452625065856E-02 
643	 1,62942593492799E-02 
644	 1,60744223820164E-02 
645	 0,015482827714822 
646	 1,58864202502847E-02 
647	 1,61441275491099E-02 
648	 0,016089241221453 
649	 1,61696692930903E-02 
650	 1,61763969241143E-02 
651	 1,59784935942863E-02 
652	 1,56550309889313E-02 
653	 1,54625970600514E-02 
654	 1,59553821646138E-02 
655	 1,59147726370496E-02 
656	 0,015160706791933 
657	 1,50206066513397E-02 
658	 1,51296855803933E-02 
659	 1,50168399383678E-02 
660	 1,45573244489628E-02 
661	 0,013873927925027 
662	 1,33856181590439E-02 
663	 1,30243318423109E-02 
664	 1,28003326121982E-02 
665	 0,012920238609431 
666	 1,31673677952295E-02 
667	 1,31973433091841E-02 
668	 1,30108170312543E-02 
669	 1,26701664562401E-02 
670	 1,24325756608048E-02 
671	 1,22666958038656E-02 
672	 1,21557155310571E-02 
673	 1,22408458621822E-02 
674	 1,24993500108132E-02 
675	 1,28677271628094E-02 
676	 1,31371999122183E-02 
677	 1,31475402736158E-02 
678	 1,25485008168559E-02 
679	 1,20730864298782E-02 
680	 1,25985311702602E-02 
681	 1,32373073086303E-02 
682	 1,36460011272966E-02 
683	 1,35028724288776E-02 
684	 1,33178844956647E-02 
685	 1,34052864256037E-02 
686	 1,35217529571462E-02 
687	 1,38088264023471E-02 
688	 1,45658421500955E-02 
689	 1,53803504661667E-02 
690	 0,016054225232143 
691	 1,62989051364175E-02 
692	 1,69032112027012E-02 
693	 1,85079753900087E-02 
694	 0,019666135371055 
695	 2,05068362248901E-02 
696	 2,19969255514009E-02 
697	 0,024066713188362 
698	 2,67082453106624E-02 
699	 2,98653618690639E-02 
700	 3,30035575890342E-02 
701	 3,54926909912958E-02 
702	 3,84644409064701E-02 
703	 4,21213988247712E-02 
704	 4,61785518142452E-02 
705	 5,00453550538278E-02 
706	 5,33858540711272E-02 
707	 0,05680235571725 
708	 6,03737745940694E-02 
709	 6,41156842290849E-02 
710	 6,74605475452883E-02 
711	 0,070305081964518 
712	 7,30401128004889E-02 
713	 7,59943220194117E-02 
714	 7,93950559189391E-02 
715	 8,23236400388188E-02 
716	 8,46532217051798E-02 
717	 8,65810309864714E-02 
718	 8,82575199375996E-02 
719	 8,98919833931425E-02 
720	 9,20300142409165E-02 
721	 0,094370301657544 
722	 9,64782109177682E-02 
723	 9,78855675330577E-02 
724	 9,86975696776822E-02 
725	 9,96795824482004E-02 
726	 0,100727721063983 
727	 0,10177892573362 
728	 0,102790006457975 
729	 0,103731699605965 
730	 0,104578188298315 
731	 0,105260550498057 
732	 0,105812344977696 
733	 0,106453185846462 
734	 0,10711639630662 
735	 0,107726738832139 
736	 0,108198551831897 
737	 0,108577405904162 
738	 0,109044901798129 
739	 0,109330926827123 
740	 0,109425311150236 
741	 0,109832122233406 
742	 0,110419625195417 
743	 0,11097859322943 
744	 0,111258292891398 
745	 0,111326129510707 
746	 0,11155771749602 
747	 0,111994373179922 
748	 0,112560956923719 
749	 0,112559114700933 
750	 0,112218329857917 
751	 0,112000063893234 
752	 0,11223146970089 
753	 0,11281998150077 
754	 0,112985797673608 
755	 0,113113240205218 
756	 0,113455488877942 
757	 0,113569177916745 
758	 0,113532203562878 
759	 0,113624366274098 
760	 0,113806439448311 
761	 0,1140239628831 
762	 0,114016393731541 
763	 0,114132037583572 
764	 0,114653752083205 
765	 0,114519529012318 
766	 0,114076209126141 
767	 0,11481514604084 
768	 0,115281161012521 
769	 0,115025453510488 
770	 0,115074424273596 
771	 0,115219594587394 
772	 0,115126397211462 
773	 0,115261216131761 
774	 0,115626044752891 
775	 0,115937726047882 
776	 0,116089985469141 
777	 0,116015925518761 
778	 0,115696357345944 
779	 0,11555823696919 
780	 0,116207710216124 
781	 0,116553089431914 
782	 0,11649379811747 
783	 0,11685561732603 
784	 0,117128568149413 
785	 0,117009805715022 
786	 0,116930319616325 
787	 0,116964767894975 
788	 0,117133643125464 
789	 0,117234845423911 
790	 0,117237112902485 
791	 0,117341923470834 
792	 0,11732710167888 
793	 0,117074793953883 
794	 0,117324449107464 
795	 0,117859702211677 
796	 0,117957421772828 
797	 0,118024020715886 
798	 0,118161866930341 
799	 0,118239029744947 
800	 0,118305347864032 
801	 0,118409157530735 
802	 0,118453616100421 
803	 0,118543883883443 
804	 0,119041340005774 
805	 0,119257896064887 
806	 0,119066948139732 
807	 0,119382556034604 
808	 0,119577651251659 
809	 0,118976572538355 
810	 0,118971184154039 
811	 0,11948352510251 
812	 0,119473238855439 
813	 0,119301103347857 
814	 0,119236966938223 
815	 0,120001499651049 
816	 0,120882348797722 
817	 0,120982840493178 
818	 0,12089125796606 
819	 0,120757199091418 
820	 0,120496984424473 
821	 0,12084274513367 
822	 0,12192942082062 
823	 0,122240666917326 
824	 0,121973891306919 
825	 0,121606529180603 
826	 0,121779301424806 
827	 0,122366374390712 
828	 0,122411093830714 
829	 0,122181776848726 
830	 0,121955381481203 
831	 0,122680743300651 
832	 0,123453846246554 
833	 0,122932954962294 
834	 0,12282789511685 
835	 0,123148226442162 
836	 0,122292598553776 
837	 0,122303099740199 
838	 0,123919404011398 
839	 0,124044129600295 
840	 0,123298942825055 
841	 0,123061024616696 
842	 0,12335674463373 
843	 0,123984375813539 
844	 0,124164454369272 
845	 0,12410484661507 
846	 0,123950919298453 
847	 0,123917665846706 
848	 0,123942664581955 
849	 0,123893817355398 
850	 0,123837948174674 
851	 0,123788950849266 
852	 0,123678745512128 
853	 0,123892128218978 
854	 0,124510398196983 
855	 0,124519809360563 
856	 0,124491871397482 
857	 0,125342518166983 
858	 0,12552093130805 
859	 0,125033307389298 
860	 0,125202404227615 
861	 0,125223526406079 
862	 0,124839396667425 
863	 0,125121200290498 
864	 0,125775054789525 
865	 0,126265648766858 
866	 0,126153549634617 
867	 0,125704205323836 
868	 0,126088527563666 
869	 0,126464692251772 
870	 0,126523719707828 
871	 0,127025036214151 
872	 0,127415340728222 
873	 0,126999230993903 
874	 0,126904173220633 
875	 0,127394316521483 
876	 0,128582487455606 
877	 0,129027196811987 
878	 0,12834968905003 
879	 0,128445101942159 
880	 0,128724367138855 
881	 0,128433687356176 
882	 0,128517578284727 
883	 0,128996056432152 
884	 0,12942574327615 
885	 0,129915950235174 
886	 0,130416516935897 
887	 0,130753068583471 
888	 0,130511847509829 
889	 0,129471606870433 
890	 0,129553371951563 
891	 0,13055096072744 
892	 0,131261712647095 
893	 0,131429733225615 
894	 0,131142749320775 
895	 0,13142512760881 
896	 0,131887536574096 
897	 0,132154753456856 
898	 0,132039121328744 
899	 0,131653008538304 
900	 0,131216427053447 
901	 0,131537995193491 
902	 0,132553652946588 
903	 0,13310010064866 
904	 0,133356219644454 
905	 0,133422209772625 
906	 0,133177486701204 
907	 0,133002781698564 
908	 0,133423380863616 
909	 0,133324100441653 
910	 0,132789637936665 
911	 0,132973251028807 
912	 0,133266050034878 
913	 0,133392082579769 
914	 0,133390620933424 
915	 0,133875026978942 
916	 0,135356672991531 
917	 0,134555270922437 
918	 0,132456113435294 
919	 0,133237788915223 
920	 0,134443994427354 
921	 0,134996725056252 
922	 0,13394053377868 
923	 0,132991992620289 
924	 0,133488992624465 
925	 0,133379762140617 
926	 0,132708866941336 
927	 0,132111300509433 
928	 0,132210485191819 
929	 0,132985874058304 
930	 0,133697558279027 
931	 0,133668160992488 
932	 0,132762265267149 
933	 0,133058824086797 
934	 0,133733449468214 
935	 0,133460418553886 
936	 0,133526134113662 
937	 0,133842314839437 
938	 0,133436866050347 
939	 0,132637863761455 
940	 0,131798454205757 
941	 0,131991785893092 
942	 0,132378226342836 
943	 0,132117699293294 
944	 0,131155637922018 
945	 0,129910823227708 
946	 0,129125601740581 
947	 0,129469681543324 
948	 0,130411896803366 
949	 0,129198360414316 
950	 0,128431306072888 
951	 0,129231974332581 
952	 0,128448501686768 
953	 0,126937948798387 
954	 0,126110404795544 
955	 0,125322255091002 
956	 0,124713249281036 
957	 0,125102221290086 
958	 0,124044929844067 
959	 0,121660644622848 
960	 0,122559445603303 
961	 0,12440457279701 
962	 0,125141997693616 
963	 0,12470037212427 
964	 0,123115326531606 
965	 0,120555251216149 
966	 0,121532163033716 
967	 0,125146141744116 
968	 0,12503485635496 
969	 0,123978235434076 
970	 0,123318335524278 
971	 0,123963053188196 
972	 0,124237893964228 
973	 0,122785603061766 
974	 0,122597764464907 
975	 0,123737128199283 
976	 0,125430669692701 
977	 0,125678202229807 
978	 0,124421888608464 
979	 0,123671161080373 
980	 0,123365557868499 
981	 0,12357355896812 
982	 0,124536066323804 
983	 0,125171444859883 
984	 0,124541623414927 
985	 0,124948557236115 
986	 0,12619515447884 
987	 0,127144449114479 
988	 0,126651596088751 
989	 0,125128117747696 
990	 0,125405015755926 
991	 0,12582791312592 
992	 0,125840314237104 
993	 0,127661141682165 
994	 0,129317778712077 
995	 0,128814413461947 
996	 0,129307534519266 
997	 0,130400535125171 
998	 0,13020217732208 
999	 0,130491980621752 
1000	 0,131366156185656 
1001	 0,131469726212223 
1002	 0,130730441506641 
1003	 0,129592826743992 
1004	 0,130586688107051 
1005	 0,132481231160261 
1006	 0,133724479955514 
1007	 0,133628030205524 
1008	 0,131995517558948 
1009	 0,12869255190067 
1010	 0,130995908839454 
1011	 0,137504725383779 
1012	 0,137122639963288 
1013	 0,136555746756648 
1014	 0,13776537807488 
1015	 0,134750561351392 
1016	 0,133818114694857 
1017	 0,139292245819753 
1018	 0,138168100722463 
1019	 0,135230958636551 
1020	 0,140241448081545 
1021	 0,140915923368669 
1022	 0,137309815853161 
1023	 0,137455166949286 
1024	 0,139319775010229 
1025	 0,141486820313194 
1026	 0,139781038952579 
1027	 0,140345914396918 
1028	 0,145821805072755 
1029	 0,144698461231187 
1030	 0,141232654753795 
1031	 0,141679700181848 
1032	 0,141612418244952 
1033	 0,14164322048907 
1034	 0,144620874018155 
1035	 0,14463552370194 
1036	 0,140829818448652 
1037	 0,135555681999508 
1038	 0,136723153559601 
1039	 0,145883215400807 
1040	 0,149893527029848 
1041	 0,1526409961233 
1042	 0,156603303965644 
1043	 0,151537067775582 
1044	 0,142722969789149 
1045	 0,139675041914026 
1046	 0,140252901388578 
1047	 0,143305152793937 
1048	 0,147364142560899 
1049	 0,146229013969618 
1050	 0,140266990680866 
1051	 0,139356802245491 
1052	 0,136172856873096 
1053	 0,131294412933333 
1054	 0,148014758141597 
1055	 0,16370562540957 
1056	 0,159486293912091 
1057	 0,155640699065644 
1058	 0,151482774176698 
1059	 0,14274314760651 
1060	 0,138835649481473 
1061	 0,142172678476844 
1062	 0,153667048939298 
1063	 0,158948332351586 
1064	 0,155513351881224 
1065	 0,152935657618841 
1066	 0,148194919717048 
1067	 0,144320730320138 
1068	 0,160564701105506 
1069	 0,171053555017525 
1070	 0,158898046617964 
1071	 0,158301786174726 
1072	 0,158953912643559 
1073	 0,145916926428449 
1074	 0,145053833068335 
1075	 0,15188512997105 
