Wavelength	AVEN00502.asd
325	 0,329067527723581 
326	 0,102220762891717 
327	-4,87415951311558E-03 
328	 9,01239906401327E-02 
329	 0,174745733149192 
330	 0,201095349987003 
331	 0,181533285941708 
332	 0,109011227816009 
333	 3,78178551686014E-02 
334	 7,11875476216393E-02 
335	 7,71544385193124E-02 
336	 0,040818818702222 
337	 8,03064430563569E-02 
338	 0,108328206827624 
339	 4,68324472646201E-02 
340	 8,61176258052861E-03 
341	 5,95039082579347E-03 
342	 7,04704193229464E-03 
343	 4,70726234190126E-02 
344	 0,107482023281289 
345	 0,101213053278238 
346	 5,67666736346953E-02 
347	 1,30107340806812E-02 
348	-0,001089298687795 
349	 1,05361862046104E-02 
350	 2,62132006990187E-02 
351	 3,99683656681723E-02 
352	 4,52062565331566E-02 
353	 3,27678280053718E-02 
354	 2,68537521289073E-02 
355	 5,38644207236436E-02 
356	 0,054789525025433 
357	 3,40651444672145E-02 
358	 4,93650883700355E-02 
359	 4,41631917107711E-02 
360	 5,35289090745355E-05 
361	 7,42118203413744E-04 
362	 1,72834119253144E-02 
363	-4,35750397235046E-03 
364	 0,012357558534474 
365	 5,84607229556856E-02 
366	 5,73288431036952E-02 
367	 4,35485817867968E-02 
368	 3,76180344959486E-02 
369	 1,74377287600783E-02 
370	-1,68301551048405E-03 
371	 1,30520146260527E-02 
372	 2,81749210184882E-02 
373	 3,42718352851301E-02 
374	 4,04965179232388E-02 
375	 3,75686724920891E-02 
376	 2,10813834322614E-02 
377	 1,61311895612607E-02 
378	 1,75134185717028E-02 
379	 1,89114296989821E-03 
380	 1,15760608498226E-02 
381	 4,24518774030163E-02 
382	 0,021998425963751 
383	-1,28016748777935E-02 
384	-2,08381920182468E-02 
385	-1,22310963730815E-02 
386	 1,18469213658795E-03 
387	-0,008508472822797 
388	-2,05027504963904E-03 
389	 0,028463070373347 
390	 0,0435482564466 
391	 3,79400315255316E-02 
392	 9,69864144405881E-03 
393	 9,5000810241452E-03 
394	 3,14535701925447E-02 
395	 1,88843678449582E-02 
396	 5,33560124958817E-03 
397	 7,86595343108434E-03 
398	 1,84726194412699E-02 
399	 2,78320540966455E-02 
400	 2,37209993053297E-02 
401	 1,97399633460456E-02 
402	 1,86946909984859E-02 
403	 1,69869043416802E-02 
404	 1,55257728945393E-02 
405	 1,52572334563756E-02 
406	 1,92711530471378E-02 
407	 2,45105484390547E-02 
408	 2,53603359443256E-02 
409	 2,25218165999916E-02 
410	 1,68480915262391E-02 
411	 9,96595472096513E-03 
412	 9,20849408706462E-03 
413	 2,01067238148326E-02 
414	 2,48043524463731E-02 
415	 2,29800987773775E-02 
416	 2,31910635191922E-02 
417	 2,16651722446438E-02 
418	 1,78776314356578E-02 
419	 0,017153394119971 
420	 1,63000425576987E-02 
421	 0,010672042545074 
422	 1,22921315333199E-02 
423	 1,92086199407093E-02 
424	 1,57230564424323E-02 
425	 1,27299357663792E-02 
426	 1,60619851051063E-02 
427	 0,015076869509971 
428	 1,22276218577774E-02 
429	 1,46224469060646E-02 
430	 1,34890987086609E-02 
431	 9,04726657369635E-03 
432	 1,36451974086988E-02 
433	 1,88633426001733E-02 
434	 1,72254760369268E-02 
435	 1,55830887205537E-02 
436	 0,015190337650662 
437	 1,62589791974089E-02 
438	 1,56254602904783E-02 
439	 1,27967469951564E-02 
440	 1,30996418993179E-02 
441	 1,53693700126177E-02 
442	 0,017539807358531 
443	 1,63289518346674E-02 
444	 1,28856546184739E-02 
445	 1,37594402132468E-02 
446	 1,57322330560397E-02 
447	 1,64774580939835E-02 
448	 1,41947803788486E-02 
449	 1,17105390659924E-02 
450	 1,47821284068784E-02 
451	 1,71163832245169E-02 
452	 1,66003841392259E-02 
453	 1,32317082974475E-02 
454	 1,10087164217419E-02 
455	 1,33229465123353E-02 
456	 1,35601302083395E-02 
457	 1,24635434961223E-02 
458	 1,60350749911863E-02 
459	 1,71504510212919E-02 
460	 1,37218851174827E-02 
461	 1,29026210027438E-02 
462	 1,40239393521062E-02 
463	 1,52216657769456E-02 
464	 1,58507986679912E-02 
465	 1,59978778955768E-02 
466	 1,69297115336399E-02 
467	 1,78649648004858E-02 
468	 1,82631477845129E-02 
469	 1,80589696931562E-02 
470	 1,77645914283235E-02 
471	 1,85488275100267E-02 
472	 1,82039789901342E-02 
473	 1,60554611679318E-02 
474	 0,012251360054045 
475	 1,01245729031608E-02 
476	 1,26331891805819E-02 
477	 1,38916079188018E-02 
478	 1,38099310473968E-02 
479	 1,61892834120774E-02 
480	 1,68745332553897E-02 
481	 1,45516507112267E-02 
482	 0,014307265926153 
483	 1,48317147502821E-02 
484	 1,33254104041709E-02 
485	 1,26780375856718E-02 
486	 1,34295820292905E-02 
487	 1,49476321864497E-02 
488	 1,49176867722741E-02 
489	 0,012039328555256 
490	 1,20376982515646E-02 
491	 1,39731554666102E-02 
492	 1,36405401749566E-02 
493	 1,24508564516819E-02 
494	 0,011353452382145 
495	 1,29915855641351E-02 
496	 1,52149001217483E-02 
497	 1,54074946702113E-02 
498	 1,43637962403522E-02 
499	 1,29228009763697E-02 
500	 1,32111480147095E-02 
501	 1,25411424924391E-02 
502	 1,00804156826548E-02 
503	 1,21203931711397E-02 
504	 0,015797001066512 
505	 1,49308480218899E-02 
506	 1,36576231701326E-02 
507	 0,013142906917126 
508	 1,27853315298698E-02 
509	 0,012938274419551 
510	 1,38318962532031E-02 
511	 1,38411301713815E-02 
512	 1,32667882662944E-02 
513	 1,39444723169745E-02 
514	 1,34978585767798E-02 
515	 0,01164455816761 
516	 1,35229424842731E-02 
517	 0,016379236916253 
518	 1,58351700459251E-02 
519	 1,44603881439959E-02 
520	 1,34246524794629E-02 
521	 1,44559068782115E-02 
522	 1,54478413125489E-02 
523	 0,014911299263829 
524	 1,43120099286925E-02 
525	 1,40497152112273E-02 
526	 1,45320129495554E-02 
527	 1,48367319281713E-02 
528	 1,45638674616501E-02 
529	 1,36122646184558E-02 
530	 1,25905521344033E-02 
531	 1,21765362863018E-02 
532	 1,31142557565312E-02 
533	 1,49284355935249E-02 
534	 1,58629536593336E-02 
535	 1,59907152388576E-02 
536	 0,015366181409696 
537	 1,41361856283969E-02 
538	 1,32649663145851E-02 
539	 1,44613478146253E-02 
540	 1,50857503461901E-02 
541	 1,44982585774218E-02 
542	 1,40131892576428E-02 
543	 1,37351226593518E-02 
544	 1,36950939337112E-02 
545	 1,36921801994878E-02 
546	 1,38483035967005E-02 
547	 1,47097760447411E-02 
548	 1,53143969052102E-02 
549	 0,015249022703376 
550	 1,53880927721924E-02 
551	 1,54950416424442E-02 
552	 1,50240850251093E-02 
553	 1,50237041337107E-02 
554	 1,53915876090743E-02 
555	 1,44196739694549E-02 
556	 1,34330818816685E-02 
557	 1,35379559721368E-02 
558	 1,36429250960034E-02 
559	 1,37356394548648E-02 
560	 1,44942026601669E-02 
561	 1,42323685671916E-02 
562	 1,26720241353333E-02 
563	 1,26906645666487E-02 
564	 1,32462517684366E-02 
565	 1,26216966512027E-02 
566	 1,25633855881867E-02 
567	 1,31438359520327E-02 
568	 1,29690493251247E-02 
569	 1,31370776343037E-02 
570	 1,42958561276477E-02 
571	 1,48862626906397E-02 
572	 1,49871009279531E-02 
573	 1,53796709279063E-02 
574	 1,53132309546994E-02 
575	 1,47980878517668E-02 
576	 1,52196007982415E-02 
577	 1,58099019725581E-02 
578	 1,56061603454397E-02 
579	 1,50752130915516E-02 
580	 1,46892686989666E-02 
581	 1,55166843750274E-02 
582	 1,65134015297585E-02 
583	 1,69994932148898E-02 
584	 0,016800809259723 
585	 1,66071444671457E-02 
586	 1,77052412441966E-02 
587	 1,84282581623261E-02 
588	 1,82444040170046E-02 
589	 1,72196120609939E-02 
590	 1,66520380034809E-02 
591	 1,76192808282141E-02 
592	 1,72147304992787E-02 
593	 1,59991508655111E-02 
594	 1,72460076196151E-02 
595	 1,79524814561121E-02 
596	 1,70434564674947E-02 
597	 1,73929975726447E-02 
598	 1,80775055598842E-02 
599	 0,017261251244812 
600	 1,68886609173353E-02 
601	 1,72898430134802E-02 
602	 0,017578383251938 
603	 1,75547603396218E-02 
604	 0,017094241528098 
605	 1,65017341196681E-02 
606	 0,016089626159717 
607	 1,64959938035365E-02 
608	 1,66204393403956E-02 
609	 1,61794346531513E-02 
610	 1,62881373309873E-02 
611	 1,64483898237652E-02 
612	 1,59443332262793E-02 
613	 1,58116517478324E-02 
614	 1,60172902816693E-02 
615	 1,55495677942122E-02 
616	 1,51220699652742E-02 
617	 0,015179001384458 
618	 1,52724916606355E-02 
619	 1,54560773759362E-02 
620	 1,60317074834833E-02 
621	 1,62159673875387E-02 
622	 1,57235755933793E-02 
623	 1,44542997305226E-02 
624	 0,013866348715021 
625	 1,53515036544961E-02 
626	 1,61381077296064E-02 
627	 1,59651986869403E-02 
628	 1,59718979403462E-02 
629	 1,60602209860915E-02 
630	 1,62234148936229E-02 
631	 1,65687600627036E-02 
632	 1,67226632554409E-02 
633	 1,60337027634163E-02 
634	 1,60468564417973E-02 
635	 1,68818131158521E-02 
636	 1,69830649448716E-02 
637	 1,68552382722798E-02 
638	 1,70003504968875E-02 
639	 1,78043980192487E-02 
640	 1,87306498700952E-02 
641	 1,81227529137412E-02 
642	 1,81713804051411E-02 
643	 1,93898382274232E-02 
644	 1,90675674320617E-02 
645	 1,83003680793461E-02 
646	 1,88145412249105E-02 
647	 1,90642385898833E-02 
648	 0,018882722478991 
649	 1,91291618198421E-02 
650	 1,90865012278976E-02 
651	 1,83911977297343E-02 
652	 1,83018129688284E-02 
653	 1,87354011778104E-02 
654	 1,92368468509181E-02 
655	 1,89120165595158E-02 
656	 1,77565733030167E-02 
657	 1,74403784419465E-02 
658	 1,76596749991184E-02 
659	 1,79469803963197E-02 
660	 1,73704189442157E-02 
661	 1,63090179705096E-02 
662	 1,65699951543551E-02 
663	 1,64567494359969E-02 
664	 0,015366502843849 
665	 1,54784537402014E-02 
666	 1,61507021035153E-02 
667	 1,60074177401186E-02 
668	 1,57987035402248E-02 
669	 1,56600723447397E-02 
670	 0,015328822706971 
671	 1,50848264770403E-02 
672	 1,51316237369943E-02 
673	 1,50646199596323E-02 
674	 0,014874736942712 
675	 1,46437791993696E-02 
676	 1,48325549126927E-02 
677	 1,54291934604419E-02 
678	 1,52314877333272E-02 
679	 1,50535925198029E-02 
680	 1,59537461952722E-02 
681	 1,63874793897673E-02 
682	 1,61418159542261E-02 
683	 0,015652753051657 
684	 1,57696344768201E-02 
685	 1,68227781659695E-02 
686	 1,68775469664816E-02 
687	 1,65901419078152E-02 
688	 1,76042087327239E-02 
689	 1,85371700795754E-02 
690	 1,90980934190563E-02 
691	 0,019836530619902 
692	 2,09943789751224E-02 
693	 2,27276412143343E-02 
694	 2,42407216830426E-02 
695	 2,57181903678811E-02 
696	 0,027966443808127 
697	 3,07062461266986E-02 
698	 3,39561195405575E-02 
699	 3,84090388325576E-02 
700	 0,043133247477662 
701	 4,69147916333119E-02 
702	 5,11065903781957E-02 
703	 5,59080123054098E-02 
704	 6,07968931700201E-02 
705	 6,58943349081812E-02 
706	 7,12529674156275E-02 
707	 7,66187128048067E-02 
708	 8,18981706770096E-02 
709	 8,70357115001387E-02 
710	 9,18748370831409E-02 
711	 9,64043451570566E-02 
712	 0,100778710024956 
713	 0,105080318376584 
714	 0,109379161952967 
715	 0,113768825958166 
716	 0,117975380623843 
717	 0,121243387502595 
718	 0,124438179416328 
719	 0,127878294761006 
720	 0,131055230606961 
721	 0,133906355948207 
722	 0,136432659647147 
723	 0,138844537115389 
724	 0,141101240343594 
725	 0,142801695228804 
726	 0,144598734723221 
727	 0,14680850217295 
728	 0,148454533542753 
729	 0,149783867640195 
730	 0,151500417817013 
731	 0,152847762720012 
732	 0,153657702883534 
733	 0,15419584868098 
734	 0,154891304347826 
735	 0,156073885712361 
736	 0,157170366050068 
737	 0,157994411503753 
738	 0,158359969741454 
739	 0,158750311641053 
740	 0,159368064381509 
741	 0,160071180095989 
742	 0,160832556902614 
743	 0,161626743996253 
744	 0,162295156810191 
745	 0,162758729611322 
746	 0,162863192739118 
747	 0,163188267230432 
748	 0,163927411704622 
749	 0,163995945210039 
750	 0,163788092158939 
751	 0,164094706572896 
752	 0,164558091109164 
753	 0,164992868963644 
754	 0,165049460253841 
755	 0,165192454324868 
756	 0,165688693706241 
757	 0,165591803322687 
758	 0,165268422366675 
759	 0,165762534618612 
760	 0,166193509172429 
761	 0,166318641369696 
762	 0,16642144393482 
763	 0,166596245483975 
764	 0,166909678387993 
765	 0,167157274393464 
766	 0,167327941108136 
767	 0,167517327028353 
768	 0,167623723758149 
769	 0,167684680152397 
770	 0,168187443511847 
771	 0,168538844492869 
772	 0,168029923310084 
773	 0,167989438307262 
774	 0,168471300491319 
775	 0,168674386599564 
776	 0,16866228958857 
777	 0,168531550485277 
778	 0,168806598558623 
779	 0,169303246635189 
780	 0,16966994600115 
781	 0,169702366619878 
782	 0,169474053134033 
783	 0,169508838730178 
784	 0,169473812500667 
785	 0,169231968476677 
786	 0,169538780881673 
787	 0,1701466604083 
788	 0,170462315020176 
789	 0,170361222908863 
790	 0,170019871488299 
791	 0,170431494592442 
792	 0,17074551729543 
793	 0,170315807242397 
794	 0,170002490419554 
795	 0,170022112467205 
796	 0,170526242859827 
797	 0,170990280810696 
798	 0,171153118203592 
799	 0,170793779454715 
800	 0,17061282812893 
801	 0,171218639885111 
802	 0,171489162034767 
803	 0,171487955698667 
804	 0,171984268216497 
805	 0,17226872436414 
806	 0,172181910684516 
807	 0,172352719796352 
808	 0,172563712769883 
809	 0,172549627838751 
810	 0,172663409487516 
811	 0,172856820487037 
812	 0,172800935049167 
813	 0,172663389511387 
814	 0,172598830589567 
815	 0,173028154450052 
816	 0,173584310110108 
817	 0,173795061561512 
818	 0,173798576663613 
819	 0,173730544000285 
820	 0,173870585068077 
821	 0,174200771365238 
822	 0,17466410942127 
823	 0,174961963364849 
824	 0,175093965223815 
825	 0,175110707875105 
826	 0,175189201732136 
827	 0,175342303460883 
828	 0,175450256356899 
829	 0,175469108888511 
830	 0,175427471453298 
831	 0,175660022543572 
832	 0,176062135753671 
833	 0,1764384711039 
834	 0,176788001102157 
835	 0,17693556570084 
836	 0,176235728304779 
837	 0,176188827813937 
838	 0,177358219050592 
839	 0,177466841369194 
840	 0,176946309085254 
841	 0,176776677936693 
842	 0,176710118880308 
843	 0,176797093841924 
844	 0,177355332660646 
845	 0,177637704728109 
846	 0,17729775936508 
847	 0,177046859948368 
848	 0,177172044855002 
849	 0,177938672218918 
850	 0,177740083864705 
851	 0,176818019757963 
852	 0,177451259864677 
853	 0,177913568121114 
854	 0,177362340274189 
855	 0,176802096812124 
856	 0,176734877519887 
857	 0,177658035846905 
858	 0,1780378697445 
859	 0,177740702386564 
860	 0,177708538508229 
861	 0,177690161408827 
862	 0,177627480014503 
863	 0,177923047680168 
864	 0,178146736007235 
865	 0,17771611464841 
866	 0,177761215712233 
867	 0,178357386699818 
868	 0,17892312283731 
869	 0,179151858539952 
870	 0,179036051435612 
871	 0,179670138261597 
872	 0,180419242863309 
873	 0,180417795836276 
874	 0,180190457362871 
875	 0,17999860910684 
876	 0,180197709653917 
877	 0,180610654522436 
878	 0,181066016156441 
879	 0,181062712798547 
880	 0,181085180903139 
881	 0,181662884336507 
882	 0,182009317018042 
883	 0,182109267285173 
884	 0,182313653283584 
885	 0,182775355295038 
886	 0,183419607745041 
887	 0,183524687072355 
888	 0,183462772471121 
889	 0,183651357722613 
890	 0,184317385927337 
891	 0,185100845313231 
892	 0,185156171470435 
893	 0,184963698830284 
894	 0,184756475241993 
895	 0,184712755659985 
896	 0,185167174871877 
897	 0,186190359858651 
898	 0,186071699717489 
899	 0,185279574331065 
900	 0,185119631083575 
901	 0,185290528427601 
902	 0,185655814141672 
903	 0,18589860834967 
904	 0,186261282189708 
905	 0,186725064666194 
906	 0,185981667220287 
907	 0,185076285575883 
908	 0,18566989901133 
909	 0,186275604105814 
910	 0,186458690212398 
911	 0,186012363467458 
912	 0,185930260315204 
913	 0,186599804102324 
914	 0,187163561129458 
915	 0,187469419577799 
916	 0,18744283920169 
917	 0,187038488197896 
918	 0,186607424689085 
919	 0,187026337153329 
920	 0,187380191080591 
921	 0,187275051283012 
922	 0,186481628518319 
923	 0,186017257357868 
924	 0,186586106377109 
925	 0,186287816586437 
926	 0,185431077363331 
927	 0,185086302928368 
928	 0,185539881980624 
929	 0,186463265649735 
930	 0,186380879121432 
931	 0,185741344351201 
932	 0,185004939871923 
933	 0,185402289856364 
934	 0,185692276814461 
935	 0,184202285319407 
936	 0,183865723218253 
937	 0,18453916193693 
938	 0,183905890319737 
939	 0,18312950090269 
940	 0,182720634726571 
941	 0,183031263048776 
942	 0,183315602765516 
943	 0,182884222221037 
944	 0,181953771228055 
945	 0,180840912516349 
946	 0,179997424865638 
947	 0,180430186541066 
948	 0,181420815982469 
949	 0,179228358592998 
950	 0,177368567283055 
951	 0,177592666122835 
952	 0,176896690001325 
953	 0,175803872992169 
954	 0,175282958430811 
955	 0,174678724022796 
956	 0,173957196472475 
957	 0,173339844432068 
958	 0,172990546324966 
959	 0,172708057114527 
960	 0,171080795875683 
961	 0,170683616245273 
962	 0,172935396294807 
963	 0,172511891089827 
964	 0,170317394507677 
965	 0,168931029538285 
966	 0,168640673812233 
967	 0,16941027039211 
968	 0,170603183967493 
969	 0,171929400177968 
970	 0,172813803566456 
971	 0,17147226324068 
972	 0,169731561523729 
973	 0,16940593379876 
974	 0,170175362277325 
975	 0,170904059506647 
976	 0,169675951113172 
977	 0,169079126784044 
978	 0,169508517905163 
979	 0,169600244410181 
980	 0,169832593316218 
981	 0,170584294446791 
982	 0,172994645650982 
983	 0,174161797945755 
984	 0,171524108400161 
985	 0,171175939441847 
986	 0,173036676834294 
987	 0,174822464470117 
988	 0,173577990163522 
989	 0,170268300284533 
990	 0,171985971886392 
991	 0,1735555023901 
992	 0,172765652558224 
993	 0,17377999578021 
994	 0,175733994920986 
995	 0,177313359404328 
996	 0,177889243353612 
997	 0,177455262723367 
998	 0,176228351878847 
999	 0,176983487083519 
1000	 0,179493615231275 
1001	 0,180050791562911 
1002	 0,178790740855103 
1003	 0,176624152580342 
1004	 0,178233784362526 
1005	 0,180813819192757 
1006	 0,181265790866721 
1007	 0,180924578700683 
1008	 0,180294592432557 
1009	 0,179856722570351 
1010	 0,182360645547234 
1011	 0,186748195440502 
1012	 0,187585633276518 
1013	 0,186522856843586 
1014	 0,184811623647815 
1015	 0,184605413895387 
1016	 0,186938718562876 
1017	 0,191642329312049 
1018	 0,191136392501954 
1019	 0,187958974046575 
1020	 0,187721552023567 
1021	 0,188355479142949 
1022	 0,189106547782808 
1023	 0,188749315045502 
1024	 0,189723524569535 
1025	 0,192174490875247 
1026	 0,192446533014478 
1027	 0,19454656850417 
1028	 0,199584230843081 
1029	 0,196322400973113 
1030	 0,190636059281905 
1031	 0,190797939395244 
1032	 0,194737903093635 
1033	 0,199358581784683 
1034	 0,199455135808256 
1035	 0,198255950885759 
1036	 0,196492111921782 
1037	 0,192746762588148 
1038	 0,192464007831713 
1039	 0,197029700944024 
1040	 0,199237944986798 
1041	 0,200547154184752 
1042	 0,201702509733185 
1043	 0,195722904665422 
1044	 0,191395296507709 
1045	 0,201221080581997 
1046	 0,199778167990028 
1047	 0,192256410263206 
1048	 0,204256461745765 
1049	 0,208833511819437 
1050	 0,202062294194803 
1051	 0,202746526727689 
1052	 0,203229087144904 
1053	 0,200562363605842 
1054	 0,199925426316076 
1055	 0,199714295185524 
1056	 0,199039654612148 
1057	 0,205351234522419 
1058	 0,211096829107371 
1059	 0,205299944788439 
1060	 0,205913185894794 
1061	 0,210118211395388 
1062	 0,202272957740386 
1063	 0,203100387619471 
1064	 0,210625133258795 
1065	 0,193948579059652 
1066	 0,183265591274141 
1067	 0,192718493187132 
1068	 0,211605763419311 
1069	 0,223134288766919 
1070	 0,216874876923003 
1071	 0,21762826898885 
1072	 0,214859723144568 
1073	 0,195066829778499 
1074	 0,191315223709631 
1075	 0,197708081794145 
