Wavelength	AVEN00242.asd
325	 0,39535789755833 
326	 0,267719520236198 
327	 0,148523666516066 
328	 6,32803083971994E-02 
329	 5,62003368303067E-02 
330	 9,36603242725276E-02 
331	 0,133909708941999 
332	 0,124928166123385 
333	 8,46991892389902E-02 
334	 6,53235723929975E-02 
335	 8,22018443774146E-02 
336	 0,116929279569549 
337	 0,088830261341126 
338	 8,03066384870433E-02 
339	 0,155726290516206 
340	 6,62455683053587E-02 
341	-7,71562434181166E-02 
342	 0,0201378271532 
343	 0,121323285227672 
344	 0,158959161839486 
345	 0,165818844987348 
346	 0,152808868374639 
347	 0,128871986260057 
348	 8,93681972392372E-02 
349	 6,02227378700165E-02 
350	 0,113732132455079 
351	 0,130049870391878 
352	 7,80967162124264E-02 
353	 0,072910635520512 
354	 9,63566436757961E-02 
355	 0,120936161293841 
356	 0,100121952835142 
357	 5,91856066977135E-02 
358	 0,108347712679938 
359	 0,128685957535584 
360	 0,076191789672951 
361	 7,01980245229109E-02 
362	 8,43342064042619E-02 
363	 6,13270357968602E-02 
364	 6,96704239363416E-02 
365	 0,10788476382455 
366	 0,127785962003122 
367	 0,130533844554238 
368	 0,117772238736565 
369	 0,113416005336828 
370	 0,111027330362624 
371	 9,27717787467447E-02 
372	 0,082302226221668 
373	 8,60325432120142E-02 
374	 9,93370014457406E-02 
375	 0,111160689811981 
376	 0,113142208492512 
377	 0,107641757537572 
378	 9,95927738200821E-02 
379	 9,91742250013608E-02 
380	 0,102886301647724 
381	 0,10722818745191 
382	 0,103831385790438 
383	 9,64595157836104E-02 
384	 8,97194378341171E-02 
385	 0,084305499471808 
386	 8,24433447616059E-02 
387	 8,89548530869427E-02 
388	 9,46793626654452E-02 
389	 9,70608645693131E-02 
390	 0,10680213589488 
391	 0,112040446598851 
392	 9,92507714960904E-02 
393	 9,43546141538911E-02 
394	 9,99935540860593E-02 
395	 0,103883793437867 
396	 0,109373509617591 
397	 0,11577331186186 
398	 0,107115474236034 
399	 9,52100212800602E-02 
400	 9,97663707123792E-02 
401	 0,106826900938407 
402	 0,110530618533133 
403	 0,102679424750142 
404	 9,76113958869211E-02 
405	 0,104556578092109 
406	 0,112235997373042 
407	 0,116705046167053 
408	 0,114789389203456 
409	 0,110504039126146 
410	 0,105777360680925 
411	 0,101462345565513 
412	 0,100982220308521 
413	 0,106889638379544 
414	 0,112368147111566 
415	 0,114420647559804 
416	 0,1086214675917 
417	 0,106919330286338 
418	 0,112433046563115 
419	 0,112098097418867 
420	 0,108160824549598 
421	 0,104807692997626 
422	 0,107233735575141 
423	 0,111972003446105 
424	 0,102530226750347 
425	 9,73572151700152E-02 
426	 0,106092156539168 
427	 0,108774752273521 
428	 0,106978109898144 
429	 0,1086394540481 
430	 0,106944648836833 
431	 0,102369691821745 
432	 0,10494736294708 
433	 0,108646651491841 
434	 0,107999104401548 
435	 0,107241385578321 
436	 0,107208482204174 
437	 0,107891638214156 
438	 0,109630179626009 
439	 0,111990705700447 
440	 0,112020266917363 
441	 0,110884002864548 
442	 0,110386570543015 
443	 0,109535389801512 
444	 0,109068658634538 
445	 0,112446034756733 
446	 0,11369187298551 
447	 0,109774510234558 
448	 0,108667765591776 
449	 0,11054086594473 
450	 0,11382430850578 
451	 0,11479561830883 
452	 0,112919762778916 
453	 0,111996295308855 
454	 0,112687817950541 
455	 0,115287136390659 
456	 0,117580304445959 
457	 0,118586165120963 
458	 0,117166721908259 
459	 0,115421923366644 
460	 0,114551282594307 
461	 0,115309126148115 
462	 0,116386223624265 
463	 0,115956462785247 
464	 0,116588907682586 
465	 0,117815194629593 
466	 0,115564777932574 
467	 0,114113077766268 
468	 0,11601671220012 
469	 0,117317979250959 
470	 0,117779393994018 
471	 0,118217959769373 
472	 0,118392134973611 
473	 0,117966545161908 
474	 0,115532269099065 
475	 0,113408534245155 
476	 0,113846820062801 
477	 0,114894495072061 
478	 0,116182491283397 
479	 0,118207374216725 
480	 0,118839419439363 
481	 0,117478257022557 
482	 0,117533958911738 
483	 0,118008298755187 
484	 0,116873388184022 
485	 0,115554765768556 
486	 0,114792982636693 
487	 0,116186050786521 
488	 0,115871161731389 
489	 0,111637074885419 
490	 0,113253544846876 
491	 0,117621198107916 
492	 0,113808730359025 
493	 0,111619345993577 
494	 0,113615695535715 
495	 0,11423067407018 
496	 0,113648639556911 
497	 0,11259091562263 
498	 0,114346348925847 
499	 0,117639891112446 
500	 0,11646343430599 
501	 0,113963508298425 
502	 0,112356963001154 
503	 0,113861816989587 
504	 0,116686509736742 
505	 0,117470038649791 
506	 0,116296517018429 
507	 0,114203592786862 
508	 0,115619947691023 
509	 0,117858008959222 
510	 0,118366746357635 
511	 0,1187792368853 
512	 0,11924344289372 
513	 0,119491502685676 
514	 0,119139438156222 
515	 0,118479849443006 
516	 0,120430352294045 
517	 0,122886840568681 
518	 0,122658228033356 
519	 0,121807108666753 
520	 0,12104541335395 
521	 0,120847029325834 
522	 0,120845823358069 
523	 0,120758437653532 
524	 0,120555709853013 
525	 0,120557522359113 
526	 0,121577630411047 
527	 0,122398147513091 
528	 0,122473538717232 
529	 0,121567223199541 
530	 0,120432193597907 
531	 0,119923048950069 
532	 0,12100738167871 
533	 0,122926750585143 
534	 0,122751375176579 
535	 0,12221856155334 
536	 0,122308070854205 
537	 0,12203696717423 
538	 0,121812863804182 
539	 0,12267075210202 
540	 0,122787841217643 
541	 0,121916253845997 
542	 0,121718391418712 
543	 0,121963642144391 
544	 0,122322111792835 
545	 0,122537905065631 
546	 0,122549094413625 
547	 0,122300154344134 
548	 0,122494343155942 
549	 0,123388216315297 
550	 0,124177782743015 
551	 0,124489448903669 
552	 0,123878125856683 
553	 0,123983150618959 
554	 0,124674139511775 
555	 0,123259117270801 
556	 0,121979725699601 
557	 0,122692149742285 
558	 0,123742321069518 
559	 0,124250046382895 
560	 0,122800087146907 
561	 0,121321168254235 
562	 0,120715804772032 
563	 0,120937723460182 
564	 0,121381430063849 
565	 0,121268502616516 
566	 0,121024606364744 
567	 0,120843369694198 
568	 0,121027830803652 
569	 0,121202769469649 
570	 0,121194910983591 
571	 0,121903477185981 
572	 0,123370718747772 
573	 0,1254962676079 
574	 0,127124909084748 
575	 0,12789734197149 
576	 0,128615104906467 
577	 0,129553374339013 
578	 0,130938555055886 
579	 0,132351672616552 
580	 0,13358707268413 
581	 0,13434326573613 
582	 0,135317439933641 
583	 0,136784590393411 
584	 0,137486443084858 
585	 0,137873799083137 
586	 0,139050426666699 
587	 0,139879866262386 
588	 0,140206145355559 
589	 0,140899049779918 
590	 0,141759214755473 
591	 0,142540748207459 
592	 0,142872965285296 
593	 0,143006071123178 
594	 0,143906886302716 
595	 0,144403841576607 
596	 0,144112114320972 
597	 0,144478799034522 
598	 0,144844349042049 
599	 0,143982996332057 
600	 0,143657010722489 
601	 0,143985094162522 
602	 0,143339598742726 
603	 0,142726423886216 
604	 0,14286081228676 
605	 0,142139519416796 
606	 0,140962929804619 
607	 0,140946556614261 
608	 0,14109237967932 
609	 0,140896611488555 
610	 0,139756558979628 
611	 0,13844047101252 
612	 0,137945463498463 
613	 0,137397980373991 
614	 0,136766932970188 
615	 0,136713093924596 
616	 0,136467199247873 
617	 0,135625047329821 
618	 0,135286242136809 
619	 0,135335281388377 
620	 0,13526361354429 
621	 0,134940524494939 
622	 0,134326013825227 
623	 0,133432242608386 
624	 0,133158889111035 
625	 0,134342020853558 
626	 0,134878536603464 
627	 0,134760668239512 
628	 0,135466814954652 
629	 0,135991423212414 
630	 0,135936118405203 
631	 0,136304071510985 
632	 0,136872607809947 
633	 0,137081276471407 
634	 0,137437476544889 
635	 0,138135478618694 
636	 0,13936375579526 
637	 0,140472020179243 
638	 0,140953087714326 
639	 0,141845391036098 
640	 0,142972008595183 
641	 0,143270180203523 
642	 0,144250479225245 
643	 0,146141415865022 
644	 0,146482837157203 
645	 0,146106532669189 
646	 0,146385503729012 
647	 0,146425145234399 
648	 0,146124794798811 
649	 0,145844920239238 
650	 0,145517248063197 
651	 0,145037953195428 
652	 0,143838937575249 
653	 0,142431565859205 
654	 0,142090728771612 
655	 0,14103808241272 
656	 0,139055706110669 
657	 0,138229533728162 
658	 0,137517638973513 
659	 0,135741538858964 
660	 0,133830550267439 
661	 0,132055619663742 
662	 0,130592974932167 
663	 0,129058728559706 
664	 0,127334550960829 
665	 0,125986139858141 
666	 0,125092181621168 
667	 0,124672720719642 
668	 0,124229202024448 
669	 0,123490052817119 
670	 0,122082829387 
671	 0,120925268594287 
672	 0,120735125643241 
673	 0,120773846707117 
674	 0,120811732380155 
675	 0,120617102514184 
676	 0,120702137296161 
677	 0,121059021082851 
678	 0,120465149187475 
679	 0,119928242991169 
680	 0,120733075697897 
681	 0,121701052127921 
682	 0,122487236102606 
683	 0,122885282893774 
684	 0,123677249348999 
685	 0,125300822522359 
686	 0,127054207423989 
687	 0,129101606534925 
688	 0,131864835101528 
689	 0,135246205343394 
690	 0,139181789357375 
691	 0,143317279602163 
692	 0,148255310496852 
693	 0,154531722730369 
694	 0,161435345650547 
695	 0,168937464397144 
696	 0,177335763122377 
697	 0,186315956369248 
698	 0,195868417954522 
699	 0,206835500440909 
700	 0,218036005587249 
701	 0,227959041736958 
702	 0,238723719869561 
703	 0,250223796159907 
704	 0,260469110324497 
705	 0,270145197731491 
706	 0,279734033856405 
707	 0,289320551415867 
708	 0,298405403096903 
709	 0,306022560439467 
710	 0,313278248497487 
711	 0,320495580799268 
712	 0,32730514518594 
713	 0,333601514602995 
714	 0,339305579998469 
715	 0,344529511915138 
716	 0,34944124503238 
717	 0,354472591017208 
718	 0,358722820207007 
719	 0,361941983155017 
720	 0,365085279769494 
721	 0,368203269012716 
722	 0,371245752373422 
723	 0,37391197432667 
724	 0,37618866019593 
725	 0,378294247755931 
726	 0,380328971962617 
727	 0,382330321609429 
728	 0,384062931669655 
729	 0,385551389521345 
730	 0,386885019566839 
731	 0,388153435732156 
732	 0,389391631856268 
733	 0,390618785744231 
734	 0,391561975575458 
735	 0,392040345264591 
736	 0,392909597342478 
737	 0,394095216899135 
738	 0,395100236970655 
739	 0,395510153088694 
740	 0,395395157380502 
741	 0,396256358412201 
742	 0,397275469637147 
743	 0,397382447661614 
744	 0,39773712739946 
745	 0,398399617757765 
746	 0,398711914811218 
747	 0,399028924686825 
748	 0,399515903185425 
749	 0,399992004700715 
750	 0,400290926015936 
751	 0,400181995461033 
752	 0,400378644860567 
753	 0,400919681250018 
754	 0,401129220880048 
755	 0,401206805001964 
756	 0,401325155779309 
757	 0,401631525269062 
758	 0,402017020556451 
759	 0,402189920148849 
760	 0,402542748882474 
761	 0,403052513406818 
762	 0,40297802223977 
763	 0,402949767290001 
764	 0,403541136857128 
765	 0,403676674531314 
766	 0,403498915899277 
767	 0,403941167011763 
768	 0,40428556345561 
769	 0,404319363585545 
770	 0,404543277435718 
771	 0,404789345892953 
772	 0,404821179107456 
773	 0,405058874178211 
774	 0,405392168478959 
775	 0,405131578624159 
776	 0,405157011326371 
777	 0,405795836628157 
778	 0,405852713590289 
779	 0,405731635947402 
780	 0,406217677684007 
781	 0,406596116428049 
782	 0,406751433369366 
783	 0,407047682158774 
784	 0,407030914651449 
785	 0,406496770836121 
786	 0,406372027105443 
787	 0,406489421257888 
788	 0,406271449013764 
789	 0,406452596141946 
790	 0,407041024359161 
791	 0,40718545905674 
792	 0,407101902805224 
793	 0,407003377178988 
794	 0,40702963779735 
795	 0,407139275583659 
796	 0,407169568469897 
797	 0,407192916913076 
798	 0,407279756224019 
799	 0,407696584414269 
800	 0,407938575320433 
801	 0,407571887981828 
802	 0,407441438138569 
803	 0,407671803500056 
804	 0,40814275978267 
805	 0,408626651943335 
806	 0,409010732107998 
807	 0,409423085463565 
808	 0,409504801472354 
809	 0,408928949042677 
810	 0,408988902600715 
811	 0,409568849592995 
812	 0,409535349147129 
813	 0,409464088272814 
814	 0,40961642808294 
815	 0,410123710801664 
816	 0,410518196131492 
817	 0,41026926363351 
818	 0,410577997153533 
819	 0,411342628975839 
820	 0,411378279328608 
821	 0,411541559113793 
822	 0,412127043580964 
823	 0,412374651884307 
824	 0,412208967982488 
825	 0,4116527849744 
826	 0,411804597545407 
827	 0,412608558430801 
828	 0,412987080010762 
829	 0,413116607131315 
830	 0,413145502625053 
831	 0,4135875290999 
832	 0,414098678713299 
833	 0,414139952138335 
834	 0,414068473053327 
835	 0,413987274091061 
836	 0,413846567767613 
837	 0,414114560379827 
838	 0,41487080033783 
839	 0,414785422255899 
840	 0,414356712283343 
841	 0,414496221277862 
842	 0,414483573827614 
843	 0,414390905104405 
844	 0,415056080032418 
845	 0,415520893998751 
846	 0,415351362444713 
847	 0,415601453446687 
848	 0,415853892937116 
849	 0,415369281086571 
850	 0,415301804178734 
851	 0,415716426808454 
852	 0,415828544803068 
853	 0,415822143778849 
854	 0,415779806334692 
855	 0,415619127769236 
856	 0,415487013119297 
857	 0,415581883010288 
858	 0,41580764115798 
859	 0,416064237364587 
860	 0,416160418409066 
861	 0,416092700980867 
862	 0,415932575555739 
863	 0,416070167710956 
864	 0,416580279690813 
865	 0,417472077852217 
866	 0,417573466296993 
867	 0,417069183096455 
868	 0,417377203592301 
869	 0,418099414451735 
870	 0,41888388457811 
871	 0,418734085025608 
872	 0,418359582772063 
873	 0,418709169658273 
874	 0,419068587483206 
875	 0,419206141628588 
876	 0,4188174751756 
877	 0,418912544331354 
878	 0,419779057424637 
879	 0,420359451735724 
880	 0,420518234043907 
881	 0,420248753420604 
882	 0,420241211842939 
883	 0,420584399707791 
884	 0,421108313734788 
885	 0,421487281696428 
886	 0,421603689244135 
887	 0,421715392599476 
888	 0,421693788265251 
889	 0,421464733708594 
890	 0,421797456217608 
891	 0,422432291652895 
892	 0,422523607569388 
893	 0,422321647271665 
894	 0,422094194886944 
895	 0,422671715386588 
896	 0,4232455085298 
897	 0,423219361382598 
898	 0,423635532767493 
899	 0,42392619873761 
900	 0,422772821764619 
901	 0,422536069409242 
902	 0,42345071472135 
903	 0,423647418234722 
904	 0,423653969508611 
905	 0,423758876336244 
906	 0,423566155860274 
907	 0,423284687198069 
908	 0,423259176674137 
909	 0,423593166744498 
910	 0,424061509145218 
911	 0,423832113891831 
912	 0,42391524663891 
913	 0,4245381948216 
914	 0,423886236003639 
915	 0,42349074201031 
916	 0,425045553308735 
917	 0,425333935406523 
918	 0,424294503702695 
919	 0,423323659701661 
920	 0,423659950189635 
921	 0,425105654953447 
922	 0,424158776203832 
923	 0,422978177816752 
924	 0,423394565193531 
925	 0,423666883653613 
926	 0,423357995532317 
927	 0,4221284542663 
928	 0,422111052229931 
929	 0,423216907403638 
930	 0,422614443777571 
931	 0,422203956271223 
932	 0,422842213005097 
933	 0,422243818985669 
934	 0,421188838277859 
935	 0,420963353434128 
936	 0,420860230407433 
937	 0,42069064761257 
938	 0,420285086626321 
939	 0,420274589152226 
940	 0,42054321237932 
941	 0,419111738029404 
942	 0,418067251553196 
943	 0,419057764556201 
944	 0,41836550350926 
945	 0,416630605602146 
946	 0,416218222491609 
947	 0,415443466635975 
948	 0,414158860756885 
949	 0,413506552840648 
950	 0,41290671448711 
951	 0,412131485765619 
952	 0,412091776400108 
953	 0,411698970718985 
954	 0,409676360963956 
955	 0,409022840532856 
956	 0,409204364676381 
957	 0,407128565547444 
958	 0,405232016572656 
959	 0,404237823585177 
960	 0,40333717023385 
961	 0,402901143167787 
962	 0,403150933203584 
963	 0,403588712966867 
964	 0,403698377857428 
965	 0,402863499632869 
966	 0,402813772020998 
967	 0,403589366459175 
968	 0,404184415428549 
969	 0,402669774378226 
970	 0,399567179763549 
971	 0,402639166272324 
972	 0,405503152250644 
973	 0,402436077217225 
974	 0,401809354129928 
975	 0,402917176579723 
976	 0,402008500236461 
977	 0,401530707381864 
978	 0,401778013701968 
979	 0,401497807124481 
980	 0,401400157376274 
981	 0,401832903355437 
982	 0,402819737104074 
983	 0,403061802867395 
984	 0,401511600265305 
985	 0,401532679689731 
986	 0,403076351053777 
987	 0,404886994960615 
988	 0,404438224987889 
989	 0,402683450212613 
990	 0,406358755337649 
991	 0,408262938980993 
992	 0,405643719074261 
993	 0,406547999282552 
994	 0,408156594708335 
995	 0,407183988642076 
996	 0,408596350262146 
997	 0,410643522958221 
998	 0,408190701634847 
999	 0,409331328415798 
1000	 0,413809721888131 
1001	 0,411929025338009 
1002	 0,411018529548263 
1003	 0,413862608188438 
1004	 0,41352622945521 
1005	 0,412668894896964 
1006	 0,414151330148303 
1007	 0,414824225696797 
1008	 0,414573624061643 
1009	 0,414164021076077 
1010	 0,412398064204528 
1011	 0,410993768207298 
1012	 0,416691582067467 
1013	 0,419450238668841 
1014	 0,41621661050491 
1015	 0,416810579415817 
1016	 0,418879102109661 
1017	 0,419967410946514 
1018	 0,420832435845728 
1019	 0,421180407208206 
1020	 0,420545502499094 
1021	 0,420043242588669 
1022	 0,420248022306008 
1023	 0,421501196480431 
1024	 0,425513477371282 
1025	 0,431066663553552 
1026	 0,431170150783924 
1027	 0,426855079085106 
1028	 0,420725127898477 
1029	 0,423336144016083 
1030	 0,428364237016853 
1031	 0,427322720097213 
1032	 0,427812814354945 
1033	 0,429184389273271 
1034	 0,427350851482964 
1035	 0,427451758077697 
1036	 0,429607990567286 
1037	 0,428923414959776 
1038	 0,428264848521914 
1039	 0,428694436147597 
1040	 0,428518926703077 
1041	 0,428483030303577 
1042	 0,42895128780393 
1043	 0,427208849470713 
1044	 0,42513672112534 
1045	 0,425880887330313 
1046	 0,428581635791821 
1047	 0,431464674622844 
1048	 0,431025539645457 
1049	 0,430350223267807 
1050	 0,429308781174615 
1051	 0,423350653172621 
1052	 0,418833506900019 
1053	 0,41958197316206 
1054	 0,42587986921119 
1055	 0,4306191756985 
1056	 0,429103973873395 
1057	 0,435889743832651 
1058	 0,442533461979291 
1059	 0,435341056867907 
1060	 0,429890530795956 
1061	 0,427718604801426 
1062	 0,423964028932594 
1063	 0,432441333063598 
1064	 0,446747757351985 
1065	 0,428565984021771 
1066	 0,419568565673249 
1067	 0,436368511129496 
1068	 0,453009712173603 
1069	 0,4560818309572 
1070	 0,439873584914723 
1071	 0,435700688763351 
1072	 0,433606642288389 
1073	 0,419616793779745 
1074	 0,427448774170385 
1075	 0,442912450188704 
