Wavelength	AVEN00598.asd
325	 2,90980719722234E-02 
326	 0,149996930066925 
327	 0,113474366811067 
328	-0,104077921201694 
329	-0,071449199527637 
330	 2,89510838816879E-03 
331	-5,34607567307789E-02 
332	-3,68779427743571E-02 
333	 1,85530679933665E-02 
334	-3,75183249225895E-02 
335	-5,5011538162364E-03 
336	 0,101940899415532 
337	 3,05317740866636E-02 
338	-3,68632483302868E-02 
339	 5,73915280397873E-02 
340	 1,31313652684179E-02 
341	-0,101330442582411 
342	-5,49831608165307E-02 
343	 2,41465277580105E-02 
344	 8,51651044930075E-02 
345	 0,102471437709447 
346	 8,36951280874232E-02 
347	 3,85500638683302E-02 
348	 0,030612720990043 
349	 4,81838677125323E-02 
350	 2,93103911816104E-02 
351	 0,023290004820633 
352	 4,16082400632282E-02 
353	 3,61771017714087E-02 
354	 2,34293898231169E-02 
355	 0,024351486090823 
356	 2,77012134620869E-02 
357	 3,01145484466057E-02 
358	 3,13679045334622E-02 
359	 2,10931271622753E-02 
360	-2,38801909659575E-03 
361	-2,05213410943982E-03 
362	 2,74672247457702E-03 
363	-2,12850444571373E-02 
364	-0,027080860829818 
365	-7,22205972573174E-03 
366	 2,68117313348257E-02 
367	 4,74153763104957E-02 
368	 3,53534722204861E-02 
369	 1,06855329602569E-02 
370	-1,28492716956655E-02 
371	-1,53638523475464E-02 
372	-7,37257746394196E-03 
373	 5,66820993306698E-03 
374	 1,61096813569076E-02 
375	 2,85061053698676E-02 
376	 4,41899227941701E-02 
377	 4,28275599575948E-02 
378	 0,026226477867066 
379	 2,22454888138915E-03 
380	 4,27225373628343E-03 
381	 2,97720075331971E-02 
382	 2,12121771629343E-02 
383	-5,82941984307624E-03 
384	-3,02370585389453E-02 
385	-1,45354309434152E-02 
386	 2,26502196466724E-02 
387	 1,67611042840147E-02 
388	 7,97932130941222E-03 
389	 1,21419280289459E-02 
390	 2,71840886488158E-02 
391	 3,87647825956772E-02 
392	 3,19429110380776E-02 
393	 2,46264901025012E-02 
394	 2,06385438542084E-02 
395	 1,64467444476208E-02 
396	 0,016607983732049 
397	 2,05898941905447E-02 
398	 6,68681606614882E-03 
399	-8,17209523435204E-03 
400	 4,39435979625987E-03 
401	 1,59044087527463E-02 
402	 1,86814383736379E-02 
403	 1,25541167820274E-02 
404	 8,53237726607018E-03 
405	 1,36031691841639E-02 
406	 1,84982553957638E-02 
407	 2,01913844115646E-02 
408	 1,54812879613614E-02 
409	 1,45690944480536E-02 
410	 1,79197059242206E-02 
411	 1,07306389717614E-02 
412	 5,70807980132583E-03 
413	 1,43935113768566E-02 
414	 1,99025997685809E-02 
415	 1,98348351900194E-02 
416	 0,016067027263474 
417	 1,48794254666395E-02 
418	 1,78349099670546E-02 
419	 1,69288878614214E-02 
420	 1,33850621843452E-02 
421	 9,54182882438605E-03 
422	 1,09393851197895E-02 
423	 1,54885208966253E-02 
424	 1,20989944806809E-02 
425	 7,73904351858775E-03 
426	 6,80772171644901E-03 
427	 7,07181805035021E-03 
428	 8,91216288828509E-03 
429	 1,40111904925651E-02 
430	 1,42368952255589E-02 
431	 9,59625386201612E-03 
432	 1,14107668993189E-02 
433	 1,40247175713082E-02 
434	 0,01234509745963 
435	 1,21364582647617E-02 
436	 1,36840471701311E-02 
437	 1,54521479228173E-02 
438	 1,53066836828728E-02 
439	 0,013012087714952 
440	 0,013166966230709 
441	 1,46546983699359E-02 
442	 1,55427714777106E-02 
443	 1,42530781147679E-02 
444	 1,17512610441767E-02 
445	 1,28180796295076E-02 
446	 1,31132694493087E-02 
447	 1,05293923087926E-02 
448	 0,01165739557232 
449	 1,43650988753257E-02 
450	 1,29609732196583E-02 
451	 1,29820401061447E-02 
452	 1,52099804045196E-02 
453	 1,52906699520464E-02 
454	 1,47125440522519E-02 
455	 1,49678293341347E-02 
456	 1,44073770594122E-02 
457	 0,013661930763123 
458	 1,56541804437343E-02 
459	 1,48146448129675E-02 
460	 1,00709770639293E-02 
461	 1,04865935019082E-02 
462	 1,36965372586517E-02 
463	 1,54009704705801E-02 
464	 1,50345569170008E-02 
465	 1,34429555335705E-02 
466	 0,014545247423512 
467	 1,56491936091723E-02 
468	 1,51586378382993E-02 
469	 1,56603342126922E-02 
470	 1,66856940661219E-02 
471	 1,67370556384302E-02 
472	 1,59843678880727E-02 
473	 1,43054792394688E-02 
474	 1,05027476413659E-02 
475	 8,76216128065807E-03 
476	 0,012845534533549 
477	 1,47741113241165E-02 
478	 1,42392910711764E-02 
479	 0,015667505162647 
480	 1,54965417793498E-02 
481	 1,29370055817793E-02 
482	 1,43464688474953E-02 
483	 1,63558779887514E-02 
484	 0,012967661879238 
485	 1,20671273687173E-02 
486	 1,43462315434778E-02 
487	 1,41022095246865E-02 
488	 0,013232269664084 
489	 1,31980929224832E-02 
490	 1,31899964948305E-02 
491	 1,26652061444108E-02 
492	 1,01521163814077E-02 
493	 1,02619785397438E-02 
494	 1,34130280942931E-02 
495	 1,21737041301407E-02 
496	 1,00241454703997E-02 
497	 1,14388258592268E-02 
498	 1,28881211187178E-02 
499	 1,35123692966757E-02 
500	 0,013357285168281 
501	 1,25049329223609E-02 
502	 0,011290248420844 
503	 0,011637658415913 
504	 1,28258533909317E-02 
505	 1,33060219159039E-02 
506	 1,25657360902987E-02 
507	 0,011048609651134 
508	 1,13056722436274E-02 
509	 1,26447542093599E-02 
510	 1,42007916242924E-02 
511	 1,40259650700881E-02 
512	 1,26308320904491E-02 
513	 1,23226304973178E-02 
514	 1,21909419130753E-02 
515	 1,20704836301869E-02 
516	 0,013129997718582 
517	 1,46206671599511E-02 
518	 1,54580707541693E-02 
519	 1,49461285809376E-02 
520	 1,35989622462036E-02 
521	 1,39887776296675E-02 
522	 1,44689642093205E-02 
523	 1,38514526437395E-02 
524	 1,29836730998239E-02 
525	 1,24699156222697E-02 
526	 1,33695713713303E-02 
527	 1,44437870458131E-02 
528	 1,48592750293843E-02 
529	 1,28662460644867E-02 
530	 1,08308952970682E-02 
531	 1,15016563236758E-02 
532	 0,012897625058425 
533	 1,41599663743705E-02 
534	 1,42847856541133E-02 
535	 1,41704765624429E-02 
536	 1,43154349613025E-02 
537	 0,014130959603709 
538	 0,013710908351388 
539	 1,33278331298894E-02 
540	 1,30197421452023E-02 
541	 1,28593847675946E-02 
542	 1,30233994527523E-02 
543	 1,32327783313042E-02 
544	 1,32148169007304E-02 
545	 1,31317382943495E-02 
546	 1,31469751838369E-02 
547	 1,36753709963813E-02 
548	 1,39203728035442E-02 
549	 1,36248484970128E-02 
550	 1,40156881131317E-02 
551	 1,45871460361934E-02 
552	 1,43308761285619E-02 
553	 1,45107891167899E-02 
554	 1,49747401979809E-02 
555	 1,35376010530856E-02 
556	 1,24485912325826E-02 
557	 1,34766133776446E-02 
558	 1,37288913249227E-02 
559	 1,32118641695069E-02 
560	 1,33803873422067E-02 
561	 1,31054896095576E-02 
562	 1,22168630549491E-02 
563	 1,23674000365947E-02 
564	 1,29760545859795E-02 
565	 1,30886053846567E-02 
566	 1,32257133397336E-02 
567	 1,33275457063899E-02 
568	 1,27960699859052E-02 
569	 1,22236016769505E-02 
570	 1,20713289631943E-02 
571	 1,22964662742272E-02 
572	 0,013000679700842 
573	 1,45699040226014E-02 
574	 0,015274127017219 
575	 1,47737208489189E-02 
576	 1,50827518448308E-02 
577	 0,015581193993935 
578	 1,54166187997931E-02 
579	 1,48658261326193E-02 
580	 1,44057537116556E-02 
581	 1,53107137940382E-02 
582	 1,61230134229607E-02 
583	 0,016044373583328 
584	 1,59300876484096E-02 
585	 1,61580341610256E-02 
586	 1,72105433558205E-02 
587	 1,80751664952082E-02 
588	 1,83273066722982E-02 
589	 1,77628274793479E-02 
590	 1,71408251225177E-02 
591	 1,71512549370154E-02 
592	 1,68213059828068E-02 
593	 0,016549918525169 
594	 1,80725467787488E-02 
595	 1,90066153401371E-02 
596	 1,83825588857033E-02 
597	 1,80145313267086E-02 
598	 1,78254273757863E-02 
599	 1,73891601874589E-02 
600	 1,68515280169214E-02 
601	 1,65501825374462E-02 
602	 1,76831211161469E-02 
603	 1,84659908663867E-02 
604	 0,017579093555312 
605	 1,70483709455504E-02 
606	 1,69714069425599E-02 
607	 1,66372993173557E-02 
608	 1,65073242050158E-02 
609	 1,66989026953648E-02 
610	 1,69376247748308E-02 
611	 1,70567266520408E-02 
612	 1,68925060025544E-02 
613	 1,64899123990358E-02 
614	 1,59740018048969E-02 
615	 1,56577013275848E-02 
616	 1,54327575094935E-02 
617	 0,01525491113644 
618	 1,53204589993921E-02 
619	 1,56013991592335E-02 
620	 1,60680043837781E-02 
621	 1,60785081412511E-02 
622	 1,55058408884776E-02 
623	 1,48304723753156E-02 
624	 1,46885792479066E-02 
625	 1,56259478274698E-02 
626	 1,57253561837437E-02 
627	 1,51639743674982E-02 
628	 1,57735666833401E-02 
629	 1,63749645354524E-02 
630	 1,64030938916113E-02 
631	 1,64426246842271E-02 
632	 1,63532052621636E-02 
633	 1,57727481850521E-02 
634	 1,55812463213468E-02 
635	 1,60156040830366E-02 
636	 1,68672299395738E-02 
637	 1,74624220552513E-02 
638	 1,72987937260877E-02 
639	 1,75540761012815E-02 
640	 1,82237526133245E-02 
641	 1,88480007866368E-02 
642	 1,87618746818734E-02 
643	 1,79966053167624E-02 
644	 1,86482675653378E-02 
645	 1,97091493275368E-02 
646	 1,96330845853531E-02 
647	 1,93357549634743E-02 
648	 1,90734960594964E-02 
649	 1,89243031372444E-02 
650	 1,87986051884446E-02 
651	 1,86428614638499E-02 
652	 1,85145412594916E-02 
653	 0,018507828291775 
654	 1,88858562481408E-02 
655	 1,86266592768308E-02 
656	 1,76150865783863E-02 
657	 0,017111265322555 
658	 1,69884744082813E-02 
659	 1,70108928837319E-02 
660	 1,68191853527235E-02 
661	 1,63756614240622E-02 
662	 1,58625765175331E-02 
663	 1,53121263538361E-02 
664	 0,014810448583083 
665	 1,46951314093742E-02 
666	 1,47715832196474E-02 
667	 1,46830986822386E-02 
668	 1,45865524497818E-02 
669	 1,44760596266812E-02 
670	 0,014223781375853 
671	 1,38609381926185E-02 
672	 1,34422460529116E-02 
673	 0,013200983497011 
674	 1,32120491499223E-02 
675	 1,35482178564502E-02 
676	 1,39793710661748E-02 
677	 1,42589128621761E-02 
678	 1,36323348603766E-02 
679	 1,31071179923662E-02 
680	 1,39193049061643E-02 
681	 1,44888182334382E-02 
682	 1,44734789603337E-02 
683	 1,39582928594206E-02 
684	 1,40469480897725E-02 
685	 1,51895715724592E-02 
686	 1,51115109147149E-02 
687	 0,014659512610965 
688	 0,015879410332698 
689	 1,71469400244884E-02 
690	 1,79704255921659E-02 
691	 1,83779178357862E-02 
692	 1,92394539971694E-02 
693	 2,12766768594413E-02 
694	 2,32223879796986E-02 
695	 2,51493617666833E-02 
696	 0,027901274339413 
697	 3,07928683789478E-02 
698	 3,37572272567343E-02 
699	 3,80456984100012E-02 
700	 4,29841472109089E-02 
701	 4,75984420443877E-02 
702	 5,22680560722092E-02 
703	 5,72093473365788E-02 
704	 6,29003999957918E-02 
705	 6,88244105349921E-02 
706	 7,46155974022695E-02 
707	 8,01336756224576E-02 
708	 8,54960707399288E-02 
709	 9,09761768886722E-02 
710	 9,64282171719373E-02 
711	 0,101692372570898 
712	 0,106240577917945 
713	 0,110634452146375 
714	 0,115396296390834 
715	 0,12009169503908 
716	 0,124523589634412 
717	 0,128462835573989 
718	 0,131976903926684 
719	 0,135191777176644 
720	 0,138592957789829 
721	 0,142019014039183 
722	 0,145222011896456 
723	 0,147677241332887 
724	 0,149497568402622 
725	 0,151486304516222 
726	 0,153533400431344 
727	 0,155536354048939 
728	 0,157223945527217 
729	 0,158638180326563 
730	 0,159921174839374 
731	 0,161095246478277 
732	 0,162209442264278 
733	 0,163348865936855 
734	 0,164540114899293 
735	 0,165760415525708 
736	 0,166469305159195 
737	 0,166857555087533 
738	 0,167673624021176 
739	 0,168270503771078 
740	 0,168534081830538 
741	 0,169218570883742 
742	 0,169979463672928 
743	 0,170356686881496 
744	 0,170782434447059 
745	 0,171315332994739 
746	 0,17181086811326 
747	 0,172365636301007 
748	 0,172958846982464 
749	 0,173126310846156 
750	 0,173046379997223 
751	 0,173059675196928 
752	 0,17336744540494 
753	 0,173920539911452 
754	 0,17429754500381 
755	 0,174475557312131 
756	 0,174471133758717 
757	 0,174576156096514 
758	 0,174792843957749 
759	 0,175022199624985 
760	 0,175213325617881 
761	 0,175327232983275 
762	 0,175282654134904 
763	 0,17534055577251 
764	 0,175730584005484 
765	 0,176109359740128 
766	 0,176358685573702 
767	 0,176357651965879 
768	 0,176397979704569 
769	 0,176591278465836 
770	 0,176786746116193 
771	 0,17695594520896 
772	 0,177083280029066 
773	 0,177343508245436 
774	 0,177691198051631 
775	 0,177957775630633 
776	 0,177741002148086 
777	 0,177003373578404 
778	 0,176973438464134 
779	 0,177550946859061 
780	 0,178379097196313 
781	 0,178501351125275 
782	 0,177990375882737 
783	 0,178213405973238 
784	 0,178415079388759 
785	 0,178167444720329 
786	 0,17829044369569 
787	 0,178618698763837 
788	 0,178658264387712 
789	 0,17869504146375 
790	 0,178821249188508 
791	 0,179120264900071 
792	 0,179210089514138 
793	 0,178852228196636 
794	 0,178909406025913 
795	 0,179263295682978 
796	 0,179341402993737 
797	 0,179381967746601 
798	 0,179471921943968 
799	 0,179704689600281 
800	 0,179888563438376 
801	 0,179858358521853 
802	 0,179949196599013 
803	 0,180166264185518 
804	 0,180359141614448 
805	 0,18054607786663 
806	 0,180683827093909 
807	 0,180570865556548 
808	 0,180412251819641 
809	 0,180439939232273 
810	 0,180576690229044 
811	 0,18073740658016 
812	 0,180674374985255 
813	 0,180885981655051 
814	 0,181547767111902 
815	 0,182389065253685 
816	 0,182823110527182 
817	 0,182246832915668 
818	 0,18221653314082 
819	 0,182717605500083 
820	 0,182497918542144 
821	 0,182439829024353 
822	 0,182888840834454 
823	 0,18332126756425 
824	 0,183374663145435 
825	 0,18268525455549 
826	 0,182673914063321 
827	 0,183360684296667 
828	 0,183644455433304 
829	 0,18371225603643 
830	 0,183688868525297 
831	 0,18387564642843 
832	 0,184184298952999 
833	 0,184442057712631 
834	 0,184566142905827 
835	 0,184519647599186 
836	 0,184219717284863 
837	 0,184220287969726 
838	 0,184727484830764 
839	 0,184851795806989 
840	 0,184753400979782 
841	 0,184802849925419 
842	 0,185049853291961 
843	 0,185471986498198 
844	 0,186004236409885 
845	 0,18609680279515 
846	 0,185574326785743 
847	 0,185550911186743 
848	 0,18573642294133 
849	 0,185534865390892 
850	 0,185759595902633 
851	 0,186222151675954 
852	 0,1855576739791 
853	 0,185396774265695 
854	 0,186351374642431 
855	 0,186024081476298 
856	 0,185425489729624 
857	 0,186260840069949 
858	 0,186994975793468 
859	 0,187243931607192 
860	 0,187082425540404 
861	 0,186811577677623 
862	 0,186598438892886 
863	 0,186162255596072 
864	 0,186095832496295 
865	 0,187147380152467 
866	 0,187570457344807 
867	 0,187334727776113 
868	 0,187845688080719 
869	 0,187709449157494 
870	 0,186704999052626 
871	 0,187682005992078 
872	 0,189185733329893 
873	 0,189191836519656 
874	 0,189031677307589 
875	 0,188939391408222 
876	 0,188667379074288 
877	 0,188911994293308 
878	 0,189741775245829 
879	 0,189701515020986 
880	 0,189505306598906 
881	 0,190011530400886 
882	 0,190382193814864 
883	 0,190495553286262 
884	 0,190442885728201 
885	 0,190550781252366 
886	 0,190936092365531 
887	 0,19151575782355 
888	 0,191678100714171 
889	 0,190984264918315 
890	 0,191240205161616 
891	 0,192075882528695 
892	 0,191912771937806 
893	 0,191964162935206 
894	 0,192482557805862 
895	 0,192873908667787 
896	 0,192987208465495 
897	 0,192738290509373 
898	 0,192335117856159 
899	 0,192067444198764 
900	 0,192352931720173 
901	 0,192748494361895 
902	 0,193101719137431 
903	 0,1934935060305 
904	 0,193458372153362 
905	 0,192839385717768 
906	 0,192659440408353 
907	 0,192985856140071 
908	 0,193697729274497 
909	 0,194149536218879 
910	 0,194227358533781 
911	 0,194185967752409 
912	 0,194283316779207 
913	 0,194505792218625 
914	 0,193830017613241 
915	 0,193342114727197 
916	 0,194216125936229 
917	 0,1939760759893 
918	 0,193128818198561 
919	 0,194415374063191 
920	 0,194676423058113 
921	 0,193431931950688 
922	 0,194030959034577 
923	 0,194488638338358 
924	 0,193205820787821 
925	 0,192572733033993 
926	 0,192425128979736 
927	 0,191743392170707 
928	 0,191577816707604 
929	 0,192035633790248 
930	 0,192465634399201 
931	 0,19267948174777 
932	 0,192485744459854 
933	 0,191495254243686 
934	 0,190615706162708 
935	 0,190975376793396 
936	 0,190615779679847 
937	 0,189609742065929 
938	 0,189456431531267 
939	 0,189206311377424 
940	 0,188728294998379 
941	 0,189351222663789 
942	 0,189325129057068 
943	 0,187268060435542 
944	 0,185973733340814 
945	 0,185502025518919 
946	 0,185058264604691 
947	 0,184405760019832 
948	 0,183537422751202 
949	 0,182886701854603 
950	 0,18217358100589 
951	 0,181239960325219 
952	 0,180186769838056 
953	 0,179001837445685 
954	 0,177663758188474 
955	 0,176006762802327 
956	 0,174465005298875 
957	 0,174260684145293 
958	 0,173629800692775 
959	 0,17242093128354 
960	 0,172932503904731 
961	 0,173900325997541 
962	 0,174225898105865 
963	 0,173981593906607 
964	 0,17296042523469 
965	 0,170902249931413 
966	 0,170995582023726 
967	 0,172888557741784 
968	 0,173026571686147 
969	 0,171880746112286 
970	 0,170137763832481 
971	 0,170656837156262 
972	 0,171474956096397 
973	 0,170749528468543 
974	 0,170603705799866 
975	 0,171183541155299 
976	 0,172151079839772 
977	 0,172402139669968 
978	 0,172001250786708 
979	 0,172354169534777 
980	 0,173212261112098 
981	 0,173987854419549 
982	 0,172045260544984 
983	 0,170152375826991 
984	 0,17126053687804 
985	 0,173973446811292 
986	 0,176424258600352 
987	 0,175697007648665 
988	 0,17349134437521 
989	 0,171596588675376 
990	 0,17438984639367 
991	 0,176324851070672 
992	 0,174976999334396 
993	 0,174994288301568 
994	 0,175790773890596 
995	 0,176446872280271 
996	 0,17851018974735 
997	 0,180111999931894 
998	 0,177164585895275 
999	 0,177255179649393 
1000	 0,180780586247439 
1001	 0,18084998726911 
1002	 0,180076489300893 
1003	 0,179850045781525 
1004	 0,18020205407502 
1005	 0,180982436656964 
1006	 0,181887301847062 
1007	 0,181495140035308 
1008	 0,181236050855838 
1009	 0,184009551828643 
1010	 0,186525794927033 
1011	 0,188009992901068 
1012	 0,189308776152391 
1013	 0,190010324858968 
1014	 0,189756188179624 
1015	 0,187464609645045 
1016	 0,186362797899137 
1017	 0,188736023229216 
1018	 0,189241748057678 
1019	 0,188743630487938 
1020	 0,189710950908389 
1021	 0,190848088405819 
1022	 0,191462646231778 
1023	 0,189906045295772 
1024	 0,192207323133779 
1025	 0,197468730866252 
1026	 0,1914825877003 
1027	 0,187715454090609 
1028	 0,193749051550232 
1029	 0,194853907648947 
1030	 0,193588229877991 
1031	 0,194710173739968 
1032	 0,196979861616446 
1033	 0,198865970214115 
1034	 0,197878466008328 
1035	 0,195217648691963 
1036	 0,192382049323351 
1037	 0,192725528250534 
1038	 0,193282244921756 
1039	 0,193544450381792 
1040	 0,198395222285887 
1041	 0,203725448093994 
1042	 0,205435867898857 
1043	 0,201101694784419 
1044	 0,196500520197601 
1045	 0,19987252593883 
1046	 0,200634800670397 
1047	 0,198951966477558 
1048	 0,200596984154067 
1049	 0,20291534006338 
1050	 0,204531383286096 
1051	 0,20390225074109 
1052	 0,201193380822479 
1053	 0,19828676144338 
1054	 0,204136945674519 
1055	 0,208908091916085 
1056	 0,205182412029961 
1057	 0,208612885908866 
1058	 0,213565061542125 
1059	 0,209590932527823 
1060	 0,206867565430202 
1061	 0,206396949323437 
1062	 0,205312947929229 
1063	 0,20937274959839 
1064	 0,214178007748511 
1065	 0,197036945407283 
1066	 0,188556924155536 
1067	 0,201041111889852 
1068	 0,213265279514848 
1069	 0,220129814052777 
1070	 0,218254059739773 
1071	 0,211173310127126 
1072	 0,204443238931313 
1073	 0,203446854905423 
1074	 0,198095112923356 
1075	 0,192840824304527 
