Wavelength	AVEN00231.asd
325	 6,84627516004563E-02 
326	 0,231948126139546 
327	 0,228825045844739 
328	 2,51661437776203E-02 
329	 1,05824190592198E-02 
330	 6,47041433690295E-02 
331	 5,79713047047869E-02 
332	 4,85307255825184E-02 
333	 1,78044960383269E-02 
334	-0,127652626630136 
335	-8,13462053706473E-02 
336	 0,134978084801392 
337	 0,132815807288829 
338	 7,91644118855024E-02 
339	 0,112912021951638 
340	 1,54927850882145E-02 
341	-0,119333320568469 
342	-4,78416438130139E-02 
343	 2,38025770212443E-02 
344	 4,12942384989493E-02 
345	 4,57876052274252E-02 
346	 5,02097236563872E-02 
347	 6,28050250421871E-02 
348	 5,13741445815484E-02 
349	 2,35777613763523E-02 
350	 5,34301205359143E-03 
351	 1,25842538569353E-02 
352	 4,39785011345384E-02 
353	 6,46634112889521E-02 
354	 6,05526067387567E-02 
355	 1,87836804122315E-02 
356	 1,17009178188502E-02 
357	 0,032131559153313 
358	 4,30902326043902E-03 
359	-1,36591223490785E-02 
360	 5,40327105717076E-04 
361	 5,0462815232129E-03 
362	 2,27762719676383E-03 
363	 2,78661330995047E-03 
364	 8,55350544390538E-03 
365	 1,99275840549761E-02 
366	 4,27707964999629E-02 
367	 4,82743186095703E-02 
368	 2,20796071891977E-02 
369	 0,014446155642963 
370	 1,76701717063521E-02 
371	 5,99345282832205E-03 
372	 6,67051958101496E-03 
373	 2,26286014372213E-02 
374	 3,59824654635072E-02 
375	 3,95179692084813E-02 
376	 3,00223264015214E-02 
377	 2,54581893483744E-02 
378	 2,28573935265978E-02 
379	 7,15206711665124E-03 
380	 8,52614184225229E-03 
381	 2,62649999396753E-02 
382	 1,68608824296473E-02 
383	-2,54612156309123E-03 
384	-0,012048029090975 
385	-1,19856402639557E-02 
386	-6,07928440564406E-03 
387	-7,06254971780558E-03 
388	 9,27561554595862E-03 
389	 4,17279121035185E-02 
390	 3,55163208942743E-02 
391	 1,64324683922009E-02 
392	 1,69032549148993E-02 
393	 2,11846757094177E-02 
394	 2,37245597343951E-02 
395	 1,70235560340797E-02 
396	 1,39359294752977E-02 
397	 1,96337426332982E-02 
398	 2,10442300589592E-02 
399	 1,77200483620717E-02 
400	 0,011065073114829 
401	 1,08805296090867E-02 
402	 1,69097280892697E-02 
403	 1,86888635580415E-02 
404	 1,95085104549986E-02 
405	 2,17335398615327E-02 
406	 2,40852778634071E-02 
407	 0,025891119496701 
408	 2,68006310426032E-02 
409	 2,51685554757735E-02 
410	 2,01649421027572E-02 
411	 9,0802733112296E-03 
412	 3,33215537802359E-03 
413	 1,24458409433187E-02 
414	 1,79764436020707E-02 
415	 1,82204250983157E-02 
416	 1,82941496100037E-02 
417	 0,018704856652726 
418	 2,00950682993898E-02 
419	 2,41047730883954E-02 
420	 2,66831273840926E-02 
421	 2,28343968337615E-02 
422	 2,04583616295644E-02 
423	 1,95862566907013E-02 
424	 1,29048652159988E-02 
425	 9,18977014336166E-03 
426	 1,30195765145878E-02 
427	 1,45344774430445E-02 
428	 1,47291301923306E-02 
429	 1,81740786459207E-02 
430	 1,83716666930313E-02 
431	 0,015170863957074 
432	 1,61498427569001E-02 
433	 1,85130620458424E-02 
434	 1,94518860929488E-02 
435	 1,84283530236573E-02 
436	 1,66829287435628E-02 
437	 0,017457272011625 
438	 1,93606016373015E-02 
439	 2,14034050623179E-02 
440	 0,021285686955081 
441	 2,06887782831469E-02 
442	 2,19995191189629E-02 
443	 1,91969480729778E-02 
444	 1,35909397590361E-02 
445	 1,39670098714445E-02 
446	 0,015890207505126 
447	 1,62978166335603E-02 
448	 1,40109227097616E-02 
449	 1,16946970199447E-02 
450	 1,45755999809735E-02 
451	 0,017781881430494 
452	 1,95524657962913E-02 
453	 1,98869778834402E-02 
454	 1,90344615994268E-02 
455	 1,73603215300953E-02 
456	 1,58550392374979E-02 
457	 1,57754894818759E-02 
458	 2,07946048035028E-02 
459	 2,00440230648281E-02 
460	 1,13315234002687E-02 
461	 1,28050652105009E-02 
462	 1,83959227631314E-02 
463	 1,77558611444772E-02 
464	 1,62369107128663E-02 
465	 1,55675426600146E-02 
466	 1,74892678130321E-02 
467	 1,89491076831635E-02 
468	 1,81463971655426E-02 
469	 1,83455496232495E-02 
470	 1,90004335409657E-02 
471	 0,018055622944981 
472	 1,74948173307071E-02 
473	 0,017463575111121 
474	 1,54072121620465E-02 
475	 0,013416727501348 
476	 1,36178715752394E-02 
477	 1,47335541297748E-02 
478	 1,64479380633061E-02 
479	 1,92225779761078E-02 
480	 1,94013107517452E-02 
481	 0,016071214975969 
482	 1,57368447868576E-02 
483	 1,69486969888136E-02 
484	 1,65064574177717E-02 
485	 1,52315016153283E-02 
486	 1,40000865575451E-02 
487	 1,54006722046906E-02 
488	 1,68795016730627E-02 
489	 1,66142570111577E-02 
490	 1,73524054811099E-02 
491	 1,83560311353497E-02 
492	 1,68647724618359E-02 
493	 1,58167255290865E-02 
494	 1,62185563016725E-02 
495	 1,73369213106231E-02 
496	 1,82522172642831E-02 
497	 1,80304681349471E-02 
498	 1,80985720743026E-02 
499	 1,86175013146816E-02 
500	 0,019240923827918 
501	 0,018821229276842 
502	 0,016985094961369 
503	 1,63013989922746E-02 
504	 1,65832053056586E-02 
505	 1,69244007980346E-02 
506	 1,68920050384843E-02 
507	 1,63901512023811E-02 
508	 1,57047562378177E-02 
509	 1,57812721323941E-02 
510	 1,72992108817129E-02 
511	 1,75702685563062E-02 
512	 1,67638201598574E-02 
513	 1,68533623322584E-02 
514	 1,61101314856285E-02 
515	 1,46155764445622E-02 
516	 1,78278735191625E-02 
517	 2,14512076248671E-02 
518	 1,89873883947083E-02 
519	 1,66432143203399E-02 
520	 1,60554191628632E-02 
521	 1,68231876770612E-02 
522	 1,74822609799159E-02 
523	 1,70152729814979E-02 
524	 1,65183012291886E-02 
525	 1,65106751847504E-02 
526	 1,78670711292601E-02 
527	 1,87517404766489E-02 
528	 1,85349703214473E-02 
529	 1,78626229220606E-02 
530	 1,71157002482898E-02 
531	 1,66553833103732E-02 
532	 1,69888196407382E-02 
533	 1,78366328991663E-02 
534	 1,80201800660695E-02 
535	 1,79983362115302E-02 
536	 1,80629439106787E-02 
537	 1,83891667499546E-02 
538	 1,86209219516222E-02 
539	 1,80529519275103E-02 
540	 1,74646692815821E-02 
541	 1,71342903882772E-02 
542	 1,70177251739551E-02 
543	 1,70799688338808E-02 
544	 1,72708365173862E-02 
545	 1,72802467435524E-02 
546	 1,72915296029199E-02 
547	 1,81652452455116E-02 
548	 1,83035058285999E-02 
549	 1,72486835878813E-02 
550	 1,78377350462179E-02 
551	 1,87358264444524E-02 
552	 0,017334530304354 
553	 1,70184418303959E-02 
554	 1,81162429176541E-02 
555	 1,78842623431273E-02 
556	 1,73025761204779E-02 
557	 1,72537550577599E-02 
558	 1,75276625794021E-02 
559	 1,78404821079362E-02 
560	 1,75670160177264E-02 
561	 1,71853147215857E-02 
562	 1,69541503839911E-02 
563	 1,71620852930888E-02 
564	 1,74432890500685E-02 
565	 1,72973361950509E-02 
566	 1,67209991893924E-02 
567	 1,60236215151042E-02 
568	 1,61832281752437E-02 
569	 1,67234476751915E-02 
570	 1,72445113668246E-02 
571	 1,72655755584957E-02 
572	 0,017365339314641 
573	 0,01919884328864 
574	 1,96466569331337E-02 
575	 1,81737955200893E-02 
576	 1,83418525674608E-02 
577	 1,90833931730253E-02 
578	 1,89357218255018E-02 
579	 1,94431532366026E-02 
580	 2,04400242607825E-02 
581	 2,03969687823048E-02 
582	 2,02473874618537E-02 
583	 2,04752788375532E-02 
584	 2,03482366355457E-02 
585	 2,03298795394267E-02 
586	 2,14486889660274E-02 
587	 0,021848178028047 
588	 2,12311845380849E-02 
589	 2,10463469347743E-02 
590	 2,10981124027781E-02 
591	 2,11407411281648E-02 
592	 2,10990568323599E-02 
593	 2,11063226918317E-02 
594	 0,021641597848089 
595	 2,19590391613847E-02 
596	 2,17736307858986E-02 
597	 2,17322210921609E-02 
598	 2,19292411209552E-02 
599	 2,24249014974856E-02 
600	 2,21015409394281E-02 
601	 2,11363292575577E-02 
602	 2,15515727143742E-02 
603	 2,20159838232562E-02 
604	 2,14792681081515E-02 
605	 2,07741551957854E-02 
606	 2,02936922624981E-02 
607	 2,06503203026084E-02 
608	 2,09470302589036E-02 
609	 2,08284676124891E-02 
610	 2,05733727319504E-02 
611	 2,01319019126757E-02 
612	 1,94225758590342E-02 
613	 1,92388304989015E-02 
614	 1,95671176939464E-02 
615	 1,97462784961142E-02 
616	 1,93783917739693E-02 
617	 0,01842676159168 
618	 1,90636857552695E-02 
619	 2,04066653298007E-02 
620	 2,01371815283965E-02 
621	 1,96193710047125E-02 
622	 1,92621218290103E-02 
623	 1,87327811113887E-02 
624	 1,87907059441791E-02 
625	 2,01351218174695E-02 
626	 0,020589817553844 
627	 2,00268757006149E-02 
628	 1,94928374557984E-02 
629	 1,93270748657175E-02 
630	 0,019706364058549 
631	 2,01822322358122E-02 
632	 2,05050953574011E-02 
633	 2,03895571323058E-02 
634	 2,02593693955707E-02 
635	 2,02812465114759E-02 
636	 0,020509918148698 
637	 2,08083184404305E-02 
638	 2,10487090557446E-02 
639	 2,12242535344407E-02 
640	 2,13121475101521E-02 
641	 2,11684539867596E-02 
642	 2,15266485816851E-02 
643	 2,24991623832408E-02 
644	 2,28117274493408E-02 
645	 2,27123427774985E-02 
646	 0,022685491231998 
647	 2,26719584617818E-02 
648	 0,022647450598771 
649	 2,24969944003326E-02 
650	 2,23465933790227E-02 
651	 2,22697506288718E-02 
652	 0,022075093594825 
653	 2,19021877943524E-02 
654	 2,21613183466438E-02 
655	 2,18489235307365E-02 
656	 2,09211632566167E-02 
657	 2,09429158676513E-02 
658	 2,11968449543719E-02 
659	 2,08529342282497E-02 
660	 2,03846211385859E-02 
661	 1,99069536388594E-02 
662	 1,94470606053208E-02 
663	 1,90620132072813E-02 
664	 1,88096996647242E-02 
665	 1,88507510789697E-02 
666	 1,88993793954895E-02 
667	 1,84876171927442E-02 
668	 1,82382454833705E-02 
669	 1,82679459204014E-02 
670	 1,83203486525104E-02 
671	 1,82054169374175E-02 
672	 1,77970332669747E-02 
673	 1,73323110219857E-02 
674	 1,71678562981885E-02 
675	 1,81129592878238E-02 
676	 0,018770901271906 
677	 1,85855951615578E-02 
678	 1,77721226282307E-02 
679	 1,71604266838435E-02 
680	 1,76879330751478E-02 
681	 1,86444152453328E-02 
682	 1,94790035502066E-02 
683	 1,90715660728677E-02 
684	 1,87791506638565E-02 
685	 1,93280274107751E-02 
686	 1,94292391859693E-02 
687	 1,94855687457165E-02 
688	 0,020543627445388 
689	 2,12011625027362E-02 
690	 2,12603396446808E-02 
691	 0,021764924084 
692	 2,28248317121681E-02 
693	 2,44373836273265E-02 
694	 2,55273559051478E-02 
695	 2,64940398283518E-02 
696	 2,88799418784134E-02 
697	 3,16419313976673E-02 
698	 3,44034262778628E-02 
699	 0,037630812199283 
700	 0,041037706795767 
701	 4,42377147162613E-02 
702	 4,78084255515132E-02 
703	 5,17781478905327E-02 
704	 5,57893941767382E-02 
705	 5,97685972072367E-02 
706	 6,36767315844233E-02 
707	 6,75846407296192E-02 
708	 7,14981881888916E-02 
709	 7,54333659236721E-02 
710	 7,90830464032727E-02 
711	 8,24653674436755E-02 
712	 8,61746564441069E-02 
713	 8,96259915113659E-02 
714	 9,23003236560567E-02 
715	 9,50921520627315E-02 
716	 9,80539255422712E-02 
717	 0,100914529230331 
718	 0,103271618269352 
719	 0,105092800401003 
720	 0,10736582700897 
721	 0,109767284129067 
722	 0,111781107526093 
723	 0,113032329007318 
724	 0,113833806940847 
725	 0,11552490578213 
726	 0,117257785765636 
727	 0,118500699967334 
728	 0,11960005601549 
729	 0,120466842942455 
730	 0,120832915214293 
731	 0,121434463737794 
732	 0,122419068000541 
733	 0,123300951012328 
734	 0,124039039549438 
735	 0,124625923576982 
736	 0,125326661568825 
737	 0,126014718522119 
738	 0,126259951560638 
739	 0,126354119054839 
740	 0,126514972885054 
741	 0,127249390643565 
742	 0,128004531492074 
743	 0,128109683835953 
744	 0,128414773923494 
745	 0,128895564366393 
746	 0,128788548522882 
747	 0,128990304517578 
748	 0,129848014559905 
749	 0,130166323951494 
750	 0,13014588613363 
751	 0,130312364755256 
752	 0,130591422180768 
753	 0,130965264704631 
754	 0,131444657282928 
755	 0,131633431111543 
756	 0,131303656601191 
757	 0,131144367803752 
758	 0,13127817079799 
759	 0,131694252986369 
760	 0,13226259222711 
761	 0,132775008202145 
762	 0,132583457351058 
763	 0,132470540471907 
764	 0,133133177336647 
765	 0,133173228924761 
766	 0,132793306157632 
767	 0,133209912122627 
768	 0,133743585763367 
769	 0,134084030457294 
770	 0,134052885695037 
771	 0,133970146074203 
772	 0,134225342938336 
773	 0,13447011212905 
774	 0,134610152126695 
775	 0,134611103391878 
776	 0,134618540905062 
777	 0,134696600277301 
778	 0,134638739297925 
779	 0,13469227483925 
780	 0,13524570592558 
781	 0,135576943028812 
782	 0,135589664154163 
783	 0,135707003359505 
784	 0,135871948971323 
785	 0,136022555820276 
786	 0,135920879904815 
787	 0,135783703248804 
788	 0,136050542919201 
789	 0,136322912471714 
790	 0,136490361066687 
791	 0,136654643672365 
792	 0,136759269107826 
793	 0,136766943754129 
794	 0,136728657961628 
795	 0,136832854303499 
796	 0,137513184546365 
797	 0,137725702511856 
798	 0,137321572774908 
799	 0,137471364292303 
800	 0,137753379669498 
801	 0,137731213617121 
802	 0,137694295120223 
803	 0,137829086603993 
804	 0,138541242687844 
805	 0,138936307075218 
806	 0,138773612869387 
807	 0,138818341527619 
808	 0,138957793627734 
809	 0,139016352092565 
810	 0,139087434972949 
811	 0,139163107683698 
812	 0,139185314388053 
813	 0,139129998028946 
814	 0,139077136784483 
815	 0,139549170321369 
816	 0,140051256547549 
817	 0,139966363386811 
818	 0,139844929557427 
819	 0,139947064521308 
820	 0,140709783168605 
821	 0,141120243538402 
822	 0,140820748802717 
823	 0,14098817883101 
824	 0,141360111242809 
825	 0,141451224018694 
826	 0,141584859285903 
827	 0,141794304304887 
828	 0,141988309892956 
829	 0,141994592768228 
830	 0,141834033839323 
831	 0,142331017023795 
832	 0,142865911852843 
833	 0,142495282989059 
834	 0,142514084221252 
835	 0,142927163160323 
836	 0,142597714604363 
837	 0,142506519797761 
838	 0,143046852404565 
839	 0,143005897185991 
840	 0,142696380033547 
841	 0,142747950296738 
842	 0,142524547218725 
843	 0,142240773530481 
844	 0,14315693441981 
845	 0,143713866490767 
846	 0,143250420189707 
847	 0,143748410104942 
848	 0,144452737219233 
849	 0,144012681846963 
850	 0,143576122727657 
851	 0,143394832484049 
852	 0,143242580318676 
853	 0,143318250534003 
854	 0,14364617709134 
855	 0,143591776765544 
856	 0,143643792204255 
857	 0,144545414385755 
858	 0,144733852127584 
859	 0,14426070872205 
860	 0,144644619129692 
861	 0,144828114645105 
862	 0,144377508948347 
863	 0,144179891650678 
864	 0,144306373538917 
865	 0,144711248796908 
866	 0,145206737398719 
867	 0,145558280192382 
868	 0,145228564721079 
869	 0,145115211217489 
870	 0,145560272027807 
871	 0,145674457316937 
872	 0,145810369493143 
873	 0,146460145704472 
874	 0,146855064566269 
875	 0,146837562261709 
876	 0,146423818646613 
877	 0,146285473171656 
878	 0,146680580797732 
879	 0,147142143183148 
880	 0,147440197881245 
881	 0,147397418559666 
882	 0,14758679773814 
883	 0,147852586543128 
884	 0,147342190994495 
885	 0,147494052758888 
886	 0,148556819090048 
887	 0,149022884121939 
888	 0,14864574893261 
889	 0,14747614745473 
890	 0,147978540771631 
891	 0,149485527613477 
892	 0,149550070730238 
893	 0,149255176059062 
894	 0,14896881791573 
895	 0,148793300488328 
896	 0,148990264852768 
897	 0,14964344295669 
898	 0,149650590691394 
899	 0,149294973842598 
900	 0,149397510390132 
901	 0,149562173276874 
902	 0,149661024773787 
903	 0,149606620166452 
904	 0,14952797751327 
905	 0,14956787336777 
906	 0,150135563727146 
907	 0,150682966498935 
908	 0,150390423358667 
909	 0,150360845824444 
910	 0,150521162372363 
911	 0,149616767836898 
912	 0,149340244649654 
913	 0,150358069030338 
914	 0,151456860962873 
915	 0,152087292281437 
916	 0,151805930566757 
917	 0,1511187466012 
918	 0,150434811480075 
919	 0,150378192435337 
920	 0,150731009361043 
921	 0,151186719044042 
922	 0,150759320164728 
923	 0,150117149589384 
924	 0,149863593636551 
925	 0,149741196659836 
926	 0,149660189066013 
927	 0,149486196603132 
928	 0,149893389487538 
929	 0,150723273301854 
930	 0,150703693864311 
931	 0,150657978519232 
932	 0,150965426497559 
933	 0,150686961494073 
934	 0,150194581462417 
935	 0,150073146845851 
936	 0,149727892941568 
937	 0,149413456615186 
938	 0,150283668604844 
939	 0,150585714272941 
940	 0,14988746049887 
941	 0,149764545554639 
942	 0,150044647154573 
943	 0,150375577946553 
944	 0,149535339509676 
945	 0,148249847416169 
946	 0,148264981325896 
947	 0,147952430700038 
948	 0,14699239390932 
949	 0,145833049603586 
950	 0,145504044083598 
951	 0,146276768251712 
952	 0,145764403956671 
953	 0,144638768926583 
954	 0,144022143657763 
955	 0,143594734959253 
956	 0,143320879067904 
957	 0,143366456889356 
958	 0,142256182740223 
959	 0,140310991340736 
960	 0,141539245519708 
961	 0,142804643448515 
962	 0,141807796766282 
963	 0,141265295798976 
964	 0,141203198011662 
965	 0,141084510268569 
966	 0,141389973339643 
967	 0,142129036187371 
968	 0,143193447961262 
969	 0,143201465541013 
970	 0,142050198560761 
971	 0,142855557235999 
972	 0,143389674155595 
973	 0,141717752722264 
974	 0,141617915572041 
975	 0,142368434180501 
976	 0,141551620096263 
977	 0,141348771928174 
978	 0,1417123858081 
979	 0,140264893543363 
980	 0,139744408665771 
981	 0,141176970132263 
982	 0,141872654732002 
983	 0,14206459863027 
984	 0,142231736114324 
985	 0,142625509118665 
986	 0,142888536634318 
987	 0,142204638396629 
988	 0,141759302399899 
989	 0,142185957392269 
990	 0,144490685912752 
991	 0,145654840156656 
992	 0,144546728899095 
993	 0,144908889566756 
994	 0,145623144121923 
995	 0,145439014697307 
996	 0,148193020232434 
997	 0,150586293013133 
998	 0,144943033284198 
999	 0,143918478772353 
1000	 0,148446353108901 
1001	 0,147981049243387 
1002	 0,146109325593282 
1003	 0,14490311751994 
1004	 0,145375806034552 
1005	 0,146531299347067 
1006	 0,147329934557138 
1007	 0,149225715426639 
1008	 0,150283803063328 
1009	 0,146677747674373 
1010	 0,14872762836472 
1011	 0,155530150348341 
1012	 0,154942204854933 
1013	 0,153692498765506 
1014	 0,154089662305507 
1015	 0,15191027277554 
1016	 0,151238556330094 
1017	 0,155003206860221 
1018	 0,156264569657845 
1019	 0,155634133758597 
1020	 0,15561604463581 
1021	 0,153165502524362 
1022	 0,149742800595503 
1023	 0,150782151050097 
1024	 0,155254936691322 
1025	 0,160529709709261 
1026	 0,156615427750832 
1027	 0,154418418915947 
1028	 0,159865886429883 
1029	 0,159685344992362 
1030	 0,157154299654964 
1031	 0,157586386648722 
1032	 0,157513998241615 
1033	 0,157055749193739 
1034	 0,157603588114185 
1035	 0,15851299957547 
1036	 0,158335759144592 
1037	 0,15223762501974 
1038	 0,150578162328165 
1039	 0,156224468791998 
1040	 0,156067614469742 
1041	 0,156827259055031 
1042	 0,163333097656046 
1043	 0,165463825641314 
1044	 0,162771134227722 
1045	 0,157098050478217 
1046	 0,157621573936802 
1047	 0,162731184742248 
1048	 0,163847855855383 
1049	 0,160510801834967 
1050	 0,154886038955083 
1051	 0,15561753594908 
1052	 0,158486222137822 
1053	 0,161586787091878 
1054	 0,167961070181698 
1055	 0,170979700032806 
1056	 0,165941116092841 
1057	 0,163223266633685 
1058	 0,162987162025555 
1059	 0,163204460729066 
1060	 0,168293415941432 
1061	 0,1748853887651 
1062	 0,173379655859378 
1063	 0,172990331123167 
1064	 0,171788138017109 
1065	 0,150258899225306 
1066	 0,143151695457698 
1067	 0,162079121956677 
1068	 0,171980858757672 
1069	 0,17541288629173 
1070	 0,17514925337291 
1071	 0,171804311900799 
1072	 0,165398125438201 
1073	 0,156372810935369 
1074	 0,15451896445607 
1075	 0,154048905961062 
