Wavelength	AVEN00124.asd
325	 7,79127681192846E-02 
326	 0,15565895446088 
327	 0,228102160682489 
328	 0,273938657907892 
329	 0,306266816496107 
330	 0,322455439286825 
331	 0,330761837059583 
332	 0,226871906314137 
333	 8,44389165284688E-02 
334	 5,85563782310341E-02 
335	 0,100935152934669 
336	 0,16869536464899 
337	 0,213893895252776 
338	 0,231147532314613 
339	 0,209159663865546 
340	 0,152958388040634 
341	 0,114530294706361 
342	 0,183227082144078 
343	 0,241944436537531 
344	 0,262416403462783 
345	 0,291156865680548 
346	 0,303738469925953 
347	 0,269015207364514 
348	 0,238054611570752 
349	 0,221433895641759 
350	 0,215009185822467 
351	 0,228895148659058 
352	 0,259140045381536 
353	 0,277173806791779 
354	 0,281839433846493 
355	 0,273933187757671 
356	 0,283907455299649 
357	 0,304039807368077 
358	 0,291367738801798 
359	 0,277516310975231 
360	 0,276159420426758 
361	 0,275956715069401 
362	 0,279347407751419 
363	 0,291663973794423 
364	 0,292568510569496 
365	 0,28440575737385 
366	 0,29293468430556 
367	 0,298333247853551 
368	 0,289223953658726 
369	 0,281348914917582 
370	 0,282132250424358 
371	 0,302575112577195 
372	 0,308321713176385 
373	 0,299380045484578 
374	 0,321376307954358 
375	 0,33928727097561 
376	 0,328732793940854 
377	 0,328333444435604 
378	 0,332454397703967 
379	 0,31308558665832 
380	 0,307809188447284 
381	 0,319802430658664 
382	 0,306671267222272 
383	 0,295360473268221 
384	 0,313360081573074 
385	 0,324681589905959 
386	 0,326891179981438 
387	 0,331823449887947 
388	 0,340868759814474 
389	 0,35081095736543 
390	 0,340231841366963 
391	 0,32837514256009 
392	 0,337538137613684 
393	 0,336067612937388 
394	 0,324976422617356 
395	 0,328841915153393 
396	 0,335248069237785 
397	 0,337359815924632 
398	 0,335301380485249 
399	 0,331547595652654 
400	 0,329806901345639 
401	 0,328470887228687 
402	 0,327490582353467 
403	 0,326918082524393 
404	 0,330870860152856 
405	 0,340837124984346 
406	 0,343042178767206 
407	 0,338794762659908 
408	 0,333355235431718 
409	 0,336811135552288 
410	 0,347575200149222 
411	 0,342116797845776 
412	 0,333447697926513 
413	 0,334483556587835 
414	 0,335807023592768 
415	 0,336414371531034 
416	 0,337932533602812 
417	 0,340549429884251 
418	 0,343592453960818 
419	 0,343441512454463 
420	 0,339854618842215 
421	 0,332818111956761 
422	 0,334780906325172 
423	 0,343192817205927 
424	 0,339557734370302 
425	 0,336400504401125 
426	 0,340754032310079 
427	 0,343635112326137 
428	 0,344328704389275 
429	 0,343795132621821 
430	 0,341957520364273 
431	 0,339547813991777 
432	 0,338854316695473 
433	 0,340008307167256 
434	 0,342773746717869 
435	 0,343638029138305 
436	 0,342988285953311 
437	 0,343893934807274 
438	 0,343268341213102 
439	 0,341044481082513 
440	 0,344377986589641 
441	 0,34837984671259 
442	 0,346254711911528 
443	 0,344621906714512 
444	 0,344906795180723 
445	 0,346475375432139 
446	 0,346761688087159 
447	 0,344639795407711 
448	 0,345199042996624 
449	 0,347655303214296 
450	 0,349297833921554 
451	 0,350469441766874 
452	 0,351178446648694 
453	 0,351495530877346 
454	 0,351939134097956 
455	 0,35293893196257 
456	 0,353768161135764 
457	 0,354096993782006 
458	 0,353292880025347 
459	 0,353359928013293 
460	 0,354719273016833 
461	 0,353788213713057 
462	 0,352896958247739 
463	 0,355515808221917 
464	 0,358267016350813 
465	 0,359644728470604 
466	 0,357645470461141 
467	 0,35604421636126 
468	 0,357203374455733 
469	 0,358289734895881 
470	 0,358837194309806 
471	 0,358736043936758 
472	 0,359453448357968 
473	 0,360508105905778 
474	 0,356853451346008 
475	 0,354219300714928 
476	 0,358101067455332 
477	 0,359811607026928 
478	 0,359126429090942 
479	 0,361212545928354 
480	 0,360347943537386 
481	 0,355420237395391 
482	 0,358055088611205 
483	 0,362351417629968 
484	 0,357792729240475 
485	 0,355878395855149 
486	 0,358108925514165 
487	 0,357882333430396 
488	 0,357693485088034 
489	 0,359316513058284 
490	 0,360305634313785 
491	 0,360027012548714 
492	 0,357838589400527 
493	 0,356184057588298 
494	 0,355926278930753 
495	 0,355853604673369 
496	 0,356064931733996 
497	 0,3567638376733 
498	 0,358256966433014 
499	 0,359722218544196 
500	 0,358523172927686 
501	 0,357645460411252 
502	 0,358626628828669 
503	 0,358718459218477 
504	 0,359115273518142 
505	 0,36275953274716 
506	 0,363773827216434 
507	 0,361646025226712 
508	 0,362492873343441 
509	 0,364057352175797 
510	 0,364171522621482 
511	 0,365168990789718 
512	 0,366915188649531 
513	 0,368213020982843 
514	 0,368353357470628 
515	 0,367541204200554 
516	 0,369540965279746 
517	 0,371795160107164 
518	 0,370307431051322 
519	 0,369511858763226 
520	 0,37032177013439 
521	 0,37178708364306 
522	 0,372171076191068 
523	 0,370485477470283 
524	 0,370169069694495 
525	 0,370972423118178 
526	 0,371005368952378 
527	 0,371328761474751 
528	 0,371885670544083 
529	 0,370655252032077 
530	 0,369223891462426 
531	 0,369508215893086 
532	 0,370165837228905 
533	 0,370815626496119 
534	 0,371371558059987 
535	 0,371698718048381 
536	 0,371699888522497 
537	 0,371346181729114 
538	 0,370872819031914 
539	 0,370606294288047 
540	 0,371038409551922 
541	 0,372028335034118 
542	 0,372211913405054 
543	 0,371987618598401 
544	 0,371832225983916 
545	 0,371790846517667 
546	 0,372076861655479 
547	 0,373348036420547 
548	 0,373897508501201 
549	 0,373127153411097 
550	 0,373359632808534 
551	 0,374091786142301 
552	 0,374126055508527 
553	 0,374305286634897 
554	 0,37454946749896 
555	 0,373579884520236 
556	 0,372840342287532 
557	 0,37346895566475 
558	 0,373785216701384 
559	 0,373412946944358 
560	 0,372068652885102 
561	 0,371383481286323 
562	 0,371859375614228 
563	 0,371926140520173 
564	 0,371399007682914 
565	 0,370236926754015 
566	 0,370054528081374 
567	 0,37092486203465 
568	 0,371468251780976 
569	 0,371777888224051 
570	 0,37201349907836 
571	 0,373055030046989 
572	 0,374851119287049 
573	 0,37706168988973 
574	 0,378887110915822 
575	 0,380106031713788 
576	 0,381495782408083 
577	 0,383080780542408 
578	 0,384817984310639 
579	 0,386702512474476 
580	 0,388512625248652 
581	 0,389618352823759 
582	 0,39079957617004 
583	 0,392404862866376 
584	 0,393409477430371 
585	 0,394056064887169 
586	 0,394970569649502 
587	 0,396147544534084 
588	 0,397418071531551 
589	 0,397990582680351 
590	 0,398449834794977 
591	 0,399328972699282 
592	 0,399542759795786 
593	 0,399465779053154 
594	 0,400651922978755 
595	 0,401974856037455 
596	 0,402861489058134 
597	 0,403373698877141 
598	 0,403360956454884 
599	 0,402578358724405 
600	 0,402547489440098 
601	 0,403278840310204 
602	 0,402935666242406 
603	 0,402400635719083 
604	 0,402321180075764 
605	 0,401417943566536 
606	 0,400149384873294 
607	 0,400182876961557 
608	 0,399903917665086 
609	 0,39885116059753 
610	 0,398111047108828 
611	 0,397529639204298 
612	 0,396804958306011 
613	 0,396396043912891 
614	 0,39609529816 
615	 0,394851177579814 
616	 0,393597027232324 
617	 0,393012904779195 
618	 0,393370416487825 
619	 0,394005835813719 
620	 0,393572574000112 
621	 0,393170223570001 
622	 0,393029673714712 
623	 0,392346891802919 
624	 0,392059079814503 
625	 0,393093367293515 
626	 0,393383617477242 
627	 0,392999131977044 
628	 0,393492352856349 
629	 0,394201793620934 
630	 0,394786868690019 
631	 0,395272694809644 
632	 0,395683752805682 
633	 0,396055773965806 
634	 0,39667497977082 
635	 0,397520209615484 
636	 0,398167193551756 
637	 0,398585977422582 
638	 0,398832536898456 
639	 0,399853330989604 
640	 0,401381164936024 
641	 0,402337327596635 
642	 0,40311611280853 
643	 0,403823357968667 
644	 0,40429687136034 
645	 0,404742361277961 
646	 0,405437481591192 
647	 0,405706449848116 
648	 0,405354580369657 
649	 0,404416115261118 
650	 0,403227815736081 
651	 0,402038635726308 
652	 0,400680315302838 
653	 0,399474073888261 
654	 0,399179291895297 
655	 0,398290212582425 
656	 0,396470142386282 
657	 0,394913324928221 
658	 0,393421158534023 
659	 0,391697621488877 
660	 0,389364647602479 
661	 0,386807419525561 
662	 0,385327296208769 
663	 0,383886637488651 
664	 0,382037408709696 
665	 0,380569962693638 
666	 0,379333751509623 
667	 0,377972617439034 
668	 0,376408808022595 
669	 0,374836948222959 
670	 0,374070914489072 
671	 0,37363802091204 
672	 0,373142974746147 
673	 0,372834542664868 
674	 0,372681315690921 
675	 0,372577702851994 
676	 0,372366605358553 
677	 0,372028485362545 
678	 0,371775960737985 
679	 0,371889748896115 
680	 0,372659756940464 
681	 0,373323916435244 
682	 0,373860835364654 
683	 0,374754922326929 
684	 0,37621335574422 
685	 0,378275015845484 
686	 0,380027521549724 
687	 0,3820054051629 
688	 0,385357444242153 
689	 0,389070399514911 
690	 0,39300044680119 
691	 0,397805642152269 
692	 0,403263748268975 
693	 0,409139762182362 
694	 0,415045551017078 
695	 0,421136176913457 
696	 0,428008630905313 
697	 0,435315521111996 
698	 0,442877365964347 
699	 0,450545184449093 
700	 0,458201302757488 
701	 0,465770897726194 
702	 0,473309101324662 
703	 0,480641794621666 
704	 0,487298634587486 
705	 0,493444614060105 
706	 0,499281724086653 
707	 0,505405778604264 
708	 0,511367488736819 
709	 0,516174413361362 
710	 0,52060338325907 
711	 0,524892416432547 
712	 0,528896915732768 
713	 0,532545310620347 
714	 0,535792932913028 
715	 0,538995474767405 
716	 0,542017812931236 
717	 0,544287731366042 
718	 0,546429162237451 
719	 0,548675070901804 
720	 0,550634567190964 
721	 0,552425651015791 
722	 0,554251641143746 
723	 0,555525935946645 
724	 0,556360144174512 
725	 0,557556448733423 
726	 0,558872695902229 
727	 0,5601304972224 
728	 0,561202282631218 
729	 0,56205391484418 
730	 0,562687275801361 
731	 0,56295061857962 
732	 0,563062648825065 
733	 0,564065431979751 
734	 0,565142417603847 
735	 0,565553972186895 
736	 0,565708199833894 
737	 0,565820017602804 
738	 0,566235302272115 
739	 0,566613385624197 
740	 0,56683675360007 
741	 0,567027666900925 
742	 0,56721350749987 
743	 0,567419047233815 
744	 0,567907034438935 
745	 0,56850364900412 
746	 0,568513672289911 
747	 0,568451827129462 
748	 0,5685591067911 
749	 0,568408693193317 
750	 0,568250874459701 
751	 0,568536196790728 
752	 0,568764090492112 
753	 0,568769149003026 
754	 0,568492284961145 
755	 0,568313954113806 
756	 0,568473635727452 
757	 0,568380686545533 
758	 0,568238214863157 
759	 0,568655018792004 
760	 0,569053565126584 
761	 0,569204130972541 
762	 0,569011658218009 
763	 0,568888828426257 
764	 0,569196480221694 
765	 0,569250892900733 
766	 0,569137265994322 
767	 0,569475626755121 
768	 0,569585278397367 
769	 0,569271713881068 
770	 0,569063092446471 
771	 0,569060748163522 
772	 0,569316389825623 
773	 0,56948936529255 
774	 0,569461576790698 
775	 0,569159531479002 
776	 0,568885464971435 
777	 0,568818427870676 
778	 0,568902730817542 
779	 0,569081391258323 
780	 0,569287026100612 
781	 0,569272728883993 
782	 0,569075683918548 
783	 0,569095051994927 
784	 0,569153709973777 
785	 0,569119451487185 
786	 0,568924496877914 
787	 0,568679839275301 
788	 0,568597144072088 
789	 0,568502804063994 
790	 0,568403088788842 
791	 0,568560074436206 
792	 0,568638086334399 
793	 0,568386189292792 
794	 0,568149237038314 
795	 0,5680473433099 
796	 0,568201630717666 
797	 0,568358381807716 
798	 0,568428876877759 
799	 0,568513808355213 
800	 0,568498325625823 
801	 0,568287470901846 
802	 0,568114261005472 
803	 0,568040756454255 
804	 0,56808782395926 
805	 0,568171906083796 
806	 0,568257597397383 
807	 0,568409677934547 
808	 0,568420050630485 
809	 0,568089093544022 
810	 0,567979319860113 
811	 0,56800801883767 
812	 0,567514063230372 
813	 0,567380668502038 
814	 0,567925925419391 
815	 0,568627426239187 
816	 0,569010057317451 
817	 0,568616766218568 
818	 0,568723456132094 
819	 0,56923248844837 
820	 0,568931530924577 
821	 0,568467287535074 
822	 0,568200881644573 
823	 0,568352121332655 
824	 0,568543382790973 
825	 0,56827178166887 
826	 0,568656069376953 
827	 0,569384662355858 
828	 0,568558218747602 
829	 0,568053846275593 
830	 0,568708429051193 
831	 0,569064470084453 
832	 0,568978733573236 
833	 0,568489512343581 
834	 0,568649813658369 
835	 0,569229877675863 
836	 0,568411626234527 
837	 0,568180057760255 
838	 0,569301003680033 
839	 0,569033304007766 
840	 0,568178246012978 
841	 0,56828555547204 
842	 0,568398048164879 
843	 0,568374472923309 
844	 0,568508846397058 
845	 0,568620247520755 
846	 0,568622035275837 
847	 0,568681727396376 
848	 0,568691195858804 
849	 0,568477994207544 
850	 0,568422038452088 
851	 0,568476651337986 
852	 0,568161357628624 
853	 0,567787764434048 
854	 0,567542311094181 
855	 0,567366897205599 
856	 0,567419419293238 
857	 0,567904064654792 
858	 0,568166700035857 
859	 0,568042799878973 
860	 0,567609823397256 
861	 0,567150513066939 
862	 0,566933151470853 
863	 0,567493525844647 
864	 0,568152586814536 
865	 0,567981565835992 
866	 0,56798400557448 
867	 0,568297713117996 
868	 0,568673909241613 
869	 0,568587857540179 
870	 0,568008674138683 
871	 0,5685310613219 
872	 0,569087320544619 
873	 0,568289081592286 
874	 0,568347331475688 
875	 0,569144377337864 
876	 0,568868684789492 
877	 0,568754279924068 
878	 0,569151483984438 
879	 0,569001115309668 
880	 0,568726586213477 
881	 0,568856130431699 
882	 0,569095059004825 
883	 0,569250335951757 
884	 0,568914051035252 
885	 0,568936968632202 
886	 0,569412744228934 
887	 0,56913468017058 
888	 0,568455322809702 
889	 0,567899358470871 
890	 0,568985184218105 
891	 0,570647509406324 
892	 0,570012596175483 
893	 0,568983287925537 
894	 0,568351635500103 
895	 0,568704723066054 
896	 0,56897188931787 
897	 0,568382450291688 
898	 0,568233612901748 
899	 0,568373594360355 
900	 0,568166615201687 
901	 0,568183472054789 
902	 0,568504700507957 
903	 0,568850848255568 
904	 0,569092005135771 
905	 0,5690935358349 
906	 0,568577792604451 
907	 0,567924765058757 
908	 0,567700366590983 
909	 0,568306489273059 
910	 0,569258362121535 
911	 0,568712412578496 
912	 0,568290853613079 
913	 0,568622423855308 
914	 0,568433228280184 
915	 0,568369592088681 
916	 0,569169273887402 
917	 0,5689722211724 
918	 0,568307130303876 
919	 0,569603206601235 
920	 0,570173103533478 
921	 0,569383627616628 
922	 0,568989992652271 
923	 0,56889397660996 
924	 0,568879236325702 
925	 0,568200164211806 
926	 0,567253899995076 
927	 0,566955008526521 
928	 0,56685696686703 
929	 0,566923112317202 
930	 0,567469225448441 
931	 0,567944783289565 
932	 0,568036527122822 
933	 0,568233949291944 
934	 0,567990817198946 
935	 0,566626479633861 
936	 0,566377794494297 
937	 0,566998571388434 
938	 0,56618177138214 
939	 0,565932796219618 
940	 0,56664200344254 
941	 0,566187877440705 
942	 0,565909413359281 
943	 0,566856295027422 
944	 0,566223820820679 
945	 0,564503286080764 
946	 0,563461252110909 
947	 0,562639595930979 
948	 0,562236645204261 
949	 0,563324348406692 
950	 0,563887764919817 
951	 0,562888787290337 
952	 0,56196377229587 
953	 0,561172926882347 
954	 0,560405934383417 
955	 0,5602416569762 
956	 0,560431374238064 
957	 0,560118790218765 
958	 0,559245244690599 
959	 0,558063809861125 
960	 0,557900145675026 
961	 0,557954215181452 
962	 0,557562436225201 
963	 0,556793108022726 
964	 0,55636498289905 
965	 0,557319823919183 
966	 0,558413352266018 
967	 0,558948599088371 
968	 0,557910040023907 
969	 0,557015326701982 
970	 0,557057517390374 
971	 0,557982211926198 
972	 0,55772009205055 
973	 0,554750840717519 
974	 0,553335459954817 
975	 0,553595675641094 
976	 0,554335680423166 
977	 0,555052426121839 
978	 0,555556041177954 
979	 0,556204575524551 
980	 0,5561021568599 
981	 0,555234340266079 
982	 0,55639512915473 
983	 0,557084486269732 
984	 0,554958451497546 
985	 0,555772052926774 
986	 0,558500419711637 
987	 0,559239044940237 
988	 0,557926472499823 
989	 0,555500109918925 
990	 0,555483133907039 
991	 0,556557274158564 
992	 0,557634415397355 
993	 0,556559131372393 
994	 0,55616365287501 
995	 0,559200696044313 
996	 0,560557359317283 
997	 0,55991013791906 
998	 0,558421943700181 
999	 0,560023685876752 
1000	 0,563888871448987 
1001	 0,562607856269308 
1002	 0,561151392172203 
1003	 0,56181924975457 
1004	 0,562374549509511 
1005	 0,561505814579564 
1006	 0,558706539109583 
1007	 0,561249245612416 
1008	 0,56515822594741 
1009	 0,561153920737552 
1010	 0,561230964895421 
1011	 0,565887963036185 
1012	 0,566432165333683 
1013	 0,564248933846085 
1014	 0,5610929358084 
1015	 0,563056344459347 
1016	 0,565906385375157 
1017	 0,565947908782758 
1018	 0,566980180155789 
1019	 0,567320816722585 
1020	 0,563910301312131 
1021	 0,561788674553405 
1022	 0,561389903688523 
1023	 0,559842866064564 
1024	 0,562742015737154 
1025	 0,569183179229056 
1026	 0,566699461628714 
1027	 0,563508995121518 
1028	 0,565052911480952 
1029	 0,567195947362598 
1030	 0,568713793399461 
1031	 0,568558810699265 
1032	 0,565652426956749 
1033	 0,562892340559791 
1034	 0,566272097639174 
1035	 0,566672885270673 
1036	 0,563838269071752 
1037	 0,566530890601105 
1038	 0,569519996495537 
1039	 0,570031110576379 
1040	 0,567061877341463 
1041	 0,56646697497422 
1042	 0,571571340952033 
1043	 0,5685024406563 
1044	 0,562723693585149 
1045	 0,564306003247314 
1046	 0,563087669429034 
1047	 0,560616034109792 
1048	 0,565732240042699 
1049	 0,566056250270956 
1050	 0,56056735161388 
1051	 0,560221059021783 
1052	 0,563606259008233 
1053	 0,569263270289616 
1054	 0,573912928619648 
1055	 0,574094398529802 
1056	 0,568259757281455 
1057	 0,567488921402482 
1058	 0,567960033413413 
1059	 0,562405398869304 
1060	 0,561468404610514 
1061	 0,564034106539215 
1062	 0,562424975109944 
1063	 0,562932718812845 
1064	 0,564838399334356 
1065	 0,557701772832481 
1066	 0,559627233681173 
1067	 0,574526755952476 
1068	 0,578345317175247 
1069	 0,569752512075352 
1070	 0,553626028443394 
1071	 0,564118134830407 
1072	 0,575676337072815 
1073	 0,556224071098055 
1074	 0,548801311312852 
1075	 0,552657065724902 
