Wavelength	AVEN00486.asd
325	 0,472553810862532 
326	 0,381435180365242 
327	 0,315754644271401 
328	 0,303254179278873 
329	 0,397754273999159 
330	 0,416994999821604 
331	 0,271336243579603 
332	 0,256472292647591 
333	 0,339757232356735 
334	 0,34197721572342 
335	 0,349913139676586 
336	 0,358556321027131 
337	 0,255071511120082 
338	 0,173775323322399 
339	 0,236599211113017 
340	 0,195536529422581 
341	 0,114950062376003 
342	 0,213874262994647 
343	 0,283020456766578 
344	 0,275332574624162 
345	 0,25015468078179 
346	 0,220804922859721 
347	 0,204613724138828 
348	 0,221138107648229 
349	 0,246694736302317 
350	 0,214660572657615 
351	 0,187152927290787 
352	 0,191562507967264 
353	 0,216534752184747 
354	 0,243665799045641 
355	 0,254931357724742 
356	 0,244854657182841 
357	 0,226140001264837 
358	 0,240342784075227 
359	 0,242500180060252 
360	 0,216177443925319 
361	 0,209261439562603 
362	 0,219540684364388 
363	 0,235140439837741 
364	 0,251665957430086 
365	 0,26525956438504 
366	 0,28216722933942 
367	 0,2801131027037 
368	 0,249971374212791 
369	 0,239768275567186 
370	 0,247142825189563 
371	 0,258330761616898 
372	 0,256328702725032 
373	 0,245178144760069 
374	 0,268080692284665 
375	 0,279214511610852 
376	 0,248853938786466 
377	 0,239766298165522 
378	 0,249085087512802 
379	 0,247535177725763 
380	 0,259211281884265 
381	 0,278706497596546 
382	 0,254491888635781 
383	 0,224376002381707 
384	 0,228351020833286 
385	 0,236275681537493 
386	 0,241409092692083 
387	 0,240021487878292 
388	 0,250389039943457 
389	 0,273062981934613 
390	 0,273138168202492 
391	 0,261746995899072 
392	 0,253879631453957 
393	 0,25706564781657 
394	 0,266191624018969 
395	 0,258676085161863 
396	 0,254037212319137 
397	 0,261122299706428 
398	 0,268090950753862 
399	 0,269547896979804 
400	 0,259523983122151 
401	 0,254372693168722 
402	 0,258700555284981 
403	 0,275056461236329 
404	 0,279837744452513 
405	 0,259941902762787 
406	 0,252778812775596 
407	 0,257199927792332 
408	 0,259195931911893 
409	 0,2634469214881 
410	 0,268564730050117 
411	 0,264059988493407 
412	 0,260195317570461 
413	 0,26624771700438 
414	 0,267709785240994 
415	 0,264331100833353 
416	 0,261193856078009 
417	 0,263514866529042 
418	 0,271519183355897 
419	 0,272524996288316 
420	 0,269684626945725 
421	 0,26839726243499 
422	 0,268799717410826 
423	 0,269353907607389 
424	 0,264237756561437 
425	 0,260164283574716 
426	 0,260863206374299 
427	 0,260344550745737 
428	 0,258895366007005 
429	 0,258392029222926 
430	 0,258961853909002 
431	 0,260438643746402 
432	 0,261442329035616 
433	 0,263679460304036 
434	 0,26827037769848 
435	 0,267647551058731 
436	 0,263877961288527 
437	 0,265988025510044 
438	 0,266658677034797 
439	 0,263900974705495 
440	 0,263954418054686 
441	 0,265535349670918 
442	 0,26635547356928 
443	 0,264875710427785 
444	 0,262742489959839 
445	 0,267311226644271 
446	 0,269537521585629 
447	 0,264665807441123 
448	 0,263436196795489 
449	 0,265585059705405 
450	 0,267900689296264 
451	 0,269451756933472 
452	 0,269649821809086 
453	 0,2683526554966 
454	 0,266913330051725 
455	 0,266712991825118 
456	 0,269326931886511 
457	 0,273482516674104 
458	 0,275970243504708 
459	 0,273979041763242 
460	 0,268130677838859 
461	 0,27061197459522 
462	 0,276395206440537 
463	 0,277294233467123 
464	 0,275232666366777 
465	 0,272098652256248 
466	 0,272825056086442 
467	 0,27485619776334 
468	 0,276245677879279 
469	 0,275803173377849 
470	 0,27439163437016 
471	 0,273986414291835 
472	 0,274518169642465 
473	 0,275481296843825 
474	 0,274413735752777 
475	 0,272843594968692 
476	 0,272433456384245 
477	 0,273636074528746 
478	 0,275487667352881 
479	 0,275264309395859 
480	 0,273862494934261 
481	 0,272286836347853 
482	 0,274637168186204 
483	 0,277096590757639 
484	 0,273395851937803 
485	 0,272327523479502 
486	 0,274704852402347 
487	 0,274254968653915 
488	 0,272809554748735 
489	 0,272000414795918 
490	 0,273488268499537 
491	 0,275379337431014 
492	 0,272409467245889 
493	 0,271373941946524 
494	 0,273909604689577 
495	 0,274858182868284 
496	 0,274918920165559 
497	 0,275329636298496 
498	 0,276463132646154 
499	 0,277662392273115 
500	 0,276748493198201 
501	 0,274974936240842 
502	 0,273517701480778 
503	 0,27534677339635 
504	 0,278394657030689 
505	 0,278638710334888 
506	 0,277643080272216 
507	 0,276362461372482 
508	 0,276828534984667 
509	 0,277865072733402 
510	 0,278323868606953 
511	 0,278425064718759 
512	 0,278794802823131 
513	 0,281380302281898 
514	 0,282060677113748 
515	 0,279802220044981 
516	 0,280619699820699 
517	 0,282692103322267 
518	 0,28273917022545 
519	 0,281628981007048 
520	 0,280290481448894 
521	 0,281402584778763 
522	 0,282270928765153 
523	 0,281107691695581 
524	 0,28101532272612 
525	 0,281852271665253 
526	 0,282204544626677 
527	 0,282590089550364 
528	 0,282977057105707 
529	 0,282633562821634 
530	 0,281677153455037 
531	 0,28032335147156 
532	 0,281440108989783 
533	 0,2842443889765 
534	 0,284381267018668 
535	 0,283577804708923 
536	 0,282931771288058 
537	 0,282683875127219 
538	 0,282762482402688 
539	 0,28291256674359 
540	 0,283054830447757 
541	 0,283110391775763 
542	 0,282898394614464 
543	 0,282912507858585 
544	 0,283587298349969 
545	 0,28363221008375 
546	 0,283385625988996 
547	 0,284734458931369 
548	 0,285225082602329 
549	 0,284014891036675 
550	 0,28429085583486 
551	 0,285190305272851 
552	 0,284807756613215 
553	 0,284738961161191 
554	 0,28501893027695 
555	 0,283840485772695 
556	 0,28317840377082 
557	 0,284555663905654 
558	 0,285220084043945 
559	 0,284965035371242 
560	 0,284630138070127 
561	 0,284054871660223 
562	 0,283340222268148 
563	 0,28312285665604 
564	 0,283167899709364 
565	 0,283087550790968 
566	 0,282821749648531 
567	 0,282551600082675 
568	 0,282902239535467 
569	 0,283724165938047 
570	 0,284799637668239 
571	 0,285084447770051 
572	 0,285255894364805 
573	 0,287232235525664 
574	 0,288801877796885 
575	 0,28931039387638 
576	 0,289781554752633 
577	 0,290569142501533 
578	 0,291965456483121 
579	 0,293062579726215 
580	 0,293835045355085 
581	 0,294942629178393 
582	 0,296138343014209 
583	 0,297185723107665 
584	 0,297394980867888 
585	 0,297419214845728 
586	 0,298577210244366 
587	 0,299389246846066 
588	 0,299514444201674 
589	 0,299492802953608 
590	 0,299934000914929 
591	 0,30128151078483 
592	 0,30150438197727 
593	 0,300946917894075 
594	 0,30166469422049 
595	 0,302579949422551 
596	 0,30319376270365 
597	 0,303653078610049 
598	 0,303787996842089 
599	 0,303353904946878 
600	 0,302704958679898 
601	 0,302155684721463 
602	 0,302358741254945 
603	 0,302624842039936 
604	 0,302391054161887 
605	 0,301879240937579 
606	 0,301330434636287 
607	 0,301289945821386 
608	 0,300902869484994 
609	 0,300045153219456 
610	 0,300114112743631 
611	 0,300025486654506 
612	 0,298332786480813 
613	 0,297539838235749 
614	 0,297838653249577 
615	 0,297673166309619 
616	 0,297354073669723 
617	 0,297115550783199 
618	 0,297328651347696 
619	 0,297711741673713 
620	 0,297637826833131 
621	 0,297333627566831 
622	 0,29695026374777 
623	 0,296788826128598 
624	 0,296972404262845 
625	 0,29756409390167 
626	 0,297603174752247 
627	 0,297213341237433 
628	 0,297337860446806 
629	 0,29785748149061 
630	 0,298622595572071 
631	 0,298898291162895 
632	 0,298951091847966 
633	 0,299363091284386 
634	 0,29979435941657 
635	 0,300246862710752 
636	 0,301149862279765 
637	 0,301885280555888 
638	 0,301986305366851 
639	 0,302616495441872 
640	 0,303689099546816 
641	 0,304457641149048 
642	 0,305121765815102 
643	 0,305687391105373 
644	 0,30588649049794 
645	 0,306004886359995 
646	 0,306439229848345 
647	 0,306296713938522 
648	 0,305698732046898 
649	 0,305958634133783 
650	 0,305806357190584 
651	 0,304496041989189 
652	 0,303408782437685 
653	 0,302813740471571 
654	 0,302853943232841 
655	 0,302525525070206 
656	 0,301549783880624 
657	 0,30061559324907 
658	 0,299568616049892 
659	 0,298233591074866 
660	 0,297402118950116 
661	 0,296818112416227 
662	 0,295221598251761 
663	 0,29364675196702 
664	 0,292597805025031 
665	 0,29159330417282 
666	 0,29062296789252 
667	 0,289732288164487 
668	 0,289207648360686 
669	 0,289013845187604 
670	 0,28874019669063 
671	 0,288247610781173 
672	 0,287499608734302 
673	 0,287330845762632 
674	 0,28758956039715 
675	 0,287598216061218 
676	 0,287400112879623 
677	 0,287037955238454 
678	 0,286749509916558 
679	 0,286766880339834 
680	 0,287321977095141 
681	 0,288095001635528 
682	 0,288856734570072 
683	 0,289131212370204 
684	 0,289764409276209 
685	 0,291211134559718 
686	 0,292643588183381 
687	 0,294238625010779 
688	 0,296490724463159 
689	 0,299095116281987 
690	 0,302000873675945 
691	 0,305204190098456 
692	 0,309217296185891 
693	 0,314416838009239 
694	 0,319191498284431 
695	 0,323911255656794 
696	 0,33038959037862 
697	 0,337104889591764 
698	 0,343521596152767 
699	 0,350515284898012 
700	 0,357664122145476 
701	 0,364383212677642 
702	 0,371345303312887 
703	 0,378423126019072 
704	 0,384727851765134 
705	 0,390788679050249 
706	 0,396903684964593 
707	 0,40242219653232 
708	 0,407497552058422 
709	 0,41259513143725 
710	 0,41724858495739 
711	 0,421374954129835 
712	 0,425237763769688 
713	 0,428806745421045 
714	 0,432058791308709 
715	 0,435269143809765 
716	 0,438346652212625 
717	 0,440942920404348 
718	 0,443090716990448 
719	 0,4449319795117 
720	 0,447207336143636 
721	 0,449437125469503 
722	 0,450940198310161 
723	 0,452230723399359 
724	 0,453461469135724 
725	 0,454640544793848 
726	 0,455916204169662 
727	 0,457326093868556 
728	 0,458430907139614 
729	 0,459248989910641 
730	 0,459931841122164 
731	 0,460436013149119 
732	 0,460887724476343 
733	 0,461820873622075 
734	 0,462607411986131 
735	 0,462754480718905 
736	 0,463470776665829 
737	 0,464589474464341 
738	 0,465233840499107 
739	 0,465348056641756 
740	 0,46510194187392 
741	 0,465681992162155 
742	 0,466583637461301 
743	 0,46710220464519 
744	 0,46737847466087 
745	 0,467454539804901 
746	 0,467337732530337 
747	 0,467515819909471 
748	 0,468179645145848 
749	 0,468604979963411 
750	 0,468807664433142 
751	 0,468954770635211 
752	 0,469190864734847 
753	 0,469488094387106 
754	 0,469518654460415 
755	 0,469617038451923 
756	 0,469985133478452 
757	 0,470030059851311 
758	 0,469975779602101 
759	 0,470459820446605 
760	 0,470998494908797 
761	 0,471368310332393 
762	 0,471317164904072 
763	 0,471359811698025 
764	 0,471943682523427 
765	 0,472076132512374 
766	 0,471925553443437 
767	 0,472471387665839 
768	 0,47285607563142 
769	 0,472783405708676 
770	 0,472630757423838 
771	 0,472588974270769 
772	 0,47283827741076 
773	 0,473327763094834 
774	 0,473861323424112 
775	 0,473966866727108 
776	 0,473823604572462 
777	 0,473607387692037 
778	 0,473787464980468 
779	 0,474217979295291 
780	 0,474603573110593 
781	 0,474788036953957 
782	 0,474774140745236 
783	 0,474780844574685 
784	 0,474837704232201 
785	 0,474945106671348 
786	 0,474882484251537 
787	 0,47480846299369 
788	 0,475057498795767 
789	 0,475306060413515 
790	 0,475476122704634 
791	 0,475749549834995 
792	 0,475753144750911 
793	 0,475293284289714 
794	 0,475643854664168 
795	 0,476400494010843 
796	 0,47620907646963 
797	 0,476210427045983 
798	 0,476636902030778 
799	 0,476711910230046 
800	 0,476753871628379 
801	 0,477058908307578 
802	 0,476963763728893 
803	 0,476676996283739 
804	 0,477019302671185 
805	 0,477478126168105 
806	 0,47782873071579 
807	 0,47796521270902 
808	 0,477944791797215 
809	 0,477858877817376 
810	 0,478008226891587 
811	 0,478351625096194 
812	 0,478587115246878 
813	 0,478763496626307 
814	 0,478907769827113 
815	 0,479125702807647 
816	 0,479318936207707 
817	 0,479371357762698 
818	 0,479702430321622 
819	 0,480219330732948 
820	 0,480372200120052 
821	 0,480448255611785 
822	 0,480554089674865 
823	 0,480481651563981 
824	 0,480351055631865 
825	 0,480338281381418 
826	 0,480668574179723 
827	 0,481195480542743 
828	 0,481322297000431 
829	 0,481223721817856 
830	 0,481092381760187 
831	 0,481629112927436 
832	 0,482141674105244 
833	 0,481608001992369 
834	 0,481405225465091 
835	 0,481761668757522 
836	 0,482231127516348 
837	 0,482600050440534 
838	 0,4827241320057 
839	 0,482683817795611 
840	 0,482547968004589 
841	 0,48239670417783 
842	 0,482453405758203 
843	 0,482627768249398 
844	 0,482377329195437 
845	 0,482282765956866 
846	 0,482618851192547 
847	 0,482898065059178 
848	 0,483051235287399 
849	 0,483069972908113 
850	 0,482984044760067 
851	 0,482822519622662 
852	 0,482602416073419 
853	 0,482536250043932 
854	 0,482646158901162 
855	 0,482072855221545 
856	 0,481841782007258 
857	 0,483423341086574 
858	 0,484051208006723 
859	 0,483475475867565 
860	 0,483233675840423 
861	 0,483293024707287 
862	 0,483564497702856 
863	 0,483212217058813 
864	 0,482970974676075 
865	 0,483869710630812 
866	 0,484264843353118 
867	 0,484074805345182 
868	 0,484274643726138 
869	 0,484721668743226 
870	 0,485285921115018 
871	 0,485525927288481 
872	 0,485521544562008 
873	 0,485441845762518 
874	 0,485670046607501 
875	 0,486099374342094 
876	 0,486136167766797 
877	 0,486197708796536 
878	 0,486417382147412 
879	 0,48649675551102 
880	 0,486577706214914 
881	 0,486832942465378 
882	 0,487160575692397 
883	 0,487572936796597 
884	 0,488202623855327 
885	 0,488622008638162 
886	 0,488741771417194 
887	 0,489106328759899 
888	 0,489239521526332 
889	 0,488766912749518 
890	 0,489117580879569 
891	 0,489869726046594 
892	 0,489468437557261 
893	 0,489638857614329 
894	 0,490504061272644 
895	 0,490021543748752 
896	 0,489496352251 
897	 0,489924389853427 
898	 0,489976430444112 
899	 0,49002894598385 
900	 0,491123086280982 
901	 0,491605429679526 
902	 0,491267776394675 
903	 0,49125627108968 
904	 0,491358342696757 
905	 0,491440623089247 
906	 0,491490132621526 
907	 0,491525314440624 
908	 0,491576777897926 
909	 0,492414256195194 
910	 0,493467621896736 
911	 0,492311348555765 
912	 0,491509923313857 
913	 0,492108009098823 
914	 0,492270769079171 
915	 0,492564230462808 
916	 0,493684941238505 
917	 0,493784657264457 
918	 0,493040981779742 
919	 0,492837457213511 
920	 0,493031232277633 
921	 0,493396310827464 
922	 0,492838620524382 
923	 0,492463371800714 
924	 0,493114142177208 
925	 0,493208035664438 
926	 0,49293519451862 
927	 0,49310702411993 
928	 0,493102951820311 
929	 0,492913693264303 
930	 0,493097336981543 
931	 0,493488980398325 
932	 0,493785555591971 
933	 0,492619431753289 
934	 0,491498612027735 
935	 0,492448068702593 
936	 0,493396790964128 
937	 0,493644075384909 
938	 0,492525845129546 
939	 0,492099804993566 
940	 0,492897180683307 
941	 0,493064709462842 
942	 0,492661163272829 
943	 0,491853481971082 
944	 0,490756858228654 
945	 0,489747268450243 
946	 0,48938930776184 
947	 0,489721118006923 
948	 0,4902866228624 
949	 0,489438897868368 
950	 0,488711828540264 
951	 0,488943099872047 
952	 0,489503813570931 
953	 0,48918720373657 
954	 0,486795369333419 
955	 0,485837532968369 
956	 0,486187066478157 
957	 0,485428801599302 
958	 0,484749873491949 
959	 0,48446692797081 
960	 0,484343900899091 
961	 0,484117623428526 
962	 0,48375561258068 
963	 0,485021273404058 
964	 0,485780148458016 
965	 0,48253292192762 
966	 0,481835509220012 
967	 0,484008137263384 
968	 0,484611891116637 
969	 0,485104354944572 
970	 0,485795410070311 
971	 0,485719079532574 
972	 0,484500600632036 
973	 0,48227074523352 
974	 0,48334067454436 
975	 0,485975492185367 
976	 0,48583812520909 
977	 0,484757706654938 
978	 0,483685471378652 
979	 0,483943541571418 
980	 0,485729595637709 
981	 0,488369955923565 
982	 0,487859306898201 
983	 0,485985219794078 
984	 0,485047129590456 
985	 0,485811881458501 
986	 0,487780540653148 
987	 0,489733399091732 
988	 0,489218485093528 
989	 0,48692270882614 
990	 0,48831379715421 
991	 0,48935131242378 
992	 0,488317344348484 
993	 0,488409184827232 
994	 0,48935584427962 
995	 0,49060621339409 
996	 0,492656886444401 
997	 0,493848552411211 
998	 0,490867589825168 
999	 0,491039583786346 
1000	 0,494699326781282 
1001	 0,494882775383682 
1002	 0,494663007371371 
1003	 0,495256275820021 
1004	 0,494247963702183 
1005	 0,494062116988667 
1006	 0,496872928296732 
1007	 0,498866808447352 
1008	 0,49885550645186 
1009	 0,495941747142485 
1010	 0,497454390244232 
1011	 0,502865970974373 
1012	 0,50414569246474 
1013	 0,502183902198147 
1014	 0,498303883091809 
1015	 0,497276383764044 
1016	 0,499115076603859 
1017	 0,502872191925859 
1018	 0,50290971785644 
1019	 0,501383704002652 
1020	 0,502819671516062 
1021	 0,501944085966998 
1022	 0,499867427457454 
1023	 0,502883360309474 
1024	 0,506946732199738 
1025	 0,509408159083417 
1026	 0,504980371011561 
1027	 0,503149376969241 
1028	 0,509054383154563 
1029	 0,511350762934488 
1030	 0,511170220867186 
1031	 0,511211195616789 
1032	 0,51002047927998 
1033	 0,508264731095101 
1034	 0,507466234263301 
1035	 0,508396535405157 
1036	 0,510755152128116 
1037	 0,513076125718824 
1038	 0,513016561762034 
1039	 0,510191802417519 
1040	 0,508668414356335 
1041	 0,509540858720139 
1042	 0,51268305945908 
1043	 0,511114388833607 
1044	 0,509046342146739 
1045	 0,513286651626743 
1046	 0,511840863906707 
1047	 0,507481495214989 
1048	 0,512893550722736 
1049	 0,514834643486342 
1050	 0,510610719756382 
1051	 0,506864616137693 
1052	 0,501386221970174 
1053	 0,496453673882153 
1054	 0,508949160353791 
1055	 0,518172449375004 
1056	 0,508658779568984 
1057	 0,513131690578192 
1058	 0,521988170040026 
1059	 0,516143221526121 
1060	 0,517067300224972 
1061	 0,522799017413479 
1062	 0,518358710904454 
1063	 0,52050986478669 
1064	 0,526437400868457 
1065	 0,506322646626078 
1066	 0,497390694305637 
1067	 0,513228229136488 
1068	 0,52141027205075 
1069	 0,529142738599281 
1070	 0,538888488638492 
1071	 0,525196705812491 
1072	 0,506085394702404 
1073	 0,505855728546702 
1074	 0,520412061257287 
1075	 0,534088554087382 
