Wavelength	AVEN00452.asd
325	 0,446871707922181 
326	 0,362569774239791 
327	 0,269681345842081 
328	 0,15860558831918 
329	 0,146521183423831 
330	 0,189507270901612 
331	 0,229722558747259 
332	 0,199314258119039 
333	 0,122063294637922 
334	 5,47582268191177E-02 
335	 5,74769020682264E-02 
336	 0,128233501603482 
337	 0,204650232297269 
338	 0,229393650418728 
339	 0,147672783399074 
340	 0,0778687863528 
341	 5,42457658697954E-02 
342	 8,24887128902586E-02 
343	 0,126831241164024 
344	 0,15515282874911 
345	 8,73184790927069E-02 
346	 2,90272667014718E-02 
347	 9,94935546501846E-02 
348	 0,121074025653746 
349	 8,77124223704862E-02 
350	 5,96540753685531E-02 
351	 6,94025331482851E-02 
352	 0,112457136119114 
353	 8,53874947176559E-02 
354	 5,44580097261452E-02 
355	 9,82464620195094E-02 
356	 0,12111541172853 
357	 0,106273185867738 
358	 7,07431981494147E-02 
359	 5,19833947193916E-02 
360	 6,09436076091659E-02 
361	 3,84935611770704E-02 
362	 1,55187480186281E-02 
363	 3,90644059349158E-02 
364	 6,23705268972827E-02 
365	 7,23784593713603E-02 
366	 8,16171727236324E-02 
367	 6,92650448302605E-02 
368	 0,029229803819605 
369	 1,65009135556616E-02 
370	 2,19766236800183E-02 
371	 1,65377363087477E-02 
372	 0,032483267943688 
373	 6,30429002055416E-02 
374	 4,67208606681967E-02 
375	 3,46469741864225E-02 
376	 6,10097797511954E-02 
377	 5,67941905697826E-02 
378	 3,37755374160769E-02 
379	 0,040922598797017 
380	 6,23741699245254E-02 
381	 8,35443077386515E-02 
382	 6,83128654768307E-02 
383	 4,36970238266732E-02 
384	 3,85962608315653E-02 
385	 3,74946202664804E-02 
386	 3,68406146436153E-02 
387	 0,032352048897855 
388	 0,041185148633987 
389	 6,36316688130812E-02 
390	 6,64869198460387E-02 
391	 5,88407415170261E-02 
392	 5,35459674100465E-02 
393	 5,41361114344469E-02 
394	 5,75465191649747E-02 
395	 5,03319538657597E-02 
396	 4,51184030679772E-02 
397	 4,66563594292787E-02 
398	 3,78857536784256E-02 
399	 3,08652113126821E-02 
400	 4,68795080320971E-02 
401	 4,53960148426843E-02 
402	 2,72227550881797E-02 
403	 3,34749207669121E-02 
404	 3,93741231093006E-02 
405	 2,95599697065471E-02 
406	 3,31468550213775E-02 
407	 4,48466550172993E-02 
408	 4,79959088409541E-02 
409	 4,48402205531304E-02 
410	 3,75637201003323E-02 
411	 3,42427891031382E-02 
412	 3,34287705863415E-02 
413	 3,32872208207276E-02 
414	 3,61535174502686E-02 
415	 3,94523214871192E-02 
416	 3,58608392330497E-02 
417	 0,033983485073444 
418	 3,67985959255051E-02 
419	 4,05645172672337E-02 
420	 4,02805552331487E-02 
421	 3,03030737897534E-02 
422	 2,91473816968783E-02 
423	 3,51717488265078E-02 
424	 2,71815957597815E-02 
425	 2,16711750537039E-02 
426	 2,75426983839623E-02 
427	 2,91092701532119E-02 
428	 2,87452602755027E-02 
429	 3,51747449867261E-02 
430	 3,41018380614686E-02 
431	 2,55048807849428E-02 
432	 2,74176404653126E-02 
433	 3,33544011492081E-02 
434	 3,66129597099933E-02 
435	 3,33094133862918E-02 
436	 2,75561755162689E-02 
437	 3,19803052724954E-02 
438	 3,51987182948453E-02 
439	 3,35564534729756E-02 
440	 3,51549039771545E-02 
441	 3,61390733699359E-02 
442	 3,09386508790532E-02 
443	 2,69855146395015E-02 
444	 2,66593413654618E-02 
445	 3,16552969648179E-02 
446	 3,46436071152703E-02 
447	 3,15343032595633E-02 
448	 3,00555769083706E-02 
449	 3,06224284414164E-02 
450	 3,19832928408003E-02 
451	 3,27486417221066E-02 
452	 3,24478616698202E-02 
453	 0,031492214461254 
454	 3,13666169057463E-02 
455	 3,32314085048298E-02 
456	 3,34209412524486E-02 
457	 3,25913480698383E-02 
458	 3,46063940896945E-02 
459	 3,57461925593796E-02 
460	 3,48574288495058E-02 
461	 3,52941497697001E-02 
462	 3,60854561793096E-02 
463	 3,55420257326556E-02 
464	 3,45664088293767E-02 
465	 3,38804034381799E-02 
466	 3,51597128199761E-02 
467	 3,62489313087242E-02 
468	 3,58607423375736E-02 
469	 3,63498321166311E-02 
470	 3,66785984317417E-02 
471	 3,38757465171138E-02 
472	 3,31562072773404E-02 
473	 3,53383724697953E-02 
474	 3,55499482553979E-02 
475	 3,48778457303299E-02 
476	 3,46638010886219E-02 
477	 3,46789480001988E-02 
478	 3,46739737320154E-02 
479	 3,41701908230948E-02 
480	 3,26601911642469E-02 
481	 3,04682056688768E-02 
482	 3,16164584215887E-02 
483	 3,33832976445396E-02 
484	 3,11151495077216E-02 
485	 3,07730972349678E-02 
486	 3,25758809786046E-02 
487	 3,09643295990682E-02 
488	 2,96588056431416E-02 
489	 3,13391841964395E-02 
490	 3,27230420415296E-02 
491	 3,31417762964012E-02 
492	 0,03225210773941 
493	 3,21541145379399E-02 
494	 3,31550970979158E-02 
495	 3,24080012172286E-02 
496	 3,08601719165719E-02 
497	 2,98273826841415E-02 
498	 3,01544676482213E-02 
499	 3,13929102109749E-02 
500	 3,15918593077654E-02 
501	 3,14128630674646E-02 
502	 3,12871385391984E-02 
503	 0,03164070583128 
504	 3,20823694407219E-02 
505	 3,18431676303241E-02 
506	 0,031518908476154 
507	 3,13458509805021E-02 
508	 3,13341112933306E-02 
509	 3,19241864952583E-02 
510	 3,33943716487875E-02 
511	 3,38974630425205E-02 
512	 3,34852505577889E-02 
513	 3,32743053490259E-02 
514	 3,29861375588833E-02 
515	 3,26783459702468E-02 
516	 3,30769262833586E-02 
517	 0,034035807636569 
518	 0,035311494747441 
519	 3,53701954783723E-02 
520	 3,44248257773058E-02 
521	 3,49357028801208E-02 
522	 3,52040958647022E-02 
523	 3,41544371149827E-02 
524	 3,42610065745836E-02 
525	 3,52111115207626E-02 
526	 3,55374365832933E-02 
527	 3,53259122576657E-02 
528	 3,46603416590235E-02 
529	 3,41125902982151E-02 
530	 3,37126247767174E-02 
531	 3,34268851626385E-02 
532	 3,39335620846284E-02 
533	 3,50902101132256E-02 
534	 3,62155633583436E-02 
535	 3,65039876181973E-02 
536	 0,035602815345571 
537	 3,49897485455111E-02 
538	 3,47804069990355E-02 
539	 3,47535681021862E-02 
540	 3,47309798824227E-02 
541	 3,46226516382216E-02 
542	 3,44090489396622E-02 
543	 3,41887224965867E-02 
544	 0,03408210178159 
545	 3,46106195109364E-02 
546	 0,03553114985376 
547	 3,59930470459045E-02 
548	 3,60279418589546E-02 
549	 0,035724074995995 
550	 3,57373117089134E-02 
551	 3,58846996221598E-02 
552	 3,57249306369352E-02 
553	 3,61496421030246E-02 
554	 3,68529607305319E-02 
555	 3,55597934911643E-02 
556	 3,43697001156708E-02 
557	 3,49983241425929E-02 
558	 3,54890492788285E-02 
559	 0,03556796944224 
560	 3,56488424984488E-02 
561	 3,47262675666561E-02 
562	 3,29006216363281E-02 
563	 3,33217358607241E-02 
564	 3,42612703138922E-02 
565	 3,30907134374524E-02 
566	 3,27060252749945E-02 
567	 3,34099447688056E-02 
568	 3,35416528399433E-02 
569	 3,37998745736859E-02 
570	 0,034584800344121 
571	 3,47541280994921E-02 
572	 3,48678601708309E-02 
573	 3,66890180028678E-02 
574	 3,74111773976773E-02 
575	 0,036557400063548 
576	 3,72911569640899E-02 
577	 3,85566362124505E-02 
578	 3,89305228911509E-02 
579	 3,94587294289462E-02 
580	 4,02509574537384E-02 
581	 4,09847909099627E-02 
582	 4,15709126769497E-02 
583	 4,19459568721753E-02 
584	 0,042090715058182 
585	 4,23429091121797E-02 
586	 4,33003600213396E-02 
587	 4,40503140397423E-02 
588	 4,43427190393529E-02 
589	 4,44230373688805E-02 
590	 4,47432175255637E-02 
591	 0,04565551889115 
592	 0,045973562019661 
593	 4,58189154756331E-02 
594	 4,62546007827972E-02 
595	 4,63754264460743E-02 
596	 4,59461857981362E-02 
597	 4,63703918953489E-02 
598	 4,68857037446014E-02 
599	 4,61436085218334E-02 
600	 4,54971216274574E-02 
601	 4,53354504512003E-02 
602	 4,55484628153313E-02 
603	 4,57859112892195E-02 
604	 4,57372708904883E-02 
605	 4,52284251555861E-02 
606	 4,44807220833153E-02 
607	 4,40341901461388E-02 
608	 4,38876643710612E-02 
609	 4,39294697265401E-02 
610	 4,34528426608845E-02 
611	 4,27232385640603E-02 
612	 4,21465194119408E-02 
613	 4,16552436849489E-02 
614	 4,12573647028936E-02 
615	 4,09119780786644E-02 
616	 0,040875628703315 
617	 4,12532669712604E-02 
618	 4,14250475931597E-02 
619	 4,15114415796112E-02 
620	 4,20587439626434E-02 
621	 4,18023937318774E-02 
622	 4,05714105108119E-02 
623	 3,95153430617328E-02 
624	 3,94213496359042E-02 
625	 4,09039406664903E-02 
626	 4,10041015027313E-02 
627	 0,040052047531791 
628	 4,11113830001147E-02 
629	 4,18756641699319E-02 
630	 4,13803553469846E-02 
631	 4,17329395726471E-02 
632	 4,23961570257244E-02 
633	 4,20741466445794E-02 
634	 4,23902109695119E-02 
635	 4,34300144215017E-02 
636	 0,043509066019748 
637	 4,35028577556144E-02 
638	 4,41688876377872E-02 
639	 4,48282014172847E-02 
640	 0,045372878107897 
641	 4,58311986834034E-02 
642	 4,63810185315298E-02 
643	 4,70474720966415E-02 
644	 4,75188730973053E-02 
645	 4,78251621335606E-02 
646	 4,80489313286887E-02 
647	 4,80755605496485E-02 
648	 4,78764886110323E-02 
649	 4,74287803176859E-02 
650	 0,046968717576577 
651	 0,046640438322998 
652	 4,61355250817176E-02 
653	 4,55932579463668E-02 
654	 4,54415619350868E-02 
655	 4,48826880630417E-02 
656	 4,37765138675288E-02 
657	 0,042883649231356 
658	 4,20845069448159E-02 
659	 4,12046573195995E-02 
660	 4,03184580637062E-02 
661	 3,93901792393927E-02 
662	 3,82402798473725E-02 
663	 3,72491018902125E-02 
664	 3,66076362790871E-02 
665	 3,61050349853612E-02 
666	 3,56514597307089E-02 
667	 3,51508209166412E-02 
668	 3,47659776507486E-02 
669	 3,44547114115834E-02 
670	 3,38753635259512E-02 
671	 3,33094773501174E-02 
672	 3,30007183638208E-02 
673	 3,29379550548026E-02 
674	 3,30309534702005E-02 
675	 3,30947254093129E-02 
676	 3,31362305668333E-02 
677	 3,31046386141465E-02 
678	 0,032728464750083 
679	 0,032525749582152 
680	 3,31164175724941E-02 
681	 3,39844831621875E-02 
682	 3,46935916224927E-02 
683	 3,42260294794289E-02 
684	 3,42834279022361E-02 
685	 3,57112313711866E-02 
686	 3,63564736547376E-02 
687	 3,68408423386691E-02 
688	 0,038773472638518 
689	 4,08165638422282E-02 
690	 4,27343534685749E-02 
691	 4,52227149219151E-02 
692	 4,82991446537569E-02 
693	 5,19323414569162E-02 
694	 5,55442401661536E-02 
695	 5,94651353143421E-02 
696	 6,47982202278178E-02 
697	 7,06167608714167E-02 
698	 7,67368536553254E-02 
699	 8,44963376043873E-02 
700	 9,26739155605265E-02 
701	 9,96321375025336E-02 
702	 0,107280752188427 
703	 0,115695799741166 
704	 0,123593240882432 
705	 0,131329243897331 
706	 0,13914601495881 
707	 0,147001861115449 
708	 0,154662201094695 
709	 0,16174582645538 
710	 0,168275167689415 
711	 0,17435554550522 
712	 0,18043220393961 
713	 0,186041161844029 
714	 0,190801159573147 
715	 0,195977374990973 
716	 0,201295692411157 
717	 0,205402174943865 
718	 0,209142468806701 
719	 0,21283193176758 
720	 0,216080930548601 
721	 0,219184047540804 
722	 0,222560402528638 
723	 0,225431145822342 
724	 0,227732685409662 
725	 0,229960514871388 
726	 0,231942530553559 
727	 0,233602905960731 
728	 0,235204233023982 
729	 0,236741813625345 
730	 0,23810852459967 
731	 0,239573607194324 
732	 0,241091547011717 
733	 0,242097932747601 
734	 0,243008325043922 
735	 0,244182644549376 
736	 0,245205422459677 
737	 0,246123217183602 
738	 0,247261860657003 
739	 0,248259202915015 
740	 0,24898073566137 
741	 0,249535326163226 
742	 0,250050639174026 
743	 0,25066338642946 
744	 0,251486526477201 
745	 0,252405070202108 
746	 0,253011398455961 
747	 0,25348019465355 
748	 0,253907005398043 
749	 0,254270722789178 
750	 0,254646272371413 
751	 0,255138663492273 
752	 0,255688925437279 
753	 0,256224998450479 
754	 0,256584239375517 
755	 0,256828221958401 
756	 0,257029009382866 
757	 0,257340481494404 
758	 0,257840581649896 
759	 0,25867738019997 
760	 0,259150565958607 
761	 0,25911293637659 
762	 0,259064580398894 
763	 0,259352759976868 
764	 0,260232510700335 
765	 0,260949879450673 
766	 0,261319217998033 
767	 0,261255708587307 
768	 0,261373563948251 
769	 0,261887927008842 
770	 0,262348214388441 
771	 0,262682997709651 
772	 0,262862293115477 
773	 0,2631861422877 
774	 0,263654186419568 
775	 0,264075350486691 
776	 0,264265929680909 
777	 0,264179101279142 
778	 0,264177320560364 
779	 0,264497303525266 
780	 0,265405755658895 
781	 0,26613139504171 
782	 0,266421166337831 
783	 0,266237354328656 
784	 0,266169687033609 
785	 0,266574891100701 
786	 0,266841897293388 
787	 0,267009796153237 
788	 0,267320106184197 
789	 0,267444867946308 
790	 0,267389469500505 
791	 0,267587952312632 
792	 0,267840800309017 
793	 0,267982410806973 
794	 0,268085544107045 
795	 0,268280813722483 
796	 0,268853460821934 
797	 0,26921748015852 
798	 0,269213991080359 
799	 0,269097627003549 
800	 0,269292333131207 
801	 0,270113873375824 
802	 0,270458432772261 
803	 0,270385142442543 
804	 0,270552008594741 
805	 0,271079550010433 
806	 0,271891128512575 
807	 0,272187546298586 
808	 0,272254650532801 
809	 0,272466578815334 
810	 0,27280376785882 
811	 0,273152737953677 
812	 0,273157169908442 
813	 0,273262629219173 
814	 0,273690705677044 
815	 0,274506739723289 
816	 0,275213050176424 
817	 0,275245124164975 
818	 0,275330433944397 
819	 0,275527573419901 
820	 0,275437321624889 
821	 0,275504788168221 
822	 0,275903153340819 
823	 0,276222057779465 
824	 0,276583581909002 
825	 0,277189617678671 
826	 0,277614625259339 
827	 0,277804322596216 
828	 0,277944382455313 
829	 0,278074457106693 
830	 0,278243983390243 
831	 0,278532203889049 
832	 0,278901555408444 
833	 0,279288447678629 
834	 0,279351926528467 
835	 0,279214391255001 
836	 0,279501716646873 
837	 0,280168939536242 
838	 0,281001807504462 
839	 0,280715479801759 
840	 0,28017178260838 
841	 0,280768852049658 
842	 0,281152319040219 
843	 0,281162501798222 
844	 0,281423019962804 
845	 0,281771996459643 
846	 0,282080565566553 
847	 0,282051276477237 
848	 0,282019060072896 
849	 0,282491568014599 
850	 0,282778048554522 
851	 0,282785788184037 
852	 0,282830241480177 
853	 0,282871692953835 
854	 0,28286528881146 
855	 0,282518897638381 
856	 0,282414235317175 
857	 0,28335139785277 
858	 0,283854892940374 
859	 0,283724075202525 
860	 0,283604827595191 
861	 0,283520752012359 
862	 0,283512554871816 
863	 0,283506513440065 
864	 0,283739371077151 
865	 0,284502302994945 
866	 0,285048896136562 
867	 0,285246472864757 
868	 0,285253583502953 
869	 0,285568361053702 
870	 0,286302376413015 
871	 0,28643158217063 
872	 0,286429055632626 
873	 0,286967472520972 
874	 0,287779224109707 
875	 0,28850859463104 
876	 0,288297320268054 
877	 0,288198952758013 
878	 0,288640752060765 
879	 0,28915177328063 
880	 0,289714297784276 
881	 0,290340629806881 
882	 0,291021039158867 
883	 0,291588206780503 
884	 0,291578937144743 
885	 0,291856302379684 
886	 0,292571864159772 
887	 0,29280020877563 
888	 0,292498992618462 
889	 0,291831020771137 
890	 0,292682716292449 
891	 0,294296396379722 
892	 0,294260228649845 
893	 0,294162483992677 
894	 0,29443265629213 
895	 0,2946714392631 
896	 0,294832517970119 
897	 0,294890512364134 
898	 0,294876177430321 
899	 0,29498286530841 
900	 0,295506459707011 
901	 0,296446229531606 
902	 0,297480594130097 
903	 0,297528533668527 
904	 0,297447047452285 
905	 0,297708677529439 
906	 0,297443229677755 
907	 0,297105602337068 
908	 0,297455291389119 
909	 0,29814353255014 
910	 0,298803253806112 
911	 0,298625400955302 
912	 0,298288819174974 
913	 0,298160949606542 
914	 0,298195297000541 
915	 0,298555150617744 
916	 0,299366117429482 
917	 0,299820244146715 
918	 0,299785419088204 
919	 0,299326473784307 
920	 0,299460661358693 
921	 0,300159252965236 
922	 0,299288375980528 
923	 0,298524791666753 
924	 0,299193467315254 
925	 0,29921930576364 
926	 0,298650621191146 
927	 0,298128769357326 
928	 0,29854263269738 
929	 0,299740865410471 
930	 0,300155944089807 
931	 0,300255780296296 
932	 0,300268920829668 
933	 0,299812808380169 
934	 0,299332988075811 
935	 0,299410965344201 
936	 0,299571053429138 
937	 0,299403025975834 
938	 0,297892710758667 
939	 0,297527666959476 
940	 0,29876072029559 
941	 0,298592944676307 
942	 0,297488762115399 
943	 0,29613549982275 
944	 0,295584226298953 
945	 0,295410296577179 
946	 0,29442588518054 
947	 0,293872741277191 
948	 0,293887395050162 
949	 0,293757210140329 
950	 0,293054431586483 
951	 0,291755094988512 
952	 0,291552404653221 
953	 0,291205469572196 
954	 0,289100188778306 
955	 0,286996472462449 
956	 0,285838925272827 
957	 0,287102511840009 
958	 0,287691195766615 
959	 0,286594661006591 
960	 0,284838432823324 
961	 0,283735569330408 
962	 0,284133255001989 
963	 0,284592680129926 
964	 0,28441004867467 
965	 0,282897455919865 
966	 0,283455087094322 
967	 0,285544916601019 
968	 0,284765765870569 
969	 0,283709095269039 
970	 0,283525422466423 
971	 0,2842245839068 
972	 0,284572364142841 
973	 0,283607612801644 
974	 0,283713349393107 
975	 0,284234106040167 
976	 0,283248640838951 
977	 0,283787116793934 
978	 0,285643977681854 
979	 0,285179157350639 
980	 0,284697491480243 
981	 0,285259378522826 
982	 0,285834801220646 
983	 0,286283004006101 
984	 0,286611531183386 
985	 0,288007047520637 
986	 0,289521600466502 
987	 0,288988424051782 
988	 0,287794854266801 
989	 0,287085079602728 
990	 0,289386028948824 
991	 0,29085905454889 
992	 0,290079511310747 
993	 0,291937911653238 
994	 0,293613134800709 
995	 0,292179673187969 
996	 0,293375142530361 
997	 0,295746888205981 
998	 0,294438155528952 
999	 0,295161825991581 
1000	 0,297861729610707 
1001	 0,296231876655566 
1002	 0,295338632618869 
1003	 0,297421686897632 
1004	 0,299468552531635 
1005	 0,300414977751948 
1006	 0,299670677456362 
1007	 0,300119360643415 
1008	 0,300798876843637 
1009	 0,299050080614331 
1010	 0,298924286747638 
1011	 0,302153495092686 
1012	 0,311767990597314 
1013	 0,314205389875653 
1014	 0,305998572428086 
1015	 0,304018119364539 
1016	 0,30637087716532 
1017	 0,3101217027405 
1018	 0,311478630903063 
1019	 0,311242091905903 
1020	 0,31168233181496 
1021	 0,312568723822639 
1022	 0,312777471007299 
1023	 0,308463608415378 
1024	 0,309065650839516 
1025	 0,315680080809893 
1026	 0,317241144927561 
1027	 0,318168879550606 
1028	 0,320914649421334 
1029	 0,320387857378985 
1030	 0,319165683619386 
1031	 0,320643424288719 
1032	 0,321053322611121 
1033	 0,320570049067684 
1034	 0,321059499158265 
1035	 0,319851008123847 
1036	 0,317425011432396 
1037	 0,317934418469833 
1038	 0,318100276315057 
1039	 0,317547289250161 
1040	 0,32256481799725 
1041	 0,32692772665883 
1042	 0,325701642900624 
1043	 0,32544601668242 
1044	 0,322554271159585 
1045	 0,312074262458007 
1046	 0,319784900333586 
1047	 0,337160741190638 
1048	 0,331553974389262 
1049	 0,323621940195627 
1050	 0,320466352283463 
1051	 0,323189532083357 
1052	 0,325608155261738 
1053	 0,326032664080183 
1054	 0,336178039816554 
1055	 0,340195790099714 
1056	 0,327066767612833 
1057	 0,32763596939044 
1058	 0,333789134309114 
1059	 0,328385951623722 
1060	 0,329577382028397 
1061	 0,335348662291791 
1062	 0,332308493417853 
1063	 0,336365353722297 
1064	 0,345340856496529 
1065	 0,333859784988201 
1066	 0,326943448119969 
1067	 0,335155389053657 
1068	 0,344989835231098 
1069	 0,34899249345232 
1070	 0,342010681882586 
1071	 0,326638596532352 
1072	 0,318764084360786 
1073	 0,334575152814195 
1074	 0,345444170898087 
1075	 0,344544309381986 
