Wavelength	AVEN00275.asd
325	 0,34525286274412 
326	 0,336945176334286 
327	 0,343152523453903 
328	 0,336050516295431 
329	 0,308448493270542 
330	 0,300553536568583 
331	 0,325635531703996 
332	 0,275873475793795 
333	 0,198108992076654 
334	 0,22089261190072 
335	 0,238453194817766 
336	 0,23163040435561 
337	 0,282397029167106 
338	 0,312554092714251 
339	 0,248351912193449 
340	 0,155718216805438 
341	 0,108400213860581 
342	 0,223307133134004 
343	 0,267271071133757 
344	 0,206742921200806 
345	 0,176607240630951 
346	 0,160204082704548 
347	 0,141615643689739 
348	 0,155770664538852 
349	 0,189717282971596 
350	 0,20523009365058 
351	 0,194858220208574 
352	 0,167338838181679 
353	 0,182579618648592 
354	 0,204866984496556 
355	 0,191662977371611 
356	 0,173617188028401 
357	 0,164829065406854 
358	 0,184888331917178 
359	 0,196931276589932 
360	 0,185412805500505 
361	 0,17630870161102 
362	 0,161562379728533 
363	 0,122456691336288 
364	 0,118680168734681 
365	 0,14933597598384 
366	 0,164890997619314 
367	 0,168638659345453 
368	 0,161664945786009 
369	 0,14848842664534 
370	 0,138978509989487 
371	 0,150646472909367 
372	 0,150252992958088 
373	 0,137044054206658 
374	 0,148750699084055 
375	 0,166834724982003 
376	 0,175165998806894 
377	 0,168019748966211 
378	 0,150931677558172 
379	 0,137094044281748 
380	 0,142921335107861 
381	 0,163443833975435 
382	 0,154814850716587 
383	 0,140487673706147 
384	 0,145066180005691 
385	 0,143302074897702 
386	 0,135694392613164 
387	 0,132268236386234 
388	 0,145822653061981 
389	 0,17233707422721 
390	 0,164176052093314 
391	 0,145634081489082 
392	 0,146908069843276 
393	 0,151961069610011 
394	 0,153856496250166 
395	 0,140742294262074 
396	 0,135903798828472 
397	 0,14866537386074 
398	 0,155042812639591 
399	 0,153268838093741 
400	 0,144993744389073 
401	 0,141454824247915 
402	 0,143893687443469 
403	 0,144654375115479 
404	 0,146165564656074 
405	 0,149480374851663 
406	 0,146319979627669 
407	 0,141981479994675 
408	 0,149632077518354 
409	 0,151067211970858 
410	 0,142886879488325 
411	 0,135976192029609 
412	 0,133731665211377 
413	 0,138119739725781 
414	 0,140449107565718 
415	 0,140402679203463 
416	 0,141990021838429 
417	 0,143058276831363 
418	 0,142805177751339 
419	 0,141616512894832 
420	 0,140237553564456 
421	 0,139458901724606 
422	 0,14042273947318 
423	 0,141734149335515 
424	 0,137647245778887 
425	 0,135719865633706 
426	 0,13950198229391 
427	 0,137087080630187 
428	 0,132740887163036 
429	 0,137288993786038 
430	 0,137042739606867 
431	 0,131333576978971 
432	 0,135648002488768 
433	 0,13968816633528 
434	 0,134520830539495 
435	 0,131694914726439 
436	 0,133136856525671 
437	 0,139092255045596 
438	 0,140585751843189 
439	 0,135205064026448 
440	 0,133244633414293 
441	 0,135033776727254 
442	 0,139677546928602 
443	 0,139729893035877 
444	 0,135336610441767 
445	 0,133613551309728 
446	 0,132817839536379 
447	 0,132093475629893 
448	 0,133334674091487 
449	 0,134801572517243 
450	 0,132694697061684 
451	 0,132964356607987 
452	 0,136572794455712 
453	 0,139203145843837 
454	 0,13995492947733 
455	 0,138428899314946 
456	 0,13882718755027 
457	 0,14081717328034 
458	 0,141275184630386 
459	 0,140924942215989 
460	 0,140303620926935 
461	 0,14137603383542 
462	 0,142063498961581 
463	 0,139373029577279 
464	 0,13946105064218 
465	 0,14239627431201 
466	 0,142767901331467 
467	 0,142401631948108 
468	 0,142482924955178 
469	 0,142215224325204 
470	 0,141920459211264 
471	 0,142386428744716 
472	 0,142858084483794 
473	 0,142976541375732 
474	 0,142669654359625 
475	 0,141157214324369 
476	 0,137933307829883 
477	 0,138513342403921 
478	 0,141818781430105 
479	 0,141670340810395 
480	 0,141083337632372 
481	 0,141270593495759 
482	 0,140827920689655 
483	 0,140326974508428 
484	 0,140776976926052 
485	 0,141079437833143 
486	 0,141064006919151 
487	 0,141557720028746 
488	 0,140889825941112 
489	 0,138203154908241 
490	 0,138545740524781 
491	 0,140863912902379 
492	 0,141150476906766 
493	 0,139888278442834 
494	 0,137895335468768 
495	 0,139065824859743 
496	 0,141036054709167 
497	 0,14084593025503 
498	 0,14060682867163 
499	 0,140756788293821 
500	 0,141346718085574 
501	 0,141109132477984 
502	 0,139772517524057 
503	 0,141390038381066 
504	 0,144002247552183 
505	 0,143392672213915 
506	 0,142804152932528 
507	 0,14304488873957 
508	 0,143165860905447 
509	 0,143496116202397 
510	 0,144307546310978 
511	 0,144609068740588 
512	 0,144732777135758 
513	 0,146285983579919 
514	 0,14663417187582 
515	 0,145199339864848 
516	 0,146163608576993 
517	 0,148177686692185 
518	 0,148892850138888 
519	 0,147933721829881 
520	 0,146199839993659 
521	 0,147282457701135 
522	 0,149014674484702 
523	 0,149653717569382 
524	 0,14869310392713 
525	 0,14715935738826 
526	 0,147523767252915 
527	 0,147918761780496 
528	 0,147795627472095 
529	 0,147892651226389 
530	 0,147661757682116 
531	 0,14646295322874 
532	 0,146905428011961 
533	 0,148551050066723 
534	 0,148018534417676 
535	 0,14782049712478 
536	 0,149142216785718 
537	 0,148782283459579 
538	 0,147602284472803 
539	 0,147947946550803 
540	 0,148417397748989 
541	 0,148474143896726 
542	 0,147591640495798 
543	 0,146937981123694 
544	 0,147605713035233 
545	 0,14784833122739 
546	 0,147690569528758 
547	 0,148293183818128 
548	 0,148762950328286 
549	 0,148716412758968 
550	 0,148714069822421 
551	 0,148822924288284 
552	 0,149031809103206 
553	 0,149619711263631 
554	 0,150066183393944 
555	 0,147914393911304 
556	 0,146264201876564 
557	 0,147569341457793 
558	 0,148217763772268 
559	 0,147812847544971 
560	 0,147084161541263 
561	 0,146312454515088 
562	 0,145683873524674 
563	 0,145123803449215 
564	 0,144735410576176 
565	 0,14464247401893 
566	 0,144860379603075 
567	 0,14528473603972 
568	 0,145634317571056 
569	 0,145743941426968 
570	 0,145655752981062 
571	 0,146870176301961 
572	 0,149027211796307 
573	 0,151032424424091 
574	 0,151925557548092 
575	 0,151628724176876 
576	 0,152023252001455 
577	 0,153036379002791 
578	 0,154390551637205 
579	 0,15508778616922 
580	 0,155348844940816 
581	 0,15664459915211 
582	 0,158281834613429 
583	 0,159697249046202 
584	 0,159794062699149 
585	 0,159610122171417 
586	 0,161144358921841 
587	 0,163465685743679 
588	 0,16568666893045 
589	 0,165337797113484 
590	 0,164795797788924 
591	 0,16626956579623 
592	 0,166835791510577 
593	 0,166598600875073 
594	 0,167509566190328 
595	 0,167930704823509 
596	 0,167361751818942 
597	 0,167842378067206 
598	 0,168547515725055 
599	 0,167925112316577 
600	 0,167552965287984 
601	 0,167704814351926 
602	 0,167680468422654 
603	 0,167406089041501 
604	 0,166826926307991 
605	 0,165869262535842 
606	 0,164939394566028 
607	 0,165007798153497 
608	 0,165137965683771 
609	 0,164891407160438 
610	 0,164065016429051 
611	 0,163131465269248 
612	 0,162687851286559 
613	 0,162312356207605 
614	 0,161824154502322 
615	 0,16086813560342 
616	 0,160390652275086 
617	 0,160874948786706 
618	 0,160800859018511 
619	 0,160353042539697 
620	 0,160340107800482 
621	 0,160508252775049 
622	 0,160672090282458 
623	 0,160208232174961 
624	 0,159989669603615 
625	 0,160891689019452 
626	 0,161297076411213 
627	 0,161159308593427 
628	 0,161443224221368 
629	 0,16165359287481 
630	 0,161609412353805 
631	 0,16180548479433 
632	 0,162191796803417 
633	 0,162571546622852 
634	 0,163323729401817 
635	 0,164368498865974 
636	 0,164986391028723 
637	 0,165464181174852 
638	 0,166087214106246 
639	 0,167110104131039 
640	 0,168235498723651 
641	 0,168531581247267 
642	 0,169180853830612 
643	 0,170409237395981 
644	 0,170516270046108 
645	 0,170248228256291 
646	 0,170763755215737 
647	 0,171113363766417 
648	 0,171080959006106 
649	 0,170787199958165 
650	 0,170381695831595 
651	 0,16991771831593 
652	 0,16877489309195 
653	 0,16751438644238 
654	 0,16753201115761 
655	 0,166809558739036 
656	 0,164970606079768 
657	 0,163800046616589 
658	 0,16277562398897 
659	 0,161259668036878 
660	 0,159825929951253 
661	 0,158435491548641 
662	 0,15656052111166 
663	 0,15494526012918 
664	 0,153917935906259 
665	 0,152807305946643 
666	 0,151698357753327 
667	 0,150821097736358 
668	 0,150531911702177 
669	 0,150600073905931 
670	 0,14971776631041 
671	 0,148888577604119 
672	 0,148876343606405 
673	 0,148357567924571 
674	 0,147712689017435 
675	 0,148437384921034 
676	 0,149095162151761 
677	 0,149138121492257 
678	 0,148798464726022 
679	 0,148462530470576 
680	 0,148564716463498 
681	 0,149160472213382 
682	 0,150035051925055 
683	 0,150363273049302 
684	 0,151235552127693 
685	 0,153152208838065 
686	 0,154520366477656 
687	 0,155729560403812 
688	 0,157809124270872 
689	 0,160456055079376 
690	 0,163660862180356 
691	 0,167554650077292 
692	 0,171962731094853 
693	 0,176722298355352 
694	 0,181586071771664 
695	 0,186838883145828 
696	 0,193239872253286 
697	 0,20050709321204 
698	 0,208397560361799 
699	 0,216178078905275 
700	 0,224110645697916 
701	 0,23267252028827 
702	 0,241310136440354 
703	 0,249764409704488 
704	 0,257791585365987 
705	 0,265703634316558 
706	 0,273680595250758 
707	 0,281259343792842 
708	 0,288433187438833 
709	 0,295301197930068 
710	 0,302079543889529 
711	 0,308674742297302 
712	 0,314281368778108 
713	 0,319459583324532 
714	 0,32475296509666 
715	 0,32986327370688 
716	 0,334664284859008 
717	 0,338999848912149 
718	 0,342887450541009 
719	 0,34636954187076 
720	 0,349599673986001 
721	 0,352683229987595 
722	 0,355742507890728 
723	 0,358323306144629 
724	 0,360449899125367 
725	 0,362602624612632 
726	 0,364535384615385 
727	 0,366159227083097 
728	 0,368073713739179 
729	 0,36998908684149 
730	 0,371255333424546 
731	 0,37216642799187 
732	 0,373001636520638 
733	 0,374487166265741 
734	 0,376055781774984 
735	 0,377176475062947 
736	 0,377963148036371 
737	 0,378591580454609 
738	 0,379471821839522 
739	 0,380175092541921 
740	 0,380627128797868 
741	 0,381335614647889 
742	 0,382151218020428 
743	 0,382851196342761 
744	 0,383465559039168 
745	 0,383961482989586 
746	 0,384198684437132 
747	 0,384613047861239 
748	 0,385329431016476 
749	 0,385390046221738 
750	 0,385243112816151 
751	 0,385742774834932 
752	 0,386231311920926 
753	 0,386549573984286 
754	 0,386832609566353 
755	 0,387027601940991 
756	 0,38711384011472 
757	 0,387225985667892 
758	 0,387476738379807 
759	 0,388058444584133 
760	 0,388537030156736 
761	 0,388755543131735 
762	 0,388760960655023 
763	 0,388847658709073 
764	 0,389276119999015 
765	 0,389758924796791 
766	 0,390124734463532 
767	 0,390071712121711 
768	 0,390119694417904 
769	 0,39046458408606 
770	 0,390862544535356 
771	 0,391197993461871 
772	 0,391366329101401 
773	 0,391671528091784 
774	 0,392026429926462 
775	 0,391970886020657 
776	 0,391743820642801 
777	 0,391549767380063 
778	 0,391780801914936 
779	 0,392331614216387 
780	 0,392986973032052 
781	 0,393162405863248 
782	 0,392911345331108 
783	 0,393053293102559 
784	 0,393371097992474 
785	 0,393691676691536 
786	 0,393783882762615 
787	 0,393884750957383 
788	 0,394521083774003 
789	 0,394595903062254 
790	 0,394079376809499 
791	 0,394328506657087 
792	 0,394659437611613 
793	 0,394541126085843 
794	 0,394670113025345 
795	 0,395031275498485 
796	 0,395388617168289 
797	 0,395467406963258 
798	 0,395284066924835 
799	 0,395428336710398 
800	 0,395800520633321 
801	 0,396223375101806 
802	 0,395877170741848 
803	 0,395287298090455 
804	 0,396240599502111 
805	 0,396948989174734 
806	 0,396874390071553 
807	 0,397035885519024 
808	 0,397120102982016 
809	 0,396768588209199 
810	 0,397032125757674 
811	 0,397685708000113 
812	 0,397429364028731 
813	 0,397418598363047 
814	 0,398041835711266 
815	 0,398489648874719 
816	 0,398826002195531 
817	 0,399206568794976 
818	 0,399388817695723 
819	 0,399377618268818 
820	 0,399314540717534 
821	 0,399367956670472 
822	 0,399643361147593 
823	 0,400197668657713 
824	 0,400601382796874 
825	 0,400327040014268 
826	 0,400615462675864 
827	 0,401430242139081 
828	 0,401714163008716 
829	 0,401614604580707 
830	 0,401338422044962 
831	 0,401803591961347 
832	 0,402514680032311 
833	 0,402662466682542 
834	 0,402680181423303 
835	 0,402668737840299 
836	 0,402555032188552 
837	 0,402783935703634 
838	 0,403455896094153 
839	 0,403424554311166 
840	 0,403220969289827 
841	 0,403764907806856 
842	 0,404019660004052 
843	 0,403930633564213 
844	 0,404221175130178 
845	 0,40444311730886 
846	 0,404422465263689 
847	 0,404766847275056 
848	 0,405155006353225 
849	 0,405054651371713 
850	 0,404763531340506 
851	 0,404467494662957 
852	 0,404437967352457 
853	 0,404716657222167 
854	 0,405202917605738 
855	 0,40505524389561 
856	 0,404809452605554 
857	 0,405311478594359 
858	 0,405520642584702 
859	 0,405385831275484 
860	 0,405617986998961 
861	 0,405746143960522 
862	 0,405569037878264 
863	 0,40540232586356 
864	 0,405432247528959 
865	 0,405841203442524 
866	 0,406536955258889 
867	 0,407347190704886 
868	 0,407940486203981 
869	 0,408170511467415 
870	 0,408082052565208 
871	 0,408441017740828 
872	 0,408928818514956 
873	 0,409086149017114 
874	 0,409537199028144 
875	 0,410020146364757 
876	 0,409273641929262 
877	 0,409276315514004 
878	 0,410508347520278 
879	 0,410505829256036 
880	 0,409953108088357 
881	 0,409834857270022 
882	 0,410662201933754 
883	 0,411943810858838 
884	 0,4121761734295 
885	 0,411861866530241 
886	 0,411389203603138 
887	 0,411915476421395 
888	 0,412229363771107 
889	 0,411299715955695 
890	 0,4117709441414 
891	 0,413000848750539 
892	 0,412529970146307 
893	 0,412143998220931 
894	 0,41237464522745 
895	 0,412956821626411 
896	 0,413271295490073 
897	 0,412898789650456 
898	 0,412641080747097 
899	 0,412722698828119 
900	 0,413311445379751 
901	 0,413514941275652 
902	 0,413330303288436 
903	 0,413818409472471 
904	 0,414464608948652 
905	 0,414841006472873 
906	 0,414330404774527 
907	 0,413888656960712 
908	 0,414935777781259 
909	 0,415162392066733 
910	 0,414506023065375 
911	 0,414650352547094 
912	 0,41489619721976 
913	 0,4149357252315 
914	 0,414830842559788 
915	 0,41498848426835 
916	 0,415785211766066 
917	 0,415939664602716 
918	 0,415408737238486 
919	 0,414661060759052 
920	 0,414827667603964 
921	 0,415875323760504 
922	 0,415371731403662 
923	 0,414937773843483 
924	 0,4158474734692 
925	 0,415976539718598 
926	 0,41528129577759 
927	 0,414290097401254 
928	 0,413568198818877 
929	 0,413498517713221 
930	 0,414676521986625 
931	 0,415475784142977 
932	 0,414982317809251 
933	 0,414281765779432 
934	 0,413722528654986 
935	 0,41357123713653 
936	 0,413556235668881 
937	 0,413516150617318 
938	 0,413194697885862 
939	 0,412932809468773 
940	 0,412787501874836 
941	 0,412291910330372 
942	 0,411971776659076 
943	 0,41218328139445 
944	 0,411528582680572 
945	 0,410054715113543 
946	 0,408214503437016 
947	 0,408180051526768 
948	 0,40964030231504 
949	 0,409039920276027 
950	 0,407712323576669 
951	 0,406528893709613 
952	 0,405804300742748 
953	 0,405086843805343 
954	 0,40382469479335 
955	 0,403423089003685 
956	 0,403443517788966 
957	 0,401929597718066 
958	 0,400971078018212 
959	 0,40097283661572 
960	 0,400254291005176 
961	 0,399694240297559 
962	 0,399912700566928 
963	 0,399944737967118 
964	 0,399873978605899 
965	 0,400034548934965 
966	 0,400514870127197 
967	 0,400821865878592 
968	 0,399255343863629 
969	 0,398621008936471 
970	 0,399696750681596 
971	 0,39961178150371 
972	 0,39881653039896 
973	 0,397994890497081 
974	 0,39791674671794 
975	 0,398474221237254 
976	 0,399189969584401 
977	 0,399686930312414 
978	 0,400001827706118 
979	 0,400953191624641 
980	 0,400966537554967 
981	 0,399729476094876 
982	 0,400379908871698 
983	 0,401105576032228 
984	 0,400075354840731 
985	 0,401128645590695 
986	 0,40329431417385 
987	 0,403429676069024 
988	 0,402905540112407 
989	 0,402344628362976 
990	 0,402501621816339 
991	 0,403043557875424 
992	 0,403989394661876 
993	 0,40682515710812 
994	 0,408497184033483 
995	 0,406242309953643 
996	 0,406957114658902 
997	 0,409030893493384 
998	 0,406778274556858 
999	 0,40696928532826 
1000	 0,41000878127668 
1001	 0,410148231171531 
1002	 0,41029219240744 
1003	 0,411517712890543 
1004	 0,411067521049825 
1005	 0,411406575855048 
1006	 0,414629752706469 
1007	 0,415121456267983 
1008	 0,413262600364201 
1009	 0,41143787156004 
1010	 0,41308641355696 
1011	 0,417418233147579 
1012	 0,418702881211486 
1013	 0,418965060078708 
1014	 0,418991991507877 
1015	 0,418205342398402 
1016	 0,419243583146935 
1017	 0,42362558787043 
1018	 0,425108391950389 
1019	 0,423179408047729 
1020	 0,418831987525633 
1021	 0,418248414661364 
1022	 0,420521044418703 
1023	 0,41806847395524 
1024	 0,418928945466844 
1025	 0,424059621873355 
1026	 0,424955209151667 
1027	 0,426267510857055 
1028	 0,430087410609508 
1029	 0,427680745509602 
1030	 0,425769372954292 
1031	 0,432181161397639 
1032	 0,428872834706753 
1033	 0,421003930474797 
1034	 0,425626171686051 
1035	 0,431169503965951 
1036	 0,433362756398917 
1037	 0,429748770985401 
1038	 0,426280467507216 
1039	 0,425690229223864 
1040	 0,424400994467903 
1041	 0,426619336404981 
1042	 0,433864411982293 
1043	 0,428913740200827 
1044	 0,422968410489823 
1045	 0,433790955135932 
1046	 0,429270346799525 
1047	 0,417934941134421 
1048	 0,436355003368683 
1049	 0,443469478034424 
1050	 0,432790414637278 
1051	 0,43094885459099 
1052	 0,432852401461344 
1053	 0,436133211185741 
1054	 0,441044139791124 
1055	 0,44226618655107 
1056	 0,436712926875764 
1057	 0,437754070924076 
1058	 0,441728525370523 
1059	 0,440668561807289 
1060	 0,436293481812333 
1061	 0,429956082298005 
1062	 0,423805272345932 
1063	 0,426317704305776 
1064	 0,436390961803479 
1065	 0,441192330241119 
1066	 0,441573233807704 
1067	 0,439467605278921 
1068	 0,444034402830304 
1069	 0,449797390063323 
1070	 0,451205794344942 
1071	 0,444066301774454 
1072	 0,435693492280907 
1073	 0,4348195626925 
1074	 0,43249816211041 
1075	 0,430418859363643 
