Wavelength	AVEN00498.asd
325	 0,113206959101874 
326	 1,01948473175459E-02 
327	-5,46176947404789E-02 
328	-6,49946484376198E-02 
329	-5,99289167960518E-02 
330	-2,92110319940059E-02 
331	 3,29430199144948E-02 
332	 5,06096824821924E-02 
333	 8,41394877464529E-03 
334	-0,129790244772331 
335	-9,05983423074596E-02 
336	 0,111992019223001 
337	 0,150036706719562 
338	 0,125100253299325 
339	 0,116823872406105 
340	-5,33416348638474E-03 
341	-0,131681854401006 
342	-0,025222182746723 
343	 8,59758238213164E-02 
344	 0,127076326995128 
345	 9,48980991276109E-02 
346	 3,65558890171613E-02 
347	 9,19063771302364E-03 
348	 7,80219706974844E-03 
349	 1,84003237958841E-02 
350	 8,19375364072232E-03 
351	 8,72860522446823E-03 
352	 2,75547829079877E-02 
353	 3,93645546814728E-02 
354	 0,040283163684808 
355	 2,78703963122733E-02 
356	 2,50815633670139E-02 
357	 0,034790407156284 
358	 5,07177137189484E-02 
359	 5,17729104939115E-02 
360	 2,89679563355242E-02 
361	 1,95004700897022E-03 
362	-0,018690697758754 
363	-2,89520156367085E-02 
364	-6,59140899297014E-03 
365	 3,13770750420526E-02 
366	 2,64389976653176E-02 
367	 1,48258206965722E-02 
368	 1,94885359347382E-02 
369	 3,13598023631696E-02 
370	 4,04117572501137E-02 
371	 2,97703863284109E-02 
372	 1,71019942710525E-02 
373	 1,01277154821189E-02 
374	 1,47038552310052E-02 
375	 2,05646759395314E-02 
376	 2,05259271339969E-02 
377	 2,73986801050239E-02 
378	 3,54524788416986E-02 
379	 2,50768874857112E-02 
380	 2,63534551260311E-02 
381	 3,98995573721301E-02 
382	 0,026437423596542 
383	 2,34213988686892E-03 
384	-1,23337008952056E-02 
385	-1,77392791046352E-03 
386	 2,01278906110269E-02 
387	 8,84575002761129E-03 
388	 9,45155563734635E-03 
389	 3,35315135611438E-02 
390	 4,73218308919982E-02 
391	 4,51502295043282E-02 
392	 2,41308937696226E-02 
393	 1,68852606809224E-02 
394	 2,33281221946096E-02 
395	 0,015119196150671 
396	 1,45198371348773E-02 
397	 0,028534322801549 
398	 2,21754583408265E-02 
399	 1,00511788254979E-02 
400	 1,97632127135843E-02 
401	 2,40896431872075E-02 
402	 1,99302911932995E-02 
403	 2,09377458438132E-02 
404	 2,31883745830923E-02 
405	 2,41514627921261E-02 
406	 2,90455830909651E-02 
407	 3,26922090210832E-02 
408	 2,31620425383538E-02 
409	 2,03743489212323E-02 
410	 2,66286820830245E-02 
411	 2,16444047710841E-02 
412	 1,64121768556942E-02 
413	 2,14899616942107E-02 
414	 2,39562036207874E-02 
415	 2,34149237422062E-02 
416	 2,50335476457032E-02 
417	 2,66489368187757E-02 
418	 2,74603854700319E-02 
419	 2,80519038338601E-02 
420	 2,75532029372212E-02 
421	 2,48506587497721E-02 
422	 2,34288315584445E-02 
423	 2,30193092650653E-02 
424	 1,94819014628392E-02 
425	 1,70277122454887E-02 
426	 1,79646136183792E-02 
427	 1,79686446059213E-02 
428	 1,86398841734454E-02 
429	 2,43664003899188E-02 
430	 2,53506214940048E-02 
431	 2,13074857637561E-02 
432	 2,43084440641478E-02 
433	 2,80914208254985E-02 
434	 2,69913117823454E-02 
435	 0,026513773088126 
436	 2,68734893660287E-02 
437	 0,026015984034951 
438	 2,53229510631813E-02 
439	 2,51770957022407E-02 
440	 2,42972027887114E-02 
441	 2,35343436690083E-02 
442	 2,40663878607757E-02 
443	 2,40771496829238E-02 
444	 2,36706184738956E-02 
445	 2,51947630500261E-02 
446	 2,46374423203692E-02 
447	 2,02947296286521E-02 
448	 0,019930804464824 
449	 2,25836071685443E-02 
450	 2,45106688622998E-02 
451	 2,62398689809132E-02 
452	 0,027015893870574 
453	 0,023623945292093 
454	 2,04292942532072E-02 
455	 2,15692236629447E-02 
456	 2,58456511606381E-02 
457	 2,98885998292164E-02 
458	 2,54662002027187E-02 
459	 2,21057492272841E-02 
460	 2,36672826208649E-02 
461	 2,61770916928882E-02 
462	 2,84356704270405E-02 
463	 2,94413051368922E-02 
464	 2,84822022108079E-02 
465	 2,63833567516619E-02 
466	 2,64772154962097E-02 
467	 2,68254431434706E-02 
468	 2,63474878340306E-02 
469	 2,75768122894596E-02 
470	 2,95160969295786E-02 
471	 2,96527695333268E-02 
472	 2,94241539878706E-02 
473	 2,89376109883033E-02 
474	 2,63393192936238E-02 
475	 2,46259478554816E-02 
476	 2,65939494682142E-02 
477	 2,73832661592789E-02 
478	 2,68896883945199E-02 
479	 2,80216927426519E-02 
480	 2,79854573851193E-02 
481	 2,61479205191333E-02 
482	 2,76810432315954E-02 
483	 2,94968324344496E-02 
484	 2,62535947730726E-02 
485	 2,44871560409773E-02 
486	 2,52808519716037E-02 
487	 2,54331247402949E-02 
488	 2,61209802300333E-02 
489	 2,80763142513548E-02 
490	 0,029163785382878 
491	 2,90792641246112E-02 
492	 2,79197192853694E-02 
493	 2,70219484312418E-02 
494	 0,026914589900311 
495	 2,69414847829258E-02 
496	 2,75361851537601E-02 
497	 2,91876418691182E-02 
498	 2,87250726285281E-02 
499	 2,70106962746112E-02 
500	 2,91225626655088E-02 
501	 0,030505602816249 
502	 2,89984869306131E-02 
503	 2,95343066097348E-02 
504	 3,08950620151083E-02 
505	 2,99475476061467E-02 
506	 2,83290689270072E-02 
507	 2,70920939515058E-02 
508	 2,84170873305741E-02 
509	 3,00716742423001E-02 
510	 0,030012147291145 
511	 2,97109176595873E-02 
512	 2,95372135467253E-02 
513	 2,97430784893319E-02 
514	 2,97268463507152E-02 
515	 2,94575344786792E-02 
516	 3,05047393307109E-02 
517	 3,19571270385299E-02 
518	 3,24508819635311E-02 
519	 3,12042185865976E-02 
520	 2,91237097147231E-02 
521	 3,01001647028919E-02 
522	 3,16630844167783E-02 
523	 3,19630735094607E-02 
524	 3,19207323562117E-02 
525	 3,17850507115218E-02 
526	 3,18167275999283E-02 
527	 3,18782191071076E-02 
528	 3,18716820252858E-02 
529	 3,14710165765849E-02 
530	 3,11329492814013E-02 
531	 3,13847918151336E-02 
532	 3,18671684740467E-02 
533	 3,24121119350636E-02 
534	 3,28679381470982E-02 
535	 3,30868142811306E-02 
536	 3,30291696374263E-02 
537	 3,31827229383421E-02 
538	 3,34366454079268E-02 
539	 3,34570622536959E-02 
540	 3,34448412519024E-02 
541	 3,34389592336871E-02 
542	 3,33034544884928E-02 
543	 0,033268229464805 
544	 0,033537669184015 
545	 3,35370938336127E-02 
546	 3,33772517766311E-02 
547	 3,37665918061427E-02 
548	 3,38316026223056E-02 
549	 3,33640731144828E-02 
550	 3,40869402776646E-02 
551	 3,51510391061317E-02 
552	 3,49191291433323E-02 
553	 3,55799843281622E-02 
554	 3,68632670295753E-02 
555	 0,035049204647669 
556	 3,35456913941821E-02 
557	 3,50828204158471E-02 
558	 0,035934510646865 
559	 0,035637253347265 
560	 3,47427298149765E-02 
561	 3,39120343422752E-02 
562	 3,35756836080057E-02 
563	 3,40478795391632E-02 
564	 3,46382141708345E-02 
565	 3,44228541741431E-02 
566	 3,45808449060533E-02 
567	 3,51190311929251E-02 
568	 0,034942951408301 
569	 3,48785751471838E-02 
570	 3,54411780536756E-02 
571	 3,55544361886937E-02 
572	 3,56660659130476E-02 
573	 3,72285496069718E-02 
574	 0,038069506491478 
575	 3,76709791158915E-02 
576	 3,77536867361212E-02 
577	 0,038202414151353 
578	 3,87379374069274E-02 
579	 3,91425994915552E-02 
580	 3,93298993893065E-02 
581	 3,92247769274321E-02 
582	 3,92965141127252E-02 
583	 3,97740465249434E-02 
584	 4,00543975196807E-02 
585	 4,03020321440768E-02 
586	 4,09645533986187E-02 
587	 4,15287373436569E-02 
588	 4,17794571091124E-02 
589	 4,15425163781099E-02 
590	 4,13585850000282E-02 
591	 4,17022744610755E-02 
592	 4,16202824930203E-02 
593	 4,14166603075789E-02 
594	 0,042463805786282 
595	 4,34771586281781E-02 
596	 0,04377589355791 
597	 4,32685700542843E-02 
598	 4,24978973059717E-02 
599	 4,22471794570455E-02 
600	 4,23948319034142E-02 
601	 0,04284470012498 
602	 0,043362986486319 
603	 4,35947066280962E-02 
604	 4,32762637261034E-02 
605	 4,26488357887837E-02 
606	 4,20918768161205E-02 
607	 4,23686277039387E-02 
608	 4,26799813531413E-02 
609	 4,27242114115341E-02 
610	 0,042823167500226 
611	 4,25771714160988E-02 
612	 4,14875042130809E-02 
613	 4,10601281700566E-02 
614	 4,13456155924182E-02 
615	 4,11425428831669E-02 
616	 4,08365976660683E-02 
617	 4,07144594303334E-02 
618	 4,10631681811664E-02 
619	 4,16020112122037E-02 
620	 4,17824676548457E-02 
621	 4,13568435389646E-02 
622	 4,04673797388686E-02 
623	 4,01473573495154E-02 
624	 4,04470161133928E-02 
625	 4,12992051361353E-02 
626	 4,16900215549967E-02 
627	 4,15479753533779E-02 
628	 4,13787366735151E-02 
629	 4,13920358006849E-02 
630	 4,17048738742425E-02 
631	 4,21532269527613E-02 
632	 4,24418675184272E-02 
633	 4,21300378155151E-02 
634	 4,20722247257185E-02 
635	 4,24358361158331E-02 
636	 4,26819044389061E-02 
637	 4,31080368510963E-02 
638	 0,043906916919881 
639	 4,40254643094313E-02 
640	 4,37751536549131E-02 
641	 4,44370702218258E-02 
642	 4,51595127493767E-02 
643	 4,55572993918982E-02 
644	 4,55137077258194E-02 
645	 0,045357448972347 
646	 4,55304629061695E-02 
647	 4,53227253480218E-02 
648	 4,48982132761735E-02 
649	 4,55216521231322E-02 
650	 4,57608021451402E-02 
651	 4,47915447060765E-02 
652	 4,44102665292034E-02 
653	 4,46419019955642E-02 
654	 4,50495072004042E-02 
655	 4,48396390249583E-02 
656	 4,39360853614728E-02 
657	 4,36008984288091E-02 
658	 4,34064913784798E-02 
659	 4,28386087751935E-02 
660	 4,23157030240413E-02 
661	 4,17947490571994E-02 
662	 4,08719595233474E-02 
663	 4,00384269997372E-02 
664	 3,95826874137869E-02 
665	 3,95156828301483E-02 
666	 3,96465840501124E-02 
667	 3,97014416144227E-02 
668	 3,95333232801568E-02 
669	 3,91730079117063E-02 
670	 3,89663097135844E-02 
671	 3,88060835984173E-02 
672	 3,86164081965468E-02 
673	 0,038639682458699 
674	 3,87670549242988E-02 
675	 3,86015703829092E-02 
676	 3,87233397656849E-02 
677	 3,91599001660875E-02 
678	 3,88097795782425E-02 
679	 3,82861438498525E-02 
680	 3,84166192028124E-02 
681	 3,92645700408254E-02 
682	 4,03327986672014E-02 
683	 3,99587313820305E-02 
684	 3,98341107811016E-02 
685	 4,08465766180537E-02 
686	 4,13812512276158E-02 
687	 4,17329633982842E-02 
688	 4,27922212004921E-02 
689	 4,40515219008231E-02 
690	 4,53032849008702E-02 
691	 4,61959254454487E-02 
692	 4,76187973195872E-02 
693	 5,02846816814739E-02 
694	 5,23618061504193E-02 
695	 5,40854357544387E-02 
696	 5,69992771021042E-02 
697	 6,00442511538693E-02 
698	 6,29546396346382E-02 
699	 6,68176292383811E-02 
700	 7,09524626483551E-02 
701	 7,44010790265206E-02 
702	 7,81882393444232E-02 
703	 8,24109295832271E-02 
704	 8,66477176462023E-02 
705	 9,04609450215695E-02 
706	 9,36638422813014E-02 
707	 9,71912788645103E-02 
708	 0,100871815420726 
709	 0,104143476301971 
710	 0,107111417144904 
711	 0,109814113772899 
712	 0,112282392071078 
713	 0,114772298997289 
714	 0,117467662789495 
715	 0,119501132416545 
716	 0,121068094716183 
717	 0,123181371649308 
718	 0,12485428743468 
719	 0,125851669972639 
720	 0,127331609744433 
721	 0,128986858789612 
722	 0,130297602180927 
723	 0,131277270517713 
724	 0,132012424300557 
725	 0,132764486733745 
726	 0,133657066858375 
727	 0,134732262351444 
728	 0,135651453192569 
729	 0,136398088339194 
730	 0,137046896760123 
731	 0,137532345230962 
732	 0,137868685098331 
733	 0,138163937531807 
734	 0,138457373901057 
735	 0,138789798217907 
736	 0,139292194518315 
737	 0,139874943098211 
738	 0,140297351557848 
739	 0,140533289674116 
740	 0,140637689796901 
741	 0,14099492537757 
742	 0,141484657648427 
743	 0,141923259944548 
744	 0,142147113432773 
745	 0,142218570652996 
746	 0,142408604070521 
747	 0,142877542109526 
748	 0,143603608025229 
749	 0,14378733742303 
750	 0,143624662584408 
751	 0,143559047157326 
752	 0,143711913804957 
753	 0,144068220067842 
754	 0,144395715003511 
755	 0,144529537209435 
756	 0,144384347188407 
757	 0,144283770364207 
758	 0,144442086823649 
759	 0,145211997847322 
760	 0,145677462840753 
761	 0,145592932231672 
762	 0,145427249384949 
763	 0,145468823688832 
764	 0,145928807460287 
765	 0,146111428766956 
766	 0,146076417590653 
767	 0,146342540067071 
768	 0,146700559505109 
769	 0,147011465370614 
770	 0,146962279656254 
771	 0,146817271053582 
772	 0,146920527174942 
773	 0,147416569891506 
774	 0,148057309352745 
775	 0,148037099380274 
776	 0,147784418300542 
777	 0,147569585077179 
778	 0,147543503242685 
779	 0,147779173618978 
780	 0,148347040465667 
781	 0,148536187289177 
782	 0,148366749624349 
783	 0,148683790999134 
784	 0,149050837356654 
785	 0,149190238079506 
786	 0,149355672234777 
787	 0,149502623062952 
788	 0,149499129688346 
789	 0,149410334045705 
790	 0,149346171462524 
791	 0,149646422443319 
792	 0,14993072311077 
793	 0,149928111363769 
794	 0,150241439859526 
795	 0,150739991228861 
796	 0,15095355004319 
797	 0,15102545277476 
798	 0,151018600937847 
799	 0,150989746408385 
800	 0,151181031371875 
801	 0,151755531385028 
802	 0,15180783365711 
803	 0,15147965378931 
804	 0,151577704077769 
805	 0,151734994062367 
806	 0,151840097657959 
807	 0,151973879864564 
808	 0,152009049777042 
809	 0,151828843249875 
810	 0,151888473386223 
811	 0,15217482164254 
812	 0,152385063312788 
813	 0,15248767530339 
814	 0,152521166007636 
815	 0,152874897936033 
816	 0,153282092438834 
817	 0,153393129483249 
818	 0,153317448680352 
819	 0,153252399783666 
820	 0,153720453696761 
821	 0,154102993098681 
822	 0,154108306980546 
823	 0,153957587795199 
824	 0,153874692515854 
825	 0,154109094630829 
826	 0,154454938119079 
827	 0,154736622166553 
828	 0,154596945854813 
829	 0,154413688754488 
830	 0,154440892918506 
831	 0,154898695531502 
832	 0,155381245115481 
833	 0,15531863539965 
834	 0,155019678738188 
835	 0,154659229491335 
836	 0,15443740160855 
837	 0,15465446348044 
838	 0,155344374029706 
839	 0,155563329341033 
840	 0,155394952051661 
841	 0,155127997315725 
842	 0,155052200375303 
843	 0,155290330406169 
844	 0,155981258614152 
845	 0,156244629099194 
846	 0,155771378643057 
847	 0,156200677680664 
848	 0,156837645952063 
849	 0,156461950615837 
850	 0,155909249286022 
851	 0,15549075220571 
852	 0,155400143207569 
853	 0,155780054379674 
854	 0,156505151194947 
855	 0,156196861184218 
856	 0,155733361532212 
857	 0,1564993631933 
858	 0,156819298772938 
859	 0,156630593210206 
860	 0,157200173332433 
861	 0,157292653484989 
862	 0,156459837796136 
863	 0,156108668467274 
864	 0,156524560091387 
865	 0,157816930221527 
866	 0,157607672447641 
867	 0,156284445853644 
868	 0,156883888275009 
869	 0,157602770320192 
870	 0,157688269061483 
871	 0,158064208994978 
872	 0,158396772830805 
873	 0,158220208408046 
874	 0,158114144052301 
875	 0,158082468889793 
876	 0,157670913799339 
877	 0,15761844564958 
878	 0,158096391232296 
879	 0,158117418347051 
880	 0,158056357697348 
881	 0,158373553197577 
882	 0,158451947302095 
883	 0,15832278101842 
884	 0,158296357434203 
885	 0,158868384823598 
886	 0,159877329571812 
887	 0,15955390971428 
888	 0,158782389978327 
889	 0,158518030006769 
890	 0,158651613981148 
891	 0,159005996779507 
892	 0,159210922675983 
893	 0,159345268278429 
894	 0,159416916897948 
895	 0,159441831332239 
896	 0,159390095398432 
897	 0,15924644121559 
898	 0,159019558988414 
899	 0,158963936225225 
900	 0,159515264081239 
901	 0,159975435981719 
902	 0,160165772772684 
903	 0,160287548354498 
904	 0,160468057489649 
905	 0,160702865654552 
906	 0,160271583120689 
907	 0,159812949125915 
908	 0,160325690381367 
909	 0,160414442379125 
910	 0,160010710918818 
911	 0,159951823788402 
912	 0,160386515628777 
913	 0,161172912791966 
914	 0,160946235260766 
915	 0,160524176733875 
916	 0,160899286602067 
917	 0,160923005888454 
918	 0,160686138022732 
919	 0,161012599002705 
920	 0,161225745843327 
921	 0,161181101945251 
922	 0,161373426200292 
923	 0,161538663380026 
924	 0,161415420154949 
925	 0,160798990731907 
926	 0,160177897162357 
927	 0,16044906226249 
928	 0,160878359830228 
929	 0,161199218434604 
930	 0,16131154225421 
931	 0,161366581540081 
932	 0,161426578849749 
933	 0,161156059650981 
934	 0,161165609759032 
935	 0,162201814802838 
936	 0,162194754753373 
937	 0,161243656153596 
938	 0,16101794649268 
939	 0,160685797417488 
940	 0,16024675510488 
941	 0,161074834793411 
942	 0,162226289338047 
943	 0,162685800360461 
944	 0,161681742042116 
945	 0,159974997758288 
946	 0,159138267197343 
947	 0,159788182486211 
948	 0,161392901651183 
949	 0,161366458803984 
950	 0,160613679763265 
951	 0,159807449813341 
952	 0,159737731853216 
953	 0,159502619252618 
954	 0,157986241085936 
955	 0,156927342157113 
956	 0,156890552355332 
957	 0,158526737278014 
958	 0,158534957011494 
959	 0,156486907625601 
960	 0,156251215125068 
961	 0,157152033207886 
962	 0,158347015644845 
963	 0,158415600446019 
964	 0,157508555944693 
965	 0,15625019421984 
966	 0,156230804059536 
967	 0,157284262341364 
968	 0,157360504608295 
969	 0,15801926992867 
970	 0,159477131237016 
971	 0,159509241575835 
972	 0,158585585367955 
973	 0,157426308685839 
974	 0,157265288466342 
975	 0,157739226707567 
976	 0,157759185993453 
977	 0,157893240995514 
978	 0,158128464695075 
979	 0,158052725461792 
980	 0,157501465477565 
981	 0,156860467084767 
982	 0,158753728307096 
983	 0,16072511398525 
984	 0,160269470244809 
985	 0,160711095597824 
986	 0,161547360314931 
987	 0,160699377927165 
988	 0,159358895268901 
989	 0,158380770616038 
990	 0,159325842427991 
991	 0,160746981660668 
992	 0,161715115110022 
993	 0,161932996887593 
994	 0,161937592477057 
995	 0,162370744884007 
996	 0,163791694906388 
997	 0,16497177255513 
998	 0,163407017705786 
999	 0,162157737652184 
1000	 0,162127986990479 
1001	 0,163036450134416 
1002	 0,163367564349129 
1003	 0,162630148883486 
1004	 0,163028215249608 
1005	 0,163924123990659 
1006	 0,164506598557552 
1007	 0,164868166211932 
1008	 0,16501005165318 
1009	 0,164901517544005 
1010	 0,166568221193643 
1011	 0,169029891852136 
1012	 0,167434888272865 
1013	 0,165599664816173 
1014	 0,165299809890481 
1015	 0,165453432523384 
1016	 0,168135699172002 
1017	 0,173787290269141 
1018	 0,170443015807859 
1019	 0,165285455579376 
1020	 0,171369153916462 
1021	 0,17143532022538 
1022	 0,166027651835669 
1023	 0,168078853169017 
1024	 0,170583166119219 
1025	 0,171035932814488 
1026	 0,168539697979011 
1027	 0,168658156249369 
1028	 0,173654610396349 
1029	 0,172052180687326 
1030	 0,169162879857777 
1031	 0,172183775366643 
1032	 0,172878192899302 
1033	 0,170932773403142 
1034	 0,168854738227397 
1035	 0,168717973577298 
1036	 0,170853245235468 
1037	 0,174102395686832 
1038	 0,174593045291587 
1039	 0,17163994626874 
1040	 0,172278975716579 
1041	 0,174097271153366 
1042	 0,174340261670768 
1043	 0,169975681911758 
1044	 0,164733015289821 
1045	 0,164668019504035 
1046	 0,171869895526151 
1047	 0,179751889507088 
1048	 0,172073238222736 
1049	 0,168827417149173 
1050	 0,172669843748567 
1051	 0,167585157930463 
1052	 0,165345624283018 
1053	 0,171219795149002 
1054	 0,179368170245705 
1055	 0,18305389641045 
1056	 0,177641170297133 
1057	 0,171422481395324 
1058	 0,167064907929642 
1059	 0,166294847985691 
1060	 0,1712639690287 
1061	 0,17695901156346 
1062	 0,170593477763461 
1063	 0,175315479800588 
1064	 0,188998153878156 
1065	 0,178927937682991 
1066	 0,16612988598936 
1067	 0,162316534217611 
1068	 0,166940614095457 
1069	 0,172653451482218 
1070	 0,17363150386882 
1071	 0,174006997023042 
1072	 0,169802279720973 
1073	 0,157902242237575 
1074	 0,169203114581731 
1075	 0,187221116604187 
