Wavelength	AVEN00098.asd
325	 0,194813087898867 
326	 0,299585425559462 
327	 0,286536263853084 
328	 0,128026546202844 
329	 0,186857899356934 
330	 0,25350802526084 
331	 0,170559788539904 
332	 9,88772183991307E-02 
333	 7,55136355260733E-02 
334	 0,103698797329251 
335	 0,184161171274729 
336	 0,258020699670661 
337	 0,20056158601608 
338	 0,114397166995997 
339	 9,71034127936889E-02 
340	 0,140164138033376 
341	 0,19233607336066 
342	 0,156948375361434 
343	 0,148682787281888 
344	 0,17986948497287 
345	 0,169091482035568 
346	 0,146739330249893 
347	 0,149940032789411 
348	 0,150182295658897 
349	 0,142752228385984 
350	 0,123462831025675 
351	 0,128191953831717 
352	 0,163980636361319 
353	 0,192293116334888 
354	 0,205273387554214 
355	 0,197437526154785 
356	 0,187973316803344 
357	 0,177039448100659 
358	 0,147044781333005 
359	 0,127158549881657 
360	 0,129194855934813 
361	 0,142921329357438 
362	 0,149168788903616 
363	 0,125637482918456 
364	 0,120368862904756 
365	 0,141103915508395 
366	 0,176274796198848 
367	 0,190981002247859 
368	 0,165299545737508 
369	 0,147868337130742 
370	 0,145255770143623 
371	 0,159185063667824 
372	 0,163071852327361 
373	 0,155768269345573 
374	 0,172319752344397 
375	 0,175883811490695 
376	 0,144233918047701 
377	 0,145096841756677 
378	 0,163277024121723 
379	 0,135205878150346 
380	 0,147256440112332 
381	 0,20019444023901 
382	 0,182635902951356 
383	 0,143988782928539 
384	 0,138130808251198 
385	 0,131598432329043 
386	 0,127991374635137 
387	 0,150905510655164 
388	 0,175130160277379 
389	 0,187317110958334 
390	 0,180483548515164 
391	 0,166533012721978 
392	 0,158437375036287 
393	 0,164087017649569 
394	 0,176693290412215 
395	 0,169362995893657 
396	 0,165315988139327 
397	 0,173866120844801 
398	 0,171291408272856 
399	 0,16324094193744 
400	 0,162043583067222 
401	 0,160453855005951 
402	 0,158629156768612 
403	 0,16292866141974 
404	 0,168643196251215 
405	 0,172080639919376 
406	 0,171068609186313 
407	 0,167678613830973 
408	 0,166265437702239 
409	 0,165283618965847 
410	 0,163569528231962 
411	 0,155737578514701 
412	 0,154497702129412 
413	 0,170162871447839 
414	 0,173021699146416 
415	 0,164200030166856 
416	 0,159462715877439 
417	 0,161102602076371 
418	 0,168519422346818 
419	 0,170404079536922 
420	 0,167577862301215 
421	 0,162450130318993 
422	 0,163684107095327 
423	 0,168409941417963 
424	 0,159111683504495 
425	 0,153644454087617 
426	 0,161190808632686 
427	 0,160655992686724 
428	 0,156790805632582 
429	 0,163642366881231 
430	 0,164435980069625 
431	 0,15807091343419 
432	 0,161411449531185 
433	 0,16702789348832 
434	 0,167807975684002 
435	 0,165078919530995 
436	 0,162164860000464 
437	 0,167522122991492 
438	 0,169677808275313 
439	 0,165317432791451 
440	 0,16489806502586 
441	 0,166480594500239 
442	 0,166448824929083 
443	 0,166192042170383 
444	 0,16616134939759 
445	 0,167345755732638 
446	 0,166905250211307 
447	 0,16353267090623 
448	 0,161474766931541 
449	 0,162439901934653 
450	 0,16882207019741 
451	 0,171035284575287 
452	 0,16768563446348 
453	 0,167813713884481 
454	 0,169594974260369 
455	 0,170861032938065 
456	 0,170416441052133 
457	 0,169166426997014 
458	 0,170216040419456 
459	 0,171220536826465 
460	 0,171595368689913 
461	 0,174479416126024 
462	 0,176619460789465 
463	 0,173478716806827 
464	 0,169782336273173 
465	 0,167627270542494 
466	 0,16918815829349 
467	 0,172138814651784 
468	 0,174520351319047 
469	 0,173740864175999 
470	 0,171879381309085 
471	 0,173958437643561 
472	 0,174751658014748 
473	 0,172943497001641 
474	 0,170579667234424 
475	 0,169304147636772 
476	 0,170474869068263 
477	 0,17124549702217 
478	 0,171713276373315 
479	 0,174563350056528 
480	 0,174405672782153 
481	 0,169949103290499 
482	 0,17083309853589 
483	 0,173798635236834 
484	 0,172495974782011 
485	 0,171727651677006 
486	 0,172318990793549 
487	 0,172723176712407 
488	 0,172312113345731 
489	 0,170887269782117 
490	 0,171724042895783 
491	 0,173515684167047 
492	 0,172157792545713 
493	 0,170279761508808 
494	 0,169146483409094 
495	 0,170314830971419 
496	 0,171397878336326 
497	 0,16966634427968 
498	 0,169996255002794 
499	 0,17235580350566 
500	 0,173488055830626 
501	 0,173118392427127 
502	 0,171443753609921 
503	 0,171634044643726 
504	 0,173000849926454 
505	 0,173696990494295 
506	 0,173440156917019 
507	 0,172563651005141 
508	 0,173039815262361 
509	 0,174119477134299 
510	 0,175029120920679 
511	 0,175793664010558 
512	 0,176395624608341 
513	 0,177062833015673 
514	 0,176547342781747 
515	 0,174959512423579 
516	 0,176588513528077 
517	 0,179144604525295 
518	 0,178962030540652 
519	 0,17838778627095 
520	 0,178167926456951 
521	 0,17870480830475 
522	 0,17943623580104 
523	 0,179917039997925 
524	 0,180216990394751 
525	 0,180171576339939 
526	 0,179309915354097 
527	 0,178863093796921 
528	 0,179079847801794 
529	 0,178632534502061 
530	 0,178041472280047 
531	 0,17799674551799 
532	 0,17814159461891 
533	 0,17842804654189 
534	 0,178978771355828 
535	 0,179519326535915 
536	 0,179857243733368 
537	 0,179931326164471 
538	 0,179905114225376 
539	 0,180099061133951 
540	 0,180191816324254 
541	 0,180060301752928 
542	 0,179557858158248 
543	 0,179279797040789 
544	 0,179773306652211 
545	 0,1802235668661 
546	 0,180470339457959 
547	 0,180607519949453 
548	 0,180675871214927 
549	 0,180754761623602 
550	 0,18117099817436 
551	 0,181681628525999 
552	 0,181838686063221 
553	 0,182474770951444 
554	 0,183275160992422 
555	 0,182048637448485 
556	 0,180759899103236 
557	 0,181031331089165 
558	 0,181234394563295 
559	 0,180998400385515 
560	 0,180112885550455 
561	 0,179310497151091 
562	 0,178964037921172 
563	 0,179153574453199 
564	 0,179367333809661 
565	 0,178933702533782 
566	 0,179064887150791 
567	 0,179787139979286 
568	 0,180115587657301 
569	 0,180096671640495 
570	 0,179889023002774 
571	 0,180542950072876 
572	 0,182145170156112 
573	 0,184674070607515 
574	 0,186314553195156 
575	 0,186551428392303 
576	 0,186703758499544 
577	 0,187564284953046 
578	 0,189848969350582 
579	 0,191556219095527 
580	 0,192419273326336 
581	 0,193191562016656 
582	 0,194387649528703 
583	 0,196150408878635 
584	 0,196879867888339 
585	 0,197253171713547 
586	 0,198862194856735 
587	 0,20015700633494 
588	 0,200666804551022 
589	 0,200478119366868 
590	 0,200585337890757 
591	 0,201841356181492 
592	 0,202662638155196 
593	 0,203016599469689 
594	 0,203768370575409 
595	 0,204304768802154 
596	 0,204484288604936 
597	 0,205411821994223 
598	 0,206142394955598 
599	 0,205099399397542 
600	 0,20465286439976 
601	 0,205041624559636 
602	 0,204342408037313 
603	 0,203598695183519 
604	 0,203610357983007 
605	 0,203438180787767 
606	 0,202981169416861 
607	 0,202401602276377 
608	 0,201711481397954 
609	 0,201007148941507 
610	 0,200713535061008 
611	 0,200396474027045 
612	 0,199488659800979 
613	 0,198661363305392 
614	 0,198173772771068 
615	 0,198376357721509 
616	 0,198136018616671 
617	 0,19687986040858 
618	 0,196473422907772 
619	 0,196740652345178 
620	 0,19681759799686 
621	 0,196683407128993 
622	 0,196298094271533 
623	 0,195621060001043 
624	 0,195418329476627 
625	 0,196402963838416 
626	 0,196741718770384 
627	 0,196393926083316 
628	 0,19642069436297 
629	 0,19681952557287 
630	 0,197565750953624 
631	 0,198333453462265 
632	 0,198759552455396 
633	 0,198306978280413 
634	 0,198616926482263 
635	 0,199861684275299 
636	 0,200493749257773 
637	 0,201062257427118 
638	 0,202051624421389 
639	 0,203085055431782 
640	 0,204018721824026 
641	 0,204635721504817 
642	 0,205449628597647 
643	 0,206523353093319 
644	 0,206909182406412 
645	 0,206965289457251 
646	 0,207268757774754 
647	 0,207369815692959 
648	 0,207205957437172 
649	 0,207050094435469 
650	 0,20632665648573 
651	 0,204757788763115 
652	 0,203448825918902 
653	 0,202552798849102 
654	 0,202073795471425 
655	 0,200997346113242 
656	 0,199212542336445 
657	 0,198195175183023 
658	 0,197199400085075 
659	 0,195383134212176 
660	 0,193473044923929 
661	 0,191653578450956 
662	 0,189949321423502 
663	 0,188288633546251 
664	 0,186674252558907 
665	 0,185279323322642 
666	 0,184284996324078 
667	 0,183951982726898 
668	 0,183408458828042 
669	 0,182447588098885 
670	 0,181411261837298 
671	 0,180528008230826 
672	 0,179970306846211 
673	 0,179418324701473 
674	 0,179160237922699 
675	 0,180175166296777 
676	 0,180602922930417 
677	 0,179915700039923 
678	 0,17948150028993 
679	 0,179592242035746 
680	 0,180432522455941 
681	 0,181035613891426 
682	 0,181287331061424 
683	 0,181522352652281 
684	 0,182514886884778 
685	 0,184611932453585 
686	 0,18642951724229 
687	 0,188244023897065 
688	 0,190894648889272 
689	 0,193730241632615 
690	 0,196775544987996 
691	 0,200668739641114 
692	 0,205810112718383 
693	 0,212437095503303 
694	 0,21885151975121 
695	 0,225159267241996 
696	 0,2325147294339 
697	 0,240531841946075 
698	 0,249123333707903 
699	 0,258604637051784 
700	 0,268259425509378 
701	 0,277221897108654 
702	 0,286380711708057 
703	 0,295720665223038 
704	 0,304570013075879 
705	 0,313062762083662 
706	 0,321306420432705 
707	 0,329367104039157 
708	 0,336915551976919 
709	 0,343299688416799 
710	 0,34951737955437 
711	 0,355820989877389 
712	 0,361697584891559 
713	 0,367046510651195 
714	 0,371814077481313 
715	 0,376357792975999 
716	 0,380666011224517 
717	 0,384498687026145 
718	 0,387951814362536 
719	 0,391133940711566 
720	 0,394370339591997 
721	 0,397478403994004 
722	 0,400206159045371 
723	 0,402218722217059 
724	 0,403814921563525 
725	 0,406291239805093 
726	 0,408404831056794 
727	 0,409496118550319 
728	 0,410932348865658 
729	 0,412661178759764 
730	 0,414276526453514 
731	 0,415341316243541 
732	 0,415940404656906 
733	 0,417157202875904 
734	 0,418302930873465 
735	 0,418784843622392 
736	 0,419415627872124 
737	 0,420255505813219 
738	 0,421065973773122 
739	 0,421939635128003 
740	 0,422783943752313 
741	 0,422982960033152 
742	 0,423066407399954 
743	 0,423692035010975 
744	 0,42437302363498 
745	 0,424982007174373 
746	 0,425490112406601 
747	 0,425940768409004 
748	 0,426343914417464 
749	 0,426595602650572 
750	 0,426789875796344 
751	 0,427079746451704 
752	 0,427435311567273 
753	 0,427823794294437 
754	 0,428153326894661 
755	 0,428457944970819 
756	 0,42875240503652 
757	 0,428899782602861 
758	 0,429041521509438 
759	 0,429518601346484 
760	 0,429860726881661 
761	 0,429957956252088 
762	 0,430055738815413 
763	 0,430321200617146 
764	 0,430881628308536 
765	 0,431448696129353 
766	 0,431867834565292 
767	 0,431908596109236 
768	 0,431990260758615 
769	 0,432235247700918 
770	 0,432220448359867 
771	 0,432191952789745 
772	 0,432473087741383 
773	 0,433050815999406 
774	 0,433638070272294 
775	 0,433385394544701 
776	 0,433187401029242 
777	 0,433471876667502 
778	 0,433622841372593 
779	 0,433811603931808 
780	 0,434393709214257 
781	 0,434459535840592 
782	 0,43407874754674 
783	 0,434419039186983 
784	 0,434802171101303 
785	 0,434831339189714 
786	 0,435203138003786 
787	 0,43564264273043 
788	 0,435492725200308 
789	 0,435456354745589 
790	 0,435690688986812 
791	 0,435873632491315 
792	 0,436115175977294 
793	 0,436458534623387 
794	 0,43632212629495 
795	 0,436022022309319 
796	 0,436443438850247 
797	 0,436803182535685 
798	 0,436876020895084 
799	 0,43691638736395 
800	 0,437036067024997 
801	 0,437298687806552 
802	 0,437143301620568 
803	 0,436871030020589 
804	 0,437543304999716 
805	 0,438098031265904 
806	 0,438170502457185 
807	 0,438113916998512 
808	 0,438129791010823 
809	 0,438400444469732 
810	 0,438735850563468 
811	 0,438987412458622 
812	 0,438859847827881 
813	 0,438766614917409 
814	 0,438958747795694 
815	 0,439702545444726 
816	 0,440441074610666 
817	 0,440514847868883 
818	 0,440572696756461 
819	 0,440806114975463 
820	 0,44137079580936 
821	 0,441624041336568 
822	 0,441372289167781 
823	 0,441563004587567 
824	 0,441931194898613 
825	 0,44201920355184 
826	 0,442562002969053 
827	 0,443322072625525 
828	 0,443033099244326 
829	 0,44264250642097 
830	 0,442703154350012 
831	 0,443322953661065 
832	 0,443900814819257 
833	 0,44362046262829 
834	 0,443789599721582 
835	 0,444318863546737 
836	 0,443728298609517 
837	 0,443495320342146 
838	 0,444252970777747 
839	 0,444363629431502 
840	 0,444162067381817 
841	 0,444374814327091 
842	 0,444517348985461 
843	 0,444676973772764 
844	 0,445650399920072 
845	 0,4458805117681 
846	 0,444815556189225 
847	 0,445117099278858 
848	 0,445959703083732 
849	 0,445763221586908 
850	 0,445288229536327 
851	 0,444910138087835 
852	 0,445209736158314 
853	 0,445723673296277 
854	 0,446074106948697 
855	 0,445537793250162 
856	 0,445184140700153 
857	 0,44653406554332 
858	 0,447034941492966 
859	 0,44648070171344 
860	 0,446369244059269 
861	 0,446328285681707 
862	 0,4462397092824 
863	 0,446406178894236 
864	 0,446691769636909 
865	 0,446885263005198 
866	 0,447343911821864 
867	 0,447976641154797 
868	 0,448277974611309 
869	 0,44855591052242 
870	 0,448893838804985 
871	 0,448825316584129 
872	 0,44886471364954 
873	 0,449634213746723 
874	 0,44999377970702 
875	 0,44992033804898 
876	 0,450165489700852 
877	 0,450113595227573 
878	 0,44973341258344 
879	 0,450317734465616 
880	 0,450996082871997 
881	 0,450759930450774 
882	 0,4503822972716 
883	 0,450266780985066 
884	 0,451055938359105 
885	 0,451782072654158 
886	 0,45207954430597 
887	 0,452297680175091 
888	 0,452123171594756 
889	 0,45139822894923 
890	 0,452052781091816 
891	 0,453460443201138 
892	 0,453544767587931 
893	 0,452979618058838 
894	 0,452289142471025 
895	 0,452855518821617 
896	 0,453490828691376 
897	 0,45329800723584 
898	 0,453464624158041 
899	 0,453917745585498 
900	 0,45422048051704 
901	 0,454307790919168 
902	 0,454303284286643 
903	 0,454805883493051 
904	 0,455187048269158 
905	 0,455101360910398 
906	 0,455216172659255 
907	 0,45519222607143 
908	 0,454455728845206 
909	 0,454278964573166 
910	 0,454691666661015 
911	 0,454627583336381 
912	 0,455058214297996 
913	 0,456143273213922 
914	 0,456095656783433 
915	 0,455603272304543 
916	 0,455581725168414 
917	 0,455269032756561 
918	 0,454984763158116 
919	 0,455947627507444 
920	 0,456388072966559 
921	 0,455905536881678 
922	 0,455860809514223 
923	 0,455922891047766 
924	 0,455767587102021 
925	 0,455444401994398 
926	 0,455171370064873 
927	 0,455345235093515 
928	 0,454992452536214 
929	 0,454271148798264 
930	 0,454779434794024 
931	 0,455543925340558 
932	 0,455843569889859 
933	 0,455135334807188 
934	 0,454156342109169 
935	 0,453907116099145 
936	 0,453485811946091 
937	 0,453050780936914 
938	 0,453726357868106 
939	 0,453483556538251 
940	 0,452094011394558 
941	 0,452835861203614 
942	 0,453405962837334 
943	 0,451809529712013 
944	 0,450834345901167 
945	 0,450668550456208 
946	 0,450787123977829 
947	 0,450793175801896 
948	 0,450250420623841 
949	 0,44814042161968 
950	 0,446556281265941 
951	 0,446638644272383 
952	 0,447168306773006 
953	 0,447109868465778 
954	 0,445476341108742 
955	 0,44412129359151 
956	 0,443406803028064 
957	 0,443204773639459 
958	 0,4425005260231 
959	 0,44119032892582 
960	 0,440539309704234 
961	 0,440958741765497 
962	 0,442347183497725 
963	 0,441611480967521 
964	 0,439917714155692 
965	 0,439724705030005 
966	 0,440833177197916 
967	 0,442192985651641 
968	 0,440675866018449 
969	 0,439200426030993 
970	 0,439205028751105 
971	 0,441137360116632 
972	 0,442144085561821 
973	 0,439986115064134 
974	 0,43981718660765 
975	 0,441010649053685 
976	 0,440868610706165 
977	 0,440723645258337 
978	 0,44098972670231 
979	 0,441916211383555 
980	 0,443110345737712 
981	 0,443887919249263 
982	 0,441762331819314 
983	 0,439849953558721 
984	 0,441341031889217 
985	 0,443521531469575 
986	 0,444944249412576 
987	 0,443877620744507 
988	 0,442917754659884 
989	 0,442992733264167 
990	 0,444408080869262 
991	 0,445094144105453 
992	 0,444067100389596 
993	 0,442268565932975 
994	 0,442819564207889 
995	 0,448171086646649 
996	 0,449758271476663 
997	 0,448015645476559 
998	 0,446916757380879 
999	 0,449073106639263 
1000	 0,453052686067063 
1001	 0,450388363871208 
1002	 0,448541428192476 
1003	 0,450760423843546 
1004	 0,452024075989463 
1005	 0,452253617106627 
1006	 0,45180999026456 
1007	 0,451641001253968 
1008	 0,451379017614657 
1009	 0,449992132484528 
1010	 0,45045049353647 
1011	 0,45326521162177 
1012	 0,457612698776902 
1013	 0,460603749869069 
1014	 0,46084226742941 
1015	 0,459644880492081 
1016	 0,458532633113337 
1017	 0,458735593403785 
1018	 0,459433493879101 
1019	 0,460235507073942 
1020	 0,460698267697332 
1021	 0,459823748784638 
1022	 0,457798318753244 
1023	 0,455239382947644 
1024	 0,457193599604406 
1025	 0,463403754231506 
1026	 0,464254409186407 
1027	 0,464176083438068 
1028	 0,46568248904769 
1029	 0,463480238239465 
1030	 0,461962820044196 
1031	 0,46634728437714 
1032	 0,468624326310721 
1033	 0,46793001939193 
1034	 0,465902483785591 
1035	 0,465245103583826 
1036	 0,466511954741212 
1037	 0,468396811633283 
1038	 0,468057115975082 
1039	 0,465641948211656 
1040	 0,469614913755682 
1041	 0,473358853211382 
1042	 0,471447351705815 
1043	 0,468515634676926 
1044	 0,468078626894979 
1045	 0,473669174580261 
1046	 0,474675232133656 
1047	 0,470793165584181 
1048	 0,466828319683606 
1049	 0,466827470182906 
1050	 0,470149647322125 
1051	 0,468241251287527 
1052	 0,466767479115226 
1053	 0,468458275634613 
1054	 0,471492037039218 
1055	 0,472813707429844 
1056	 0,470470702206773 
1057	 0,470400583841212 
1058	 0,470379412041924 
1059	 0,466549368717403 
1060	 0,469440954409477 
1061	 0,475235306566917 
1062	 0,469466643355908 
1063	 0,475373491844124 
1064	 0,490165006890455 
1065	 0,4792296964032 
1066	 0,464449208990538 
1067	 0,460317586654338 
1068	 0,47771503631472 
1069	 0,490308433869083 
1070	 0,480228671056613 
1071	 0,477063848323605 
1072	 0,475346895022437 
1073	 0,46600258077027 
1074	 0,467255913302901 
1075	 0,475508075904447 
