Wavelength	AVEN00019.asd
325	 0,307243973744413 
326	 0,231072527836284 
327	 6,72522390836368E-02 
328	-0,152484259659647 
329	-1,44825594528366E-02 
330	 0,151684820559347 
331	 0,122738468316029 
332	 0,103901967886032 
333	 9,38732264602911E-02 
334	 1,37312437324712E-02 
335	-5,40305782909691E-02 
336	-7,34896548614542E-02 
337	-0,09187218559489 
338	-7,10189965680321E-02 
339	 2,00908935002572E-02 
340	 3,04823167722101E-02 
341	-0,011601789241281 
342	 3,22812003922711E-03 
343	 4,88374465097303E-02 
344	 9,99833765968057E-02 
345	 0,104524425953708 
346	 6,60369529616048E-02 
347	-3,35096172601537E-03 
348	-1,31629939336347E-02 
349	 2,11437979718803E-02 
350	 2,11112604740781E-02 
351	 2,04653883697511E-02 
352	 2,96772620656248E-02 
353	 3,76463829665645E-02 
354	 4,14886087613545E-02 
355	 3,87728869963578E-02 
356	 3,99641323393957E-02 
357	 4,38205331420829E-02 
358	 4,28747814413683E-02 
359	 0,024293853363898 
360	-1,27411398634824E-02 
361	-1,10633074508912E-02 
362	 6,42988078428987E-03 
363	-1,52140003737998E-03 
364	 2,29427741517512E-02 
365	 6,91420220500111E-02 
366	 7,28874678889682E-02 
367	 0,06861384430557 
368	 7,39930348084572E-02 
369	 5,39898529007124E-02 
370	 2,36397571407624E-02 
371	 1,78277781797366E-02 
372	 1,66520566223258E-02 
373	 1,54439217771807E-02 
374	 1,95859565906512E-02 
375	 0,020736778438927 
376	 1,45686150752743E-02 
377	 2,48775903852812E-02 
378	 4,07152344113071E-02 
379	 2,47077595122748E-02 
380	 2,97576267361132E-02 
381	 6,00775970673617E-02 
382	 6,41589022674277E-02 
383	 4,63722185408203E-02 
384	 1,55957181683494E-02 
385	 1,09281489065945E-02 
386	 2,46968005035301E-02 
387	 1,42690975790137E-02 
388	 1,62663692537612E-02 
389	 3,83155971712516E-02 
390	 0,045418719849057 
391	 4,18621942351027E-02 
392	 3,55925801137629E-02 
393	 3,42526720850137E-02 
394	 3,61696000185908E-02 
395	 2,71064042383228E-02 
396	 2,82688645999343E-02 
397	 4,57659775466317E-02 
398	 4,22571774984192E-02 
399	 2,82838108713595E-02 
400	 2,53344414658661E-02 
401	 3,28924287332499E-02 
402	 4,39626839215842E-02 
403	 3,28560446260523E-02 
404	 2,39289241628001E-02 
405	 3,32367033805824E-02 
406	 0,044410430990962 
407	 5,02223420001285E-02 
408	 4,23687627357152E-02 
409	 3,52766601954534E-02 
410	 3,28775162843665E-02 
411	 2,84644333596285E-02 
412	 2,88822061844941E-02 
413	 3,95321410996136E-02 
414	 3,82719718223614E-02 
415	 2,89185945093778E-02 
416	 0,030763377028479 
417	 3,56093724646802E-02 
418	 3,96857513023532E-02 
419	 4,11583866490111E-02 
420	 0,039423904488093 
421	 3,40606807707963E-02 
422	 3,20996425346458E-02 
423	 3,34524671252514E-02 
424	 3,11963400838596E-02 
425	 3,07483769577309E-02 
426	 3,47716547761651E-02 
427	 3,69273974925811E-02 
428	 3,67180670978289E-02 
429	 0,034723249703696 
430	 3,32691155085168E-02 
431	 0,033639966965041 
432	 3,76409347178437E-02 
433	 4,12417865507862E-02 
434	 4,09949739615496E-02 
435	 3,92848377589581E-02 
436	 3,74320069781256E-02 
437	 3,75875505807758E-02 
438	 3,69752445946779E-02 
439	 3,51285569062284E-02 
440	 0,036259751571868 
441	 3,83533565722616E-02 
442	 3,84631252274659E-02 
443	 3,77874567512787E-02 
444	 3,71025220883534E-02 
445	 3,82916628375365E-02 
446	 3,84181854119569E-02 
447	 3,60054421789139E-02 
448	 3,49949671911514E-02 
449	 3,53747956869197E-02 
450	 3,59468900352908E-02 
451	 3,77473131534127E-02 
452	 4,05145199668359E-02 
453	 4,24495860359205E-02 
454	 4,22373173024798E-02 
455	 3,91924941867417E-02 
456	 4,08231195406484E-02 
457	 4,54097157592021E-02 
458	 4,47721803108763E-02 
459	 4,20901821709118E-02 
460	 3,93067458775676E-02 
461	 4,00527677289307E-02 
462	 4,22059733357775E-02 
463	 4,24553482670791E-02 
464	 4,24509544449956E-02 
465	 4,26366220581897E-02 
466	 4,31445907379428E-02 
467	 4,43025026219277E-02 
468	 4,59571629813028E-02 
469	 4,46033235459434E-02 
470	 4,21106914790632E-02 
471	 4,31220287715567E-02 
472	 4,40997995196565E-02 
473	 0,043648802552156 
474	 4,06432052563817E-02 
475	 3,85265987718181E-02 
476	 4,05157749197515E-02 
477	 4,18178791682008E-02 
478	 4,20474531077007E-02 
479	 4,34524889761671E-02 
480	 4,29405041490096E-02 
481	 0,040064045086809 
482	 4,19780020750993E-02 
483	 4,56541267203924E-02 
484	 0,045606853365821 
485	 4,43046053490655E-02 
486	 4,27009838934811E-02 
487	 4,17237884949595E-02 
488	 4,16625209070657E-02 
489	 4,26939765238626E-02 
490	 4,48047769115404E-02 
491	 4,64613934023286E-02 
492	 4,41047954946385E-02 
493	 4,33354148554312E-02 
494	 4,53204943133503E-02 
495	 4,44284319029156E-02 
496	 4,33390407739242E-02 
497	 4,54426215343188E-02 
498	 4,62638471200716E-02 
499	 4,55209463310244E-02 
500	 4,56141079102497E-02 
501	 4,56637372506946E-02 
502	 4,52265834326124E-02 
503	 4,45285059987709E-02 
504	 4,44519234183052E-02 
505	 4,66663490920454E-02 
506	 4,66344537763391E-02 
507	 4,41457178507402E-02 
508	 4,44936330459197E-02 
509	 4,64603217265031E-02 
510	 4,85603170415651E-02 
511	 4,81064188535956E-02 
512	 4,63137643535301E-02 
513	 4,78916514301625E-02 
514	 4,87596417998365E-02 
515	 4,77700712637408E-02 
516	 4,96749284362689E-02 
517	 5,20672175054161E-02 
518	 5,10916853752797E-02 
519	 4,97319793435412E-02 
520	 4,89886221164759E-02 
521	 4,94528930517399E-02 
522	 0,049887320338817 
523	 4,94515973699196E-02 
524	 4,93265395736343E-02 
525	 4,96995634925058E-02 
526	 0,050609764458782 
527	 5,15016026846103E-02 
528	 5,19312074123297E-02 
529	 0,050928815846593 
530	 4,97283974706329E-02 
531	 4,97722526017419E-02 
532	 5,04299271573114E-02 
533	 5,14761824296247E-02 
534	 5,28014137462338E-02 
535	 5,37593932494357E-02 
536	 5,39417598891874E-02 
537	 5,35087916867848E-02 
538	 5,30877377203408E-02 
539	 0,053782893375214 
540	 0,054070343103419 
541	 5,36278717250703E-02 
542	 5,32811536994465E-02 
543	 5,33233556830084E-02 
544	 5,39524033651551E-02 
545	 5,42364057839384E-02 
546	 5,41787003095767E-02 
547	 5,43300734091678E-02 
548	 5,47079954104739E-02 
549	 5,53748882390338E-02 
550	 5,66750790800434E-02 
551	 5,77388749902251E-02 
552	 5,71552105895785E-02 
553	 0,057498120648724 
554	 0,058614569876648 
555	 5,65420467195381E-02 
556	 5,50417627494156E-02 
557	 5,70778334065263E-02 
558	 5,78968554556595E-02 
559	 5,74043946006941E-02 
560	 5,76144552126898E-02 
561	 5,77713269341908E-02 
562	 5,76312031735384E-02 
563	 5,73258722735498E-02 
564	 5,69104238839279E-02 
565	 5,64252864903882E-02 
566	 5,67973671023555E-02 
567	 5,78770625812741E-02 
568	 5,82938264008486E-02 
569	 5,84890786851789E-02 
570	 5,88124428530195E-02 
571	 5,95117302700106E-02 
572	 6,04508095658478E-02 
573	 6,13247875705552E-02 
574	 6,16556747387217E-02 
575	 6,14009287943089E-02 
576	 6,13945333104699E-02 
577	 6,16538607472725E-02 
578	 6,21146246930836E-02 
579	 6,25663727783713E-02 
580	 0,062925068563937 
581	 0,063106401869967 
582	 6,34540356788458E-02 
583	 6,41448671895766E-02 
584	 6,48801646714952E-02 
585	 6,55360747300198E-02 
586	 6,60303012413878E-02 
587	 0,065958904109589 
588	 6,54503963628637E-02 
589	 6,55431608977049E-02 
590	 6,59932245687973E-02 
591	 6,64951258529493E-02 
592	 0,066563798921112 
593	 6,64430073429407E-02 
594	 6,71552290833022E-02 
595	 6,76023989811402E-02 
596	 6,73833650105509E-02 
597	 6,75409326442029E-02 
598	 6,77832831954757E-02 
599	 6,75004716368427E-02 
600	 6,74648940282368E-02 
601	 6,77569818543618E-02 
602	 6,78276570642918E-02 
603	 6,77382645114007E-02 
604	 6,75648911534438E-02 
605	 6,74992212311193E-02 
606	 6,75726564760172E-02 
607	 0,067763267047175 
608	 6,80183891739339E-02 
609	 6,81882454100089E-02 
610	 6,76918131891183E-02 
611	 6,69422535826399E-02 
612	 6,65022965323925E-02 
613	 6,64897369143545E-02 
614	 6,67088720083933E-02 
615	 0,066393548429464 
616	 6,59543565368318E-02 
617	 6,57103817841838E-02 
618	 6,59262186528492E-02 
619	 6,64917413646151E-02 
620	 0,067209120243293 
621	 6,72710080344728E-02 
622	 6,65680484554737E-02 
623	 6,59882693629597E-02 
624	 6,60378513000583E-02 
625	 6,70986838998538E-02 
626	 6,72354147637547E-02 
627	 6,65823146975917E-02 
628	 0,066872416015841 
629	 6,70951994912418E-02 
630	 6,68886262689686E-02 
631	 6,75452322016029E-02 
632	 6,82456857914777E-02 
633	 6,74198015241406E-02 
634	 6,70811631478388E-02 
635	 6,76232974868105E-02 
636	 6,79319653796684E-02 
637	 6,84275463518431E-02 
638	 6,94164452309829E-02 
639	 6,98367227752396E-02 
640	 6,98175048758582E-02 
641	 7,01584126471723E-02 
642	 7,07529178427035E-02 
643	 7,13881680649781E-02 
644	 7,09371161788408E-02 
645	 7,02887649662259E-02 
646	 7,07095941296713E-02 
647	 7,13571648617829E-02 
648	 7,18791798921574E-02 
649	 7,19518326637413E-02 
650	 7,15738541872659E-02 
651	 7,08376725627533E-02 
652	 0,07049137348016 
653	 7,04983410884828E-02 
654	 7,05694878000404E-02 
655	 7,02753029738796E-02 
656	 6,96134897570845E-02 
657	 0,069466398974435 
658	 6,94193898699521E-02 
659	 6,89908390634502E-02 
660	 6,83728671718854E-02 
661	 6,76781474837195E-02 
662	 0,067070397992554 
663	 6,66138141503902E-02 
664	 6,63411211663522E-02 
665	 6,61983326781279E-02 
666	 6,59924802807085E-02 
667	 6,54338831866704E-02 
668	 6,51484636839665E-02 
669	 6,51755043057287E-02 
670	 6,49490070417151E-02 
671	 6,45119680532888E-02 
672	 6,39451398540109E-02 
673	 6,35713736853108E-02 
674	 6,35304549970667E-02 
675	 6,39947223251966E-02 
676	 6,45854727336773E-02 
677	 0,065018258365183 
678	 6,47351316292846E-02 
679	 6,44168513957799E-02 
680	 6,49110114060436E-02 
681	 6,56871652798524E-02 
682	 6,63768063783681E-02 
683	 6,62220846727265E-02 
684	 6,62093833206965E-02 
685	 6,69022075756201E-02 
686	 6,76246547431487E-02 
687	 6,84591944151833E-02 
688	 6,97471320795602E-02 
689	 7,06949874689543E-02 
690	 7,13417503576935E-02 
691	 7,29060561381026E-02 
692	 7,49336685812143E-02 
693	 7,69507665923465E-02 
694	 7,87073186192996E-02 
695	 8,04396516023549E-02 
696	 8,29470498616759E-02 
697	 8,53220095756595E-02 
698	 8,74029044032609E-02 
699	 9,06627041888513E-02 
700	 9,40512157474995E-02 
701	 9,60903329802653E-02 
702	 0,098985217638042 
703	 0,102678306861185 
704	 0,105130846573315 
705	 0,10729970610592 
706	 0,109783888479502 
707	 0,112134782574499 
708	 0,114392883993749 
709	 0,116774881576314 
710	 0,118681608040289 
711	 0,120046037670767 
712	 0,121451443983166 
713	 0,122925005501574 
714	 0,124460079631041 
715	 0,125988651480201 
716	 0,127415513148494 
717	 0,128583588662185 
718	 0,129511235903313 
719	 0,130254919073121 
720	 0,131065647902513 
721	 0,131923096698831 
722	 0,132767891179298 
723	 0,133585023339708 
724	 0,134304402608309 
725	 0,134733416777178 
726	 0,135114493170381 
727	 0,135593067031647 
728	 0,136000837267361 
729	 0,136382689682752 
730	 0,136854595035759 
731	 0,137306746766605 
732	 0,137689316500528 
733	 0,137934479465353 
734	 0,13824124445832 
735	 0,138760156530418 
736	 0,13910044145199 
737	 0,139281281172556 
738	 0,139538451982163 
739	 0,139776482637836 
740	 0,139962366515192 
741	 0,140046893891907 
742	 0,140252442324068 
743	 0,140822247295728 
744	 0,141019662296744 
745	 0,140935248366641 
746	 0,141385826828443 
747	 0,141936730069925 
748	 0,142312631494522 
749	 0,142313258433167 
750	 0,142244893198743 
751	 0,142617746451487 
752	 0,142808696554607 
753	 0,142784709110083 
754	 0,143117655945376 
755	 0,143406618940803 
756	 0,143371824664026 
757	 0,143300195925817 
758	 0,143327534551389 
759	 0,143620779191837 
760	 0,144004613001243 
761	 0,144358212603885 
762	 0,144444324577556 
763	 0,144569433152159 
764	 0,14500779325861 
765	 0,145276862651795 
766	 0,145313273348985 
767	 0,145151072101388 
768	 0,145240429730948 
769	 0,145711880769008 
770	 0,14610558261684 
771	 0,146296355796483 
772	 0,146201639170193 
773	 0,146363030000673 
774	 0,146706148985872 
775	 0,146593810518622 
776	 0,146396421923099 
777	 0,146338151276892 
778	 0,146496420177907 
779	 0,146835111618885 
780	 0,147287420961747 
781	 0,147499148386885 
782	 0,147515120059215 
783	 0,147932695833073 
784	 0,148169831966795 
785	 0,147931090784091 
786	 0,148160960287351 
787	 0,148643146286423 
788	 0,14876581051467 
789	 0,148688963648677 
790	 0,14858058178036 
791	 0,148984869546979 
792	 0,149291948206078 
793	 0,149064843858837 
794	 0,149213521444227 
795	 0,149636222561308 
796	 0,14980037468608 
797	 0,149849819874023 
798	 0,149860960398447 
799	 0,149998553592065 
800	 0,150259274374547 
801	 0,15059636372611 
802	 0,150476323585392 
803	 0,15021397456294 
804	 0,150937594655737 
805	 0,151305345440347 
806	 0,150977566839183 
807	 0,151070895705164 
808	 0,15118156758918 
809	 0,15083231582179 
810	 0,15083693307014 
811	 0,151195457567784 
812	 0,151460714009062 
813	 0,151507554159899 
814	 0,151384861328796 
815	 0,151843596048391 
816	 0,152403861133669 
817	 0,152432576667263 
818	 0,152248960539684 
819	 0,15209342423129 
820	 0,152460217563358 
821	 0,152777211148144 
822	 0,152796701966837 
823	 0,152890727676735 
824	 0,152941008239542 
825	 0,152760991915538 
826	 0,152940588909647 
827	 0,153418758303788 
828	 0,153540740072513 
829	 0,153597022658388 
830	 0,15373171405301 
831	 0,153903422318136 
832	 0,15400864132442 
833	 0,153915453009709 
834	 0,15396494003857 
835	 0,154012819942749 
836	 0,153099254015333 
837	 0,153188253422177 
838	 0,154952569301264 
839	 0,155062709481295 
840	 0,1542750960298 
841	 0,154197605170733 
842	 0,154138048972791 
843	 0,15412311562731 
844	 0,154743376605002 
845	 0,155048042134778 
846	 0,154606965602228 
847	 0,154422307431199 
848	 0,154511545837334 
849	 0,154725911232516 
850	 0,154602559041638 
851	 0,154277585180701 
852	 0,154616691507354 
853	 0,155067272501907 
854	 0,15527280780785 
855	 0,1549896068469 
856	 0,154808964100311 
857	 0,155550443056475 
858	 0,155623933677851 
859	 0,15501532752992 
860	 0,154969363292366 
861	 0,15514520107303 
862	 0,155360200683935 
863	 0,15550759933209 
864	 0,155680821531391 
865	 0,156015668757905 
866	 0,156026180980556 
867	 0,155870016308358 
868	 0,156444548136822 
869	 0,156662646353302 
870	 0,156229607660222 
871	 0,156772785352731 
872	 0,157537502466437 
873	 0,157462455495621 
874	 0,157308625423269 
875	 0,157171795201963 
876	 0,156795029515583 
877	 0,156685189055118 
878	 0,156929059015517 
879	 0,156612507598355 
880	 0,156410819178437 
881	 0,157055859473392 
882	 0,157083731970201 
883	 0,156696354607019 
884	 0,157231462553429 
885	 0,15776956098731 
886	 0,15796057235489 
887	 0,157831567154111 
888	 0,157661348512249 
889	 0,157712303875224 
890	 0,157859410643116 
891	 0,157963699388952 
892	 0,157755998852626 
893	 0,157668044657207 
894	 0,157832636150903 
895	 0,158125001911456 
896	 0,158419024728201 
897	 0,158574541832647 
898	 0,158246746825875 
899	 0,157853296926696 
900	 0,158229463257754 
901	 0,158321768444553 
902	 0,158067266881444 
903	 0,158432597159285 
904	 0,158772869097868 
905	 0,158727334384102 
906	 0,158835639108407 
907	 0,159068939530806 
908	 0,159293498439692 
909	 0,159386707077736 
910	 0,159362494718678 
911	 0,159398267256099 
912	 0,15936342921172 
913	 0,159199400463175 
914	 0,158812644976729 
915	 0,158919974733047 
916	 0,160174102603065 
917	 0,159777944830779 
918	 0,158450066944287 
919	 0,159529870448299 
920	 0,160551538896953 
921	 0,160657613320929 
922	 0,160022778028323 
923	 0,159649322490298 
924	 0,160230148686571 
925	 0,159936607015372 
926	 0,159130340945988 
927	 0,158976874980442 
928	 0,158937241156043 
929	 0,159080231931612 
930	 0,160205647172971 
931	 0,160987453667452 
932	 0,160697538071982 
933	 0,160235671242411 
934	 0,160062960902594 
935	 0,160585807944556 
936	 0,160574429146885 
937	 0,160096246028418 
938	 0,160187792989443 
939	 0,160207202159596 
940	 0,16000902224783 
941	 0,160063797476769 
942	 0,160282341578697 
943	 0,160511682459999 
944	 0,160207069229659 
945	 0,159833123846732 
946	 0,160423513254059 
947	 0,160752804313375 
948	 0,160528308383279 
949	 0,16003810422406 
950	 0,159781866085118 
951	 0,159981112814696 
952	 0,160029806013219 
953	 0,159657670348268 
954	 0,158688813912335 
955	 0,15845880278836 
956	 0,158897634512784 
957	 0,159018287483584 
958	 0,159302284373944 
959	 0,159521835343146 
960	 0,157777256674543 
961	 0,157518480203891 
962	 0,160688430527765 
963	 0,160286836676446 
964	 0,158035231293563 
965	 0,158077747422758 
966	 0,158800234461789 
967	 0,159843521609056 
968	 0,161513090037032 
969	 0,161159485634004 
970	 0,158505379001755 
971	 0,158757102830737 
972	 0,159640961616404 
973	 0,158901691423577 
974	 0,158826061063038 
975	 0,159507796227382 
976	 0,160504919689174 
977	 0,160634699675372 
978	 0,159705092995806 
979	 0,15813769113741 
980	 0,158181293743581 
981	 0,160345307033635 
982	 0,160333479787774 
983	 0,15938184203479 
984	 0,159234220481694 
985	 0,161075712633636 
986	 0,163666616403888 
987	 0,164313597107926 
988	 0,16252889608094 
989	 0,159624961807 
990	 0,160670913939332 
991	 0,162774372977886 
992	 0,163978782757995 
993	 0,162571874806229 
994	 0,161480783698487 
995	 0,163615296397494 
996	 0,164803783821406 
997	 0,16462388443907 
998	 0,16380290267383 
999	 0,163411763610599 
1000	 0,163667076509555 
1001	 0,163951285552038 
1002	 0,16356507536882 
1003	 0,162601420690987 
1004	 0,163728546148003 
1005	 0,165497424601997 
1006	 0,166257370462709 
1007	 0,166454549219285 
1008	 0,166021854239495 
1009	 0,164736521339251 
1010	 0,165393852411237 
1011	 0,16782797591757 
1012	 0,169129291614377 
1013	 0,169161651378892 
1014	 0,167875235840713 
1015	 0,165421425441305 
1016	 0,165668691942176 
1017	 0,170591110951149 
1018	 0,167910342282197 
1019	 0,163018239709857 
1020	 0,1665478756525 
1021	 0,168721921711342 
1022	 0,167460186864775 
1023	 0,162599953300899 
1024	 0,163875836642901 
1025	 0,171526478726728 
1026	 0,169368015959341 
1027	 0,168715858813334 
1028	 0,175553687207079 
1029	 0,175804164290048 
1030	 0,171325064659589 
1031	 0,166558937571961 
1032	 0,167913069226012 
1033	 0,172231924801579 
1034	 0,170453016721974 
1035	 0,168347207675422 
1036	 0,167319977388206 
1037	 0,166040872182894 
1038	 0,167128390954168 
1039	 0,170728591538479 
1040	 0,171100156022199 
1041	 0,172045809474232 
1042	 0,175788010004213 
1043	 0,172318540947958 
1044	 0,167383487308213 
1045	 0,170515955041461 
1046	 0,16946237335746 
1047	 0,165989177220399 
1048	 0,170484051256475 
1049	 0,172304493879304 
1050	 0,1695099600543 
1051	 0,168207755255661 
1052	 0,166404551252263 
1053	 0,16430031708034 
1054	 0,16775943796332 
1055	 0,170529816194283 
1056	 0,168138798265734 
1057	 0,17257805893849 
1058	 0,178608508332848 
1059	 0,176966101926929 
1060	 0,177327273210417 
1061	 0,178530043445677 
1062	 0,172939503222858 
1063	 0,175165529117927 
1064	 0,182462570529655 
1065	 0,167496125658464 
1066	 0,161021820275247 
1067	 0,17416645328368 
1068	 0,181026013054487 
1069	 0,18521020022615 
1070	 0,188530664783889 
1071	 0,180623598446669 
1072	 0,1702384163561 
1073	 0,168906617788129 
1074	 0,17734726282676 
1075	 0,179812481921517 
