Wavelength	AVEN00157.asd
325	 0,432250986454561 
326	 0,258798027768212 
327	 0,178289526138145 
328	 0,230568001643804 
329	 0,253080224515413 
330	 0,230099952597697 
331	 0,175250558186569 
332	 0,19742363877822 
333	 0,264303482587065 
334	 0,272332088126377 
335	 0,28322947546736 
336	 0,29038342673673 
337	 0,196955217802134 
338	 0,134213388376434 
339	 0,219655290687704 
340	 0,211142223928409 
341	 0,145192481887393 
342	 0,188680023578849 
343	 0,206883996090822 
344	 0,180650571802446 
345	 0,181680560891883 
346	 0,197712735840633 
347	 0,210593440317371 
348	 0,204036879997182 
349	 0,180899888832522 
350	 0,145697898463055 
351	 0,153096270271105 
352	 0,209037108329297 
353	 0,227860398736147 
354	 0,221288275959991 
355	 0,208074815339198 
356	 0,220213072311965 
357	 0,246085397999674 
358	 0,228742842463767 
359	 0,212497795814158 
360	 0,21564908210516 
361	 0,218475564504988 
362	 0,210652440172805 
363	 0,180470766470043 
364	 0,169370748089272 
365	 0,184651684372918 
366	 0,214585335099593 
367	 0,227739899009522 
368	 0,207033193412819 
369	 0,205435210790844 
370	 0,213098791419901 
371	 0,198809676741397 
372	 0,20141740056281 
373	 0,225302306908167 
374	 0,245267694078497 
375	 0,24654469407545 
376	 0,223167978377003 
377	 0,218196401576649 
378	 0,227733510075981 
379	 0,225825519841054 
380	 0,236061608935328 
381	 0,254681296647073 
382	 0,238678440396263 
383	 0,211096833674263 
384	 0,197840743818432 
385	 0,191390802298207 
386	 0,191349012390685 
387	 0,197150234800856 
388	 0,216144761619714 
389	 0,244257130776357 
390	 0,252650541812234 
391	 0,243138809281207 
392	 0,220281224460769 
393	 0,21615330452982 
394	 0,228510139035321 
395	 0,222970406012306 
396	 0,224664207981463 
397	 0,241825377527897 
398	 0,238192683950288 
399	 0,225978751756962 
400	 0,229374488111208 
401	 0,230603841820227 
402	 0,227404274634145 
403	 0,226713963021702 
404	 0,229113655803478 
405	 0,233801500360778 
406	 0,229077571224976 
407	 0,220811593046722 
408	 0,222812832423058 
409	 0,227208127387922 
410	 0,230217777325093 
411	 0,224974643977722 
412	 0,222453000440876 
413	 0,232162453176504 
414	 0,23600055176624 
415	 0,232660225813926 
416	 0,226371844823653 
417	 0,226173738753146 
418	 0,233791593797477 
419	 0,23540761288469 
420	 0,23105394891258 
421	 0,222382208841068 
422	 0,222594994490009 
423	 0,230242593422798 
424	 0,229607276098477 
425	 0,228118665456275 
426	 0,229822436462287 
427	 0,228398212880563 
428	 0,22603702760358 
429	 0,228257997913515 
430	 0,22749919428121 
431	 0,223672109044866 
432	 0,226223433540112 
433	 0,2300272607041 
434	 0,230299520566306 
435	 0,228873048954637 
436	 0,227031817184526 
437	 0,227292751984468 
438	 0,226774656545758 
439	 0,225032692356976 
440	 0,226489844279766 
441	 0,229297301271996 
442	 0,230693086218291 
443	 0,2291959291198 
444	 0,226742297188755 
445	 0,231637159315225 
446	 0,23365748005225 
447	 0,227599160396735 
448	 0,226933869835226 
449	 0,230485619737143 
450	 0,232668700647624 
451	 0,234326500642314 
452	 0,23488568639473 
453	 0,231543196559566 
454	 0,22935639024037 
455	 0,232756666479833 
456	 0,234780175094935 
457	 0,234568804067543 
458	 0,233469808469921 
459	 0,233269670837055 
460	 0,234779516863263 
461	 0,237411377815437 
462	 0,238511888911979 
463	 0,234773358196321 
464	 0,23299130925954 
465	 0,234361507197302 
466	 0,236354370381998 
467	 0,237893154561293 
468	 0,238294256381798 
469	 0,238573331311948 
470	 0,238713799955269 
471	 0,238283307438588 
472	 0,23839568512507 
473	 0,239109283007346 
474	 0,238999358953512 
475	 0,237899504844054 
476	 0,235890442614324 
477	 0,236355123022368 
478	 0,238819940725957 
479	 0,240276851324551 
480	 0,239868406182046 
481	 0,237787183809472 
482	 0,2388737068212 
483	 0,240832496645846 
484	 0,239501301882508 
485	 0,238756071667359 
486	 0,239220816816972 
487	 0,239154595821093 
488	 0,239194740921533 
489	 0,239709741228009 
490	 0,239217486646531 
491	 0,237849925824963 
492	 0,236168498290074 
493	 0,235657291534353 
494	 0,236624768552461 
495	 0,237158290928676 
496	 0,237579302379967 
497	 0,238423346298892 
498	 0,239912854284118 
499	 0,241432861478902 
500	 0,241172743979009 
501	 0,240161000885063 
502	 0,239260374211383 
503	 0,240030853456861 
504	 0,241773439817406 
505	 0,243104739281669 
506	 0,242894715132322 
507	 0,241483841937302 
508	 0,241937408482704 
509	 0,243380689321639 
510	 0,244865280572353 
511	 0,246341861687277 
512	 0,247468960817044 
513	 0,247559896486596 
514	 0,247352789584063 
515	 0,247439359997807 
516	 0,249224887220277 
517	 0,250949386863853 
518	 0,250066614370361 
519	 0,249207166033032 
520	 0,249108024424359 
521	 0,249645046425674 
522	 0,250374519606886 
523	 0,250909334412326 
524	 0,250717955664913 
525	 0,250509515966263 
526	 0,252253881514243 
527	 0,253087801830672 
528	 0,252194186200217 
529	 0,251118808343308 
530	 0,250178390986181 
531	 0,249571397031222 
532	 0,249837896815206 
533	 0,250641419020648 
534	 0,250492502285052 
535	 0,250841059968048 
536	 0,252287514648098 
537	 0,252288822852896 
538	 0,251623874627653 
539	 0,252401900324053 
540	 0,252763490164065 
541	 0,252310892679336 
542	 0,251908055643132 
543	 0,251723818726232 
544	 0,251879405397298 
545	 0,252444623623158 
546	 0,253158597767426 
547	 0,253349488613465 
548	 0,253372388208343 
549	 0,253471516330184 
550	 0,254100853115172 
551	 0,254766345849001 
552	 0,254607695760493 
553	 0,254970881131361 
554	 0,255655466342037 
555	 0,254124780740437 
556	 0,25311330516518 
557	 0,254704124121538 
558	 0,254592311283132 
559	 0,253042683067798 
560	 0,252638004194711 
561	 0,252602653264413 
562	 0,252627919818316 
563	 0,252418075899765 
564	 0,251930122203593 
565	 0,251152820099251 
566	 0,250911693288077 
567	 0,251429213455303 
568	 0,252707741127743 
569	 0,253547406078872 
570	 0,253252570086279 
571	 0,2537851183145 
572	 0,255310639201253 
573	 0,257602494607347 
574	 0,259270270033727 
575	 0,259990836321603 
576	 0,261267239873909 
577	 0,26290636257964 
578	 0,264548870828437 
579	 0,265464857360504 
580	 0,266014968466271 
581	 0,267952033137654 
582	 0,269688055464068 
583	 0,270362704756545 
584	 0,270844728740527 
585	 0,271737340138886 
586	 0,273911961998996 
587	 0,275706047972278 
588	 0,276666429392314 
589	 0,277343014205088 
590	 0,278345692746405 
591	 0,280112782669887 
592	 0,280489013757362 
593	 0,279989170185624 
594	 0,281233233773418 
595	 0,2823591725835 
596	 0,282543595161218 
597	 0,282405906868041 
598	 0,282123282369878 
599	 0,28186556339727 
600	 0,28125751024173 
601	 0,280586300453163 
602	 0,281324648612851 
603	 0,281994134807559 
604	 0,281442320479502 
605	 0,280781919516446 
606	 0,280156266693914 
607	 0,279369025952696 
608	 0,278823037016374 
609	 0,278573304990551 
610	 0,277999449511394 
611	 0,277129850715611 
612	 0,276073274597567 
613	 0,275667402845501 
614	 0,275755646703011 
615	 0,27506323594144 
616	 0,274278670826986 
617	 0,273879569633575 
618	 0,273958104500722 
619	 0,274151974019619 
620	 0,273732924473343 
621	 0,27332374701614 
622	 0,273068256753236 
623	 0,27247786879181 
624	 0,272391621800962 
625	 0,273613561139806 
626	 0,274036294705278 
627	 0,273711441202781 
628	 0,274260946602108 
629	 0,274652470424751 
630	 0,274482628155575 
631	 0,274744875418675 
632	 0,275331001433091 
633	 0,275864920996816 
634	 0,276639045903404 
635	 0,277581780079813 
636	 0,278113212401135 
637	 0,278679657593735 
638	 0,279667383324267 
639	 0,280816257482557 
640	 0,282006950682844 
641	 0,283162841684161 
642	 0,283884001839725 
643	 0,284137553664411 
644	 0,28490239622869 
645	 0,285657963299007 
646	 0,28561695283945 
647	 0,285709555157015 
648	 0,285960841868407 
649	 0,285696808537617 
650	 0,284953310270869 
651	 0,283804220911916 
652	 0,282661864678466 
653	 0,281598258170923 
654	 0,280638537282544 
655	 0,27928536206354 
656	 0,277541507949767 
657	 0,276435356563934 
658	 0,275137530420533 
659	 0,27277301011043 
660	 0,270677047403832 
661	 0,268950857610082 
662	 0,266974633400687 
663	 0,264979800817587 
664	 0,263138546536162 
665	 0,261795653832112 
666	 0,26064727094599 
667	 0,259123777687847 
668	 0,258380249268111 
669	 0,258356172318903 
670	 0,25752009809997 
671	 0,256563583003395 
672	 0,256050376241095 
673	 0,255396319212506 
674	 0,254797886007234 
675	 0,254929714370938 
676	 0,25527446104625 
677	 0,255526676721308 
678	 0,255187211423711 
679	 0,254883036988525 
680	 0,255395380224499 
681	 0,256258514527399 
682	 0,257158084053595 
683	 0,257296119632995 
684	 0,258351756561355 
685	 0,261108033952403 
686	 0,263101861729106 
687	 0,264870991695684 
688	 0,267966740052192 
689	 0,271289422827688 
690	 0,274764489184436 
691	 0,279290829755596 
692	 0,284680628939619 
693	 0,290718860832654 
694	 0,297002804071582 
695	 0,303683352441816 
696	 0,311476989126879 
697	 0,319276308237538 
698	 0,326796663645558 
699	 0,335362519748407 
700	 0,344365987566678 
701	 0,352935611213947 
702	 0,361179193913133 
703	 0,368980507120539 
704	 0,376028606479412 
705	 0,382940741406683 
706	 0,390044577233663 
707	 0,396304339249467 
708	 0,40198231855047 
709	 0,407900943928567 
710	 0,412878656811323 
711	 0,416825471272326 
712	 0,421037589937039 
713	 0,424963318745975 
714	 0,428086337918613 
715	 0,431333942414777 
716	 0,434688214498498 
717	 0,437668388731611 
718	 0,440171531596878 
719	 0,442212945919366 
720	 0,444228522318464 
721	 0,446270393678608 
722	 0,448352969005098 
723	 0,44969236561762 
724	 0,450420798778724 
725	 0,451600202593249 
726	 0,452934636951833 
727	 0,454233059181846 
728	 0,455516835836412 
729	 0,456634457147357 
730	 0,457329517293932 
731	 0,457918642927834 
732	 0,458542948014809 
733	 0,459278171105995 
734	 0,460074184268248 
735	 0,460850329945723 
736	 0,46118158712247 
737	 0,461328861885448 
738	 0,462160153276898 
739	 0,462846667518338 
740	 0,463106369641142 
741	 0,463266194517471 
742	 0,463458178852729 
743	 0,463803715884804 
744	 0,464375532974661 
745	 0,464985162620351 
746	 0,464999698395728 
747	 0,465096012403306 
748	 0,465599351664602 
749	 0,466045832401363 
750	 0,466293213064385 
751	 0,466211209246928 
752	 0,466207762882469 
753	 0,466351043081437 
754	 0,466373093949483 
755	 0,466436539331238 
756	 0,466641724353155 
757	 0,466715800209345 
758	 0,466793313265494 
759	 0,467266267251985 
760	 0,467486026714432 
761	 0,467352306845359 
762	 0,467444586160338 
763	 0,467788124001033 
764	 0,468346638086231 
765	 0,468635802457292 
766	 0,468677993948987 
767	 0,468804475803113 
768	 0,468922727865477 
769	 0,46904654575326 
770	 0,469404034804159 
771	 0,469690498143381 
772	 0,469548551232651 
773	 0,469962206219787 
774	 0,47071180041852 
775	 0,470434792638565 
776	 0,470055471739672 
777	 0,470062049841313 
778	 0,470222352352672 
779	 0,470492723875178 
780	 0,470841720404468 
781	 0,471064391029618 
782	 0,471108083913822 
783	 0,47101798163543 
784	 0,470988916912451 
785	 0,471136184054969 
786	 0,471191949126408 
787	 0,471317529749037 
788	 0,471902177940577 
789	 0,471974193445546 
790	 0,471551839977113 
791	 0,472052004935638 
792	 0,472571222240261 
793	 0,47239358403401 
794	 0,472238589411927 
795	 0,472227662024819 
796	 0,472349793929476 
797	 0,472542502619335 
798	 0,472759565442816 
799	 0,472899501617384 
800	 0,473147504976335 
801	 0,473649435871836 
802	 0,473914751984447 
803	 0,473904749450188 
804	 0,473762198758117 
805	 0,47365257005182 
806	 0,473648637894777 
807	 0,473619419030745 
808	 0,473709770153721 
809	 0,474067862568547 
810	 0,474435774340948 
811	 0,474669615048764 
812	 0,474501971827532 
813	 0,474590383112971 
814	 0,475162246114716 
815	 0,475730762858672 
816	 0,475949046021681 
817	 0,475504272644048 
818	 0,475622619460615 
819	 0,476288123038793 
820	 0,476567887390306 
821	 0,476670987505045 
822	 0,476659432049486 
823	 0,476401173361365 
824	 0,476184077155956 
825	 0,47637596968614 
826	 0,476872385796887 
827	 0,477465142279464 
828	 0,477670803193045 
829	 0,477550083984901 
830	 0,477288918840859 
831	 0,477946134740324 
832	 0,478634126763339 
833	 0,478015720066424 
834	 0,477959466002228 
835	 0,478547753503124 
836	 0,478445492027212 
837	 0,478321556847288 
838	 0,478486473659125 
839	 0,478463983214628 
840	 0,478404981023979 
841	 0,478585083523014 
842	 0,478714092671773 
843	 0,478825912445779 
844	 0,479309124035727 
845	 0,47965570063462 
846	 0,479632379542477 
847	 0,479775981513661 
848	 0,479941676877325 
849	 0,479843703610469 
850	 0,479823972737929 
851	 0,47993406337912 
852	 0,480061476218316 
853	 0,480080488930437 
854	 0,479938373982482 
855	 0,479756657362777 
856	 0,479781495554436 
857	 0,480307765246896 
858	 0,480574298057644 
859	 0,480532333050384 
860	 0,480752675528888 
861	 0,480700984296354 
862	 0,480260645389136 
863	 0,480514565415478 
864	 0,481086502002941 
865	 0,48133988658457 
866	 0,481779073724018 
867	 0,482313207170621 
868	 0,482375020652455 
869	 0,482279498319635 
870	 0,482255865333272 
871	 0,482721588816734 
872	 0,483098950282599 
873	 0,482692140609807 
874	 0,482822865796993 
875	 0,483449826110199 
876	 0,483577388231249 
877	 0,48369346550995 
878	 0,483923006771016 
879	 0,483863270231496 
880	 0,483706311057935 
881	 0,48367877256865 
882	 0,483420368365098 
883	 0,483202015085145 
884	 0,483925221404815 
885	 0,48455796801098 
886	 0,48473630809986 
887	 0,484780313987721 
888	 0,48490390438135 
889	 0,48526986917047 
890	 0,485531282612729 
891	 0,485595883692091 
892	 0,485408657261764 
893	 0,485211812329721 
894	 0,485146061794583 
895	 0,48536043071769 
896	 0,485600344721556 
897	 0,485652463658769 
898	 0,485590224919149 
899	 0,485432213220189 
900	 0,485164509568283 
901	 0,485427954089651 
902	 0,486190741364689 
903	 0,486672791289147 
904	 0,486692215229123 
905	 0,486245085876658 
906	 0,486162761895153 
907	 0,486416816440285 
908	 0,486791432876437 
909	 0,48732569673995 
910	 0,487852604736023 
911	 0,487971651934599 
912	 0,487670093960668 
913	 0,487100236210922 
914	 0,487097844940428 
915	 0,48743167156768 
916	 0,487749374331961 
917	 0,488105642585839 
918	 0,488361409419969 
919	 0,48815359613507 
920	 0,488155907572247 
921	 0,488545402234239 
922	 0,488917226897582 
923	 0,489176176892626 
924	 0,489166453094793 
925	 0,487918546539889 
926	 0,486621712430214 
927	 0,487642784613343 
928	 0,488143791473206 
929	 0,487624103326767 
930	 0,48750122354822 
931	 0,487243926785497 
932	 0,486728801144969 
933	 0,487220665422976 
934	 0,488003535264245 
935	 0,488017072094071 
936	 0,488292552538439 
937	 0,488668091325123 
938	 0,488020331083899 
939	 0,487606715647358 
940	 0,487886320006444 
941	 0,488618787744071 
942	 0,488549298273682 
943	 0,486797388907981 
944	 0,485925656891336 
945	 0,485739157008805 
946	 0,484961346707682 
947	 0,485502872927199 
948	 0,487001840582175 
949	 0,486276241823817 
950	 0,485203666871002 
951	 0,484785580709497 
952	 0,483967117684964 
953	 0,482788711216812 
954	 0,481445897855973 
955	 0,480524208759142 
956	 0,480014924571052 
957	 0,479409070146454 
958	 0,479653709199892 
959	 0,480646848137022 
960	 0,480551310862666 
961	 0,47988398720763 
962	 0,479211580148953 
963	 0,479341774012555 
964	 0,47962539265455 
965	 0,478889302238034 
966	 0,479601217024031 
967	 0,481136587176183 
968	 0,479536454535392 
969	 0,47867839913589 
970	 0,479966675664482 
971	 0,481415540458838 
972	 0,481935134424207 
973	 0,480791030415597 
974	 0,479706383318278 
975	 0,479364340616887 
976	 0,480387759108043 
977	 0,479960227467992 
978	 0,478408433512819 
979	 0,479788676254306 
980	 0,481023229154146 
981	 0,480807206255623 
982	 0,481330296145518 
983	 0,481966190120019 
984	 0,481939095942065 
985	 0,48157927647349 
986	 0,481397591182484 
987	 0,482264668243006 
988	 0,48257960374353 
989	 0,482303445457962 
990	 0,483120478240564 
991	 0,48400219897932 
992	 0,484270868641373 
993	 0,483401700317483 
994	 0,482554027893345 
995	 0,482976827584926 
996	 0,48452646648099 
997	 0,486274381653926 
998	 0,486585426546824 
999	 0,486342413380308 
1000	 0,486242182381991 
1001	 0,487822153201862 
1002	 0,488867041864434 
1003	 0,488720140665932 
1004	 0,490858174281235 
1005	 0,492827130210906 
1006	 0,492101122497883 
1007	 0,490476751661622 
1008	 0,489369109152379 
1009	 0,4906335012106 
1010	 0,492732721047128 
1011	 0,494134238839523 
1012	 0,491033206746708 
1013	 0,49153223899804 
1014	 0,497065306452733 
1015	 0,494853789473822 
1016	 0,491500964903561 
1017	 0,492704101699804 
1018	 0,491599449655955 
1019	 0,490420270175821 
1020	 0,493712467718134 
1021	 0,49673793738062 
1022	 0,497445783466871 
1023	 0,492678016766332 
1024	 0,493249698879487 
1025	 0,500245311358023 
1026	 0,500036581618468 
1027	 0,498294474774282 
1028	 0,499186397502887 
1029	 0,502663665012422 
1030	 0,505462142987688 
1031	 0,503900623624675 
1032	 0,501438247850641 
1033	 0,499569243923093 
1034	 0,499612907963311 
1035	 0,500845485317974 
1036	 0,501847133191088 
1037	 0,498586370359009 
1038	 0,496613833783066 
1039	 0,498275254979518 
1040	 0,500936309564622 
1041	 0,501892676673129 
1042	 0,499621364318574 
1043	 0,499763968352877 
1044	 0,500927025114736 
1045	 0,500170301314923 
1046	 0,5012415499093 
1047	 0,502905012370538 
1048	 0,500434210065799 
1049	 0,499594320003019 
1050	 0,500840275675775 
1051	 0,498548727113818 
1052	 0,496778030283056 
1053	 0,497512220479733 
1054	 0,499273837559228 
1055	 0,499855726906956 
1056	 0,498432552967906 
1057	 0,505343340034876 
1058	 0,50980313858724 
1059	 0,496523861888965 
1060	 0,495663561377645 
1061	 0,505835123096084 
1062	 0,508922417839001 
1063	 0,507788608902038 
1064	 0,504410203073403 
1065	 0,504735887073942 
1066	 0,501628128403191 
1067	 0,495618333866222 
1068	 0,50628511455038 
1069	 0,512411271169485 
1070	 0,500142889391603 
1071	 0,496258292116922 
1072	 0,496838197061695 
1073	 0,494472798763871 
1074	 0,503181312082201 
1075	 0,509106601608438 
