Wavelength	AVEN00105.asd
325	 0,140079664387276 
326	 6,91882829997784E-02 
327	-1,18983708507189E-02 
328	-6,44242240234549E-02 
329	 0,073110476337528 
330	 0,15388418547043 
331	 4,77862771208587E-02 
332	 4,36629240613304E-02 
333	 0,103425004606597 
334	 3,19693183476189E-02 
335	 7,23619957995903E-03 
336	 4,90569795163814E-02 
337	-2,0559335385099E-03 
338	-5,76225117351444E-02 
339	-3,40799176813583E-02 
340	-2,06237116228955E-02 
341	-0,01233969661844 
342	 3,51074687201023E-02 
343	 8,56650821212035E-02 
344	 0,117762958795272 
345	 9,78849300612546E-02 
346	 5,53338508582756E-02 
347	 2,73018356268249E-02 
348	-2,54137954346578E-03 
349	-2,91379667156878E-02 
350	-3,78258726531344E-02 
351	-2,18558236162982E-02 
352	 0,013675808836652 
353	 4,34174848973834E-02 
354	 5,47470557511104E-02 
355	 3,59711614756325E-02 
356	 4,11285762198247E-02 
357	 6,00333163342882E-02 
358	 2,07954992379531E-02 
359	 6,15992330675065E-03 
360	 4,35164840701115E-02 
361	 2,93460679349919E-02 
362	-6,27488047428925E-03 
363	-9,84106522456808E-03 
364	 7,27575679660105E-03 
365	 3,21120050177978E-02 
366	 3,95860931133665E-02 
367	 4,30730033606506E-02 
368	 4,76563105485401E-02 
369	 3,14384889017339E-02 
370	 7,65309799613791E-03 
371	 5,29207561879927E-03 
372	 1,13551074710983E-03 
373	-2,93161948787276E-03 
374	 3,00147822918818E-02 
375	 0,050359977316621 
376	 2,58066553527775E-02 
377	 0,026446067732245 
378	 3,86087423330203E-02 
379	 2,31598034946383E-03 
380	-2,60179762789519E-03 
381	 3,22515486915954E-02 
382	 3,25804731802225E-02 
383	 1,67518511049007E-02 
384	 6,49082567076268E-03 
385	-9,03942874058501E-04 
386	-3,00167591472664E-03 
387	 4,76626864461398E-03 
388	 1,79907169693544E-02 
389	 3,23198383572344E-02 
390	 4,11110792847949E-02 
391	 3,95080072300608E-02 
392	 2,30000268143711E-02 
393	 1,91291159695167E-02 
394	 0,027618666370837 
395	 2,54093652400888E-02 
396	 0,025535712720525 
397	 3,22799555955045E-02 
398	 2,68038256786886E-02 
399	 1,85007383450963E-02 
400	 2,43425346205682E-02 
401	 2,77786420441586E-02 
402	 2,57477793570489E-02 
403	 2,20748435518986E-02 
404	 2,13565191439085E-02 
405	 2,63599255782889E-02 
406	 3,28745091206391E-02 
407	 3,69924517758978E-02 
408	 3,29555576383486E-02 
409	 3,06773182076639E-02 
410	 3,10255837583385E-02 
411	 2,12637678752543E-02 
412	 1,53288582468022E-02 
413	 2,55142764311528E-02 
414	 3,08928257560037E-02 
415	 2,92590526640564E-02 
416	 2,44265385498322E-02 
417	 2,49012368374403E-02 
418	 3,26044129123996E-02 
419	 3,61014159977339E-02 
420	 3,45882251959758E-02 
421	 0,028542355389585 
422	 2,66199996517387E-02 
423	 0,028664137551044 
424	 2,58683563498184E-02 
425	 2,55442747765952E-02 
426	 3,08769020613811E-02 
427	 2,90804859194811E-02 
428	 2,47881350553874E-02 
429	 2,94958884665661E-02 
430	 3,11672160893853E-02 
431	 2,82640970159477E-02 
432	 2,97066815240086E-02 
433	 3,24089735400229E-02 
434	 3,32956094625482E-02 
435	 3,21388350515068E-02 
436	 3,01320884966171E-02 
437	 3,02520943403325E-02 
438	 3,13912127866087E-02 
439	 3,25744013804768E-02 
440	 3,06619830159196E-02 
441	 2,84972153781885E-02 
442	 2,99332679019791E-02 
443	 3,06097428798213E-02 
444	 3,02426345381526E-02 
445	 3,19283176635342E-02 
446	 3,19459722328943E-02 
447	 2,85639933439429E-02 
448	 2,75817539698856E-02 
449	 2,91971374347425E-02 
450	 3,24134686858764E-02 
451	 3,39059349087524E-02 
452	 0,033027382573868 
453	 3,25297343579507E-02 
454	 3,31327925896488E-02 
455	 3,52396088636681E-02 
456	 3,64020560500691E-02 
457	 3,66477520702661E-02 
458	 3,78075661157231E-02 
459	 3,70956557191101E-02 
460	 3,41107627750587E-02 
461	 3,39420776846728E-02 
462	 3,52946906679511E-02 
463	 3,57994931832907E-02 
464	 3,39861306066733E-02 
465	 3,13017574670336E-02 
466	 3,44499931322724E-02 
467	 3,67706787723994E-02 
468	 3,44366835994194E-02 
469	 3,52011897738737E-02 
470	 0,037598777656492 
471	 3,64444364150661E-02 
472	 3,62704074948459E-02 
473	 3,76531973477555E-02 
474	 3,63809843225926E-02 
475	 3,42832199162419E-02 
476	 3,33798253466754E-02 
477	 0,033394909149482 
478	 3,40403287285006E-02 
479	 3,47767282508603E-02 
480	 3,46285073837262E-02 
481	 3,34818913054125E-02 
482	 3,41210344962303E-02 
483	 3,53328387251548E-02 
484	 3,48669572888351E-02 
485	 3,51241226121877E-02 
486	 3,63882893093935E-02 
487	 3,74659264338622E-02 
488	 3,75655568965706E-02 
489	 3,63108739651621E-02 
490	 0,036241491164664 
491	 3,70430952960231E-02 
492	 3,69254793647255E-02 
493	 3,72555671327146E-02 
494	 3,80350009092446E-02 
495	 3,68162738919554E-02 
496	 3,54519905139752E-02 
497	 3,61736043445445E-02 
498	 3,70907334175272E-02 
499	 3,77151244902081E-02 
500	 3,81304951696653E-02 
501	 3,77917430323693E-02 
502	 0,036718731677106 
503	 3,74918472546048E-02 
504	 3,93397665940855E-02 
505	 4,05066325104937E-02 
506	 4,04785328800503E-02 
507	 3,94196838373675E-02 
508	 3,87987097861843E-02 
509	 3,92663458860284E-02 
510	 4,11800175238116E-02 
511	 4,19648427537008E-02 
512	 4,15723117208652E-02 
513	 0,041381520986722 
514	 4,05495921118779E-02 
515	 3,93038618176329E-02 
516	 4,10508075040352E-02 
517	 4,37174192439056E-02 
518	 4,41159094922673E-02 
519	 4,30402527718412E-02 
520	 0,04148195918624 
521	 4,22605111700925E-02 
522	 4,32364897163224E-02 
523	 0,042884633625 
524	 4,26674751582063E-02 
525	 0,042761186415537 
526	 4,30345033489809E-02 
527	 4,34753920359094E-02 
528	 4,39061412418475E-02 
529	 0,043622371425933 
530	 4,28646348195853E-02 
531	 4,19811053667479E-02 
532	 4,30843598856845E-02 
533	 4,54636035282463E-02 
534	 4,54206660275809E-02 
535	 4,50735503986244E-02 
536	 4,56177234818592E-02 
537	 4,60619176589662E-02 
538	 4,62370822593064E-02 
539	 4,60893649300488E-02 
540	 4,55512077242783E-02 
541	 4,49081827294629E-02 
542	 0,045480227857758 
543	 4,60394528789081E-02 
544	 0,045400786897279 
545	 4,54507841482857E-02 
546	 4,61676818090578E-02 
547	 4,64048748999186E-02 
548	 0,046584554668772 
549	 4,69371738676171E-02 
550	 4,77731218508775E-02 
551	 4,84889875906183E-02 
552	 4,80759092511199E-02 
553	 4,84035632356502E-02 
554	 4,93098854570119E-02 
555	 4,77681399195568E-02 
556	 4,64674278743942E-02 
557	 0,047608096026688 
558	 4,88395638047883E-02 
559	 4,94810082229874E-02 
560	 4,89429389027772E-02 
561	 0,048415468200961 
562	 4,84796048065608E-02 
563	 4,93218568131518E-02 
564	 4,97999994306844E-02 
565	 4,84224435690264E-02 
566	 4,81753925952905E-02 
567	 0,049278437982752 
568	 4,96195635667434E-02 
569	 4,95935106434262E-02 
570	 4,95358773705694E-02 
571	 4,99071368097126E-02 
572	 0,050697469571506 
573	 0,051801242594667 
574	 5,23332146937449E-02 
575	 5,20899950518833E-02 
576	 0,052007440532449 
577	 5,20928786748462E-02 
578	 5,22743181662142E-02 
579	 5,27060288794833E-02 
580	 5,32390237228915E-02 
581	 5,33884616948058E-02 
582	 5,32916626518537E-02 
583	 5,31196892192905E-02 
584	 5,34914153646256E-02 
585	 5,42189540629577E-02 
586	 5,48511083207781E-02 
587	 5,52467919215984E-02 
588	 5,53293638624422E-02 
589	 5,50353079999752E-02 
590	 5,50178201782209E-02 
591	 5,57992364928119E-02 
592	 5,55000960270654E-02 
593	 5,46728199607736E-02 
594	 5,59559106190182E-02 
595	 5,68121138723692E-02 
596	 5,62727737271557E-02 
597	 5,64599151087963E-02 
598	 5,67400244583305E-02 
599	 5,58119318451258E-02 
600	 5,55516942487534E-02 
601	 5,61843307587158E-02 
602	 5,64147761787305E-02 
603	 5,64430864018586E-02 
604	 5,64242409924849E-02 
605	 5,59954383346111E-02 
606	 5,55848422350986E-02 
607	 5,64666362276147E-02 
608	 5,67599676664116E-02 
609	 5,59676064592922E-02 
610	 5,57395996652212E-02 
611	 5,59140904305589E-02 
612	 5,61104564324003E-02 
613	 5,60043789112693E-02 
614	 5,56637746960945E-02 
615	 5,56888799522242E-02 
616	 5,55737345432947E-02 
617	 5,51080163610697E-02 
618	 5,54227233378122E-02 
619	 5,62087642990347E-02 
620	 0,056601038022166 
621	 5,66359145204231E-02 
622	 5,63110017407438E-02 
623	 5,56358023726741E-02 
624	 5,53697313196688E-02 
625	 5,62187094446499E-02 
626	 5,63971154558746E-02 
627	 5,59816504156931E-02 
628	 5,64369213818867E-02 
629	 5,67599221412356E-02 
630	 5,65303292827501E-02 
631	 5,66287136990339E-02 
632	 5,68266140923408E-02 
633	 5,65680168892045E-02 
634	 0,056668458749398 
635	 5,71934387158783E-02 
636	 5,74440398032177E-02 
637	 5,73077445746766E-02 
638	 5,68201138312151E-02 
639	 5,75383611789151E-02 
640	 0,059001775306711 
641	 5,94176825602128E-02 
642	 5,92974939318954E-02 
643	 5,89039195304293E-02 
644	 5,87430893889059E-02 
645	 5,88344775208495E-02 
646	 5,91187905186967E-02 
647	 5,92812253517207E-02 
648	 0,059294311541727 
649	 5,94213809632995E-02 
650	 5,95479058661186E-02 
651	 5,95639791550348E-02 
652	 0,059157593373803 
653	 5,87215950893909E-02 
654	 5,92276195871986E-02 
655	 5,89806397569413E-02 
656	 5,78317093494172E-02 
657	 5,80662697193469E-02 
658	 5,85204109267061E-02 
659	 5,78773153550559E-02 
660	 5,70131342445814E-02 
661	 5,64159963581967E-02 
662	 5,70305714260886E-02 
663	 5,71497071202973E-02 
664	 5,60728136652932E-02 
665	 5,55841474902589E-02 
666	 5,56294309361764E-02 
667	 5,57941250139645E-02 
668	 5,57719899569567E-02 
669	 5,55232031441531E-02 
670	 5,54245301684791E-02 
671	 5,51992801018275E-02 
672	 5,46867468135322E-02 
673	 5,47721665586129E-02 
674	 0,055261626732284 
675	 0,055305004139774 
676	 5,55061787582541E-02 
677	 5,58810639064323E-02 
678	 5,52871059632884E-02 
679	 5,47347828956505E-02 
680	 5,55017947804182E-02 
681	 5,64889928620109E-02 
682	 5,72155953313308E-02 
683	 5,70469784581148E-02 
684	 5,70537106774145E-02 
685	 5,77952024795278E-02 
686	 5,81243253941893E-02 
687	 5,83524199448243E-02 
688	 5,93157183036075E-02 
689	 6,01255602887701E-02 
690	 6,06094882526649E-02 
691	 6,11905680801733E-02 
692	 6,21572847831222E-02 
693	 6,37072852692892E-02 
694	 0,06502637104697 
695	 6,61983221530891E-02 
696	 6,78806404721001E-02 
697	 6,95578032064961E-02 
698	 7,12075142308434E-02 
699	 0,073976755394394 
700	 7,69869384564589E-02 
701	 0,079018469430167 
702	 8,10529462068625E-02 
703	 8,33123361979762E-02 
704	 0,085730343920994 
705	 8,80264693838318E-02 
706	 9,00802901620432E-02 
707	 9,24907762453623E-02 
708	 9,49951785549594E-02 
709	 9,69819249015268E-02 
710	 9,86039540954298E-02 
711	 0,100042706170689 
712	 0,101916828712744 
713	 0,103624258638331 
714	 0,104635337046973 
715	 0,106004996225076 
716	 0,107676528364507 
717	 0,109031925331591 
718	 0,109893327726615 
719	 0,110363748282521 
720	 0,111658744195021 
721	 0,113108901240725 
722	 0,113728771523132 
723	 0,114539697302349 
724	 0,115585666934622 
725	 0,116193605540875 
726	 0,116615614665708 
727	 0,117024439834353 
728	 0,117505319589924 
729	 0,117946278917512 
730	 0,118083905222022 
731	 0,118539854741278 
732	 0,119353332079458 
733	 0,119819916892911 
734	 0,120145830276986 
735	 0,120534729349922 
736	 0,120964300167775 
737	 0,121358562871886 
738	 0,12156828800715 
739	 0,121517687508454 
740	 0,12130588363226 
741	 0,121596890837558 
742	 0,122123714138457 
743	 0,122507690042796 
744	 0,122773221053885 
745	 0,122896278171163 
746	 0,1227359736529 
747	 0,123021911395418 
748	 0,12397254303509 
749	 0,124117570441465 
750	 0,123788694299304 
751	 0,123756371575304 
752	 0,12408776018138 
753	 0,124632191208525 
754	 0,124663227727396 
755	 0,124666572287816 
756	 0,124965007148482 
757	 0,124985641053168 
758	 0,124906374391755 
759	 0,12526457142349 
760	 0,125599317662017 
761	 0,125753926335966 
762	 0,12573688318294 
763	 0,125823340994304 
764	 0,12624181899785 
765	 0,126422389321988 
766	 0,126405030559874 
767	 0,126581013747709 
768	 0,126822045924677 
769	 0,127069628921562 
770	 0,127261483634042 
771	 0,127377094637481 
772	 0,127405728204525 
773	 0,127514167467482 
774	 0,127691566317017 
775	 0,127793381782585 
776	 0,127762654089651 
777	 0,127636033374693 
778	 0,127868010145451 
779	 0,128294319706266 
780	 0,128602232005656 
781	 0,128749826543268 
782	 0,128805445681758 
783	 0,129125795404241 
784	 0,129297688190461 
785	 0,129102883831464 
786	 0,129116200724534 
787	 0,129355300514788 
788	 0,129714123795106 
789	 0,129838521403363 
790	 0,12974104046397 
791	 0,130047984130986 
792	 0,130220454456393 
793	 0,129876349860464 
794	 0,129833196029405 
795	 0,130096808728008 
796	 0,130385572460243 
797	 0,130620754032759 
798	 0,130730490580235 
799	 0,130623170164304 
800	 0,130529818174406 
801	 0,130660461155973 
802	 0,13073614538896 
803	 0,130838232711477 
804	 0,131344862796509 
805	 0,131679064197582 
806	 0,131681898897303 
807	 0,131828917373414 
808	 0,131931214771568 
809	 0,13176901265832 
810	 0,131706273716266 
811	 0,131756060940507 
812	 0,131698568007817 
813	 0,131773504384022 
814	 0,132050429405539 
815	 0,13232125604261 
816	 0,132475579496543 
817	 0,132419826099145 
818	 0,132466481721942 
819	 0,132670099134859 
820	 0,132940987804952 
821	 0,133274008031885 
822	 0,13358823124852 
823	 0,133488664713195 
824	 0,133213927157606 
825	 0,133122765997837 
826	 0,133565944117171 
827	 0,134252528991701 
828	 0,134025811960573 
829	 0,1335252814737 
830	 0,133237697458713 
831	 0,134046059618685 
832	 0,134849559843279 
833	 0,134056745386686 
834	 0,133505221030711 
835	 0,133561012999263 
836	 0,133742933976211 
837	 0,134222283618582 
838	 0,134910978152115 
839	 0,134707176878504 
840	 0,134239653651311 
841	 0,134557266684593 
842	 0,134737492678779 
843	 0,134695125690411 
844	 0,134898537618674 
845	 0,135225980590447 
846	 0,13556352762763 
847	 0,135659470683719 
848	 0,135524834483865 
849	 0,135230217782385 
850	 0,134746643599173 
851	 0,134308138506465 
852	 0,134631214424315 
853	 0,134961322335932 
854	 0,134873840417324 
855	 0,134523276088618 
856	 0,134358035096379 
857	 0,1349427020247 
858	 0,135622424079208 
859	 0,136039375317007 
860	 0,135676849613638 
861	 0,135264853821575 
862	 0,135213679351903 
863	 0,135320754461162 
864	 0,135613720549974 
865	 0,136131197213411 
866	 0,13593306448288 
867	 0,135326479152745 
868	 0,136028220605986 
869	 0,136334103121826 
870	 0,1357164890227 
871	 0,136315097423275 
872	 0,137113591162494 
873	 0,136704605533147 
874	 0,136416262937371 
875	 0,13644873066452 
876	 0,13651399992496 
877	 0,136508190047471 
878	 0,136453857385843 
879	 0,136832088831941 
880	 0,137209535514177 
881	 0,137104817824557 
882	 0,137017485173664 
883	 0,137077486750293 
884	 0,137322952245769 
885	 0,137757924927172 
886	 0,13818212915222 
887	 0,137675117684908 
888	 0,137085619367528 
889	 0,137261551362483 
890	 0,137933452820636 
891	 0,138579982178883 
892	 0,138135326329631 
893	 0,138180794650761 
894	 0,138950994012858 
895	 0,139056097304694 
896	 0,138823720260307 
897	 0,138550926472193 
898	 0,138029302449524 
899	 0,137825022006955 
900	 0,138996273276542 
901	 0,139269279238831 
902	 0,138506993790099 
903	 0,138913004928614 
904	 0,13926638250074 
905	 0,138924057428724 
906	 0,139198499465574 
907	 0,139546635198012 
908	 0,139004015366666 
909	 0,138685465139348 
910	 0,138649046291724 
911	 0,13802815512918 
912	 0,138167621384166 
913	 0,139364713274015 
914	 0,139289760974833 
915	 0,139083538510495 
916	 0,140118665882228 
917	 0,139872359302792 
918	 0,138767061382706 
919	 0,139178118130307 
920	 0,139530978192556 
921	 0,139360295679084 
922	 0,139064579058897 
923	 0,138938194504735 
924	 0,13914864728259 
925	 0,138846513343497 
926	 0,138469499847127 
927	 0,139013268713296 
928	 0,14000291211363 
929	 0,140963047530623 
930	 0,140780958435493 
931	 0,140552768288559 
932	 0,140806237204225 
933	 0,140265737747723 
934	 0,139701483373181 
935	 0,140204619343596 
936	 0,140080525344203 
937	 0,139473626401003 
938	 0,13991916956032 
939	 0,140155458924326 
940	 0,139909509306055 
941	 0,140338265813818 
942	 0,141003776539671 
943	 0,141356948951896 
944	 0,140394047000565 
945	 0,13901512188582 
946	 0,13914620281548 
947	 0,139888845605617 
948	 0,140617749313389 
949	 0,140063552739504 
950	 0,139482088833125 
951	 0,139483705418184 
952	 0,138935141522268 
953	 0,137980378298088 
954	 0,136975248351157 
955	 0,136848275551655 
956	 0,13746359246319 
957	 0,138108321441607 
958	 0,137296622911507 
959	 0,135297764086352 
960	 0,135878227333297 
961	 0,13756991861127 
962	 0,138920567873915 
963	 0,138844106430279 
964	 0,137681928346117 
965	 0,136273795814796 
966	 0,136866394792357 
967	 0,138948496632621 
968	 0,139088547062731 
969	 0,138598300592581 
970	 0,138322054832278 
971	 0,139979472522887 
972	 0,140871912015642 
973	 0,138757920821828 
974	 0,137891386474675 
975	 0,138279313331329 
976	 0,138579346137738 
977	 0,13905796712275 
978	 0,139404641949723 
979	 0,138347962830901 
980	 0,138631165923273 
981	 0,140871485083338 
982	 0,140070934339217 
983	 0,138414834808266 
984	 0,1385044236069 
985	 0,139303140181872 
986	 0,14020894271971 
987	 0,140428258153545 
988	 0,139752400686559 
989	 0,13875806448195 
990	 0,139739680546014 
991	 0,14048924459059 
992	 0,140138644154876 
993	 0,14096717261148 
994	 0,142310023651145 
995	 0,14326383322726 
996	 0,143907088499772 
997	 0,143647064624186 
998	 0,141241350478998 
999	 0,142642606795918 
1000	 0,146470308161808 
1001	 0,1410579225828 
1002	 0,137370548331371 
1003	 0,140326106166896 
1004	 0,143143706466054 
1005	 0,144456821598818 
1006	 0,143588135788512 
1007	 0,142923352092287 
1008	 0,142091945098258 
1009	 0,139559917778923 
1010	 0,141102164682603 
1011	 0,146191660651849 
1012	 0,148460415535035 
1013	 0,147902317856021 
1014	 0,145225028892714 
1015	 0,14487772642074 
1016	 0,145348461518051 
1017	 0,14518201941827 
1018	 0,145440504169717 
1019	 0,145416330916293 
1020	 0,143972846953676 
1021	 0,144516280743108 
1022	 0,146485758081162 
1023	 0,145498247900381 
1024	 0,148178313783675 
1025	 0,154109602718486 
1026	 0,151048177440832 
1027	 0,148038945770132 
1028	 0,150389645964396 
1029	 0,149031190158266 
1030	 0,147358787335028 
1031	 0,149887989915667 
1032	 0,147690189976917 
1033	 0,143896062679241 
1034	 0,148076161660955 
1035	 0,150874007655248 
1036	 0,149754937230071 
1037	 0,145668380669414 
1038	 0,14415183212945 
1039	 0,146904329080381 
1040	 0,146620411901251 
1041	 0,14831286420183 
1042	 0,154742028215745 
1043	 0,152335953254927 
1044	 0,146235103712089 
1045	 0,146304196944905 
1046	 0,150326009222795 
1047	 0,154322744018455 
1048	 0,149692416307924 
1049	 0,151650941510106 
1050	 0,158569321381727 
1051	 0,145595641522953 
1052	 0,134261515030651 
1053	 0,136560311725982 
1054	 0,150563090195964 
1055	 0,161292092511794 
1056	 0,157497220249204 
1057	 0,156467865927041 
1058	 0,155354384359299 
1059	 0,147501562806572 
1060	 0,147376784923648 
1061	 0,15360865307569 
1062	 0,155541368890575 
1063	 0,163805192351825 
1064	 0,171562027093788 
1065	 0,142645240984479 
1066	 0,126191827590174 
1067	 0,141101338195585 
1068	 0,146101673764466 
1069	 0,150306050082826 
1070	 0,159822625034221 
1071	 0,163135191783284 
1072	 0,157109777818036 
1073	 0,141547049030509 
1074	 0,146183814603956 
1075	 0,15743107883581 
