Wavelength	AVEN00503.asd
325	 5,19345729727034E-02 
326	 7,90200773623135E-02 
327	 0,106412948148936 
328	 0,136825189451442 
329	 0,14722744051857 
330	 8,26354660971594E-02 
331	-7,78507564304094E-02 
332	-7,96136665459375E-02 
333	 2,85263497328174E-02 
334	 4,57978318113708E-02 
335	 9,00408805303233E-02 
336	 0,147107062273732 
337	 8,35037680206772E-02 
338	 1,92133795629573E-02 
339	 5,95009432344366E-02 
340	 1,37733359571331E-02 
341	-5,97646060738172E-02 
342	 1,19703907142981E-02 
343	 0,108095414306453 
344	 0,168100967993555 
345	 0,107026538092302 
346	 3,21418704639972E-02 
347	 6,58739058109677E-02 
348	 0,065028465545692 
349	 2,42636299203513E-02 
350	-0,0117112515123 
351	-1,20961862102448E-02 
352	 2,78655062080922E-02 
353	 6,42912034119807E-02 
354	 7,31887716847906E-02 
355	 3,21877626617676E-02 
356	 1,63963460169395E-02 
357	 3,16949214119344E-02 
358	 4,13156289421029E-02 
359	 3,12932299828881E-02 
360	 2,03220928921796E-03 
361	 2,55700678176223E-02 
362	 5,54216768810896E-02 
363	 0,020659133611296 
364	 2,04462239608187E-03 
365	 1,50423059906296E-02 
366	 3,96477797515179E-02 
367	 5,15059724464987E-02 
368	 3,61109930523089E-02 
369	 2,78718607040416E-02 
370	 2,08721758169658E-02 
371	-4,51933020199171E-03 
372	-8,60214845227267E-03 
373	 1,21926449315519E-02 
374	 2,40976884394123E-02 
375	 2,80401254955249E-02 
376	 2,60143025670819E-02 
377	 2,10882144861592E-02 
378	 1,78782543130968E-02 
379	 2,53456534755865E-02 
380	 3,51350832922147E-02 
381	 3,90359406980623E-02 
382	 1,48671801132906E-02 
383	-8,30140117356689E-03 
384	-2,75105343836395E-04 
385	 1,54666877303689E-02 
386	 2,63759540604315E-02 
387	 1,25170036642634E-02 
388	 5,75613961823697E-03 
389	 1,78985149393678E-02 
390	 3,97321784692507E-02 
391	 5,26844580078082E-02 
392	 3,82772232902632E-02 
393	 2,48373240577805E-02 
394	 1,84970065230989E-02 
395	 1,33040697410359E-02 
396	 1,33179927600606E-02 
397	 0,017958608951452 
398	 8,35755322090665E-03 
399	-2,49226562456134E-03 
400	 7,5778551820479E-03 
401	 1,79115571536258E-02 
402	 2,25220076401382E-02 
403	 2,03575370045079E-02 
404	 1,72803234957478E-02 
405	 1,72567951554328E-02 
406	 1,65986248676469E-02 
407	 1,61388228206913E-02 
408	 1,92642336876339E-02 
409	 1,68283203592473E-02 
410	 8,39773859603481E-03 
411	 5,01826819850652E-03 
412	 5,61901837438736E-03 
413	 8,4013138834871E-03 
414	 1,24639391269053E-02 
415	 1,60148870637856E-02 
416	 1,53034807747333E-02 
417	 1,61507784281744E-02 
418	 2,06651789321287E-02 
419	 2,70497218999838E-02 
420	 2,92732696849441E-02 
421	 2,04011469424418E-02 
422	 1,40017960333037E-02 
423	 1,20351652711864E-02 
424	 8,26700844382874E-03 
425	 7,04363418349724E-03 
426	 0,010237203606694 
427	 1,05127477741638E-02 
428	 9,04137617652211E-03 
429	 9,79264415163192E-03 
430	 9,63818632500675E-03 
431	 9,09010594191452E-03 
432	 1,45433568644463E-02 
433	 1,84861462241376E-02 
434	 0,014599697374869 
435	 1,06509303396538E-02 
436	 9,05943358026717E-03 
437	 1,19668955876371E-02 
438	 1,50208313824237E-02 
439	 1,59721171013403E-02 
440	 1,37546037565088E-02 
441	 1,20700247664029E-02 
442	 1,55681294121821E-02 
443	 1,67132983773982E-02 
444	 1,46995662650602E-02 
445	 1,31106018067036E-02 
446	 1,25205493163371E-02 
447	 1,32297081799248E-02 
448	 1,38381138810181E-02 
449	 0,014478643812368 
450	 1,60197093415045E-02 
451	 1,57872076010881E-02 
452	 1,35120191465116E-02 
453	 1,19840327283714E-02 
454	 1,10949615263928E-02 
455	 1,06465902720248E-02 
456	 1,08628245581351E-02 
457	 1,19306929187037E-02 
458	 1,47610983721178E-02 
459	 0,015462313504778 
460	 1,31293602265148E-02 
461	 1,37140121517543E-02 
462	 1,56299084211024E-02 
463	 1,60253220495684E-02 
464	 1,45691242694622E-02 
465	 1,21747906970791E-02 
466	 1,20295334087693E-02 
467	 1,39154910165327E-02 
468	 1,71188529838641E-02 
469	 1,67419372275406E-02 
470	 1,45278993417187E-02 
471	 1,52202773920809E-02 
472	 1,75204164366494E-02 
473	 1,96202298092909E-02 
474	 0,014740976717024 
475	 9,99252672742463E-03 
476	 1,23645291020908E-02 
477	 1,34768577477552E-02 
478	 1,28682410406716E-02 
479	 0,01444681412957 
480	 1,48941705305143E-02 
481	 1,32080474914582E-02 
482	 1,38246784145204E-02 
483	 1,45154913058544E-02 
484	 1,12493397802179E-02 
485	 1,01128792232616E-02 
486	 1,19017902417614E-02 
487	 1,31835275405484E-02 
488	 1,34577989863784E-02 
489	 1,25811454761423E-02 
490	 1,31469689647996E-02 
491	 0,014295145174204 
492	 1,30393577242238E-02 
493	 1,18343482940033E-02 
494	 1,14927990557214E-02 
495	 0,011161337882312 
496	 1,15274900227514E-02 
497	 1,33714861124948E-02 
498	 1,47538054736584E-02 
499	 1,52322223199416E-02 
500	 0,015227580447527 
501	 1,42779555733164E-02 
502	 1,26257617189337E-02 
503	 0,014257415929461 
504	 1,66432689807894E-02 
505	 1,45942961261071E-02 
506	 1,24365418168341E-02 
507	 1,16284228898564E-02 
508	 1,20721916527335E-02 
509	 1,36150790372305E-02 
510	 1,59152694548026E-02 
511	 1,59941004835717E-02 
512	 1,43308124457438E-02 
513	 1,37547433586514E-02 
514	 1,28729506150271E-02 
515	 1,15725583362152E-02 
516	 1,25046665368034E-02 
517	 1,44479247225076E-02 
518	 1,54814870103197E-02 
519	 1,46180304474301E-02 
520	 1,26759935609638E-02 
521	 1,36214242329752E-02 
522	 1,50476457952459E-02 
523	 1,51307953083709E-02 
524	 1,44439647848231E-02 
525	 1,36095208535003E-02 
526	 1,38206505247854E-02 
527	 1,41193663301539E-02 
528	 1,40832483930723E-02 
529	 1,33677753346807E-02 
530	 1,25358163101786E-02 
531	 1,22441515674634E-02 
532	 1,31648952210684E-02 
533	 1,47383634279686E-02 
534	 1,48705572445727E-02 
535	 1,46716089553299E-02 
536	 1,47617088118593E-02 
537	 0,014493543660005 
538	 1,42494924816897E-02 
539	 1,49054555463623E-02 
540	 1,51188270194052E-02 
541	 1,46080486400916E-02 
542	 1,41781376839666E-02 
543	 1,39656139051658E-02 
544	 1,40368687115091E-02 
545	 0,013771569069661 
546	 1,34778594690021E-02 
547	 1,44888406442314E-02 
548	 1,50588929282407E-02 
549	 1,44643563633471E-02 
550	 1,41967564591065E-02 
551	 1,42112304570879E-02 
552	 1,41388285549889E-02 
553	 1,46188862409933E-02 
554	 1,53067428240199E-02 
555	 1,41591597870468E-02 
556	 1,29608654683466E-02 
557	 1,31902404723491E-02 
558	 1,32683683703066E-02 
559	 1,32602220407568E-02 
560	 0,014254343349097 
561	 1,42210009412221E-02 
562	 1,27629442816975E-02 
563	 1,28851525230711E-02 
564	 1,37446875738331E-02 
565	 1,38738919249665E-02 
566	 1,38824597570257E-02 
567	 1,38486433243018E-02 
568	 1,36308759824473E-02 
569	 1,32828202694407E-02 
570	 1,29528950769663E-02 
571	 1,36384599663316E-02 
572	 1,47512820610538E-02 
573	 1,46393898966474E-02 
574	 1,49910442445624E-02 
575	 1,60185867846185E-02 
576	 1,56387833478255E-02 
577	 1,49407102624077E-02 
578	 1,52948471644077E-02 
579	 1,60142357777447E-02 
580	 1,66199973246086E-02 
581	 1,60566377830615E-02 
582	 1,58419905012042E-02 
583	 1,67246043113577E-02 
584	 1,71619535280955E-02 
585	 0,01717130518709 
586	 1,71082565061202E-02 
587	 1,76177784395474E-02 
588	 1,84607466142168E-02 
589	 1,75117251466552E-02 
590	 1,67021645637432E-02 
591	 1,78008594474769E-02 
592	 1,80370443720729E-02 
593	 1,74371813717563E-02 
594	 1,76046941788182E-02 
595	 1,78949893806464E-02 
596	 1,79765789144462E-02 
597	 1,75428445383265E-02 
598	 1,70909292617609E-02 
599	 1,74251772632898E-02 
600	 0,017021721549737 
601	 1,61009809319635E-02 
602	 1,73124225636265E-02 
603	 1,83070738548788E-02 
604	 1,72988004099986E-02 
605	 1,64719905332591E-02 
606	 1,61415135058644E-02 
607	 1,60280085449078E-02 
608	 1,63417093310006E-02 
609	 1,69888988202076E-02 
610	 1,72142833470388E-02 
611	 1,69215780825939E-02 
612	 1,60991189635052E-02 
613	 1,53329863844649E-02 
614	 1,48500891863243E-02 
615	 1,46726766335417E-02 
616	 1,48918343997346E-02 
617	 1,54673492193249E-02 
618	 1,55446767358648E-02 
619	 1,54630848832804E-02 
620	 1,62728081228717E-02 
621	 1,61405581894199E-02 
622	 1,49352306870557E-02 
623	 0,015053012948962 
624	 1,57576641488357E-02 
625	 1,61237993096596E-02 
626	 1,58835363472886E-02 
627	 1,53538688778117E-02 
628	 1,57100489806424E-02 
629	 1,59559770580589E-02 
630	 1,57286783827587E-02 
631	 1,64172306780998E-02 
632	 1,71355399457029E-02 
633	 1,61650230910511E-02 
634	 1,60813793625597E-02 
635	 1,71380466261945E-02 
636	 1,70162868320215E-02 
637	 0,016702628589057 
638	 0,017092405536985 
639	 1,79255951636649E-02 
640	 1,87316367497102E-02 
641	 0,018382165444958 
642	 1,83849072040592E-02 
643	 1,91460152395539E-02 
644	 1,90919261132428E-02 
645	 1,87257313118154E-02 
646	 1,88766288620961E-02 
647	 1,91653746961183E-02 
648	 1,94297427905185E-02 
649	 0,019498248497069 
650	 1,92305254739755E-02 
651	 1,86094574617229E-02 
652	 1,83119557603011E-02 
653	 1,83752606205206E-02 
654	 1,87335298637747E-02 
655	 1,83814483702663E-02 
656	 1,73219324678119E-02 
657	 1,74659010245055E-02 
658	 1,78511874701236E-02 
659	 1,73909189465011E-02 
660	 0,017124775031003 
661	 1,70382393504364E-02 
662	 0,016451264440208 
663	 1,58774576070025E-02 
664	 1,55725824250711E-02 
665	 1,52858962977864E-02 
666	 1,51752500023901E-02 
667	 0,015548049628779 
668	 1,55204578808571E-02 
669	 1,50133954499632E-02 
670	 1,48153296873499E-02 
671	 1,47403963729461E-02 
672	 1,46270964016076E-02 
673	 1,45376049013703E-02 
674	 1,45178513493853E-02 
675	 1,46051318467381E-02 
676	 1,51137735831529E-02 
677	 0,015847057687107 
678	 1,50456105426136E-02 
679	 1,41176717965787E-02 
680	 1,48721408510132E-02 
681	 1,55685802955469E-02 
682	 1,57691106639296E-02 
683	 1,53917806666171E-02 
684	 1,54189414120672E-02 
685	 1,63175929090721E-02 
686	 1,66164208039501E-02 
687	 1,67086664842169E-02 
688	 1,77003398966953E-02 
689	 0,018095295850653 
690	 1,78877817555807E-02 
691	 1,89734557265576E-02 
692	 2,07691638916003E-02 
693	 2,26439750925904E-02 
694	 2,41723073611859E-02 
695	 2,56811831444251E-02 
696	 2,82050346406064E-02 
697	 3,11935373218786E-02 
698	 3,44799529301655E-02 
699	 3,84236675904435E-02 
700	 4,25665276815479E-02 
701	 4,63221275624711E-02 
702	 5,05878886496322E-02 
703	 5,54915948426552E-02 
704	 6,07063224223094E-02 
705	 0,065971764891918 
706	 7,11193269020092E-02 
707	 7,62559976287935E-02 
708	 8,13375507361993E-02 
709	 8,62706253959369E-02 
710	 9,10691604160522E-02 
711	 9,57388051205839E-02 
712	 0,100256585558138 
713	 0,104659365066773 
714	 0,108968302199813 
715	 0,112991005106457 
716	 0,116745278744354 
717	 0,120453076044066 
718	 0,123565384250561 
719	 0,12609446846864 
720	 0,129569449031606 
721	 0,133087008440029 
722	 0,135349780410303 
723	 0,137559170312441 
724	 0,139897250449024 
725	 0,141968180596223 
726	 0,143777641984184 
727	 0,145349444966607 
728	 0,146919624157957 
729	 0,148424595279556 
730	 0,149680651436638 
731	 0,150766566457107 
732	 0,151798278398726 
733	 0,153164184140379 
734	 0,154391214111023 
735	 0,155081962751525 
736	 0,155826857020682 
737	 0,156602557410202 
738	 0,157053874119221 
739	 0,15751211863755 
740	 0,158091860950375 
741	 0,158648898975885 
742	 0,159188568750203 
743	 0,159728390571412 
744	 0,160244001534069 
745	 0,160732608339349 
746	 0,161180601512567 
747	 0,161739049647039 
748	 0,162397278789118 
749	 0,162476295186884 
750	 0,162352584104362 
751	 0,162721002036671 
752	 0,163022631252532 
753	 0,16320757233132 
754	 0,163695043878048 
755	 0,164088765029796 
756	 0,164117091534959 
757	 0,164086797820661 
758	 0,164205750263932 
759	 0,164819773758822 
760	 0,165159742401516 
761	 0,165049019848978 
762	 0,164976142988049 
763	 0,165111478866176 
764	 0,165565998402427 
765	 0,165921507880317 
766	 0,16607448961365 
767	 0,165937698569114 
768	 0,166125505958139 
769	 0,166769531862478 
770	 0,167023244249128 
771	 0,167049510407595 
772	 0,167127375451381 
773	 0,167095634765584 
774	 0,167026952970055 
775	 0,167259025815262 
776	 0,167253657039661 
777	 0,166849422253938 
778	 0,166966680699711 
779	 0,167469100540371 
780	 0,16800377861517 
781	 0,168295205634307 
782	 0,168338267041073 
783	 0,168496587535883 
784	 0,168598469414089 
785	 0,168564156526668 
786	 0,168702676967614 
787	 0,168914915412044 
788	 0,168958209822303 
789	 0,168819269989154 
790	 0,168633179705986 
791	 0,169002764582111 
792	 0,169257785602723 
793	 0,168918423601156 
794	 0,169004658934335 
795	 0,169340265145732 
796	 0,169146405272295 
797	 0,169207541012461 
798	 0,169659370899214 
799	 0,169857648103817 
800	 0,169921358380927 
801	 0,169996011009219 
802	 0,170078639277475 
803	 0,170192202208287 
804	 0,170381598688071 
805	 0,17057207925188 
806	 0,170708868041012 
807	 0,17067056540631 
808	 0,170682528174122 
809	 0,170973278569762 
810	 0,171059952026629 
811	 0,170971034509588 
812	 0,171060009081261 
813	 0,171228798004094 
814	 0,171460236048986 
815	 0,171875072947898 
816	 0,172193970229295 
817	 0,17210568561967 
818	 0,172519338781587 
819	 0,173239061919798 
820	 0,17304817170266 
821	 0,172799438796872 
822	 0,172895480282031 
823	 0,173105390725513 
824	 0,173316736364414 
825	 0,17341261289501 
826	 0,173721697190484 
827	 0,174167692384992 
828	 0,174363818910812 
829	 0,173974002644874 
830	 0,173128433281636 
831	 0,173961749562439 
832	 0,175158684693637 
833	 0,174643802299325 
834	 0,174482702046608 
835	 0,174887305216981 
836	 0,174777406616401 
837	 0,174889085202702 
838	 0,175499655771959 
839	 0,175657566184043 
840	 0,175544267196414 
841	 0,175567847822427 
842	 0,175719832907902 
843	 0,1759322888926 
844	 0,175974973889926 
845	 0,175867096949855 
846	 0,175663341525672 
847	 0,175602417067358 
848	 0,175808638396241 
849	 0,176401342167742 
850	 0,176482959191483 
851	 0,176054936483228 
852	 0,175891346473954 
853	 0,176101526748388 
854	 0,176598517426437 
855	 0,176220193562705 
856	 0,175768593361833 
857	 0,176488780675447 
858	 0,176717054984861 
859	 0,176354360263885 
860	 0,176474913582824 
861	 0,176542737288637 
862	 0,176326773182914 
863	 0,176091050316763 
864	 0,176174505599346 
865	 0,176948075796899 
866	 0,177489273142965 
867	 0,177574236586641 
868	 0,177264706114004 
869	 0,177072988428232 
870	 0,177284044045187 
871	 0,1777783389192 
872	 0,17843943656618 
873	 0,179117856654306 
874	 0,179007996428732 
875	 0,178512831130179 
876	 0,179366197269621 
877	 0,179939641413259 
878	 0,179681567143381 
879	 0,179650945504953 
880	 0,179863742991342 
881	 0,180245635443694 
882	 0,180794439348242 
883	 0,181346780635638 
884	 0,181468766421124 
885	 0,18190244889249 
886	 0,182716051077462 
887	 0,182808212661621 
888	 0,182675138629965 
889	 0,18284516288828 
890	 0,183152143341105 
891	 0,183477352109846 
892	 0,18366519233391 
893	 0,18335345887085 
894	 0,182695627079771 
895	 0,182826667303091 
896	 0,183409218241046 
897	 0,184010744628932 
898	 0,183505389042922 
899	 0,182740470748654 
900	 0,18353523681048 
901	 0,184282383633706 
902	 0,184556779279749 
903	 0,184649209750668 
904	 0,184604392065184 
905	 0,184511954012844 
906	 0,184716241187674 
907	 0,185003198209578 
908	 0,185011114215109 
909	 0,184987608085877 
910	 0,185003255569379 
911	 0,185121417338585 
912	 0,185034561601807 
913	 0,184687759182031 
914	 0,184584789456103 
915	 0,184996264107832 
916	 0,186078577671801 
917	 0,18622982962956 
918	 0,185726707858019 
919	 0,18624142016623 
920	 0,186254942748765 
921	 0,18556544782276 
922	 0,185866541551685 
923	 0,185761959733109 
924	 0,184239751940638 
925	 0,183760235094052 
926	 0,184091599107889 
927	 0,184068947383755 
928	 0,18423963159403 
929	 0,184617752301974 
930	 0,184866418891673 
931	 0,184912788236195 
932	 0,184726667610766 
933	 0,184464211222664 
934	 0,184149648309395 
935	 0,183795749334286 
936	 0,183950789918583 
937	 0,184219716144934 
938	 0,183111026580025 
939	 0,182203766970603 
940	 0,182084404173337 
941	 0,182398731113682 
942	 0,182273234884031 
943	 0,181063419116947 
944	 0,180211669150081 
945	 0,179711167783591 
946	 0,179031486710905 
947	 0,179191684889908 
948	 0,179855989545479 
949	 0,178892876540244 
950	 0,177397187149487 
951	 0,176117203364061 
952	 0,175366232661791 
953	 0,174649392727619 
954	 0,17334870879118 
955	 0,172171072321534 
956	 0,171439490090986 
957	 0,171741720075503 
958	 0,170822392187477 
959	 0,168729891586819 
960	 0,169676046490335 
961	 0,170788922229957 
962	 0,169794475834231 
963	 0,167743277682986 
964	 0,166197112994261 
965	 0,167233492645394 
966	 0,168071444942753 
967	 0,168380846238963 
968	 0,169672730933358 
969	 0,170127623671222 
970	 0,169399535750662 
971	 0,170263908204963 
972	 0,170668775650087 
973	 0,168743527794843 
974	 0,166540005442128 
975	 0,165495596140989 
976	 0,167429875110701 
977	 0,168267525127179 
978	 0,167423509174555 
979	 0,167242118566418 
980	 0,167443132488755 
981	 0,167976431790316 
982	 0,169233208604258 
983	 0,169757716027667 
984	 0,168439462237224 
985	 0,170493262405683 
986	 0,174012168275001 
987	 0,173590633315335 
988	 0,171626240713656 
989	 0,169699476713709 
990	 0,17100821985932 
991	 0,171589094977822 
992	 0,169909056065815 
993	 0,169997873458726 
994	 0,172167734877361 
995	 0,175973926368499 
996	 0,176577793741353 
997	 0,174707806793777 
998	 0,173543392159577 
999	 0,175083989643328 
1000	 0,178161758594261 
1001	 0,176076573192668 
1002	 0,174364523294056 
1003	 0,175498890615447 
1004	 0,175708966982885 
1005	 0,176927500039046 
1006	 0,180777975195502 
1007	 0,181820848105703 
1008	 0,180446868776201 
1009	 0,179050800879832 
1010	 0,180006281455101 
1011	 0,183242897753894 
1012	 0,186384601696979 
1013	 0,187534154334196 
1014	 0,185972872967471 
1015	 0,183532151176099 
1016	 0,182221158359076 
1017	 0,183284749249942 
1018	 0,182267887807214 
1019	 0,182019965804453 
1020	 0,187479050065481 
1021	 0,18997830830093 
1022	 0,18848585246096 
1023	 0,185407502655165 
1024	 0,18764857586717 
1025	 0,194914466672831 
1026	 0,193695342931826 
1027	 0,191420167939409 
1028	 0,192633218627911 
1029	 0,19093638173686 
1030	 0,188891063823306 
1031	 0,190214200435549 
1032	 0,194614164246521 
1033	 0,199940581519774 
1034	 0,202558947515062 
1035	 0,19931321149766 
1036	 0,192160051343533 
1037	 0,190319657182958 
1038	 0,191907970600603 
1039	 0,195745768975615 
1040	 0,199996781229187 
1041	 0,203579632033792 
1042	 0,205044298707741 
1043	 0,200279176450846 
1044	 0,192795374008043 
1045	 0,188717915773907 
1046	 0,191175600026568 
1047	 0,197449001431402 
1048	 0,19958391847788 
1049	 0,200487713922014 
1050	 0,20153975537272 
1051	 0,205883470780443 
1052	 0,205696106553536 
1053	 0,199581355351519 
1054	 0,203383729187083 
1055	 0,208110058406516 
1056	 0,20557978580146 
1057	 0,201502233262809 
1058	 0,196461192881878 
1059	 0,190821009595861 
1060	 0,197014625959947 
1061	 0,209960934099459 
1062	 0,212047005443962 
1063	 0,210966406785968 
1064	 0,207606854052367 
1065	 0,196746206455581 
1066	 0,188867172505062 
1067	 0,191026134905651 
1068	 0,207611796160763 
1069	 0,216557941112867 
1070	 0,20426891063049 
1071	 0,203959949758952 
1072	 0,202296836145243 
1073	 0,182154468693462 
1074	 0,188902993622951 
1075	 0,209468212556451 
