Wavelength	AVEN00608.asd
325	 0,141694146101245 
326	 0,141022047458496 
327	 0,100786669147155 
328	 4,37202712276085E-02 
329	 0,127134855074329 
330	 0,153606397781776 
331	 1,12538422259379E-02 
332	 0,025000603646022 
333	 0,141721945826423 
334	 0,141108272790645 
335	 0,105386204333509 
336	 7,73673205217564E-02 
337	 9,13577556564966E-02 
338	 0,13973943837 
339	 0,204769336305951 
340	 0,108812418745544 
341	-3,49187786380969E-02 
342	 4,39655046232906E-02 
343	 0,141886795138197 
344	 0,186525239867183 
345	 0,147172351556178 
346	 8,71059606057773E-02 
347	 8,11552915686802E-02 
348	 8,46015632959665E-02 
349	 0,093025385377539 
350	 0,12142223417126 
351	 0,133997299759311 
352	 0,123098214058078 
353	 0,138522988911965 
354	 0,1583733156187 
355	 0,155455130686594 
356	 0,142101897904071 
357	 0,129569054023324 
358	 0,144207582733565 
359	 0,13870413741205 
360	 9,89170157066414E-02 
361	 0,105009725783045 
362	 0,136480989943112 
363	 0,154494593003656 
364	 0,164479261286125 
365	 0,167536052222266 
366	 0,174335326473919 
367	 0,167184466924764 
368	 0,137961793949334 
369	 0,108512200867432 
370	 9,20270495286712E-02 
371	 0,108482628240055 
372	 0,132798030359155 
373	 0,150158568125309 
374	 0,14087268896155 
375	 0,126910539952494 
376	 0,125477750817286 
377	 0,12937121132297 
378	 0,135198570538819 
379	 0,134494839012574 
380	 0,151721737029478 
381	 0,180449571052223 
382	 0,164647192007035 
383	 0,133030626062405 
384	 0,118197935464588 
385	 0,125604504876272 
386	 0,139723857331686 
387	 0,113743154845538 
388	 0,113322945452842 
389	 0,152349274899215 
390	 0,161620912230515 
391	 0,152247209498334 
392	 0,142706083014961 
393	 0,136186182073807 
394	 0,134449868910029 
395	 0,136410730458804 
396	 0,139929539231119 
397	 0,143004946676738 
398	 0,140861367490626 
399	 0,139075112810521 
400	 0,14718600389248 
401	 0,14366560572902 
402	 0,130475611857123 
403	 0,132842710386496 
404	 0,141889953294032 
405	 0,150462079514351 
406	 0,154463014836954 
407	 0,155194664951138 
408	 0,157525517310086 
409	 0,156228827671972 
410	 0,150153179807876 
411	 0,139938107580709 
412	 0,134531359629184 
413	 0,141146500703788 
414	 0,143333712904069 
415	 0,141009195804009 
416	 0,141871643482918 
417	 0,144600571944696 
418	 0,148463562610125 
419	 0,152787121568279 
420	 0,152861312853207 
421	 0,14307587264318 
422	 0,142114592894972 
423	 0,149372447193456 
424	 0,147976623527919 
425	 0,143617807433082 
426	 0,140440975325078 
427	 0,141884077220816 
428	 0,145081475451591 
429	 0,144047324050247 
430	 0,143425694192449 
431	 0,144266280097598 
432	 0,145189508577154 
433	 0,146022756240122 
434	 0,146627160627584 
435	 0,146365091390057 
436	 0,145509472734116 
437	 0,14501909667103 
438	 0,144183512186256 
439	 0,143319260898164 
440	 0,145952944204994 
441	 0,148536674843984 
442	 0,1463497056246 
443	 0,145270726773222 
444	 0,14610146184739 
445	 0,146655260638534 
446	 0,146192588293815 
447	 0,144629270958515 
448	 0,145579272077569 
449	 0,147826200056563 
450	 0,148387372492541 
451	 0,147030615587965 
452	 0,144673237023627 
453	 0,145904610082337 
454	 0,147847788006908 
455	 0,147674062694671 
456	 0,14662134042236 
457	 0,146126138859878 
458	 0,149758160075875 
459	 0,151260952273145 
460	 0,148778924796274 
461	 0,148924406149735 
462	 0,150955109961614 
463	 0,15304038588025 
464	 0,151810696746845 
465	 0,148741788045111 
466	 0,152754067765939 
467	 0,15449959405883 
468	 0,148969094168872 
469	 0,150105964367594 
470	 0,154704806170886 
471	 0,152388441824573 
472	 0,151027520520673 
473	 0,151855706738636 
474	 0,148346896131914 
475	 0,145282415541102 
476	 0,147478993636436 
477	 0,150711351084122 
478	 0,15352801206642 
479	 0,155109156177991 
480	 0,153946338611818 
481	 0,150266545026274 
482	 0,15061510328777 
483	 0,152422543470728 
484	 0,150789165060285 
485	 0,150169041364193 
486	 0,151185531667793 
487	 0,151997845571029 
488	 0,151201988372637 
489	 0,148245560822935 
490	 0,149021692817664 
491	 0,152073858838411 
492	 0,152056967673292 
493	 0,15122438103399 
494	 0,150362346889427 
495	 0,149604326058979 
496	 0,149850209063901 
497	 0,151992050308264 
498	 0,152461916870716 
499	 0,151282429567841 
500	 0,151291339399241 
501	 0,151044533257631 
502	 0,150086207456269 
503	 0,151435500206733 
504	 0,153525394145599 
505	 0,153080659530293 
506	 0,152503573851596 
507	 0,152383436201019 
508	 0,151729052253375 
509	 0,152218988387127 
510	 0,155112302071145 
511	 0,155522794124715 
512	 0,154010647649714 
513	 0,154606553377763 
514	 0,154786274494869 
515	 0,154087010472523 
516	 0,15659796961932 
517	 0,159659337186471 
518	 0,159230127160028 
519	 0,157111344421082 
520	 0,155024380775555 
521	 0,157319432724521 
522	 0,159477449486382 
523	 0,15835469530592 
524	 0,157655130586242 
525	 0,157874668932516 
526	 0,1589262187781 
527	 0,159351823771626 
528	 0,158583501303411 
529	 0,156843676668679 
530	 0,155424410296917 
531	 0,155699208349643 
532	 0,156750195104184 
533	 0,157887059417379 
534	 0,157831382448833 
535	 0,157656756996564 
536	 0,158011441389986 
537	 0,158627128593288 
538	 0,159213056613587 
539	 0,159359791097634 
540	 0,159012373108388 
541	 0,158322772415652 
542	 0,158045586107809 
543	 0,157883346864384 
544	 0,157522584505787 
545	 0,157363252111149 
546	 0,157637645773033 
547	 0,158883366567256 
548	 0,159685026325849 
549	 0,159393840904101 
550	 0,158974741698312 
551	 0,158762765671762 
552	 0,159081425158684 
553	 0,15946591938056 
554	 0,159512940071533 
555	 0,158203230737173 
556	 0,157174496061684 
557	 0,157736502812088 
558	 0,158172903864561 
559	 0,158212113365024 
560	 0,158083219743922 
561	 0,157569141675947 
562	 0,156694263019225 
563	 0,155958428982444 
564	 0,155729748732561 
565	 0,156398697568285 
566	 0,156621423664699 
567	 0,156180858930395 
568	 0,155593579825845 
569	 0,155603312706499 
570	 0,156663155708688 
571	 0,15756718890341 
572	 0,158551234020193 
573	 0,160760979356725 
574	 0,161944581024593 
575	 0,161646329090657 
576	 0,162028668575857 
577	 0,163195373083111 
578	 0,165035937640747 
579	 0,166054929953618 
580	 0,166306192923623 
581	 0,167073077475033 
582	 0,168557629605158 
583	 0,170652177784624 
584	 0,171388330468598 
585	 0,17156162128202 
586	 0,173048916875151 
587	 0,174434498348584 
588	 0,175291468424303 
589	 0,17572125473608 
590	 0,176118898712561 
591	 0,176809023881524 
592	 0,176827415553736 
593	 0,176512183227144 
594	 0,177272549695747 
595	 0,178091601634462 
596	 0,178489225976992 
597	 0,178646934160058 
598	 0,178690215119789 
599	 0,178805310373124 
600	 0,178348792976087 
601	 0,177497512114185 
602	 0,1776292980676 
603	 0,17775727075631 
604	 0,177121618382404 
605	 0,176608526040954 
606	 0,176252255167245 
607	 0,175768653465244 
608	 0,175207103025608 
609	 0,174619549203442 
610	 0,174332960600415 
611	 0,173720915948085 
612	 0,172002023767981 
613	 0,171499992634587 
614	 0,172140671179401 
615	 0,171604229699638 
616	 0,171093594305668 
617	 0,171273334815525 
618	 0,170866420014282 
619	 0,170185439282877 
620	 0,170212649976693 
621	 0,170058146708619 
622	 0,16962140594234 
623	 0,169837418766572 
624	 0,170237964844393 
625	 0,170286414913114 
626	 0,170014594558054 
627	 0,169787471612608 
628	 0,170688212000673 
629	 0,171401894600054 
630	 0,171365197540476 
631	 0,171914928958982 
632	 0,17257716601604 
633	 0,172323564811338 
634	 0,172357223209667 
635	 0,173020446948568 
636	 0,174134480387492 
637	 0,175183619862355 
638	 0,175748494852178 
639	 0,176275680345759 
640	 0,177009172507723 
641	 0,178457837629296 
642	 0,179355373456654 
643	 0,17932044770638 
644	 0,179608291996784 
645	 0,180016499742297 
646	 0,180124901690895 
647	 0,180445649256153 
648	 0,180872093752992 
649	 0,18067456911139 
650	 0,180159032125705 
651	 0,179510948484454 
652	 0,178382906424898 
653	 0,177122293876074 
654	 0,176561103728405 
655	 0,175476139008823 
656	 0,173725442904511 
657	 0,172832837149184 
658	 0,17186934479281 
659	 0,169831433493455 
660	 0,168208683891041 
661	 0,16705668662429 
662	 0,165579213879979 
663	 0,163970895946928 
664	 0,162391232475552 
665	 0,161207187528758 
666	 0,16047120830316 
667	 0,160205451303741 
668	 0,159670349142553 
669	 0,158741900723996 
670	 0,157924632263614 
671	 0,157286674697892 
672	 0,156866380416682 
673	 0,156529344229554 
674	 0,156217773381589 
675	 0,15584841276953 
676	 0,155618578657923 
677	 0,155585426005342 
678	 0,155617583333734 
679	 0,155622648108549 
680	 0,15551299543232 
681	 0,155961701332715 
682	 0,156925426878115 
683	 0,15766682480522 
684	 0,158738094790709 
685	 0,160397991804065 
686	 0,161885272068353 
687	 0,163586632496211 
688	 0,166350794052449 
689	 0,169366973939569 
690	 0,172564189782734 
691	 0,176503636411059 
692	 0,181519910856115 
693	 0,187841716985101 
694	 0,194432903717063 
695	 0,201302511275458 
696	 0,209019633874354 
697	 0,217394132005142 
698	 0,226408428586219 
699	 0,236368625670528 
700	 0,246603976870649 
701	 0,256303796546558 
702	 0,2663709043856 
703	 0,276701987990906 
704	 0,286353465179041 
705	 0,295647844971258 
706	 0,304816650890614 
707	 0,313831750139891 
708	 0,322440461178189 
709	 0,330177406054806 
710	 0,337607062210876 
711	 0,344803836994726 
712	 0,351169389059283 
713	 0,357055688946896 
714	 0,362809084450648 
715	 0,368321829192679 
716	 0,373440842922608 
717	 0,377837780208165 
718	 0,381722663871202 
719	 0,385250102989187 
720	 0,388657843927605 
721	 0,391946256686411 
722	 0,395095313153062 
723	 0,397644850951255 
724	 0,399718733355396 
725	 0,402124417244168 
726	 0,404324313443566 
727	 0,406053243315561 
728	 0,408090292590845 
729	 0,410117729831198 
730	 0,411390655622736 
731	 0,412364595781945 
732	 0,413296080950718 
733	 0,414576836505243 
734	 0,415970918925979 
735	 0,417210627417763 
736	 0,417773365062463 
737	 0,418015325511517 
738	 0,419091162949934 
739	 0,419924024784526 
740	 0,420280228212866 
741	 0,421279183481639 
742	 0,422300723316341 
743	 0,422548928688603 
744	 0,423027811738652 
745	 0,423794557271454 
746	 0,424275991294564 
747	 0,424755597751192 
748	 0,425342235357633 
749	 0,425726385432739 
750	 0,425986642248338 
751	 0,42629080861955 
752	 0,426727466061346 
753	 0,427214190028081 
754	 0,427335149278893 
755	 0,42741393272796 
756	 0,42767631776228 
757	 0,427793526396307 
758	 0,427981074757635 
759	 0,42880445269621 
760	 0,42938680672653 
761	 0,429499085252265 
762	 0,429546031573437 
763	 0,429858448087852 
764	 0,43066638999008 
765	 0,430878567845426 
766	 0,430674066162117 
767	 0,431071508910548 
768	 0,431591375251541 
769	 0,432028549771967 
770	 0,43231211843198 
771	 0,432442492980399 
772	 0,432442864221664 
773	 0,432706916173244 
774	 0,433146836269423 
775	 0,433170834286964 
776	 0,433269785330355 
777	 0,433651136526795 
778	 0,433851052816535 
779	 0,434011324871147 
780	 0,434415753741183 
781	 0,434681193010547 
782	 0,434787343665812 
783	 0,435039664972882 
784	 0,435347875580032 
785	 0,435607354204357 
786	 0,435409089768787 
787	 0,435236511963686 
788	 0,436072730793594 
789	 0,436420469678228 
790	 0,436145936014452 
791	 0,436762192387247 
792	 0,437353146990164 
793	 0,437207277449971 
794	 0,43717578301588 
795	 0,437388322016782 
796	 0,437816882380376 
797	 0,43819671758774 
798	 0,438432025593496 
799	 0,438594105317168 
800	 0,438856419113761 
801	 0,439338061526268 
802	 0,439372746967903 
803	 0,439161146970044 
804	 0,439516344679401 
805	 0,440001559654834 
806	 0,440421740503485 
807	 0,440653260942955 
808	 0,44065635301356 
809	 0,440438834751764 
810	 0,440690219252199 
811	 0,441337935481695 
812	 0,441785158261691 
813	 0,441993958965308 
814	 0,442037764901714 
815	 0,442611881097419 
816	 0,443208237751895 
817	 0,443179579447699 
818	 0,443397255546409 
819	 0,443830253179951 
820	 0,44373351410615 
821	 0,443838495641353 
822	 0,444405736376898 
823	 0,44471366508439 
824	 0,444860726546379 
825	 0,445068052831723 
826	 0,445352460846403 
827	 0,445597128684246 
828	 0,445348000694291 
829	 0,445358777040952 
830	 0,445959119309018 
831	 0,446476575642747 
832	 0,446759624575124 
833	 0,446719786929129 
834	 0,447138786627674 
835	 0,447755252590121 
836	 0,446918324510345 
837	 0,446648704470631 
838	 0,447811483548745 
839	 0,448115923603019 
840	 0,447903455257495 
841	 0,448021485473134 
842	 0,448314534309767 
843	 0,448771713168461 
844	 0,449505242803518 
845	 0,449720956957508 
846	 0,449169057581692 
847	 0,449479478832202 
848	 0,450041605366237 
849	 0,449738929526185 
850	 0,449902077282816 
851	 0,450473398607367 
852	 0,450102742953174 
853	 0,449970626062609 
854	 0,45058337793082 
855	 0,450629317435078 
856	 0,45070624554161 
857	 0,451798534872324 
858	 0,452083397424033 
859	 0,451580209943737 
860	 0,451869172922984 
861	 0,452174822554884 
862	 0,452143162848478 
863	 0,452156609027071 
864	 0,452213944782798 
865	 0,452269782097154 
866	 0,452854647172266 
867	 0,453715320928205 
868	 0,453684576916901 
869	 0,4538148513566 
870	 0,454479039462436 
871	 0,454677702265478 
872	 0,454639596291213 
873	 0,454757578222339 
874	 0,455252627701311 
875	 0,455956223092506 
876	 0,456257340383315 
877	 0,456357478671276 
878	 0,456377253634969 
879	 0,456478756780395 
880	 0,456818410258826 
881	 0,457500629709062 
882	 0,45767417434135 
883	 0,45758574947097 
884	 0,458495408493486 
885	 0,458606232777329 
886	 0,457738909805438 
887	 0,458612876424593 
888	 0,459347218830974 
889	 0,458269776367318 
890	 0,459108517531848 
891	 0,460970854276672 
892	 0,460459126705672 
893	 0,459826991998487 
894	 0,459849114056735 
895	 0,460543722974741 
896	 0,461386110491229 
897	 0,461878919620803 
898	 0,461593132147612 
899	 0,461126891456226 
900	 0,46166114639435 
901	 0,46196081244731 
902	 0,461923562871722 
903	 0,462620002942699 
904	 0,462961391718657 
905	 0,462414994722163 
906	 0,462364662321457 
907	 0,462854733146239 
908	 0,463677627341725 
909	 0,464046600922373 
910	 0,463940553999819 
911	 0,46396682840469 
912	 0,464401945480071 
913	 0,465103390967869 
914	 0,464209630877585 
915	 0,463464080769873 
916	 0,464838819860853 
917	 0,465764108039331 
918	 0,465831242076812 
919	 0,465391671239506 
920	 0,465070636458894 
921	 0,465126363677344 
922	 0,465379953813296 
923	 0,465569368051318 
924	 0,465468434077039 
925	 0,465085158142265 
926	 0,4646109189388 
927	 0,464354536393553 
928	 0,464439433372822 
929	 0,4647872448457 
930	 0,464938550113499 
931	 0,465229953707319 
932	 0,465707494640619 
933	 0,465328190355687 
934	 0,46469132465654 
935	 0,464680729087024 
936	 0,464356776754561 
937	 0,463733968314257 
938	 0,463359780023389 
939	 0,463327760288802 
940	 0,463604082768716 
941	 0,46377703498578 
942	 0,463705120993831 
943	 0,463281931237473 
944	 0,462474200399773 
945	 0,461516528050536 
946	 0,460808907512385 
947	 0,460504112402723 
948	 0,460460014700998 
949	 0,460003729797761 
950	 0,459459430902914 
951	 0,458881445098876 
952	 0,457237406283882 
953	 0,455887630967378 
954	 0,456431835347414 
955	 0,455304331950169 
956	 0,453010964047471 
957	 0,452884416406732 
958	 0,452688412185643 
959	 0,451860703451626 
960	 0,451282181825949 
961	 0,451370294125699 
962	 0,452272467718863 
963	 0,452853069483708 
964	 0,452597577698151 
965	 0,451056045408821 
966	 0,450632427163109 
967	 0,45161976849554 
968	 0,453023913331178 
969	 0,453048826616874 
970	 0,451495882906317 
971	 0,452316900162057 
972	 0,452762632854609 
973	 0,450497660088774 
974	 0,450780173176525 
975	 0,452388633528633 
976	 0,451570343086901 
977	 0,451998845123902 
978	 0,453460178786742 
979	 0,451540939917716 
980	 0,451172936483013 
981	 0,454015688735227 
982	 0,454345520017774 
983	 0,453237813994729 
984	 0,452438955762191 
985	 0,453744499553089 
986	 0,456262714826678 
987	 0,457631082019228 
988	 0,457509754501799 
989	 0,456447500390269 
990	 0,456779630624355 
991	 0,458367687330181 
992	 0,46071268824229 
993	 0,461583553304816 
994	 0,461104251257756 
995	 0,459914985812053 
996	 0,461418580221637 
997	 0,464133870326678 
998	 0,463971843756193 
999	 0,463763770250314 
1000	 0,464476591961313 
1001	 0,466795907674173 
1002	 0,467761313810718 
1003	 0,46652212929195 
1004	 0,467920531861596 
1005	 0,469331658324503 
1006	 0,468206921513652 
1007	 0,469756203863124 
1008	 0,471446417441958 
1009	 0,467248807406546 
1010	 0,467258731132566 
1011	 0,472174974733196 
1012	 0,475598028151866 
1013	 0,475610887488964 
1014	 0,472259067708958 
1015	 0,471631688105093 
1016	 0,472495392571214 
1017	 0,473600821121932 
1018	 0,476405001086275 
1019	 0,479115261618776 
1020	 0,478878051862313 
1021	 0,478650115921397 
1022	 0,478523717838512 
1023	 0,47630388689042 
1024	 0,477047474997446 
1025	 0,480997355798549 
1026	 0,480769790537586 
1027	 0,480637570678599 
1028	 0,482965534064618 
1029	 0,483209412368587 
1030	 0,481081532003035 
1031	 0,477285472373471 
1032	 0,478226515477645 
1033	 0,482818311160852 
1034	 0,486300231012244 
1035	 0,486600866981122 
1036	 0,484681889394807 
1037	 0,486635870692367 
1038	 0,489755265318111 
1039	 0,49101360720148 
1040	 0,48129045372102 
1041	 0,476909073931562 
1042	 0,48884056546454 
1043	 0,490830868212873 
1044	 0,484889896841837 
1045	 0,479491035877902 
1046	 0,482998704475267 
1047	 0,491765498225425 
1048	 0,492707157575598 
1049	 0,490364766857116 
1050	 0,486455409638333 
1051	 0,482066461155325 
1052	 0,480595407140502 
1053	 0,483133772207637 
1054	 0,484245314636971 
1055	 0,485749623232491 
1056	 0,489838730357728 
1057	 0,500244202814648 
1058	 0,505235055879689 
1059	 0,489992288633263 
1060	 0,487810327733932 
1061	 0,494850861272139 
1062	 0,485007722515712 
1063	 0,486575355696614 
1064	 0,498762214306144 
1065	 0,487205308305247 
1066	 0,484123637344445 
1067	 0,499028519943767 
1068	 0,497591513186262 
1069	 0,491394222339693 
1070	 0,490751814335048 
1071	 0,495754074759929 
1072	 0,496007710835656 
1073	 0,481335832272625 
1074	 0,487371187447642 
1075	 0,496157247232186 
