Wavelength	AVEN00083.asd
325	-1,19870592122077E-02 
326	 2,22183069452564E-02 
327	-4,85555585085178E-02 
328	-0,243190941905647 
329	-0,121298941186226 
330	 2,32857441396992E-02 
331	-1,01700091112068E-02 
332	-2,26149945671858E-02 
333	-2,91781831582827E-02 
334	-0,158491763338112 
335	-0,146878214048037 
336	 2,32209048262284E-03 
337	-1,35002134527001E-02 
338	-9,29733674356131E-02 
339	-0,137782541588064 
340	-8,35932938257904E-02 
341	 1,09802385164085E-02 
342	 8,16344453448407E-03 
343	 2,33945802852182E-02 
344	 6,96243537119207E-02 
345	 0,08036176982034 
346	 5,66448206713048E-02 
347	 5,18648852220587E-03 
348	-1,03968989266028E-02 
349	 3,18667894942154E-03 
350	 6,18362683156338E-05 
351	-4,11383555980244E-03 
352	-3,69840399765444E-03 
353	-3,04308136990545E-03 
354	 6,77700642493533E-03 
355	 3,60581361610087E-02 
356	 4,36478191779026E-02 
357	 2,63657880537529E-02 
358	 1,35963707315332E-03 
359	-1,68884098320348E-04 
360	 2,95177297193133E-02 
361	 2,60639982198944E-02 
362	-9,31171673664102E-04 
363	-3,00413916297962E-02 
364	-0,029298956131004 
365	 5,53309349555293E-04 
366	 3,44363043639637E-02 
367	 5,07858700365387E-02 
368	 3,37619284530325E-02 
369	-5,49370606668264E-03 
370	-3,79250098788935E-02 
371	-1,19450691213392E-02 
372	 9,33814559749586E-04 
373	-1,04797191201241E-02 
374	 6,20531373500015E-04 
375	 1,80015619537543E-02 
376	 2,77754105034017E-02 
377	 3,13630958396859E-02 
378	 0,026368068880988 
379	 5,68065837461216E-03 
380	-6,34144808505654E-03 
381	-4,00867586430749E-03 
382	-2,27142816478605E-03 
383	-1,40098149375282E-03 
384	-1,13664923955449E-03 
385	-2,98976614123065E-03 
386	-7,19884006692143E-03 
387	-1,54665190336187E-02 
388	-1,60600946638584E-02 
389	-5,72495553855638E-03 
390	 6,8871121591209E-03 
391	 1,46454089202965E-02 
392	 1,12002462258773E-02 
393	 5,28140484455917E-03 
394	 1,28171327412867E-03 
395	 4,05290957229381E-03 
396	 9,41650996973992E-03 
397	 1,33320611219509E-02 
398	 4,86138102669119E-03 
399	-7,24237932409139E-03 
400	-9,00029656560921E-03 
401	 1,48894619988271E-03 
402	 1,77291130349505E-02 
403	 1,66040183298955E-02 
404	 1,01482791404625E-02 
405	 7,31172440113779E-03 
406	 6,83259394280557E-03 
407	 8,45116087121722E-03 
408	 1,19601842791217E-02 
409	 1,47821632594653E-02 
410	 1,48831072092989E-02 
411	 6,85739535821683E-03 
412	 2,20151841870364E-03 
413	 1,07838930061375E-02 
414	 0,01527236580885 
415	 1,31814663584865E-02 
416	 5,40419746972666E-03 
417	 5,23325176540326E-03 
418	 1,52949656772095E-02 
419	 1,59395067229887E-02 
420	 1,06946037979733E-02 
421	 6,18234900560976E-03 
422	 6,45656559626067E-03 
423	 9,99171152110169E-03 
424	 7,68338837446165E-03 
425	 6,38024303547092E-03 
426	 9,43770286097076E-03 
427	 8,01545539952343E-03 
428	 4,06459141268964E-03 
429	 2,85733888450664E-03 
430	 3,66308443373668E-03 
431	 5,95498602385227E-03 
432	 8,20945354628789E-03 
433	 9,12453853236046E-03 
434	 7,82147148709825E-03 
435	 6,68737411340314E-03 
436	 6,42194470656019E-03 
437	 7,70216576606604E-03 
438	 7,8188644635199E-03 
439	 6,02250108917573E-03 
440	 5,00756757865276E-03 
441	 5,46260901906288E-03 
442	 7,88001098405866E-03 
443	 8,53876273123585E-03 
444	 7,24202409638554E-03 
445	 6,46199971219387E-03 
446	 7,05046285249787E-03 
447	 9,06792049022659E-03 
448	 7,78223207431177E-03 
449	 5,63853554893491E-03 
450	 8,40077910983925E-03 
451	 1,09088295983498E-02 
452	 1,12556521537684E-02 
453	 8,53689176940877E-03 
454	 6,53399115802781E-03 
455	 8,5978040500307E-03 
456	 1,04883966808697E-02 
457	 1,14764126449163E-02 
458	 1,26119511736201E-02 
459	 1,04020998730431E-02 
460	 4,94860167102093E-03 
461	 6,20568606352651E-03 
462	 1,08405028616218E-02 
463	 1,32005602670639E-02 
464	 1,05256052900237E-02 
465	 5,32236412495964E-03 
466	 9,09739527805576E-03 
467	 1,36732722734644E-02 
468	 0,013671614872364 
469	 1,24458776197597E-02 
470	 0,011090605889147 
471	 1,07304899010494E-02 
472	 1,09653080507502E-02 
473	 1,10922841361224E-02 
474	 8,46887652463021E-03 
475	 5,61410176437297E-03 
476	 5,07784054388374E-03 
477	 5,05480074644459E-03 
478	 5,76274892414985E-03 
479	 9,27019637402665E-03 
480	 1,07374824624492E-02 
481	 8,55705024839364E-03 
482	 8,82061229291991E-03 
483	 9,94691106826481E-03 
484	 8,60530945378707E-03 
485	 7,53572446046189E-03 
486	 7,57783193114654E-03 
487	 9,09133908463821E-03 
488	 0,010160800748492 
489	 9,4715286869086E-03 
490	 9,58484649504844E-03 
491	 9,74064478696759E-03 
492	 6,85618056264415E-03 
493	 5,74450710446746E-03 
494	 7,58278148711134E-03 
495	 8,5734953258692E-03 
496	 8,97934010313349E-03 
497	 9,43525588151552E-03 
498	 9,37590856641848E-03 
499	 9,00091724565389E-03 
500	 9,43493930770238E-03 
501	 8,71599719269729E-03 
502	 6,34898834768291E-03 
503	 7,7063821788812E-03 
504	 1,07527658240743E-02 
505	 1,09743210246251E-02 
506	 9,95550077633538E-03 
507	 8,49219059510527E-03 
508	 7,90669127400849E-03 
509	 8,38545757255997E-03 
510	 9,89245592164496E-03 
511	 1,03518719989127E-02 
512	 9,79683643423359E-03 
513	 9,55468353328282E-03 
514	 8,72009497500791E-03 
515	 7,4784309373153E-03 
516	 9,35467794389338E-03 
517	 1,17279776278642E-02 
518	 0,01062578481046 
519	 8,94669170549525E-03 
520	 7,92868224263788E-03 
521	 9,05579578319218E-03 
522	 1,03828264658047E-02 
523	 1,04441573287966E-02 
524	 9,6817268932676E-03 
525	 8,86943615852827E-03 
526	 9,59281399445733E-03 
527	 1,02755468918496E-02 
528	 1,02825612508843E-02 
529	 9,4748227318007E-03 
530	 8,49038048254507E-03 
531	 8,05264055994247E-03 
532	 8,98467380484605E-03 
533	 1,06260403190022E-02 
534	 1,04664668508599E-02 
535	 9,88156426487819E-03 
536	 9,70238089293009E-03 
537	 9,61500562369525E-03 
538	 9,70057131257914E-03 
539	 1,02598396272314E-02 
540	 9,76633543368519E-03 
541	 8,41811333679176E-03 
542	 9,51372965727052E-03 
543	 1,08666817568951E-02 
544	 0,010248746297386 
545	 9,39585357786855E-03 
546	 8,89045327126179E-03 
547	 9,28717849208153E-03 
548	 9,79537108567441E-03 
549	 1,00706465986802E-02 
550	 1,08766613829629E-02 
551	 1,14307130226674E-02 
552	 1,03861888422619E-02 
553	 0,010021989427736 
554	 1,04553611434263E-02 
555	 9,1572223303523E-03 
556	 8,23843595389632E-03 
557	 9,36049011707203E-03 
558	 9,76133698598436E-03 
559	 9,46078911448925E-03 
560	 9,8753963483896E-03 
561	 1,00279606138991E-02 
562	 9,60421632695942E-03 
563	 9,07377789129226E-03 
564	 8,75147666233038E-03 
565	 8,96692535507585E-03 
566	 9,46294734464702E-03 
567	 9,85098503232943E-03 
568	 9,01269883765533E-03 
569	 8,5353269697252E-03 
570	 9,44326870524257E-03 
571	 0,010009201442112 
572	 1,04179369958568E-02 
573	 1,19075915798033E-02 
574	 1,19180049339407E-02 
575	 1,01957579000211E-02 
576	 1,05122640290852E-02 
577	 1,15775440168156E-02 
578	 1,16487301646534E-02 
579	 1,19592139840345E-02 
580	 1,24701592037909E-02 
581	 1,22775394204728E-02 
582	 1,20593791683411E-02 
583	 1,21827389414436E-02 
584	 1,21808488330236E-02 
585	 1,22458390535558E-02 
586	 1,28095490059721E-02 
587	 1,35091910769397E-02 
588	 1,39984117313601E-02 
589	 1,33862358238295E-02 
590	 1,26784582622233E-02 
591	 1,28273777448115E-02 
592	 1,29695668312109E-02 
593	 1,31158410163152E-02 
594	 1,38546590185761E-02 
595	 1,41567583161398E-02 
596	 1,37237801954492E-02 
597	 1,42670118735093E-02 
598	 1,46727150294893E-02 
599	 1,29859405830359E-02 
600	 1,22930880137005E-02 
601	 0,013110842249542 
602	 1,38197393375292E-02 
603	 1,40890170035461E-02 
604	 1,37037522038034E-02 
605	 1,31411914584751E-02 
606	 1,27163784695212E-02 
607	 1,30093962037258E-02 
608	 1,28597643515332E-02 
609	 1,20376844970798E-02 
610	 1,20079207080137E-02 
611	 1,23147107254742E-02 
612	 1,22457818311601E-02 
613	 1,21110999943351E-02 
614	 1,19610972354947E-02 
615	 1,17990886300959E-02 
616	 1,14033546646101E-02 
617	 1,07703741531603E-02 
618	 1,11068167695941E-02 
619	 1,20769229440093E-02 
620	 1,28002694773485E-02 
621	 1,26560386679765E-02 
622	 1,16875997493057E-02 
623	 1,12818492368572E-02 
624	 1,15196907707999E-02 
625	 1,23314278637618E-02 
626	 1,23430391104029E-02 
627	 1,16681210988924E-02 
628	 1,15419882481171E-02 
629	 1,17273499372559E-02 
630	 1,21121970342369E-02 
631	 1,27230830852549E-02 
632	 0,012957767381412 
633	 1,18132358130755E-02 
634	 1,16889832229753E-02 
635	 1,28355222734604E-02 
636	 0,013100723960857 
637	 1,29097077796377E-02 
638	 1,27385798309876E-02 
639	 1,32722567794386E-02 
640	 0,014269135349014 
641	 1,48407677904096E-02 
642	 1,50844092202179E-02 
643	 1,50220093478564E-02 
644	 1,48119416637538E-02 
645	 1,44894060995753E-02 
646	 1,40618783232452E-02 
647	 1,43589602340801E-02 
648	 0,015231670749113 
649	 1,55443480297275E-02 
650	 1,51709931291745E-02 
651	 1,41590007067458E-02 
652	 0,013705355065176 
653	 1,38796401486499E-02 
654	 1,44998403740401E-02 
655	 1,44131679772185E-02 
656	 1,34905677077168E-02 
657	 1,33732399588926E-02 
658	 1,35026205149171E-02 
659	 0,013198822380053 
660	 1,26899376029149E-02 
661	 1,21203142302765E-02 
662	 1,17198294465413E-02 
663	 1,16125016915358E-02 
664	 1,17638904153284E-02 
665	 1,13864119551854E-02 
666	 1,09253349528887E-02 
667	 1,12190894629634E-02 
668	 1,14361415961911E-02 
669	 1,14046427693017E-02 
670	 1,15040243686049E-02 
671	 1,13860275089159E-02 
672	 1,08358002635566E-02 
673	 1,07884191935909E-02 
674	 1,11148633848284E-02 
675	 1,10543032321539E-02 
676	 1,12660035268029E-02 
677	 1,18091427347405E-02 
678	 1,16681382453359E-02 
679	 1,14268962096759E-02 
680	 1,18625905437135E-02 
681	 1,22803851870667E-02 
682	 1,24302354981625E-02 
683	 1,19977717857135E-02 
684	 1,18996955623992E-02 
685	 1,25820372595746E-02 
686	 1,27770591627234E-02 
687	 1,28290505787359E-02 
688	 1,36972337963053E-02 
689	 1,41167364057429E-02 
690	 1,39918392127543E-02 
691	 1,45648486680301E-02 
692	 1,57039114408015E-02 
693	 1,71975016170401E-02 
694	 1,83532050625126E-02 
695	 1,93856654511592E-02 
696	 2,11712932899261E-02 
697	 2,33377582804073E-02 
698	 2,58149460653682E-02 
699	 2,90786440693302E-02 
700	 3,23945008841103E-02 
701	 3,48151118132162E-02 
702	 3,77185395848412E-02 
703	 4,12510695948874E-02 
704	 4,46596563326621E-02 
705	 4,81961971906671E-02 
706	 5,19967611265811E-02 
707	 5,58163933051601E-02 
708	 5,94823781640457E-02 
709	 6,27466298028429E-02 
710	 6,60627902538607E-02 
711	 6,94763015261931E-02 
712	 7,24779127539352E-02 
713	 7,52350157629922E-02 
714	 7,79421393200035E-02 
715	 8,09110877339042E-02 
716	 8,38349259039042E-02 
717	 8,57286977849944E-02 
718	 0,087632535562209 
719	 0,089892593589191 
720	 9,16859771364038E-02 
721	 9,32927957072368E-02 
722	 9,51683858486457E-02 
723	 9,66697126727128E-02 
724	 9,78016516663585E-02 
725	 9,91319461284874E-02 
726	 0,100322861250899 
727	 0,101198477234717 
728	 0,102129212978944 
729	 0,103092754801454 
730	 0,103961486309556 
731	 0,10465413031531 
732	 0,105186564420757 
733	 0,105738637510061 
734	 0,10634774815009 
735	 0,107027607704452 
736	 0,107612988860468 
737	 0,10812198356724 
738	 0,108736965617442 
739	 0,109068394104812 
740	 0,109047912041083 
741	 0,109153410057119 
742	 0,109475481961909 
743	 0,110057753013397 
744	 0,110652252323958 
745	 0,111063362591597 
746	 0,110872728843335 
747	 0,110951710962995 
748	 0,111642651362689 
749	 0,111717544272069 
750	 0,11146348452662 
751	 0,111529020642988 
752	 0,111960359785934 
753	 0,112577160210545 
754	 0,112621709712134 
755	 0,112576711502358 
756	 0,11277901862474 
757	 0,112804986714619 
758	 0,112768130658022 
759	 0,113020264871954 
760	 0,11328369561599 
761	 0,113438209934712 
762	 0,113371475748798 
763	 0,113363273005853 
764	 0,11366831833774 
765	 0,114002032464427 
766	 0,114234209452693 
767	 0,11419243223302 
768	 0,114095970851527 
769	 0,11409129178057 
770	 0,114395514441152 
771	 0,114778032154398 
772	 0,114946601916907 
773	 0,114934889970723 
774	 0,114883082678034 
775	 0,115281256030836 
776	 0,115238021664772 
777	 0,114482104551465 
778	 0,114542764870491 
779	 0,115157638613217 
780	 0,11568738661756 
781	 0,115840268720683 
782	 0,115675037657209 
783	 0,115840921867744 
784	 0,115883746162428 
785	 0,115587466464695 
786	 0,115766966016096 
787	 0,116211164810074 
788	 0,1163495410683 
789	 0,116359647802212 
790	 0,116348514273095 
791	 0,116625083115967 
792	 0,116700054861698 
793	 0,116259625409508 
794	 0,116364360223849 
795	 0,116845638374458 
796	 0,11697198385492 
797	 0,116916275350244 
798	 0,11684558617731 
799	 0,117377739920179 
800	 0,117818991268888 
801	 0,117542703098013 
802	 0,11755522723346 
803	 0,117850792748183 
804	 0,117906772677148 
805	 0,117986393706846 
806	 0,118169100556656 
807	 0,118416792346079 
808	 0,118571256449462 
809	 0,118484804873589 
810	 0,118566448994404 
811	 0,118766737458532 
812	 0,118655114178625 
813	 0,118730024226579 
814	 0,11914874452527 
815	 0,119497031422768 
816	 0,119702833293048 
817	 0,119737197494122 
818	 0,119833917025654 
819	 0,120040499006004 
820	 0,120291891204348 
821	 0,12062589843645 
822	 0,121005618401057 
823	 0,121139816685091 
824	 0,121149843183421 
825	 0,121229852180075 
826	 0,121144208926674 
827	 0,121056438509205 
828	 0,12170900321777 
829	 0,121937292970473 
830	 0,12133406159721 
831	 0,121623871759362 
832	 0,122204953297241 
833	 0,122015459171231 
834	 0,121920727964656 
835	 0,121997022991631 
836	 0,121672309618856 
837	 0,121963395546037 
838	 0,123156259047485 
839	 0,123169334812971 
840	 0,122596777858324 
841	 0,122608803277606 
842	 0,122811979077998 
843	 0,123095716702811 
844	 0,123421585537719 
845	 0,123340486732827 
846	 0,122770588196501 
847	 0,122993431885615 
848	 0,123571260580915 
849	 0,123681896765147 
850	 0,123547039962619 
851	 0,123374151492418 
852	 0,123720767086518 
853	 0,123921190844245 
854	 0,123688835938919 
855	 0,12372482351823 
856	 0,123972621505389 
857	 0,124245377582448 
858	 0,12406569418591 
859	 0,123673972686376 
860	 0,124289403435197 
861	 0,124681160339741 
862	 0,124311488863555 
863	 0,124206548761541 
864	 0,124306928258796 
865	 0,124393615919787 
866	 0,124675681667899 
867	 0,125119468668521 
868	 0,125583269623233 
869	 0,125598646433976 
870	 0,125135635406949 
871	 0,125519443595889 
872	 0,126183752008614 
873	 0,126307079292662 
874	 0,126333149393931 
875	 0,126402483936216 
876	 0,126673881471363 
877	 0,126808154913553 
878	 0,126768488422418 
879	 0,127225313390826 
880	 0,127761618943614 
881	 0,127895805770825 
882	 0,128177747539947 
883	 0,128538698455838 
884	 0,128448761486777 
885	 0,128739877374682 
886	 0,129495380360895 
887	 0,129572195523237 
888	 0,12912932101554 
889	 0,128509255890579 
890	 0,129233987595933 
891	 0,130642472428828 
892	 0,130664628133548 
893	 0,130785196771892 
894	 0,1311988415546 
895	 0,130638945710714 
896	 0,130131506561567 
897	 0,130412268908215 
898	 0,130048334628476 
899	 0,129606178413954 
900	 0,130490918532869 
901	 0,130806972938561 
902	 0,130431747393387 
903	 0,13110173062972 
904	 0,13175734744504 
905	 0,131722340202349 
906	 0,13125970224402 
907	 0,130901932289609 
908	 0,131331841196606 
909	 0,131691572582737 
910	 0,131817097852101 
911	 0,131932533649395 
912	 0,131969958590838 
913	 0,13200382484987 
914	 0,132579300108865 
915	 0,133325994246379 
916	 0,133747306737734 
917	 0,133068394228286 
918	 0,132055236343521 
919	 0,133123807350188 
920	 0,133664782247205 
921	 0,132881657219296 
922	 0,13156223863688 
923	 0,130981528152387 
924	 0,131975009224487 
925	 0,132063089207609 
926	 0,131518377942351 
927	 0,131584026611523 
928	 0,13168138950293 
929	 0,131830399605642 
930	 0,132763182075378 
931	 0,132969649331424 
932	 0,131798435816974 
933	 0,131341611390763 
934	 0,131503584168014 
935	 0,131816690674656 
936	 0,131726928090545 
937	 0,131162742886451 
938	 0,130325217277225 
939	 0,129609131220367 
940	 0,129493362855704 
941	 0,131420080728426 
942	 0,132754807000526 
943	 0,131279010569556 
944	 0,129630597265831 
945	 0,128533644669677 
946	 0,128408439959078 
947	 0,128925131251605 
948	 0,129364123578003 
949	 0,127508715723858 
950	 0,126503071283772 
951	 0,127797549491172 
952	 0,12813850713982 
953	 0,12738451589307 
954	 0,12583950989719 
955	 0,124077562764604 
956	 0,122898379753478 
957	 0,124070853871548 
958	 0,123675022525097 
959	 0,121201268906634 
960	 0,121061737530082 
961	 0,122106458476875 
962	 0,123226084550045 
963	 0,124232347536114 
964	 0,12407678662948 
965	 0,121374387264151 
966	 0,120541705925446 
967	 0,121929201938007 
968	 0,122994010293178 
969	 0,12267446991877 
970	 0,12120422440331 
971	 0,123166396732929 
972	 0,124677540022005 
973	 0,122307588956636 
974	 0,121422836391955 
975	 0,121916165787232 
976	 0,121966500902199 
977	 0,121540026884387 
978	 0,120843888998375 
979	 0,120728176382681 
980	 0,121194583934423 
981	 0,121998607659786 
982	 0,121844992366564 
983	 0,121103627377147 
984	 0,120448777200733 
985	 0,121949069621133 
986	 0,12456072996499 
987	 0,125677639998275 
988	 0,124072369032479 
989	 0,121147530034238 
990	 0,12334152343943 
991	 0,125603146187155 
992	 0,125504886153887 
993	 0,125934981104578 
994	 0,12625995237326 
995	 0,125846646696979 
996	 0,128292214464868 
997	 0,130716144048205 
998	 0,126315718035795 
999	 0,125288756886911 
1000	 0,128704551317618 
1001	 0,129139667328749 
1002	 0,12882498943177 
1003	 0,128725771193194 
1004	 0,128130706886242 
1005	 0,127165054405591 
1006	 0,126288735110872 
1007	 0,128795957493899 
1008	 0,132411434903414 
1009	 0,132131819667681 
1010	 0,131862562842684 
1011	 0,132953158019119 
1012	 0,136589290396898 
1013	 0,138342994807643 
1014	 0,136675184646375 
1015	 0,135006990906073 
1016	 0,1356829220639 
1017	 0,139690416938436 
1018	 0,13910142147438 
1019	 0,136934888948779 
1020	 0,139383242204279 
1021	 0,138691837767776 
1022	 0,134920980766539 
1023	 0,132743740009087 
1024	 0,13483270970031 
1025	 0,140438064335169 
1026	 0,141551982637184 
1027	 0,140351225930003 
1028	 0,138723231122183 
1029	 0,137976820371775 
1030	 0,13767066600761 
1031	 0,137168779743573 
1032	 0,138420884713636 
1033	 0,140846726365434 
1034	 0,142677525705024 
1035	 0,143652592545803 
1036	 0,142785000656494 
1037	 0,136641828676416 
1038	 0,135041498047891 
1039	 0,141015045162199 
1040	 0,143599838003233 
1041	 0,14634598260402 
1042	 0,151144443160674 
1043	 0,146208037284331 
1044	 0,138118740949473 
1045	 0,138328502671035 
1046	 0,142147501520259 
1047	 0,145655879712967 
1048	 0,141618925433991 
1049	 0,145369109870883 
1050	 0,154879302991112 
1051	 0,143581443050461 
1052	 0,135812260844133 
1053	 0,143128917090449 
1054	 0,154986585967098 
1055	 0,157315968524788 
1056	 0,142390232915641 
1057	 0,147540077681757 
1058	 0,157378687509039 
1059	 0,1441671495777 
1060	 0,141762039123573 
1061	 0,148619499985878 
1062	 0,144735204927963 
1063	 0,147070777330947 
1064	 0,153502899191347 
1065	 0,137836396945129 
1066	 0,129006351985983 
1067	 0,140912136087255 
1068	 0,166025179571375 
1069	 0,178941460918395 
1070	 0,163539430267575 
1071	 0,151818014892603 
1072	 0,143897565191542 
1073	 0,136123769698745 
1074	 0,137567104340839 
1075	 0,142793252607774 
