Wavelength	AVEN00398.asd
325	 0,181267648653871 
326	 0,25184129246852 
327	 0,283030802349377 
328	 0,272034176396083 
329	 0,281925251121576 
330	 0,275914533138287 
331	 0,229935320444146 
332	 0,21924423518049 
333	 0,226050304035379 
334	 0,170541630287015 
335	 0,16938195206693 
336	 0,235198082208766 
337	 0,304826531724073 
338	 0,290238369295257 
339	 0,120905505059167 
340	 0,110546384801747 
341	 0,209658485861194 
342	 0,198835428417835 
343	 0,183554647841887 
344	 0,187594039444352 
345	 0,19370116824558 
346	 0,191124272164896 
347	 0,170970068409634 
348	 0,190648218415813 
349	 0,227543528386167 
350	 0,197470090065869 
351	 0,180691391996377 
352	 0,20282901613849 
353	 0,212599123845216 
354	 0,209504760566298 
355	 0,196738164135489 
356	 0,204302027457168 
357	 0,229014813389506 
358	 0,245660858196801 
359	 0,235789520741699 
360	 0,197473183590933 
361	 0,198002516110812 
362	 0,215653393570938 
363	 0,209523510084734 
364	 0,208485800484826 
365	 0,21624153009042 
366	 0,224929870656712 
367	 0,228339293605439 
368	 0,222967631609869 
369	 0,219560186788976 
370	 0,220224020995445 
371	 0,226124504544678 
372	 0,233011944680942 
373	 0,238285532983454 
374	 0,239173305547885 
375	 0,237385066535815 
376	 0,234543584933983 
377	 0,230622509606762 
378	 0,227808214537314 
379	 0,231804287327854 
380	 0,231577946387868 
381	 0,227734821810466 
382	 0,241841130044167 
383	 0,249048181547533 
384	 0,225705631998865 
385	 0,222592149390863 
386	 0,236724304650133 
387	 0,234811690971596 
388	 0,233105116789505 
389	 0,237526426720117 
390	 0,248426368328832 
391	 0,253174268833867 
392	 0,23830310498759 
393	 0,229119164835065 
394	 0,229257643733507 
395	 0,228502881386271 
396	 0,231886617248916 
397	 0,239825630641493 
398	 0,237848239441386 
399	 0,232916996535674 
400	 0,237762866496719 
401	 0,241599813575954 
402	 0,241596179268256 
403	 0,237067631302895 
404	 0,23486978942316 
405	 0,238741703589297 
406	 0,236686100798363 
407	 0,231253067249101 
408	 0,230058221348614 
409	 0,232530098739823 
410	 0,236332391286207 
411	 0,230416105670852 
412	 0,226083218539873 
413	 0,233577728275156 
414	 0,23886756724122 
415	 0,239275822485601 
416	 0,234297830433186 
417	 0,23292665826914 
418	 0,238085724649596 
419	 0,243459532035741 
420	 0,244264488591979 
421	 0,235514254930744 
422	 0,234367619658853 
423	 0,240326442123301 
424	 0,237479172247282 
425	 0,234064231785986 
426	 0,234989255624506 
427	 0,236714862340269 
428	 0,237748050165557 
429	 0,236479179452407 
430	 0,23272586051326 
431	 0,228859517157952 
432	 0,235165604189795 
433	 0,241284521978006 
434	 0,238397149629859 
435	 0,238342900225867 
436	 0,24096145441832 
437	 0,240299935342395 
438	 0,239199458294642 
439	 0,238801445400261 
440	 0,238764122256668 
441	 0,239722448975242 
442	 0,242446817316447 
443	 0,244026500570808 
444	 0,24341275502008 
445	 0,239573496292616 
446	 0,236793904764408 
447	 0,237833717957526 
448	 0,241150499606214 
449	 0,244254268660882 
450	 0,243138248954427 
451	 0,241659301577082 
452	 0,241346747217217 
453	 0,242941217124706 
454	 0,24489828296494 
455	 0,245676065088586 
456	 0,244610923566781 
457	 0,242962370733422 
458	 0,244445205731167 
459	 0,24519114624244 
460	 0,244241370097045 
461	 0,246674058532565 
462	 0,249460472278507 
463	 0,248066170644394 
464	 0,245656905588389 
465	 0,244281286088851 
466	 0,248145168499151 
467	 0,250930865096166 
468	 0,248982113890549 
469	 0,249836677416889 
470	 0,251440198886396 
471	 0,247263656682135 
472	 0,245555208329714 
473	 0,247862478383662 
474	 0,247647151892105 
475	 0,247215030582583 
476	 0,249053232950717 
477	 0,25015571752164 
478	 0,250246911747747 
479	 0,250434449195236 
480	 0,250091705171804 
481	 0,248971997888832 
482	 0,247154390016047 
483	 0,245833829422375 
484	 0,246670846672676 
485	 0,247344501838254 
486	 0,247317951421452 
487	 0,247165947991594 
488	 0,247379879932169 
489	 0,248320199495523 
490	 0,249952613208015 
491	 0,251174183580778 
492	 0,249395608111705 
493	 0,248826211374093 
494	 0,250189324769736 
495	 0,248389210325957 
496	 0,246525994610641 
497	 0,248401496856239 
498	 0,249437540601562 
499	 0,249227637624829 
500	 0,250004263903356 
501	 0,250356740052743 
502	 0,249648664201817 
503	 0,249350995352627 
504	 0,249708143985355 
505	 0,250943616023989 
506	 0,250523179859853 
507	 0,248665196420197 
508	 0,249713926017451 
509	 0,252008045428469 
510	 0,253769003493827 
511	 0,253497473056856 
512	 0,252351548035694 
513	 0,254390677759359 
514	 0,255145731456515 
515	 0,253357725374267 
516	 0,254399151361307 
517	 0,256099967322226 
518	 0,254745133565349 
519	 0,254508708791219 
520	 0,255725582818719 
521	 0,255544221507286 
522	 0,255229032743624 
523	 0,255630031357339 
524	 0,25520952363839 
525	 0,254545816996098 
526	 0,255499472577256 
527	 0,256317795955401 
528	 0,256315706081603 
529	 0,255396941810792 
530	 0,25440829085136 
531	 0,254292239647996 
532	 0,255228932484431 
533	 0,256622095613455 
534	 0,256662876710781 
535	 0,256189834735504 
536	 0,255843044869659 
537	 0,25657166445895 
538	 0,257659043635086 
539	 0,257590694687531 
540	 0,257152382915841 
541	 0,256663730012439 
542	 0,25643781864473 
543	 0,256319414778262 
544	 0,256148807780611 
545	 0,256275480595453 
546	 0,256666870349463 
547	 0,257060487914228 
548	 0,257442915576636 
549	 0,257821189719112 
550	 0,258488219721493 
551	 0,258951776722059 
552	 0,258357579025694 
553	 0,258801159486096 
554	 0,260119625644285 
555	 0,259090675934869 
556	 0,257877487993269 
557	 0,25830226441806 
558	 0,258877879431256 
559	 0,25914416849381 
560	 0,258623368048663 
561	 0,258085854304898 
562	 0,257875253651116 
563	 0,257898067656234 
564	 0,257869848761312 
565	 0,257428645306048 
566	 0,257342718565897 
567	 0,257702405967019 
568	 0,258073109713503 
569	 0,258424671564983 
570	 0,258750286225495 
571	 0,259151888559017 
572	 0,25995124513931 
573	 0,261928333631757 
574	 0,263219010325908 
575	 0,26332474790896 
576	 0,263529903001237 
577	 0,264314942363505 
578	 0,266068472609119 
579	 0,267375751060387 
580	 0,268003736097499 
581	 0,268360409046289 
582	 0,26903684440062 
583	 0,270250450685902 
584	 0,270606372693471 
585	 0,270739118713005 
586	 0,272141590643308 
587	 0,272866208240836 
588	 0,272653016151287 
589	 0,273114937866772 
590	 0,273887060128802 
591	 0,274550702540727 
592	 0,274994499599125 
593	 0,275402619232373 
594	 0,276455347534251 
595	 0,277111751821573 
596	 0,276965425947407 
597	 0,276939959384021 
598	 0,276870056089041 
599	 0,276341819703802 
600	 0,275991460024972 
601	 0,275962439809297 
602	 0,276018391052291 
603	 0,276082855795476 
604	 0,276076668836952 
605	 0,275835340115244 
606	 0,27543240215377 
607	 0,275117803883062 
608	 0,27472926719035 
609	 0,274270910674008 
610	 0,274091160632836 
611	 0,273885537201043 
612	 0,273252309810733 
613	 0,272745162727686 
614	 0,272411319548963 
615	 0,271859317513477 
616	 0,271539791855928 
617	 0,271703271631427 
618	 0,271864295160151 
619	 0,271897572513062 
620	 0,271739374180845 
621	 0,271412747903586 
622	 0,271032806354324 
623	 0,270981132814361 
624	 0,27127554325544 
625	 0,271863632486425 
626	 0,271633871723175 
627	 0,270925765352652 
628	 0,271434962765516 
629	 0,27211323180548 
630	 0,272464370163873 
631	 0,273048313417237 
632	 0,27355676388046 
633	 0,273376180344973 
634	 0,273775702342945 
635	 0,274860436347993 
636	 0,275432588827898 
637	 0,27571299677995 
638	 0,275965925136354 
639	 0,2768164143709 
640	 0,277878788395336 
641	 0,277820609954856 
642	 0,278009104052883 
643	 0,278864793975636 
644	 0,279346087876006 
645	 0,279609459474533 
646	 0,279981903617554 
647	 0,280246377990951 
648	 0,280281389056364 
649	 0,279919446081186 
650	 0,279215905259792 
651	 0,278290596895995 
652	 0,277754397213687 
653	 0,277516772940618 
654	 0,277255821802719 
655	 0,276529967508968 
656	 0,27523478498571 
657	 0,273746596459258 
658	 0,272530050162769 
659	 0,271993285355913 
660	 0,271149342305739 
661	 0,269903679159391 
662	 0,268610442013024 
663	 0,267569508224509 
664	 0,266844577804037 
665	 0,265511210615029 
666	 0,264185659740075 
667	 0,263990852197015 
668	 0,263607527722568 
669	 0,262865365085193 
670	 0,262689871228752 
671	 0,262609945308329 
672	 0,262245051271457 
673	 0,261934066906666 
674	 0,261759125326646 
675	 0,261793177321035 
676	 0,261800066765282 
677	 0,261706736332624 
678	 0,261667658913955 
679	 0,261743555982051 
680	 0,261986500194539 
681	 0,262120792023646 
682	 0,262235981541215 
683	 0,26269397476062 
684	 0,26386842300191 
685	 0,265780197278977 
686	 0,266610063027534 
687	 0,267237667327922 
688	 0,269659775220484 
689	 0,272180359670118 
690	 0,274448542928557 
691	 0,27707113565683 
692	 0,280617682328271 
693	 0,285488996725989 
694	 0,289964283873278 
695	 0,29439351799586 
696	 0,300612466068887 
697	 0,307019659287491 
698	 0,313143478482734 
699	 0,320388526503018 
700	 0,328047946825966 
701	 0,335113165811338 
702	 0,342427461339547 
703	 0,349967743201574 
704	 0,357113697285421 
705	 0,363893286028476 
706	 0,370381391501439 
707	 0,376948345324891 
708	 0,383373988319777 
709	 0,389179242600024 
710	 0,394395367023277 
711	 0,399174972927684 
712	 0,404146188307758 
713	 0,408777147443659 
714	 0,412585202295111 
715	 0,416382618622235 
716	 0,420055279219201 
717	 0,422768145777059 
718	 0,425743602821413 
719	 0,429342928988658 
720	 0,432403826462061 
721	 0,434727874263999 
722	 0,436240569136607 
723	 0,437985127850732 
724	 0,440063138652922 
725	 0,441779210773194 
726	 0,443348727534148 
727	 0,444877930207984 
728	 0,446162351637923 
729	 0,447322929372216 
730	 0,448628865911659 
731	 0,449661736311182 
732	 0,450372936038541 
733	 0,451107973079312 
734	 0,451919885820813 
735	 0,452831904918167 
736	 0,453702522274503 
737	 0,45448073227485 
738	 0,455143709271707 
739	 0,455648145978858 
740	 0,456042543533241 
741	 0,456675899423306 
742	 0,457331497873814 
743	 0,457727729788432 
744	 0,457988431418553 
745	 0,458268843997333 
746	 0,458968705715532 
747	 0,459547781940379 
748	 0,459722642256219 
749	 0,459733022182936 
750	 0,459829914333328 
751	 0,460342244461475 
752	 0,46086293953164 
753	 0,461222830200781 
754	 0,461316081742765 
755	 0,461279732027176 
756	 0,461247586366387 
757	 0,461381250167745 
758	 0,46174895210101 
759	 0,462444223710078 
760	 0,463071584903532 
761	 0,46339923637706 
762	 0,463087187389082 
763	 0,462960271783086 
764	 0,463746285579502 
765	 0,464180785829394 
766	 0,46425680909468 
767	 0,464619199650652 
768	 0,465037642688932 
769	 0,46538297009319 
770	 0,465427013151486 
771	 0,465321070824334 
772	 0,465275681143253 
773	 0,465708952585025 
774	 0,466417559149826 
775	 0,466542323532732 
776	 0,466315833931212 
777	 0,465943573325104 
778	 0,465911781218504 
779	 0,466295410560198 
780	 0,467107679375345 
781	 0,467490750055009 
782	 0,467373633330801 
783	 0,467448161234516 
784	 0,46768839299695 
785	 0,468041625552414 
786	 0,468186860912776 
787	 0,468151347259554 
788	 0,468051997261584 
789	 0,468258983000715 
790	 0,468726941032284 
791	 0,46873372544732 
792	 0,468682199618207 
793	 0,468877992387304 
794	 0,468751099709722 
795	 0,468618175240651 
796	 0,469362944999398 
797	 0,470000101588745 
798	 0,47017997003845 
799	 0,470022993852363 
800	 0,469854461006237 
801	 0,469974884433937 
802	 0,470205837995667 
803	 0,470499530582525 
804	 0,470862361092706 
805	 0,471021321706945 
806	 0,470936741198153 
807	 0,471017009717001 
808	 0,471229744190363 
809	 0,471499991024194 
810	 0,471735703993466 
811	 0,471895965873158 
812	 0,471910227155993 
813	 0,472107403317864 
814	 0,472549984388162 
815	 0,47267537368566 
816	 0,47267002813805 
817	 0,472816489588054 
818	 0,473189694677541 
819	 0,473642614556176 
820	 0,473683914978184 
821	 0,473682599240828 
822	 0,473829995754457 
823	 0,474149436519817 
824	 0,474374980050914 
825	 0,474177519022163 
826	 0,474520824327253 
827	 0,475308079292442 
828	 0,475501421891308 
829	 0,475470838020175 
830	 0,475459006520644 
831	 0,475774368864948 
832	 0,47618736556987 
833	 0,476336454117634 
834	 0,476660727876403 
835	 0,476974327312011 
836	 0,476253547380636 
837	 0,475932030900264 
838	 0,476648319010423 
839	 0,47691590997346 
840	 0,476772943376909 
841	 0,47652150119893 
842	 0,476609842772244 
843	 0,476963205197083 
844	 0,476852868881198 
845	 0,476826886431998 
846	 0,477148887219575 
847	 0,477415545644079 
848	 0,477606682645568 
849	 0,477761849537702 
850	 0,477905678389733 
851	 0,477955664804991 
852	 0,477588683863096 
853	 0,47734184340525 
854	 0,477501137091879 
855	 0,477767362612393 
856	 0,478068900109866 
857	 0,478356638332662 
858	 0,478397063443993 
859	 0,478243752840271 
860	 0,478319993399779 
861	 0,478088368053621 
862	 0,477460384367456 
863	 0,477735345846267 
864	 0,478316489914598 
865	 0,478265619912894 
866	 0,478764901656543 
867	 0,479736324626137 
868	 0,480135292149669 
869	 0,480429818032913 
870	 0,480808377506348 
871	 0,481090035916701 
872	 0,481218306457396 
873	 0,481149275914211 
874	 0,480927725037722 
875	 0,480774327678661 
876	 0,481270852784434 
877	 0,481632297853405 
878	 0,481599267658481 
879	 0,481802730555134 
880	 0,482126252235463 
881	 0,482392503160773 
882	 0,482603503537728 
883	 0,482846184673055 
884	 0,483410759601151 
885	 0,483731774429013 
886	 0,483604251967447 
887	 0,483184457841553 
888	 0,482862677511585 
889	 0,48300728457873 
890	 0,483671963484658 
891	 0,484350309225469 
892	 0,483946884794294 
893	 0,483639119747664 
894	 0,48362334173273 
895	 0,482849159680204 
896	 0,482347222196228 
897	 0,48289163247342 
898	 0,483535332825704 
899	 0,484113092911928 
900	 0,484612595945832 
901	 0,485087271860186 
902	 0,485520047112856 
903	 0,485882361958221 
904	 0,48582940705388 
905	 0,485228220159333 
906	 0,484685653242394 
907	 0,484501069708733 
908	 0,484944960548815 
909	 0,485764559736046 
910	 0,48652294154519 
911	 0,486116491183026 
912	 0,486054529216464 
913	 0,486736308617693 
914	 0,485687981551219 
915	 0,485141194729183 
916	 0,487542160350244 
917	 0,488152753369405 
918	 0,487071034506114 
919	 0,487088766599275 
920	 0,48733793665153 
921	 0,487452057104591 
922	 0,486801061763629 
923	 0,486169307430681 
924	 0,486189100382136 
925	 0,486027068762794 
926	 0,485792616787876 
927	 0,485940717565857 
928	 0,485510837077661 
929	 0,484753019854334 
930	 0,485574940310838 
931	 0,486547211938994 
932	 0,486727363045429 
933	 0,486060981377275 
934	 0,485220648559622 
935	 0,485074822973404 
936	 0,485878218527567 
937	 0,486790894612975 
938	 0,485188950557996 
939	 0,484380830796825 
940	 0,485218232509892 
941	 0,485010729858923 
942	 0,48421430231704 
943	 0,483409232937744 
944	 0,483011003403684 
945	 0,482480393042767 
946	 0,480612347681678 
947	 0,480116909102177 
948	 0,480900263173319 
949	 0,479519024964768 
950	 0,478401693928582 
951	 0,478801468252705 
952	 0,479221968105089 
953	 0,478930331640336 
954	 0,477317771945082 
955	 0,475793238055007 
956	 0,475080668551238 
957	 0,476356998850771 
958	 0,475947619003387 
959	 0,473405539802197 
960	 0,473150803877492 
961	 0,473727153242549 
962	 0,473899567672598 
963	 0,47425767776394 
964	 0,474177209927904 
965	 0,47268087083293 
966	 0,472935003206305 
967	 0,474592510712318 
968	 0,474057513532789 
969	 0,473026238521785 
970	 0,472394990035196 
971	 0,472885044804669 
972	 0,473767002352018 
973	 0,47426221425367 
974	 0,474230155396523 
975	 0,473778198387733 
976	 0,473136409191563 
977	 0,473544575826083 
978	 0,474758451419042 
979	 0,474489619976114 
980	 0,475149066653014 
981	 0,47721146059458 
982	 0,476337121654376 
983	 0,473996205122806 
984	 0,47225638688659 
985	 0,47308845093297 
986	 0,475326679418169 
987	 0,476008256647257 
988	 0,475105526465213 
989	 0,473793264045822 
990	 0,476534389679032 
991	 0,479033143053844 
992	 0,479007676190023 
993	 0,477595451948282 
994	 0,477043595095649 
995	 0,479311228073856 
996	 0,480624909342525 
997	 0,480773705653133 
998	 0,480763338608783 
999	 0,48151389033428 
1000	 0,483083134260763 
1001	 0,484768557017264 
1002	 0,48471194464111 
1003	 0,482741798845295 
1004	 0,483492149748695 
1005	 0,486205426831323 
1006	 0,489375971665361 
1007	 0,48973623022424 
1008	 0,487725460387042 
1009	 0,485233061294594 
1010	 0,485997992905174 
1011	 0,48978505731942 
1012	 0,492362717507352 
1013	 0,49340878959733 
1014	 0,492713787661982 
1015	 0,490858435534847 
1016	 0,490416281524087 
1017	 0,492960702303683 
1018	 0,492767079371614 
1019	 0,491288348630315 
1020	 0,491963501662063 
1021	 0,491125835088171 
1022	 0,489812437855492 
1023	 0,4932951751231 
1024	 0,495893899895509 
1025	 0,49619099201947 
1026	 0,497664047317891 
1027	 0,497723002101033 
1028	 0,495545829298185 
1029	 0,498238986847386 
1030	 0,500036171986199 
1031	 0,494135785636036 
1032	 0,493678847886624 
1033	 0,49791719065556 
1034	 0,500045559924783 
1035	 0,501614241876275 
1036	 0,502265129387323 
1037	 0,500359231391195 
1038	 0,497685594223392 
1039	 0,495742182152247 
1040	 0,496743860580485 
1041	 0,497082776608442 
1042	 0,494393582220046 
1043	 0,495306384516514 
1044	 0,497410829071389 
1045	 0,496246695058617 
1046	 0,496574565541364 
1047	 0,498806149315025 
1048	 0,501819553452681 
1049	 0,500516377391972 
1050	 0,496327753088798 
1051	 0,501458371383002 
1052	 0,503788468212149 
1053	 0,499077496531836 
1054	 0,500841221709822 
1055	 0,503373965491705 
1056	 0,502081336288451 
1057	 0,507730457634671 
1058	 0,511527051985774 
1059	 0,500706799235251 
1060	 0,502669268567267 
1061	 0,512431870686723 
1062	 0,504756645004992 
1063	 0,503567263838328 
1064	 0,510048831222861 
1065	 0,502180433246772 
1066	 0,495087922085788 
1067	 0,497843050483762 
1068	 0,5151535611148 
1069	 0,526878855363888 
1070	 0,519284064110508 
1071	 0,514428918293836 
1072	 0,50990453036617 
1073	 0,500963147178172 
1074	 0,502894408968901 
1075	 0,509877216308519 
