Wavelength	AVEN00368.asd
325	 0,43549241692276 
326	 0,409283477620188 
327	 0,290908124485077 
328	 6,78958392752543E-02 
329	 0,195896274565309 
330	 0,350224014108556 
331	 0,302256775834276 
332	 0,193746227212363 
333	 0,11347199189239 
334	 0,187269708121328 
335	 0,256730594712324 
336	 0,254097944874774 
337	 0,188167039687913 
338	 0,131620463483121 
339	 0,149432344366318 
340	 0,103892794120968 
341	 4,25614959636025E-02 
342	 0,101411670465629 
343	 0,172378620971032 
344	 0,209009458290176 
345	 0,162038457149498 
346	 0,11034731245936 
347	 0,143523191155862 
348	 0,162718752410216 
349	 0,157674676707758 
350	 0,146387059192544 
351	 0,152930721842614 
352	 0,176569710374015 
353	 0,157751473416838 
354	 0,135480001130105 
355	 0,155661873791177 
356	 0,163646201507362 
357	 0,152198864607315 
358	 0,139732190379787 
359	 0,121227737722995 
360	 9,74112789819683E-02 
361	 0,1027173507725 
362	 0,116590648275636 
363	 0,10579174228543 
364	 0,120990895198786 
365	 0,154311008427408 
366	 0,148842016337549 
367	 0,141575242153863 
368	 0,15313671125956 
369	 0,15520944476007 
370	 0,142559267147647 
371	 0,109439454412204 
372	 0,107998126552721 
373	 0,140804309285618 
374	 0,152989991204884 
375	 0,150738423073778 
376	 0,141674666131398 
377	 0,137282839860054 
378	 0,138883845855162 
379	 0,145079626177127 
380	 0,150376148515098 
381	 0,14998986155279 
382	 0,13267986979966 
383	 0,115959165250127 
384	 0,118174538302287 
385	 0,124026203639247 
386	 0,129445609423701 
387	 0,133131176716479 
388	 0,133933551943953 
389	 0,133029930378705 
390	 0,140014334162152 
391	 0,145859094451785 
392	 0,140135692376208 
393	 0,131734989421214 
394	 0,12663094763511 
395	 0,136036697934005 
396	 0,140155626214541 
397	 0,130434219363788 
398	 0,123856444230446 
399	 0,122131075438468 
400	 0,124364318549933 
401	 0,131537313884407 
402	 0,140119174228946 
403	 0,138838932551271 
404	 0,13389005636715 
405	 0,13000859457461 
406	 0,128143213913945 
407	 0,127100836575945 
408	 0,123248951812543 
409	 0,124155006452217 
410	 0,130050209107465 
411	 0,131335001986963 
412	 0,130145191569271 
413	 0,129039594290555 
414	 0,1269822817174 
415	 0,125822116782361 
416	 0,130668003817854 
417	 0,133661355840955 
418	 0,132111665533282 
419	 0,13142948670889 
420	 0,129701933320352 
421	 0,123841225985649 
422	 0,124652174021199 
423	 0,130278007744744 
424	 0,12604798540799 
425	 0,122325346064768 
426	 0,12478563514138 
427	 0,124281131102474 
428	 0,122207338671667 
429	 0,123305017606103 
430	 0,122805285131776 
431	 0,120856526875897 
432	 0,124136068012837 
433	 0,12794102211146 
434	 0,128006323360796 
435	 0,12632244972122 
436	 0,124482981900041 
437	 0,125468732475381 
438	 0,126581623065758 
439	 0,126844226514381 
440	 0,127701574310007 
441	 0,128046246248806 
442	 0,126404179197822 
443	 0,12433850792804 
444	 0,122871068273092 
445	 0,123904173048727 
446	 0,124694919743925 
447	 0,123601771861728 
448	 0,121954492681943 
449	 0,121995096732643 
450	 0,127864511972351 
451	 0,129976078480355 
452	 0,126737348589908 
453	 0,126117340656646 
454	 0,126218696710024 
455	 0,125163721001993 
456	 0,126929990524778 
457	 0,130250140233074 
458	 0,130112731106071 
459	 0,128977985706654 
460	 0,128144554552013 
461	 0,129034287533269 
462	 0,130293052246511 
463	 0,129934960535076 
464	 0,129945520234358 
465	 0,130639681190003 
466	 0,131322124765898 
467	 0,131852653046282 
468	 0,132236617433621 
469	 0,133590641183135 
470	 0,134828528080436 
471	 0,133436843490784 
472	 0,133034057132299 
473	 0,133873390053527 
474	 0,131065924837748 
475	 0,128103380205054 
476	 0,12856176074786 
477	 0,13010416375342 
478	 0,131765001292124 
479	 0,132675167878309 
480	 0,131762790882874 
481	 0,129088545454843 
482	 0,128767508762821 
483	 0,129483815650351 
484	 0,128549802848788 
485	 0,128921905936311 
486	 0,130463817242263 
487	 0,129814973163732 
488	 0,12884411413243 
489	 0,128993988738209 
490	 0,129604974983487 
491	 0,129972942234697 
492	 0,128727096357648 
493	 0,127407441590694 
494	 0,126894651789664 
495	 0,128387824668319 
496	 0,130257005227185 
497	 0,130598590056036 
498	 0,130111573375824 
499	 0,129301043758932 
500	 0,129274837100055 
501	 0,128744659004205 
502	 0,127382647019423 
503	 0,12862340090256 
504	 0,130991462941158 
505	 0,131260685280128 
506	 0,13155871028592 
507	 0,132185208016462 
508	 0,131526811107353 
509	 0,131761524473787 
510	 0,134649344930215 
511	 0,135593093416983 
512	 0,134890752392209 
513	 0,135881169922149 
514	 0,13583049495842 
515	 0,134265981185359 
516	 0,135810911928725 
517	 0,138485527447539 
518	 0,139054924780155 
519	 0,137922645194741 
520	 0,136048478777227 
521	 0,136551000261574 
522	 0,13729013452728 
523	 0,136776120428949 
524	 0,136874868503093 
525	 0,137503118829327 
526	 0,137991460285896 
527	 0,137777970131148 
528	 0,136757404110724 
529	 0,135648393242686 
530	 0,134925706991336 
531	 0,13501845939604 
532	 0,135757349038066 
533	 0,13664768752613 
534	 0,136365355513612 
535	 0,136371538254444 
536	 0,137320971453741 
537	 0,136985544498984 
538	 0,135993768508894 
539	 0,13597763191303 
540	 0,13649763236565 
541	 0,137192709070214 
542	 0,136973540433041 
543	 0,136511167532283 
544	 0,136513756208337 
545	 0,13664883675626 
546	 0,136911897587024 
547	 0,137450655877848 
548	 0,138048511149488 
549	 0,138560741015379 
550	 0,139057101545094 
551	 0,139018051828309 
552	 0,137573241672667 
553	 0,137289334840167 
554	 0,138325211830882 
555	 0,138067482013519 
556	 0,137443932317643 
557	 0,137265456164986 
558	 0,136992026486463 
559	 0,136511249986785 
560	 0,135686586108408 
561	 0,135095676510041 
562	 0,134990871203509 
563	 0,135297734642274 
564	 0,135316852595652 
565	 0,134164470211047 
566	 0,133752139699864 
567	 0,134349331250313 
568	 0,135088033575596 
569	 0,135317387455953 
570	 0,134750617697605 
571	 0,135234727533332 
572	 0,136927998787658 
573	 0,139721054718766 
574	 0,14136390382294 
575	 0,141306412350248 
576	 0,141722646749335 
577	 0,142704681600641 
578	 0,144154998141506 
579	 0,145769763649804 
580	 0,147226309313276 
581	 0,14783887255797 
582	 0,148701959195175 
583	 0,150313793815819 
584	 0,151193686309057 
585	 0,151803241719614 
586	 0,153324482204025 
587	 0,154510138610645 
588	 0,155014000441287 
589	 0,155000708768438 
590	 0,155471619702385 
591	 0,157217789738616 
592	 0,157513255887269 
593	 0,15675755922823 
594	 0,157564608898302 
595	 0,158445356125309 
596	 0,158730790608163 
597	 0,158744323304349 
598	 0,158478681520544 
599	 0,15785422246414 
600	 0,157824891898855 
601	 0,158397182389673 
602	 0,158512903100589 
603	 0,158157540028458 
604	 0,157361263484772 
605	 0,156387662512759 
606	 0,155545466138179 
607	 0,155421897999586 
608	 0,155215137023058 
609	 0,154642917728081 
610	 0,154124056282003 
611	 0,153467351655406 
612	 0,152405129360818 
613	 0,151844324227277 
614	 0,151748832306571 
615	 0,15114302756055 
616	 0,150718075976907 
617	 0,150853235320959 
618	 0,150752968929621 
619	 0,15052882922119 
620	 0,150663017812319 
621	 0,150665833796039 
622	 0,150336855135591 
623	 0,149375076604227 
624	 0,149097271897608 
625	 0,150744323954154 
626	 0,150998872456367 
627	 0,150001026958043 
628	 0,150319871180929 
629	 0,150970544537724 
630	 0,151514131567412 
631	 0,152395776413105 
632	 0,153219313949926 
633	 0,153293019842118 
634	 0,153517581914985 
635	 0,154107064902203 
636	 0,154684775244762 
637	 0,15540037330659 
638	 0,156364848950363 
639	 0,157261177529775 
640	 0,158086226901746 
641	 0,158963771583302 
642	 0,160118132313008 
643	 0,161407281563072 
644	 0,161499542598098 
645	 0,161092898559783 
646	 0,16124341533229 
647	 0,161432831886714 
648	 0,161568172875359 
649	 0,161843136118073 
650	 0,161565203585339 
651	 0,160360137887902 
652	 0,159326093470776 
653	 0,158536312831344 
654	 0,157794441723748 
655	 0,156764555526472 
656	 0,155392933527452 
657	 0,154181539830697 
658	 0,152814043752922 
659	 0,150956291323543 
660	 0,149363544800987 
661	 0,147927239943543 
662	 0,145719787238533 
663	 0,143970311991278 
664	 0,14317721073725 
665	 0,142007114691325 
666	 0,140709482096065 
667	 0,139925524797809 
668	 0,139125049649225 
669	 0,138214604028367 
670	 0,137434771893352 
671	 0,136744241113705 
672	 0,136126970414053 
673	 0,135819412073239 
674	 0,135764864006809 
675	 0,135748375391882 
676	 0,135792324490233 
677	 0,135847605290674 
678	 0,135666457841094 
679	 0,135591443455232 
680	 0,136041190820156 
681	 0,136715620507375 
682	 0,137464289555865 
683	 0,137979039990767 
684	 0,138950875003274 
685	 0,140725767880148 
686	 0,142369507939311 
687	 0,144325675579387 
688	 0,147613002878567 
689	 0,150949980260132 
690	 0,15420822450974 
691	 0,158455619856647 
692	 0,163659873267157 
693	 0,169743758947938 
694	 0,176333289452327 
695	 0,183481984121007 
696	 0,191527745658009 
697	 0,20025169516373 
698	 0,209591952054772 
699	 0,219745699461209 
700	 0,230245590088448 
701	 0,240547804970767 
702	 0,251187072322728 
703	 0,262017184477956 
704	 0,272304462548052 
705	 0,282231681540705 
706	 0,291926359374151 
707	 0,301259135747764 
708	 0,31015937074307 
709	 0,31853695586423 
710	 0,32642406869538 
711	 0,333858711515978 
712	 0,340870289128719 
713	 0,347478590526191 
714	 0,353691548853183 
715	 0,359405343295821 
716	 0,364651790216142 
717	 0,369554451905083 
718	 0,374064242891535 
719	 0,378197605888362 
720	 0,382092787324992 
721	 0,385695507345978 
722	 0,388940621770718 
723	 0,391699374401251 
724	 0,394183350150602 
725	 0,397206617399462 
726	 0,399831200575126 
727	 0,401554892678354 
728	 0,403425851262681 
729	 0,405432049365706 
730	 0,407308700062429 
731	 0,408616103721408 
732	 0,409475940156205 
733	 0,411064009496672 
734	 0,412634673116902 
735	 0,413547104461657 
736	 0,414756042265657 
737	 0,41616229372096 
738	 0,417122386563115 
739	 0,417873492961333 
740	 0,418555628981605 
741	 0,419505019313944 
742	 0,420371162077871 
743	 0,420727390737046 
744	 0,42107738039389 
745	 0,421590504514673 
746	 0,422421726041912 
747	 0,423045496460577 
748	 0,423238649478277 
749	 0,42366200132987 
750	 0,424186785026125 
751	 0,424486732480491 
752	 0,424855912154869 
753	 0,425367776397306 
754	 0,426035525912137 
755	 0,426478301972446 
756	 0,426462569550475 
757	 0,426519096057328 
758	 0,42682614443096 
759	 0,427573669916219 
760	 0,428199464135724 
761	 0,428473015048744 
762	 0,428293713350773 
763	 0,42844831725383 
764	 0,429595263456074 
765	 0,430231530604435 
766	 0,430211362339032 
767	 0,429861193029612 
768	 0,430035785697909 
769	 0,430950908469619 
770	 0,431418428443652 
771	 0,431701582442109 
772	 0,432224103507506 
773	 0,432492725462657 
774	 0,432513953522133 
775	 0,432650720571096 
776	 0,432714426394626 
777	 0,432658296206291 
778	 0,432752674518944 
779	 0,433111531746109 
780	 0,433857525952984 
781	 0,434159904195686 
782	 0,433986020360527 
783	 0,434115135697389 
784	 0,434341618952687 
785	 0,43449179507874 
786	 0,434202409613741 
787	 0,434006305549688 
788	 0,434975688176995 
789	 0,435329163970274 
790	 0,434869832804527 
791	 0,435246525306302 
792	 0,435681376692735 
793	 0,435564862957986 
794	 0,43565401034246 
795	 0,435900150595382 
796	 0,435924411897335 
797	 0,436012959071264 
798	 0,436244385077037 
799	 0,436536345119618 
800	 0,436758413678125 
801	 0,436812593220031 
802	 0,437033035028255 
803	 0,437383116461204 
804	 0,437596726331333 
805	 0,437841657797691 
806	 0,438139149666853 
807	 0,438300284793098 
808	 0,438394967765774 
809	 0,43851393516669 
810	 0,438662779756694 
811	 0,438829401863109 
812	 0,438975948775395 
813	 0,439040805182146 
814	 0,439096296339979 
815	 0,439743680172695 
816	 0,440370604155491 
817	 0,440228894454352 
818	 0,440424722505592 
819	 0,440995024242815 
820	 0,441266518868087 
821	 0,441533249202793 
822	 0,441853120077451 
823	 0,44174104487008 
824	 0,441548943590288 
825	 0,441778365367402 
826	 0,442358555487475 
827	 0,44306995595749 
828	 0,443326249531046 
829	 0,443344234067533 
830	 0,443361683856646 
831	 0,444162992007794 
832	 0,4450824771036 
833	 0,445116355090925 
834	 0,445113041613802 
835	 0,445165605202329 
836	 0,44478620524417 
837	 0,444749675351025 
838	 0,44539719476678 
839	 0,445967091519637 
840	 0,446091172640644 
841	 0,445405177602111 
842	 0,445470286285146 
843	 0,446303106363334 
844	 0,44653989551006 
845	 0,44651290791053 
846	 0,4464616917629 
847	 0,446820786950031 
848	 0,447263457276601 
849	 0,447260897846709 
850	 0,447334133579315 
851	 0,44746917874794 
852	 0,44709626437578 
853	 0,4472082225069 
854	 0,448045025052237 
855	 0,447219458278867 
856	 0,446186304009244 
857	 0,447234816212078 
858	 0,44795456948617 
859	 0,447924620906732 
860	 0,447838457373699 
861	 0,44760630203435 
862	 0,447322063762857 
863	 0,447639171308115 
864	 0,448336330337263 
865	 0,449021248041251 
866	 0,449383071905729 
867	 0,449502172711927 
868	 0,449952993849641 
869	 0,450206158295933 
870	 0,450117039224912 
871	 0,450397881202985 
872	 0,450817158449786 
873	 0,451031318512713 
874	 0,451639270683685 
875	 0,452492082608167 
876	 0,452843019591399 
877	 0,452982500415859 
878	 0,453039807653015 
879	 0,4529531974156 
880	 0,453281389830229 
881	 0,454518083043341 
882	 0,454711616812015 
883	 0,45407891642517 
884	 0,45422391364251 
885	 0,454729346270858 
886	 0,455355928087743 
887	 0,455536193722132 
888	 0,455370878703406 
889	 0,455093325495234 
890	 0,456022560977146 
891	 0,457269297176384 
892	 0,456301919784203 
893	 0,455974491418356 
894	 0,456834318917918 
895	 0,456874054921486 
896	 0,456748685193102 
897	 0,456958083427645 
898	 0,456645648291277 
899	 0,456367524331713 
900	 0,457333543737621 
901	 0,457833723272893 
902	 0,457639868597642 
903	 0,457914588109848 
904	 0,458193506135271 
905	 0,458186353090986 
906	 0,457928220526355 
907	 0,457936316281574 
908	 0,458900991524795 
909	 0,459808749423898 
910	 0,46026143076001 
911	 0,459936377073256 
912	 0,459556506298726 
913	 0,459503048194438 
914	 0,459546187497343 
915	 0,459917073355198 
916	 0,46081766078727 
917	 0,461028096398899 
918	 0,460677628745399 
919	 0,460792411592172 
920	 0,460800782495907 
921	 0,460592019402005 
922	 0,460435608798657 
923	 0,460638575689186 
924	 0,461278090993223 
925	 0,460659993688722 
926	 0,459310791802727 
927	 0,458611462910801 
928	 0,459021275709059 
929	 0,460154649893549 
930	 0,460007928444383 
931	 0,459739113006983 
932	 0,46000368910377 
933	 0,460276427534304 
934	 0,460471947594907 
935	 0,460551583595487 
936	 0,460754818620774 
937	 0,460636772823063 
938	 0,458588628110845 
939	 0,457821435686608 
940	 0,459003978724082 
941	 0,458526072622344 
942	 0,457587089832305 
943	 0,457379889267604 
944	 0,457030789914268 
945	 0,456478876830377 
946	 0,45586285394959 
947	 0,455081672583687 
948	 0,454263262578432 
949	 0,453877210118538 
950	 0,453839554915598 
951	 0,453882381849075 
952	 0,452661609051841 
953	 0,451344956690137 
954	 0,451431704164607 
955	 0,451007629878227 
956	 0,450083296255699 
957	 0,449900592414532 
958	 0,448654491469945 
959	 0,446423856739732 
960	 0,446452062920744 
961	 0,446928772982848 
962	 0,446505233982134 
963	 0,446864068223178 
964	 0,447509026337049 
965	 0,44737907539814 
966	 0,447359768840109 
967	 0,44746416325527 
968	 0,446959454673262 
969	 0,446943631565147 
970	 0,447797685774453 
971	 0,449120408253872 
972	 0,448817042821172 
973	 0,445507165601006 
974	 0,44490252403309 
975	 0,446029640604434 
976	 0,44533557367577 
977	 0,445090299994682 
978	 0,445600645153771 
979	 0,445836621277102 
980	 0,446459725171963 
981	 0,447704158093474 
982	 0,449147900476009 
983	 0,449959601837193 
984	 0,449481472252725 
985	 0,449541043320714 
986	 0,450240895201509 
987	 0,451137870338933 
988	 0,450636524275796 
989	 0,44921113844063 
990	 0,450334126044219 
991	 0,451812402832177 
992	 0,45245198175048 
993	 0,452613377734072 
994	 0,452878736005505 
995	 0,453888568939014 
996	 0,456537725866467 
997	 0,458717882868031 
998	 0,456131964069028 
999	 0,455496389000705 
1000	 0,457856103446457 
1001	 0,45971902515245 
1002	 0,459079219138306 
1003	 0,456108134702773 
1004	 0,458487705447905 
1005	 0,461429037633034 
1006	 0,460143873268954 
1007	 0,461569801118468 
1008	 0,464198194053704 
1009	 0,463353611577437 
1010	 0,462217812775278 
1011	 0,462691752302582 
1012	 0,468314458502688 
1013	 0,472080324410061 
1014	 0,470915520755962 
1015	 0,467698981037451 
1016	 0,465016485435422 
1017	 0,46499978120332 
1018	 0,466848300904999 
1019	 0,468734626077653 
1020	 0,468184101748194 
1021	 0,469258828225822 
1022	 0,47112668305522 
1023	 0,468377406468562 
1024	 0,468073344377609 
1025	 0,471764770216836 
1026	 0,474720213554835 
1027	 0,476187230253591 
1028	 0,476206368537735 
1029	 0,479249785157069 
1030	 0,480015064161142 
1031	 0,47273745101366 
1032	 0,472818608865784 
1033	 0,478033672456465 
1034	 0,477723204668855 
1035	 0,476612222054108 
1036	 0,475656471526109 
1037	 0,473628086555283 
1038	 0,473733774664298 
1039	 0,476573034778938 
1040	 0,476865195012316 
1041	 0,476897683813944 
1042	 0,47860872224397 
1043	 0,480232067503032 
1044	 0,48166088040182 
1045	 0,482948832768391 
1046	 0,483795365129685 
1047	 0,483951696789359 
1048	 0,482751770745835 
1049	 0,485116812408883 
1050	 0,489052338726691 
1051	 0,481812542008682 
1052	 0,471124350915717 
1053	 0,464918814078342 
1054	 0,480011992899745 
1055	 0,495388568182223 
1056	 0,493568752276886 
1057	 0,492711458234652 
1058	 0,491367482071948 
1059	 0,484673544536565 
1060	 0,481113764660486 
1061	 0,482982712652252 
1062	 0,49125062684046 
1063	 0,496373689275807 
1064	 0,494293455368054 
1065	 0,482195451492547 
1066	 0,474568978812379 
1067	 0,479768791385119 
1068	 0,496471432948379 
1069	 0,511029055785119 
1070	 0,512079076670365 
1071	 0,5016379128478 
1072	 0,490744795260999 
1073	 0,491482787644485 
1074	 0,494190345523243 
1075	 0,491705296022004 
