Wavelength	AVEN00549.asd
325	 0,385490235190715 
326	 0,415935889119356 
327	 0,367634942993063 
328	 0,243120405553358 
329	 0,398260377261381 
330	 0,537312748161249 
331	 0,478388417753837 
332	 0,374427139925148 
333	 0,302047632209324 
334	 0,353700534288738 
335	 0,396394216226027 
336	 0,381848616984702 
337	 0,331667985488789 
338	 0,30415132387236 
339	 0,348883553421369 
340	 0,309305671601346 
341	 0,24142532480444 
342	 0,31488408174888 
343	 0,352098811116488 
344	 0,323794057346479 
345	 0,318669630116636 
346	 0,316050871511302 
347	 0,294072398778449 
348	 0,32271616246928 
349	 0,369742666517711 
350	 0,316769279024959 
351	 0,307384832332895 
352	 0,376630898962344 
353	 0,387012727253587 
354	 0,367269558237703 
355	 0,35783310413365 
356	 0,363720670133967 
357	 0,375938367472708 
358	 0,359324095280408 
359	 0,358491268940476 
360	 0,384568686091993 
361	 0,349491826307662 
362	 0,305262289769863 
363	 0,329397955280271 
364	 0,349051625311999 
365	 0,352148667041875 
366	 0,369597583556642 
367	 0,379697567349003 
368	 0,371043703701852 
369	 0,380232159930637 
370	 0,392070541512477 
371	 0,369461396444485 
372	 0,360710358456791 
373	 0,37293168132635 
374	 0,374951325184895 
375	 0,368901033423833 
376	 0,359834453258396 
377	 0,375493562877793 
378	 0,402216637725927 
379	 0,398079428855261 
380	 0,386078199221379 
381	 0,376323203578074 
382	 0,376937445522267 
383	 0,376734948668453 
384	 0,365376879226112 
385	 0,362482938032114 
386	 0,366605356809335 
387	 0,361101907346282 
388	 0,374079642888801 
389	 0,406139713832915 
390	 0,403938167832896 
391	 0,385246501848871 
392	 0,373749779947281 
393	 0,379583570129251 
394	 0,395589058323902 
395	 0,3907109022466 
396	 0,389418201110688 
397	 0,401295413462056 
398	 0,400539653902157 
399	 0,393109106630507 
400	 0,392213609543419 
401	 0,389038102989415 
402	 0,384935534263005 
403	 0,391316081471606 
404	 0,400524057573259 
405	 0,406064952025427 
406	 0,399666358401129 
407	 0,387685115248449 
408	 0,382718359551401 
409	 0,384790875969257 
410	 0,391561550487672 
411	 0,390716285387221 
412	 0,389033893662658 
413	 0,393208192013217 
414	 0,398175256669832 
415	 0,400916629848349 
416	 0,395596569002695 
417	 0,394435028751992 
418	 0,400632753677418 
419	 0,401449028162516 
420	 0,397804547056489 
421	 0,392223625279927 
422	 0,394933096515646 
423	 0,402595387359494 
424	 0,395844270711491 
425	 0,389513539151867 
426	 0,392386372279823 
427	 0,39696813585326 
428	 0,399766536043061 
429	 0,39632277256794 
430	 0,393776623273697 
431	 0,394314650922702 
432	 0,397336845998404 
433	 0,399635774200997 
434	 0,398598279491193 
435	 0,396967272254838 
436	 0,396142980223293 
437	 0,398397025820499 
438	 0,399641547869413 
439	 0,398737547090833 
440	 0,400103981687782 
441	 0,401705008056541 
442	 0,400559385523379 
443	 0,398918416897229 
444	 0,397879775100402 
445	 0,398953089257247 
446	 0,400624087539582 
447	 0,401725484071478 
448	 0,401034543888973 
449	 0,400512567242397 
450	 0,404350620948683 
451	 0,405484627750104 
452	 0,402838035611155 
453	 0,402165005378977 
454	 0,402768634862263 
455	 0,403778383886334 
456	 0,406089260685414 
457	 0,408211749249926 
458	 0,405776798229765 
459	 0,404272784248329 
460	 0,406125729752328 
461	 0,410415511450604 
462	 0,413675621000104 
463	 0,411565661524176 
464	 0,412067921971174 
465	 0,415200566012211 
466	 0,413485873193406 
467	 0,411267397863264 
468	 0,411446096217878 
469	 0,412882657316493 
470	 0,414163322267398 
471	 0,412791367500632 
472	 0,412048318848974 
473	 0,412628541705316 
474	 0,412229652659744 
475	 0,411774023895981 
476	 0,412270104842484 
477	 0,41352259511455 
478	 0,414762449014389 
479	 0,413943595056344 
480	 0,413352751196535 
481	 0,414158000456243 
482	 0,416797898183307 
483	 0,418010209068212 
484	 0,412962506168908 
485	 0,410814401100424 
486	 0,412663777780201 
487	 0,412164886907601 
488	 0,412162133029797 
489	 0,414622990678568 
490	 0,416059545257938 
491	 0,416412098594692 
492	 0,417150561134932 
493	 0,41669268569289 
494	 0,414972079055406 
495	 0,414122598747145 
496	 0,414874289899593 
497	 0,417752413874667 
498	 0,418904697629096 
499	 0,418147324063684 
500	 0,418046373322445 
501	 0,417626899554046 
502	 0,416615652417261 
503	 0,416843166054131 
504	 0,418284356199481 
505	 0,420689775833214 
506	 0,421400321862121 
507	 0,420242947308203 
508	 0,420462215175294 
509	 0,421419695438503 
510	 0,422349460844351 
511	 0,422364368905757 
512	 0,422010300849332 
513	 0,423364263221277 
514	 0,423734569311782 
515	 0,422642410423541 
516	 0,425157594742897 
517	 0,428198003829787 
518	 0,42692303564442 
519	 0,42605201209252 
520	 0,426468718044974 
521	 0,426741803278689 
522	 0,426510019763658 
523	 0,425664731537199 
524	 0,425838535929578 
525	 0,426728817468531 
526	 0,427044929317613 
527	 0,427529899013103 
528	 0,428190048096051 
529	 0,427920616346849 
530	 0,427271448548129 
531	 0,4269513893571 
532	 0,426659792849313 
533	 0,426624802092016 
534	 0,427682593970338 
535	 0,428853120554303 
536	 0,429456628145836 
537	 0,429275028963086 
538	 0,428620221495479 
539	 0,428011067183832 
540	 0,4281791902925 
541	 0,429061772421338 
542	 0,429104498103225 
543	 0,428913019443498 
544	 0,42913042454225 
545	 0,428810102590516 
546	 0,428419892189535 
547	 0,429815120905415 
548	 0,430948071953154 
549	 0,430898753338053 
550	 0,430997789757429 
551	 0,431123839821925 
552	 0,43080066516242 
553	 0,431483666108429 
554	 0,432840824104164 
555	 0,431757426631044 
556	 0,430797774902225 
557	 0,432026133293443 
558	 0,432694304089963 
559	 0,432470774129067 
560	 0,431783948312422 
561	 0,431090459907925 
562	 0,430675802206497 
563	 0,430690940457191 
564	 0,430651325509039 
565	 0,429903160048292 
566	 0,430077750953461 
567	 0,431113910748147 
568	 0,431228437342164 
569	 0,431363815081475 
570	 0,432148270076658 
571	 0,432875608648728 
572	 0,433654321233971 
573	 0,434961502190977 
574	 0,43627497238039 
575	 0,437426941124602 
576	 0,438707139976704 
577	 0,439785150533533 
578	 0,440289424444202 
579	 0,440830189359621 
580	 0,441563960924884 
581	 0,442388930848458 
582	 0,443580742058308 
583	 0,445128601869706 
584	 0,445674130988046 
585	 0,445956047360913 
586	 0,447601034418904 
587	 0,449084520006497 
588	 0,449914807037887 
589	 0,450162995360186 
590	 0,450385602418662 
591	 0,451078694282255 
592	 0,451619651247779 
593	 0,452022488246679 
594	 0,452674209884247 
595	 0,4532710018331 
596	 0,453667167845131 
597	 0,454002569751279 
598	 0,453969731525962 
599	 0,453050330609695 
600	 0,453294559634949 
601	 0,454602146877955 
602	 0,45421179616949 
603	 0,453359164950116 
604	 0,453047709683864 
605	 0,45264709282986 
606	 0,452099071861453 
607	 0,451342524969914 
608	 0,451264968978527 
609	 0,451940965356336 
610	 0,451714749980751 
611	 0,45088783498847 
612	 0,450021865827707 
613	 0,449697241964112 
614	 0,449845579405861 
615	 0,449645548422015 
616	 0,449339737756301 
617	 0,449097626615767 
618	 0,448947494714419 
619	 0,449047598157659 
620	 0,449799919748424 
621	 0,449737325417503 
622	 0,448674467494258 
623	 0,448242889668639 
624	 0,448436918000884 
625	 0,449110962331038 
626	 0,449571573403174 
627	 0,449662874942845 
628	 0,449428737661363 
629	 0,449426888311851 
630	 0,449969880717366 
631	 0,450912117027288 
632	 0,451771861382344 
633	 0,451828235973481 
634	 0,451958381214217 
635	 0,452449976266692 
636	 0,453277208952037 
637	 0,45414706840223 
638	 0,454805969847707 
639	 0,455389825251215 
640	 0,455963682112439 
641	 0,45666603976703 
642	 0,457182088641391 
643	 0,457440438909403 
644	 0,457829887312038 
645	 0,458388080171148 
646	 0,459117189752802 
647	 0,459183462283795 
648	 0,45855403368727 
649	 0,457954004268529 
650	 0,457259841257534 
651	 0,45641319086398 
652	 0,45553525651617 
653	 0,454734546141653 
654	 0,45418957904452 
655	 0,453635951210009 
656	 0,452939643082397 
657	 0,452012332206766 
658	 0,450992000853116 
659	 0,450007965630133 
660	 0,448418392940332 
661	 0,44660743968388 
662	 0,446019391683284 
663	 0,445531145550493 
664	 0,444582213295522 
665	 0,443559181270086 
666	 0,442580349722203 
667	 0,441746380751946 
668	 0,441207957155868 
669	 0,440943129752254 
670	 0,440684863660258 
671	 0,440462321241475 
672	 0,440292502410197 
673	 0,440061404010891 
674	 0,439773218869304 
675	 0,439423621630181 
676	 0,439416141877442 
677	 0,439797242315297 
678	 0,439866430833121 
679	 0,439857915225949 
680	 0,440117304481257 
681	 0,440491603429956 
682	 0,440966130767875 
683	 0,441491373740105 
684	 0,442535344267395 
685	 0,444257514467255 
686	 0,445500279706293 
687	 0,446678811914068 
688	 0,44880468563825 
689	 0,451046889550753 
690	 0,453445708603673 
691	 0,457114507162146 
692	 0,46141357622294 
693	 0,465749902151429 
694	 0,470481226767797 
695	 0,475643254996043 
696	 0,481198020134446 
697	 0,486998970261461 
698	 0,493020755916577 
699	 0,499563449255858 
700	 0,506237412101142 
701	 0,512561093527813 
702	 0,518755229586059 
703	 0,524787796533161 
704	 0,53047265957475 
705	 0,535898880994059 
706	 0,541155220292111 
707	 0,54638377694929 
708	 0,551287545986038 
709	 0,555265766125007 
710	 0,559099238180349 
711	 0,563003412461113 
712	 0,566685672089848 
713	 0,569967496503799 
714	 0,572719840576706 
715	 0,57542648505812 
716	 0,577997394261019 
717	 0,579864833467413 
718	 0,581811112616921 
719	 0,584060845773395 
720	 0,585771631573402 
721	 0,587156572646577 
722	 0,58859700775607 
723	 0,589616980025048 
724	 0,590403492737084 
725	 0,591941987473954 
726	 0,593313644859813 
727	 0,593986658314612 
728	 0,594637326501086 
729	 0,595412291355308 
730	 0,596400770894475 
731	 0,597287175997553 
732	 0,597946777610257 
733	 0,598343799251655 
734	 0,598767758871161 
735	 0,599438910461915 
736	 0,599774001143121 
737	 0,59993002591604 
738	 0,600605680253708 
739	 0,600999163210619 
740	 0,600989939258816 
741	 0,601783574865402 
742	 0,602483527439182 
743	 0,601983763023141 
744	 0,602027047222116 
745	 0,602664907611299 
746	 0,602725049240176 
747	 0,602876641683059 
748	 0,603385641486501 
749	 0,603523102558507 
750	 0,60350011717326 
751	 0,603764780120024 
752	 0,604156257571788 
753	 0,604493330364588 
754	 0,604265385225025 
755	 0,604023906105379 
756	 0,604177627959119 
757	 0,604493249953031 
758	 0,604836336431022 
759	 0,605036475633822 
760	 0,605058705621565 
761	 0,604945166466122 
762	 0,604926258542697 
763	 0,605077527320218 
764	 0,605438145135139 
765	 0,605727217626872 
766	 0,605859632616468 
767	 0,605754413715549 
768	 0,605802889192504 
769	 0,606104635061252 
770	 0,606155381677747 
771	 0,606212949144711 
772	 0,606615731240736 
773	 0,606771242507725 
774	 0,606678690264686 
775	 0,606779078868997 
776	 0,606856822393133 
777	 0,606809035211222 
778	 0,606690326357933 
779	 0,606625162579192 
780	 0,60678223316771 
781	 0,606850914100768 
782	 0,606830227090017 
783	 0,607069734851674 
784	 0,607186965552071 
785	 0,606979930420214 
786	 0,607039869522984 
787	 0,607181596446139 
788	 0,606908335847665 
789	 0,606838922901136 
790	 0,607099086138273 
791	 0,607417458592629 
792	 0,607525345544726 
793	 0,60725576681961 
794	 0,607127743183604 
795	 0,607253677558253 
796	 0,60768570246706 
797	 0,607993002475912 
798	 0,607995329118222 
799	 0,607699650107582 
800	 0,607441769810494 
801	 0,607518697557548 
802	 0,60749090593253 
803	 0,607485007596841 
804	 0,608074962610984 
805	 0,608507066509345 
806	 0,608531752418742 
807	 0,608541698786076 
808	 0,608480318734956 
809	 0,60828220420232 
810	 0,608428968474598 
811	 0,608786878731208 
812	 0,608724450593288 
813	 0,60845636427074 
814	 0,608224229786183 
815	 0,608904003027314 
816	 0,609629595738191 
817	 0,609333667798225 
818	 0,609666993823033 
819	 0,610499201986513 
820	 0,610340054483886 
821	 0,609941686091387 
822	 0,609693924111908 
823	 0,609672248080824 
824	 0,609698648772974 
825	 0,609534084514274 
826	 0,610209059990248 
827	 0,611402963019502 
828	 0,61139645174352 
829	 0,61102207090151 
830	 0,610838857387006 
831	 0,611528799696398 
832	 0,612293680659797 
833	 0,611961667580602 
834	 0,611875762407783 
835	 0,612048282352187 
836	 0,611257469266685 
837	 0,611052809640549 
838	 0,612087025973259 
839	 0,612597983095444 
840	 0,612540216638872 
841	 0,612159383262468 
842	 0,611922570165106 
843	 0,6119150861276 
844	 0,611869409915436 
845	 0,611866594528049 
846	 0,611992961665383 
847	 0,612586704121656 
848	 0,613126124946625 
849	 0,61285076690953 
850	 0,612823001969733 
851	 0,613099107112312 
852	 0,612936139923447 
853	 0,612700273028925 
854	 0,612542341548325 
855	 0,612054519034289 
856	 0,611533687778879 
857	 0,611425499968697 
858	 0,611680628773051 
859	 0,612247952594463 
860	 0,613113971907 
861	 0,613482399519211 
862	 0,613057971168341 
863	 0,612967753161289 
864	 0,613166267571671 
865	 0,613419696999953 
866	 0,613557775863231 
867	 0,613666209814265 
868	 0,614222260329942 
869	 0,614532021478567 
870	 0,614337984985254 
871	 0,614228502626507 
872	 0,614451259211895 
873	 0,615197621626818 
874	 0,615710951552112 
875	 0,615832399814397 
876	 0,615662467733501 
877	 0,615527735811207 
878	 0,615555587075 
879	 0,615414195101146 
880	 0,615426210427514 
881	 0,615923398032373 
882	 0,616122008006566 
883	 0,616111796564869 
884	 0,616546225063922 
885	 0,617188712930815 
886	 0,61778661214738 
887	 0,617648153395751 
888	 0,61698356370962 
889	 0,616167985995577 
890	 0,616771044891907 
891	 0,618010539313543 
892	 0,61748254714985 
893	 0,617498259606542 
894	 0,618343026749931 
895	 0,617888236396658 
896	 0,617146099208953 
897	 0,616976247811161 
898	 0,616986839819198 
899	 0,617264731408 
900	 0,618063901099987 
901	 0,618385043804126 
902	 0,618173076579486 
903	 0,618482354781473 
904	 0,61863182322105 
905	 0,618316066596327 
906	 0,61865957460984 
907	 0,619043934474372 
908	 0,61842610037322 
909	 0,618181562907277 
910	 0,618476307216994 
911	 0,618644517936849 
912	 0,619115158735119 
913	 0,619857994769095 
914	 0,619492224530972 
915	 0,619232069325399 
916	 0,620437883209498 
917	 0,62088758290973 
918	 0,620403391437427 
919	 0,619633167660539 
920	 0,619495754168381 
921	 0,620160836126268 
922	 0,62055166439188 
923	 0,620459562033203 
924	 0,619840666293912 
925	 0,619628964320105 
926	 0,619706882341738 
927	 0,619562045055859 
928	 0,61932343853607 
929	 0,619199346800302 
930	 0,61975334748725 
931	 0,620731002560386 
932	 0,621744927917531 
933	 0,621466167387126 
934	 0,620750733016585 
935	 0,620873047627209 
936	 0,621313546479988 
937	 0,621617155818948 
938	 0,620723909610616 
939	 0,620378696626123 
940	 0,620947938273213 
941	 0,620481586814219 
942	 0,619962782997304 
943	 0,620302418161651 
944	 0,620822049465848 
945	 0,620725853294397 
946	 0,618724073477167 
947	 0,618042735345415 
948	 0,619173528596238 
949	 0,62024897943545 
950	 0,620575864788542 
951	 0,619754117687561 
952	 0,618306219443864 
953	 0,616968248801843 
954	 0,616538240460872 
955	 0,617150673630293 
956	 0,617975286538329 
957	 0,616869017260781 
958	 0,615687725225725 
959	 0,615227309913223 
960	 0,615891487296493 
961	 0,616641848787109 
962	 0,616710816577703 
963	 0,616871602093534 
964	 0,61717599401836 
965	 0,617544344273866 
966	 0,617839091824944 
967	 0,617741920794874 
968	 0,616269570094013 
969	 0,615689036134648 
970	 0,616793743023332 
971	 0,618028120514014 
972	 0,618616835802598 
973	 0,618021057499143 
974	 0,617053744998611 
975	 0,616789817995153 
976	 0,618846023936541 
977	 0,618834176230852 
978	 0,616774196709917 
979	 0,617073002185197 
980	 0,61864618621271 
981	 0,620367631101167 
982	 0,619207897532844 
983	 0,617051632002202 
984	 0,616204764433269 
985	 0,617370139178669 
986	 0,619666684550054 
987	 0,621146741041684 
988	 0,621483801984771 
989	 0,620901046360671 
990	 0,620788138983683 
991	 0,620874669340253 
992	 0,621173374544398 
993	 0,622430141454529 
994	 0,623799995065637 
995	 0,624395694554239 
996	 0,625142246544842 
997	 0,625360813095137 
998	 0,623324818413221 
999	 0,624574060259429 
1000	 0,628615342317517 
1001	 0,62783793147051 
1002	 0,625841641332671 
1003	 0,624963122229578 
1004	 0,627409013042003 
1005	 0,629092852427968 
1006	 0,626379326467872 
1007	 0,626305373964923 
1008	 0,627851033150652 
1009	 0,627022754849326 
1010	 0,627254774558554 
1011	 0,629184907295627 
1012	 0,632193604956077 
1013	 0,633991590477188 
1014	 0,633519408030753 
1015	 0,631735338845305 
1016	 0,630715201677603 
1017	 0,632157855720031 
1018	 0,635216444813039 
1019	 0,638182887704316 
1020	 0,638714292690208 
1021	 0,636753806608048 
1022	 0,633598832523336 
1023	 0,63242301494224 
1024	 0,634466906542266 
1025	 0,638717659069132 
1026	 0,638583049950351 
1027	 0,637428796283472 
1028	 0,637777020250383 
1029	 0,639720150978628 
1030	 0,641652440172573 
1031	 0,641730547128269 
1032	 0,6418211080445 
1033	 0,642302609353071 
1034	 0,643314647549282 
1035	 0,641190074324559 
1036	 0,637259900934901 
1037	 0,640080966735482 
1038	 0,640481457348717 
1039	 0,635981051663074 
1040	 0,637232955010182 
1041	 0,638959096621578 
1042	 0,636756689642328 
1043	 0,634873114730619 
1044	 0,63395260564098 
1045	 0,634216078610684 
1046	 0,63703330639966 
1047	 0,640028408040499 
1048	 0,637085559070069 
1049	 0,636337451117419 
1050	 0,639402064243325 
1051	 0,642357469947848 
1052	 0,642566273236993 
1053	 0,639841260133809 
1054	 0,642546498744851 
1055	 0,64161632893808 
1056	 0,631595675325107 
1057	 0,639660326516005 
1058	 0,650778746939442 
1059	 0,63996386152393 
1060	 0,638659931367012 
1061	 0,646493064516191 
1062	 0,647263304347688 
1063	 0,648590473728498 
1064	 0,650959203307418 
1065	 0,648788217471865 
1066	 0,647877579333407 
1067	 0,651275499645928 
1068	 0,660418492336146 
1069	 0,660232426297112 
1070	 0,643033962046656 
1071	 0,638397531312752 
1072	 0,639040259189772 
1073	 0,633399623302437 
1074	 0,639639004291259 
1075	 0,647586338432509 
