Wavelength	AVEN00288.asd
325	 1,36389420469633E-02 
326	 8,60061772392492E-02 
327	 9,87801312887023E-02 
328	 3,25387259908057E-03 
329	 2,15737238048672E-02 
330	 9,12392389127033E-02 
331	 0,145831873204041 
332	 3,18628516238078E-02 
333	-0,132057306062281 
334	-6,64213307888807E-02 
335	 5,44022194757266E-02 
336	 0,128408222003874 
337	 0,109875447223597 
338	 7,50802467068444E-02 
339	 8,42256902761104E-02 
340	-1,08941458079959E-02 
341	-0,102180288004807 
342	 7,42095031276571E-02 
343	 0,17678119040164 
344	 0,135008674006539 
345	 5,87577589031745E-02 
346	 7,97086453627069E-03 
347	 4,86469616780016E-02 
348	 4,29892108011963E-02 
349	 4,74155850577723E-03 
350	 3,76959268718914E-02 
351	 5,50272683136877E-02 
352	 3,44472630854346E-02 
353	 6,09270457522434E-02 
354	 9,17905857926997E-02 
355	 7,52687482132762E-02 
356	 5,50851682621407E-02 
357	 4,43594342681911E-02 
358	 5,01376528954278E-02 
359	 4,90633141517424E-02 
360	 0,032520386642459 
361	 3,34387214538181E-02 
362	 3,27910467141689E-02 
363	-1,84920264780666E-03 
364	-1,8301672188981E-03 
365	 2,94383804508626E-02 
366	 2,54619440491737E-02 
367	 2,42741859863927E-02 
368	 4,52292438042046E-02 
369	 0,047993839685333 
370	 0,038409634841304 
371	 0,03511168140051 
372	 3,18806036146284E-02 
373	 3,05791268502191E-02 
374	 4,34608663768997E-02 
375	 5,42796903772685E-02 
376	 5,13022724824614E-02 
377	 4,73106440992867E-02 
378	 4,05180493796489E-02 
379	 1,89526801752763E-02 
380	 2,83095988170902E-02 
381	 6,38056656211677E-02 
382	 4,44565228262182E-02 
383	 5,90970641620329E-03 
384	-1,05192886960761E-02 
385	 6,1352954073501E-03 
386	 3,61471450970767E-02 
387	 2,24203711237587E-02 
388	 2,16733250890907E-02 
389	 4,80018978823119E-02 
390	 5,31263349727993E-02 
391	 4,71904656167445E-02 
392	 4,55220583177596E-02 
393	 4,49278885107762E-02 
394	 4,42054138484236E-02 
395	 4,02328085300789E-02 
396	 3,71143567039044E-02 
397	 3,61127830338156E-02 
398	 2,88238416512452E-02 
399	 2,36665805731954E-02 
400	 3,44065310635702E-02 
401	 0,0421531204892 
402	 4,18642136058073E-02 
403	 3,26433744675024E-02 
404	 3,03463795182947E-02 
405	 4,35719961477223E-02 
406	 4,44920990202517E-02 
407	 3,69779625130382E-02 
408	 3,59164373227487E-02 
409	 3,90574443646624E-02 
410	 4,34381181800779E-02 
411	 3,67990023665621E-02 
412	 3,04570066325746E-02 
413	 3,47933826229848E-02 
414	 3,49838576633546E-02 
415	 3,13353768453353E-02 
416	 3,08865100244279E-02 
417	 3,37692871888327E-02 
418	 3,91913381259191E-02 
419	 4,23043313624849E-02 
420	 4,15978777386873E-02 
421	 3,59109880329166E-02 
422	 3,40054279012032E-02 
423	 3,58012400910234E-02 
424	 0,033163041693584 
425	 3,12663559954514E-02 
426	 3,29279190517727E-02 
427	 3,37267120810203E-02 
428	 3,36837126100153E-02 
429	 3,39655934035785E-02 
430	 3,34916968222004E-02 
431	 3,28944364214346E-02 
432	 3,60043823431822E-02 
433	 3,96845675624612E-02 
434	 4,09552284681366E-02 
435	 3,82185425720381E-02 
436	 3,42477555658222E-02 
437	 3,66452864113904E-02 
438	 0,039310305772546 
439	 3,95545570258241E-02 
440	 3,71227577557225E-02 
441	 3,52081352944687E-02 
442	 3,77659791118942E-02 
443	 3,73850026966563E-02 
444	 3,46069718875502E-02 
445	 3,79050747053205E-02 
446	 3,91805069134674E-02 
447	 3,44282139333946E-02 
448	 3,51760936862209E-02 
449	 0,039226940206817 
450	 3,97431490706037E-02 
451	 3,87452266511487E-02 
452	 3,73983432796841E-02 
453	 3,85558567740198E-02 
454	 4,02327448804793E-02 
455	 4,05289836979919E-02 
456	 4,12250451091676E-02 
457	 4,25955767083688E-02 
458	 4,49925670205722E-02 
459	 4,48856260805023E-02 
460	 4,16581287065717E-02 
461	 4,18181578235422E-02 
462	 4,36167766679757E-02 
463	 4,38971100802225E-02 
464	 4,22143248234742E-02 
465	 3,96994737331096E-02 
466	 4,08411767142611E-02 
467	 4,21111740421619E-02 
468	 4,14590092205242E-02 
469	 4,29348360840924E-02 
470	 4,50861219322491E-02 
471	 4,40174363686104E-02 
472	 4,28177492857287E-02 
473	 4,24063907020805E-02 
474	 4,20971318107698E-02 
475	 4,16416590389714E-02 
476	 4,08832770509726E-02 
477	 4,11168259593723E-02 
478	 4,25478894611786E-02 
479	 4,53413477326125E-02 
480	 0,046400242107171 
481	 4,47182738958831E-02 
482	 4,48631300440567E-02 
483	 4,45872835348788E-02 
484	 3,96648315605801E-02 
485	 3,96379192925334E-02 
486	 4,43924767862206E-02 
487	 0,043379894449447 
488	 4,12844690890506E-02 
489	 0,041785770204701 
490	 4,37342148299186E-02 
491	 4,53234425879818E-02 
492	 4,26622315892571E-02 
493	 4,11355016866966E-02 
494	 0,042265872542421 
495	 4,27362647060009E-02 
496	 4,31330910902818E-02 
497	 4,43691140503627E-02 
498	 4,51582708504636E-02 
499	 0,045431535438004 
500	 4,60062500261143E-02 
501	 4,62189057474659E-02 
502	 4,58251727097352E-02 
503	 4,58916593176673E-02 
504	 0,046495456348406 
505	 4,76342213904911E-02 
506	 4,76383643888006E-02 
507	 4,65371452225432E-02 
508	 4,68491790222055E-02 
509	 4,76304808304925E-02 
510	 0,047932989873916 
511	 4,81017805175131E-02 
512	 4,81744416897958E-02 
513	 4,81820501481411E-02 
514	 4,77365097319338E-02 
515	 4,71036186066667E-02 
516	 4,91017780826898E-02 
517	 5,13391817660407E-02 
518	 5,02443096058361E-02 
519	 4,87887121787805E-02 
520	 4,80919634513814E-02 
521	 4,91220463946397E-02 
522	 5,01832952073989E-02 
523	 5,00878827881353E-02 
524	 5,01862414895551E-02 
525	 5,05770155782845E-02 
526	 5,11136742180502E-02 
527	 5,10808721512994E-02 
528	 5,03508633014335E-02 
529	 4,96903667830111E-02 
530	 4,95140971194538E-02 
531	 5,01854078123305E-02 
532	 5,12896980211311E-02 
533	 5,23528437069379E-02 
534	 5,23563623349454E-02 
535	 5,24910148697479E-02 
536	 5,32948037044261E-02 
537	 5,29116347849834E-02 
538	 0,052079539051263 
539	 5,25955842513966E-02 
540	 5,30249479202881E-02 
541	 5,30007555696925E-02 
542	 0,052937263027237 
543	 5,30295378137792E-02 
544	 5,34203780590687E-02 
545	 5,33790955825358E-02 
546	 5,31992973893353E-02 
547	 5,42006845263385E-02 
548	 5,48583906324515E-02 
549	 5,45755995442504E-02 
550	 5,48618316046068E-02 
551	 5,54051371239404E-02 
552	 5,54270686159621E-02 
553	 5,61523249233711E-02 
554	 5,72106229180681E-02 
555	 5,56754035637594E-02 
556	 5,43234494747752E-02 
557	 5,54241624991999E-02 
558	 5,65231162839634E-02 
559	 5,69781337614152E-02 
560	 5,63077721299241E-02 
561	 0,055772296049518 
562	 5,59349562330416E-02 
563	 5,65822494245033E-02 
564	 5,70610790238515E-02 
565	 5,65592096776188E-02 
566	 5,67189316936249E-02 
567	 5,75200337683534E-02 
568	 5,73019722625619E-02 
569	 5,70234915328248E-02 
570	 5,73421521062272E-02 
571	 0,057590556667079 
572	 5,80500835502981E-02 
573	 5,96662222635319E-02 
574	 6,06220432205666E-02 
575	 6,03984408039409E-02 
576	 0,060105283961719 
577	 6,00846741968169E-02 
578	 6,06163868516735E-02 
579	 0,061509817311463 
580	 6,22848112808363E-02 
581	 6,16357208290971E-02 
582	 6,12209743008322E-02 
583	 6,18916185556591E-02 
584	 6,21328179870511E-02 
585	 6,21429190297975E-02 
586	 6,26328337759444E-02 
587	 6,29765011641128E-02 
588	 6,31310171628926E-02 
589	 6,38053285702954E-02 
590	 6,43840716183628E-02 
591	 6,42945615169554E-02 
592	 6,42544977931645E-02 
593	 0,064351155318024 
594	 6,43548460189751E-02 
595	 6,45737387726245E-02 
596	 6,50745865173934E-02 
597	 6,53490715076343E-02 
598	 6,52851407902002E-02 
599	 6,48148090875915E-02 
600	 6,42085767758562E-02 
601	 6,38465514984143E-02 
602	 6,48026646971868E-02 
603	 6,54894771547386E-02 
604	 6,47407286496583E-02 
605	 6,44288499884886E-02 
606	 6,46655206088683E-02 
607	 6,49448027627282E-02 
608	 6,50293570069937E-02 
609	 6,48055853919436E-02 
610	 6,44620230446265E-02 
611	 6,40174331309358E-02 
612	 6,34707521596538E-02 
613	 6,39637090758601E-02 
614	 6,50803292336672E-02 
615	 6,45748688357148E-02 
616	 6,35228972818205E-02 
617	 6,28088695599831E-02 
618	 6,37056953912247E-02 
619	 6,51940445978886E-02 
620	 6,49616586407139E-02 
621	 6,43287561041587E-02 
622	 6,38246856612431E-02 
623	 6,37821147040389E-02 
624	 6,41953933146506E-02 
625	 6,49735788864029E-02 
626	 6,48547969096415E-02 
627	 6,41161317536632E-02 
628	 6,43948101605428E-02 
629	 6,48367343278888E-02 
630	 6,50181665237614E-02 
631	 6,51893635953358E-02 
632	 6,52273224191256E-02 
633	 6,48827342626139E-02 
634	 6,47789450177613E-02 
635	 6,51274088400448E-02 
636	 6,59888586427045E-02 
637	 0,066485539252074 
638	 0,065975649936769 
639	 0,066255998235366 
640	 6,71403359858564E-02 
641	 6,73152199898789E-02 
642	 6,73156895468004E-02 
643	 6,74009921866326E-02 
644	 6,79873752815557E-02 
645	 6,84089403319814E-02 
646	 6,77633569010232E-02 
647	 6,76103511940556E-02 
648	 6,80929913903054E-02 
649	 6,82697107261168E-02 
650	 6,81385503228948E-02 
651	 6,77348649601717E-02 
652	 6,73961568465702E-02 
653	 0,067333612541128 
654	 6,79280276002417E-02 
655	 6,78937542056584E-02 
656	 6,70433887232229E-02 
657	 6,69026137073961E-02 
658	 6,67878018198578E-02 
659	 6,59451927695089E-02 
660	 6,58370923583504E-02 
661	 6,62225114205528E-02 
662	 6,55043774256674E-02 
663	 6,47147228397409E-02 
664	 0,064354762331521 
665	 6,39780380794034E-02 
666	 6,37675428653653E-02 
667	 6,40775404598885E-02 
668	 6,43743557600501E-02 
669	 6,43900150763961E-02 
670	 6,37956881663191E-02 
671	 6,32019550257654E-02 
672	 6,31150305500257E-02 
673	 6,33068648178474E-02 
674	 6,36483415946025E-02 
675	 6,39852283105303E-02 
676	 6,41156295787863E-02 
677	 6,40078182975024E-02 
678	 6,39890852297061E-02 
679	 6,41633103137811E-02 
680	 6,46090379652852E-02 
681	 6,52521813803853E-02 
682	 6,58245124794318E-02 
683	 6,55136893685588E-02 
684	 6,55703349669688E-02 
685	 6,66023409042018E-02 
686	 0,066949439159828 
687	 6,70952434751926E-02 
688	 6,83215776898178E-02 
689	 6,92666660230009E-02 
690	 6,96951357186679E-02 
691	 7,03846876988003E-02 
692	 7,15985144533217E-02 
693	 7,34874951764183E-02 
694	 7,50680703248913E-02 
695	 7,64744314471656E-02 
696	 0,078513867345325 
697	 0,080993287006881 
698	 8,38301594500019E-02 
699	 8,69393983869678E-02 
700	 9,00166115986707E-02 
701	 9,27207575899778E-02 
702	 0,095662173365145 
703	 9,89586866700405E-02 
704	 0,102454176816948 
705	 0,105970988347733 
706	 0,109399387042313 
707	 0,112912065625029 
708	 0,116213731763135 
709	 0,118694109575265 
710	 0,121346742376676 
711	 0,124394358721908 
712	 0,127268868839062 
713	 0,12981703950474 
714	 0,131939733119623 
715	 0,133966340952034 
716	 0,135994660446209 
717	 0,138116336563152 
718	 0,139916149225456 
719	 0,141296669579733 
720	 0,14282260174324 
721	 0,144451009813815 
722	 0,146063724610654 
723	 0,147160523761642 
724	 0,147873417259328 
725	 0,149090960373296 
726	 0,150239554277498 
727	 0,150995024718974 
728	 0,151834507298036 
729	 0,152654978385628 
730	 0,153140695037299 
731	 0,153756758220739 
732	 0,154520088664635 
733	 0,154855036195413 
734	 0,155073818624697 
735	 0,155481135617385 
736	 0,156191382519863 
737	 0,156972065395979 
738	 0,157217883456321 
739	 0,157309579580748 
740	 0,157460403973653 
741	 0,157986105187386 
742	 0,158563927398583 
743	 0,158794574213174 
744	 0,15901637387935 
745	 0,159314545008542 
746	 0,159708723488329 
747	 0,160066579747244 
748	 0,160322205041184 
749	 0,160598567646478 
750	 0,160843761391845 
751	 0,160958247857842 
752	 0,161036989878599 
753	 0,161105082796256 
754	 0,161113280262955 
755	 0,161223190776805 
756	 0,161526545886119 
757	 0,161699991948254 
758	 0,161806527024018 
759	 0,162085400307345 
760	 0,162376378021194 
761	 0,162587574209632 
762	 0,162548437942769 
763	 0,162525074208989 
764	 0,162773178586384 
765	 0,163194650974042 
766	 0,163588342485451 
767	 0,163484485888013 
768	 0,163425704165029 
769	 0,163626748703891 
770	 0,163936130728234 
771	 0,164176930182516 
772	 0,164165550475303 
773	 0,164304275398053 
774	 0,164578895468564 
775	 0,164677147153841 
776	 0,164593863037837 
777	 0,164389153010558 
778	 0,164439095352872 
779	 0,164854681904196 
780	 0,165730928600634 
781	 0,166098330189858 
782	 0,165916819324194 
783	 0,166158133016846 
784	 0,166241372337601 
785	 0,16585536665904 
786	 0,165743243221037 
787	 0,165840828060575 
788	 0,165829603741326 
789	 0,165928336577122 
790	 0,166146326130924 
791	 0,16632071272221 
792	 0,166295533809921 
793	 0,166016195516868 
794	 0,166243231427651 
795	 0,16673726769054 
796	 0,166706916073933 
797	 0,166667622628174 
798	 0,166754150110578 
799	 0,166760433470594 
800	 0,166845051945206 
801	 0,167149234821579 
802	 0,167467182227366 
803	 0,167630916625901 
804	 0,167284108011662 
805	 0,167167784597748 
806	 0,167492275187031 
807	 0,167711517818554 
808	 0,167719970684111 
809	 0,167478510551744 
810	 0,167689759958728 
811	 0,168125535755637 
812	 0,167668375321731 
813	 0,167440360968991 
814	 0,167881872243657 
815	 0,168549689805035 
816	 0,168973968575571 
817	 0,168678432916461 
818	 0,168374899932936 
819	 0,168428916706912 
820	 0,16946366000833 
821	 0,169936661646821 
822	 0,169314923414898 
823	 0,169490304095333 
824	 0,169933958131998 
825	 0,169735794093824 
826	 0,169721278312001 
827	 0,169926634255523 
828	 0,169825126082295 
829	 0,169833115785794 
830	 0,170090490710244 
831	 0,170007030705704 
832	 0,169798559028096 
833	 0,169839682668717 
834	 0,170363792076609 
835	 0,170973475905112 
836	 0,170062292580558 
837	 0,169819693218278 
838	 0,171151947240265 
839	 0,171392962704393 
840	 0,170899555521804 
841	 0,170609843312436 
842	 0,170525627091689 
843	 0,170672301673957 
844	 0,171020827864646 
845	 0,171263813186466 
846	 0,171165733592189 
847	 0,170402521508345 
848	 0,169812988753618 
849	 0,170584064916759 
850	 0,170748337408411 
851	 0,170202631725295 
852	 0,170341176871456 
853	 0,170660425732438 
854	 0,170862366283674 
855	 0,170784457444652 
856	 0,170801794256891 
857	 0,17143968340965 
858	 0,171452424275893 
859	 0,17094287669632 
860	 0,1714006530064 
861	 0,171204552059855 
862	 0,169856725472493 
863	 0,169853754836278 
864	 0,170686694212504 
865	 0,171327358862112 
866	 0,171460022164149 
867	 0,171240961795217 
868	 0,171536972682195 
869	 0,171709694418969 
870	 0,171495112637789 
871	 0,171164101109837 
872	 0,171107060395546 
873	 0,171718460582892 
874	 0,172019176008591 
875	 0,171925539538907 
876	 0,171835236883095 
877	 0,17205751532779 
878	 0,17262572648593 
879	 0,172875181210085 
880	 0,172710043667698 
881	 0,172150731562975 
882	 0,172259307903996 
883	 0,172858842983837 
884	 0,172851080630123 
885	 0,172971315955929 
886	 0,17331285707865 
887	 0,173094312371156 
888	 0,172605639124404 
889	 0,17223977282705 
890	 0,172876483656169 
891	 0,1739498496839 
892	 0,173925834140869 
893	 0,173435713948072 
894	 0,172940803201805 
895	 0,173538465159726 
896	 0,174200780929958 
897	 0,174109659917759 
898	 0,173950948061503 
899	 0,173732562906621 
900	 0,173280157966813 
901	 0,172970560821875 
902	 0,173023915837756 
903	 0,173858569065686 
904	 0,174224917970319 
905	 0,173502919506666 
906	 0,173367322318659 
907	 0,17367639589372 
908	 0,173919670046947 
909	 0,173898035301694 
910	 0,173705434134384 
911	 0,173792447523463 
912	 0,174276262136032 
913	 0,175020465385235 
914	 0,174898400614619 
915	 0,174468366916704 
916	 0,174451022563012 
917	 0,174452035317078 
918	 0,174389189294507 
919	 0,174204178976831 
920	 0,174125542925171 
921	 0,17428498419283 
922	 0,174916444346283 
923	 0,175281914349326 
924	 0,174780720059495 
925	 0,173846086686415 
926	 0,173086665504299 
927	 0,173423762539346 
928	 0,173552515805531 
929	 0,173322743163244 
930	 0,173710287623053 
931	 0,173982952422372 
932	 0,173805474784401 
933	 0,174071643348556 
934	 0,174430641342845 
935	 0,174336720964258 
936	 0,17469790486115 
937	 0,175169654090391 
938	 0,174162137411747 
939	 0,173443108411173 
940	 0,173716363927167 
941	 0,174757243433804 
942	 0,175447364572674 
943	 0,174829906399942 
944	 0,173432525720365 
945	 0,1721118946359 
946	 0,172208125162041 
947	 0,172651902152261 
948	 0,17297535960717 
949	 0,172762316549425 
950	 0,172449809115138 
951	 0,172274718072523 
952	 0,172005644077472 
953	 0,171548608186166 
954	 0,170818994924427 
955	 0,16954982393488 
956	 0,168516810986255 
957	 0,169979612614736 
958	 0,170097166865835 
959	 0,168312086363352 
960	 0,16873863096583 
961	 0,169551419580263 
962	 0,169406130135913 
963	 0,17034144457411 
964	 0,170999162592212 
965	 0,168982969472637 
966	 0,169683679016772 
967	 0,172414813735446 
968	 0,170659449409535 
969	 0,169223043312684 
970	 0,169869549067113 
971	 0,170457349687456 
972	 0,170356747124274 
973	 0,169277487621236 
974	 0,16912181961908 
975	 0,16989577400391 
976	 0,170998085568892 
977	 0,17180124605878 
978	 0,171515816015156 
979	 0,167832601386985 
980	 0,167283066197969 
981	 0,171763426494594 
982	 0,171434212644106 
983	 0,169194263268016 
984	 0,168901990554212 
985	 0,171033839272747 
986	 0,173468941712462 
987	 0,171939068506363 
988	 0,169487035319988 
989	 0,168160376303379 
990	 0,171907750130303 
991	 0,174273195600294 
992	 0,172624858118106 
993	 0,173652195227309 
994	 0,175478616296511 
995	 0,175714388647441 
996	 0,176852003948278 
997	 0,176787154370984 
998	 0,170503990972918 
999	 0,16998971946671 
1000	 0,175656550597199 
1001	 0,17575911396834 
1002	 0,174205987652171 
1003	 0,173215669140136 
1004	 0,173748222279684 
1005	 0,175331388289954 
1006	 0,177148632863706 
1007	 0,177239270929179 
1008	 0,176016002562638 
1009	 0,174849436807783 
1010	 0,175903417732744 
1011	 0,178816807327305 
1012	 0,180848348910824 
1013	 0,179659608852444 
1014	 0,175606932692535 
1015	 0,1764452238566 
1016	 0,178807020938172 
1017	 0,179350228234715 
1018	 0,1783134346562 
1019	 0,177472004333865 
1020	 0,179382891831712 
1021	 0,178726645869108 
1022	 0,176390134579378 
1023	 0,178286552278407 
1024	 0,181359854005997 
1025	 0,183763706023292 
1026	 0,182088664088069 
1027	 0,181664410740532 
1028	 0,184911944013303 
1029	 0,181757540637437 
1030	 0,17926221955461 
1031	 0,186029625753129 
1032	 0,187948200496631 
1033	 0,184977691095339 
1034	 0,182744730657661 
1035	 0,183052982016483 
1036	 0,184873617650079 
1037	 0,181753972779641 
1038	 0,179682135047529 
1039	 0,18138888909833 
1040	 0,185034457382482 
1041	 0,188760299598436 
1042	 0,190997932362918 
1043	 0,193499991271282 
1044	 0,191578461209704 
1045	 0,179560567183995 
1046	 0,179192028492516 
1047	 0,186912608168491 
1048	 0,182720134659807 
1049	 0,181298902748901 
1050	 0,184449611549856 
1051	 0,181635892957626 
1052	 0,18050025916887 
1053	 0,184911319225203 
1054	 0,193469694216068 
1055	 0,198796564814381 
1056	 0,195365770430236 
1057	 0,190485037314611 
1058	 0,18724390424654 
1059	 0,188061891703208 
1060	 0,19030552495927 
1061	 0,192207944960298 
1062	 0,191052637532319 
1063	 0,193732426703234 
1064	 0,197148755817884 
1065	 0,181833149380149 
1066	 0,172026856069757 
1067	 0,178553349764202 
1068	 0,188079422093542 
1069	 0,195097679329361 
1070	 0,196154474239084 
1071	 0,199604879163639 
1072	 0,198908832680171 
1073	 0,186637551342062 
1074	 0,183136615034792 
1075	 0,185238435068693 
