Wavelength	AVEN00499.asd
325	 0,12615398041428 
326	 0,015160130378723 
327	-4,35352273633295E-02 
328	-1,03197750197042E-02 
329	 3,21018153952609E-02 
330	 5,55549892197989E-02 
331	 6,16933828609189E-02 
332	 6,59591935289146E-02 
333	 4,62755666113875E-02 
334	-8,06643985835674E-02 
335	-5,28249051450697E-02 
336	 0,113814371786225 
337	 8,07655003277705E-02 
338	-2,67224618508654E-03 
339	-3,76779283141828E-03 
340	-5,69789311026734E-02 
341	-0,108323624671734 
342	-1,40302133939038E-02 
343	 0,077679494843111 
344	 0,114580003324681 
345	 7,96404496264106E-02 
346	 0,025030279410946 
347	 1,37809551341235E-02 
348	 5,32870825743632E-02 
349	 0,103672372775506 
350	 6,23452973069857E-02 
351	 3,77441839320239E-02 
352	 6,43858514137113E-02 
353	 6,72808973894317E-02 
354	 5,93348464180388E-02 
355	 5,99105871718042E-02 
356	 6,47800351564434E-02 
357	 0,063979202856916 
358	 2,84599512621422E-02 
359	 9,61087116875247E-03 
360	 2,59923787428515E-02 
361	 2,98363305372471E-02 
362	 1,94984540912478E-02 
363	 1,74090551540992E-04 
364	 6,71772421513335E-03 
365	 3,22429408180742E-02 
366	 2,74939437313306E-02 
367	 2,63205201729696E-02 
368	 4,49487360902425E-02 
369	 3,76131552015266E-02 
370	 1,57078133970222E-02 
371	 9,9644783205535E-03 
372	 6,65209541005417E-04 
373	-6,74990759904502E-03 
374	 3,24843764866414E-02 
375	 5,74179772069786E-02 
376	 2,73562226895246E-02 
377	 1,43115494035958E-02 
378	 1,76402424246636E-02 
379	 9,48973586086767E-03 
380	 1,79146520590524E-02 
381	 4,00081418931147E-02 
382	 3,06552406713734E-02 
383	 1,04883459621424E-02 
384	 2,37179298492694E-03 
385	-5,89574500912063E-03 
386	-8,97012035133391E-03 
387	 1,22873755569443E-02 
388	 2,84021909597128E-02 
389	 3,05078126260817E-02 
390	 4,41968973037669E-02 
391	 5,37958856720698E-02 
392	 0,040445981283569 
393	 3,09132790585679E-02 
394	 2,84798736711527E-02 
395	 0,020326263228061 
396	 1,99366440854666E-02 
397	 3,09247016946653E-02 
398	 2,88910385449117E-02 
399	 1,96477934804783E-02 
400	 1,55828900877754E-02 
401	 0,021713637815929 
402	 3,28339992777319E-02 
403	 2,53808978348105E-02 
404	 1,74941617540275E-02 
405	 2,15995524559761E-02 
406	 2,97180487238254E-02 
407	 3,48073004747535E-02 
408	 2,55722018785774E-02 
409	 2,14216470314101E-02 
410	 2,51922954207429E-02 
411	 1,89166305849975E-02 
412	 1,47142915142044E-02 
413	 2,36510302578474E-02 
414	 2,61939516527396E-02 
415	 0,022992053602383 
416	 2,48718898708237E-02 
417	 2,75609485015293E-02 
418	 2,89741079570378E-02 
419	 2,67200740651836E-02 
420	 2,38488015663263E-02 
421	 2,42905746059448E-02 
422	 2,55661609414996E-02 
423	 2,58084650767702E-02 
424	 2,04562038945329E-02 
425	 1,76496357128473E-02 
426	 2,16604474873374E-02 
427	 0,023428805665847 
428	 0,023738435749179 
429	 2,66004331502133E-02 
430	 2,56396736091904E-02 
431	 2,13244332061281E-02 
432	 2,39097563740559E-02 
433	 2,70650208278977E-02 
434	 2,50247930915855E-02 
435	 2,11523881673678E-02 
436	 1,81483351141348E-02 
437	 0,021501343253828 
438	 2,30082682985848E-02 
439	 0,020325197973706 
440	 2,11097532313655E-02 
441	 2,42884454712863E-02 
442	 2,76659663672328E-02 
443	 2,59905101061334E-02 
444	 0,021327421686747 
445	 2,51449896686775E-02 
446	 0,028810811316329 
447	 2,71514520799052E-02 
448	 2,50735430676348E-02 
449	 2,40434178086296E-02 
450	 2,55565782116057E-02 
451	 2,62863597812577E-02 
452	 2,55529142824875E-02 
453	 2,54685517604482E-02 
454	 2,62403414876708E-02 
455	 2,78343181971961E-02 
456	 2,79446023386345E-02 
457	 2,70900812333864E-02 
458	 0,028021689020093 
459	 2,82680925041149E-02 
460	 2,71599283750051E-02 
461	 2,73229029600305E-02 
462	 2,80004135843029E-02 
463	 2,78530580423886E-02 
464	 2,79446094628757E-02 
465	 2,87499798625178E-02 
466	 3,15633673231342E-02 
467	 3,16083346075077E-02 
468	 2,67307692307692E-02 
469	 2,77730210940565E-02 
470	 3,15751557242429E-02 
471	 0,028598741567002 
472	 2,69781364218765E-02 
473	 2,83044247716036E-02 
474	 2,73508180275919E-02 
475	 2,56392362744271E-02 
476	 2,49491225583197E-02 
477	 2,52857287978857E-02 
478	 2,65907776987406E-02 
479	 2,91417848170987E-02 
480	 2,90964486442302E-02 
481	 2,56329181332363E-02 
482	 2,67481847382082E-02 
483	 2,92015335815259E-02 
484	 2,68898742024186E-02 
485	 0,026643271672123 
486	 2,87213865973479E-02 
487	 2,70454179234309E-02 
488	 2,50791922998983E-02 
489	 2,55378206163408E-02 
490	 2,77009300889015E-02 
491	 0,029893321375 
492	 2,87122155264135E-02 
493	 2,74205681444085E-02 
494	 2,72145723225933E-02 
495	 2,77035964833562E-02 
496	 2,81808061945904E-02 
497	 2,78940360912075E-02 
498	 2,76852609516325E-02 
499	 2,78852226163983E-02 
500	 2,90128313695062E-02 
501	 2,95320537892995E-02 
502	 2,87251631826584E-02 
503	 2,84767391668346E-02 
504	 2,86906805990639E-02 
505	 2,86886626110593E-02 
506	 2,93217746989777E-02 
507	 3,04403763756813E-02 
508	 3,04122547786981E-02 
509	 3,01896749443782E-02 
510	 3,06158952271079E-02 
511	 2,98168449613252E-02 
512	 2,87588881316349E-02 
513	 3,11315237883423E-02 
514	 0,031847851890783 
515	 2,95185552442196E-02 
516	 3,07647792982261E-02 
517	 3,30484094759974E-02 
518	 3,19989238278944E-02 
519	 3,15685299019332E-02 
520	 3,23067750231589E-02 
521	 3,24405676744897E-02 
522	 3,23142427127962E-02 
523	 3,21977340086274E-02 
524	 3,19967301538675E-02 
525	 3,18736640478503E-02 
526	 3,22231783514983E-02 
527	 3,24565118410256E-02 
528	 3,24246540997896E-02 
529	 3,26315874328238E-02 
530	 3,26546208672396E-02 
531	 3,19952579046622E-02 
532	 3,18474437387963E-02 
533	 3,23913344385346E-02 
534	 3,34111195060619E-02 
535	 3,37364604765993E-02 
536	 3,28168408790985E-02 
537	 3,23304938012661E-02 
538	 3,25497075682377E-02 
539	 3,35929423885333E-02 
540	 3,39194357653371E-02 
541	 3,32809384717424E-02 
542	 3,31625899880341E-02 
543	 3,31526976291114E-02 
544	 0,032827363878586 
545	 3,34763282292359E-02 
546	 3,47403804203633E-02 
547	 3,49992142845578E-02 
548	 3,49174828646767E-02 
549	 0,034870637412763 
550	 3,52884868675085E-02 
551	 3,55928478897504E-02 
552	 3,47568451780243E-02 
553	 3,49212983485418E-02 
554	 0,035994994797178 
555	 3,49097889125827E-02 
556	 3,39949523310439E-02 
557	 3,51313112532037E-02 
558	 3,58528602259104E-02 
559	 3,58677011126899E-02 
560	 3,56189124982129E-02 
561	 3,52426949243853E-02 
562	 3,48831779568186E-02 
563	 3,47681729878328E-02 
564	 3,47279525418518E-02 
565	 3,45010126708949E-02 
566	 3,49276506477004E-02 
567	 3,57399386244971E-02 
568	 3,52328345214004E-02 
569	 3,47680180653446E-02 
570	 3,52536737224475E-02 
571	 3,54510292124498E-02 
572	 3,57891804269472E-02 
573	 0,037770197460971 
574	 3,88708005905648E-02 
575	 3,83757262069068E-02 
576	 3,77637710834589E-02 
577	 0,037652844692961 
578	 3,85699570928673E-02 
579	 3,89333393057565E-02 
580	 3,86658189718554E-02 
581	 0,038662126611298 
582	 3,93703055365027E-02 
583	 4,08212039201771E-02 
584	 0,040987834214406 
585	 4,05006456347198E-02 
586	 4,09046462318119E-02 
587	 4,18929963722995E-02 
588	 4,29928896188241E-02 
589	 4,24748996552798E-02 
590	 4,17882886919902E-02 
591	 4,23116881264383E-02 
592	 4,26264642813481E-02 
593	 4,27492948216509E-02 
594	 4,36175565767363E-02 
595	 4,38634160672295E-02 
596	 4,30822693405129E-02 
597	 4,32702905002819E-02 
598	 4,37138736525988E-02 
599	 4,30199422489706E-02 
600	 4,25175957176769E-02 
601	 4,25670480602814E-02 
602	 4,30490417477624E-02 
603	 4,34121083662183E-02 
604	 4,32229569874188E-02 
605	 4,28069136794894E-02 
606	 4,23001611130607E-02 
607	 4,17855734261414E-02 
608	 4,16944833788802E-02 
609	 4,20449283075814E-02 
610	 4,18364331942827E-02 
611	 4,14757411122272E-02 
612	 4,15669012424059E-02 
613	 4,17121896998302E-02 
614	 4,16949512613846E-02 
615	 4,11307567445872E-02 
616	 4,05336041501223E-02 
617	 4,02901051061838E-02 
618	 4,05049292656773E-02 
619	 4,11367559215117E-02 
620	 4,22040150598141E-02 
621	 4,24578581699626E-02 
622	 4,15990096572871E-02 
623	 4,03961622294423E-02 
624	 0,039934938946007 
625	 4,11817211921577E-02 
626	 4,17132912065079E-02 
627	 4,14097648827084E-02 
628	 4,16650625677068E-02 
629	 0,041630987530734 
630	 4,10950226211134E-02 
631	 4,17087803943729E-02 
632	 4,26261005294253E-02 
633	 4,21490289655253E-02 
634	 4,22775081362619E-02 
635	 4,32438350122115E-02 
636	 4,35039026998637E-02 
637	 0,043527767164029 
638	 4,37559083213427E-02 
639	 4,40590639631255E-02 
640	 4,44551585677793E-02 
641	 4,51066554015605E-02 
642	 4,53251393288571E-02 
643	 4,50118365078845E-02 
644	 4,54818173759125E-02 
645	 0,046114845394812 
646	 0,045956774463346 
647	 4,58676735934606E-02 
648	 4,60220965573246E-02 
649	 0,046354881830175 
650	 4,61243691724954E-02 
651	 4,50223133092741E-02 
652	 4,50412065501412E-02 
653	 4,58380065511683E-02 
654	 4,61971591123956E-02 
655	 4,57443518039959E-02 
656	 4,45601801123877E-02 
657	 4,39432548973905E-02 
658	 4,36454917711225E-02 
659	 4,33139641569319E-02 
660	 4,30447262687065E-02 
661	 4,26073605142434E-02 
662	 4,12503005251587E-02 
663	 4,02576677536149E-02 
664	 4,02260765537495E-02 
665	 4,01938367435668E-02 
666	 4,00822439927399E-02 
667	 3,99542102784166E-02 
668	 4,00218356593637E-02 
669	 4,01194999541271E-02 
670	 3,93691996706997E-02 
671	 3,85460860446197E-02 
672	 3,83016740694137E-02 
673	 3,83695544304963E-02 
674	 3,86474202131995E-02 
675	 3,90104075882149E-02 
676	 3,95043842890206E-02 
677	 3,98890651163754E-02 
678	 3,88371014669721E-02 
679	 3,78145121654822E-02 
680	 3,86472946495116E-02 
681	 3,96029452050243E-02 
682	 4,01150379637167E-02 
683	 3,97023094624367E-02 
684	 3,98141325849947E-02 
685	 4,11603301804921E-02 
686	 4,18586942314505E-02 
687	 4,21563495186515E-02 
688	 4,29212139343827E-02 
689	 4,40876223910569E-02 
690	 4,55456910347321E-02 
691	 4,66883016259415E-02 
692	 4,81798000566675E-02 
693	 5,05791826434364E-02 
694	 5,26923769656346E-02 
695	 5,46729722390671E-02 
696	 5,75359837693919E-02 
697	 6,04169296556284E-02 
698	 6,32120779047013E-02 
699	 6,75322012310312E-02 
700	 0,072122580460118 
701	 7,52454158329607E-02 
702	 7,87859670184008E-02 
703	 8,29259726620384E-02 
704	 0,086672211926449 
705	 9,03540499632761E-02 
706	 9,41496541639215E-02 
707	 9,76667379813056E-02 
708	 0,10100482623936 
709	 0,104474803053535 
710	 0,107615699570994 
711	 0,110346269728048 
712	 0,113035140157126 
713	 0,115399423182061 
714	 0,117208701915837 
715	 0,119238078105312 
716	 0,121455569407614 
717	 0,123382731968831 
718	 0,125039308227821 
719	 0,126480960692659 
720	 0,128075528944101 
721	 0,129636365604477 
722	 0,130889882230446 
723	 0,132119143848116 
724	 0,133309276235374 
725	 0,134210290499134 
726	 0,134885722501797 
727	 0,135393115211291 
728	 0,135836408654439 
729	 0,13629938920178 
730	 0,136871187660433 
731	 0,137591223989808 
732	 0,138356032557733 
733	 0,138691273531502 
734	 0,138996264844905 
735	 0,139622302996828 
736	 0,140329162840875 
737	 0,140870495577831 
738	 0,140734737471015 
739	 0,140612222164265 
740	 0,140833378734454 
741	 0,141518347283363 
742	 0,142225461530485 
743	 0,142442250823266 
744	 0,142656234586912 
745	 0,14288658644423 
746	 0,142743401204494 
747	 0,143040461489562 
748	 0,144033602526305 
749	 0,144211734644273 
750	 0,14390075207874 
751	 0,143871549562128 
752	 0,144144821229781 
753	 0,144615141617588 
754	 0,144765258021195 
755	 0,144911588675743 
756	 0,145233148839736 
757	 0,145025067768861 
758	 0,144708485461541 
759	 0,145361673890295 
760	 0,145900574602097 
761	 0,145998374328376 
762	 0,145933618749451 
763	 0,145971508229675 
764	 0,146324148587696 
765	 0,146445300516287 
766	 0,146456604211154 
767	 0,146985313917556 
768	 0,14739064528254 
769	 0,147458467616863 
770	 0,147601346830975 
771	 0,147656689923958 
772	 0,147412951998867 
773	 0,147722015658322 
774	 0,14840865588044 
775	 0,148342666188347 
776	 0,148131116673492 
777	 0,148112320284759 
778	 0,148284908593559 
779	 0,148628377586072 
780	 0,149108883685638 
781	 0,149298640401823 
782	 0,149221766360224 
783	 0,149485047893995 
784	 0,149530009771829 
785	 0,149097597908347 
786	 0,149225774731931 
787	 0,149794761369189 
788	 0,150361997596828 
789	 0,150380564983859 
790	 0,149959215601369 
791	 0,150427628863219 
792	 0,150800434974892 
793	 0,150352252913182 
794	 0,150416942252043 
795	 0,150849616307976 
796	 0,150857838108378 
797	 0,150869117398123 
798	 0,151030616528865 
799	 0,151393760991404 
800	 0,151728463017616 
801	 0,151823299990268 
802	 0,151865542181537 
803	 0,151931503421286 
804	 0,152074646697461 
805	 0,152477109001909 
806	 0,15304134631275 
807	 0,152899851591781 
808	 0,152534743631507 
809	 0,15253627366532 
810	 0,152952895950904 
811	 0,153496336825653 
812	 0,153329412939739 
813	 0,15313752180981 
814	 0,153236512541824 
815	 0,153622467990305 
816	 0,15396722010141 
817	 0,153897928059057 
818	 0,153901291348381 
819	 0,154075706086513 
820	 0,15439518492572 
821	 0,154508535675954 
822	 0,154321493426021 
823	 0,154475978643955 
824	 0,154642363516736 
825	 0,154330409046598 
826	 0,154568594313398 
827	 0,155270714133332 
828	 0,155446095871178 
829	 0,155140795591607 
830	 0,15453094793534 
831	 0,154682641166375 
832	 0,155164024637623 
833	 0,15522035985009 
834	 0,155395081946697 
835	 0,155636051250613 
836	 0,155291666908441 
837	 0,155391429415028 
838	 0,156298598515548 
839	 0,156358774726655 
840	 0,155951268355791 
841	 0,155878418580473 
842	 0,155723058422829 
843	 0,155626506312193 
844	 0,156390110875505 
845	 0,156776755423952 
846	 0,156256241607197 
847	 0,156374330979274 
848	 0,156708213667333 
849	 0,156423617950273 
850	 0,156185696677234 
851	 0,156169161042917 
852	 0,156375789606169 
853	 0,156603577353157 
854	 0,156709667231687 
855	 0,156542665446515 
856	 0,156571989915921 
857	 0,157434449700295 
858	 0,157584940980241 
859	 0,157082985989375 
860	 0,157446702490519 
861	 0,157753680716245 
862	 0,157544565671714 
863	 0,157019886929559 
864	 0,156854417180147 
865	 0,15784666387921 
866	 0,158366169928562 
867	 0,158248774692306 
868	 0,158323115999401 
869	 0,158262225663246 
870	 0,158047704589733 
871	 0,158424890627606 
872	 0,158875667889089 
873	 0,158715579582888 
874	 0,15844564469612 
875	 0,158273716699277 
876	 0,158403995228816 
877	 0,158845539610162 
878	 0,15943244298995 
879	 0,159285305107763 
880	 0,158962172304104 
881	 0,159118761906392 
882	 0,159112543193187 
883	 0,159034292938814 
884	 0,159464535178053 
885	 0,159841202656014 
886	 0,159880608904451 
887	 0,15927638288737 
888	 0,158903260256736 
889	 0,159525298337136 
890	 0,159914511095569 
891	 0,160040361922037 
892	 0,160417323328166 
893	 0,16019180317654 
894	 0,159485055967705 
895	 0,160083862133115 
896	 0,160706278452712 
897	 0,160318355887858 
898	 0,159457766137939 
899	 0,15900603280996 
900	 0,160375456339861 
901	 0,161263106111158 
902	 0,161154293221279 
903	 0,160875101017368 
904	 0,160986854185594 
905	 0,16164309476438 
906	 0,161015283027129 
907	 0,160299698389403 
908	 0,16146015499602 
909	 0,161849767880525 
910	 0,161283129603104 
911	 0,161310556285753 
912	 0,161521238856086 
913	 0,161715384047798 
914	 0,161706850528187 
915	 0,161862898223982 
916	 0,162528198894253 
917	 0,162029059479792 
918	 0,160816030418148 
919	 0,160828572527465 
920	 0,161380881739815 
921	 0,162020068670628 
922	 0,161678056366315 
923	 0,161324247991855 
924	 0,161659751971398 
925	 0,160659206719909 
926	 0,159506519224067 
927	 0,160861522170215 
928	 0,161790800320122 
929	 0,161754150967146 
930	 0,162118306635918 
931	 0,162460392404835 
932	 0,162566007822807 
933	 0,162763157381948 
934	 0,162782403837758 
935	 0,162268602579045 
936	 0,16202781283151 
937	 0,162047901825756 
938	 0,161666627009225 
939	 0,161634331276517 
940	 0,162153184209273 
941	 0,162749316010445 
942	 0,163043346102361 
943	 0,162702437397961 
944	 0,161435213718556 
945	 0,160266680460927 
946	 0,161095588286817 
947	 0,162222291081974 
948	 0,162788483787946 
949	 0,16174320651113 
950	 0,160531587144783 
951	 0,160072236013911 
952	 0,16020657045827 
953	 0,160314287526448 
954	 0,159702957917613 
955	 0,159448584542433 
956	 0,159500870501192 
957	 0,159219537207452 
958	 0,158264120741787 
959	 0,156974765404621 
960	 0,157412109971424 
961	 0,158402620440836 
962	 0,158936333296328 
963	 0,159068927424075 
964	 0,159011623613915 
965	 0,159108472113582 
966	 0,159379725533055 
967	 0,159754982764666 
968	 0,159949290842347 
969	 0,16029532871936 
970	 0,160822800828685 
971	 0,161157329317595 
972	 0,16029256136195 
973	 0,157752297719859 
974	 0,158036319343495 
975	 0,159796417278192 
976	 0,159222920192568 
977	 0,159711439088257 
978	 0,160959422540225 
979	 0,158656039008641 
980	 0,157472614529707 
981	 0,159306637052957 
982	 0,160456533891394 
983	 0,160213163436516 
984	 0,158445862793709 
985	 0,15858997178386 
986	 0,160323269868231 
987	 0,161799370881622 
988	 0,161026083740048 
989	 0,159057040819282 
990	 0,162397650239168 
991	 0,164006951518119 
992	 0,161102488996203 
993	 0,160793237349056 
994	 0,162179198821701 
995	 0,16367264662441 
996	 0,165606285317118 
997	 0,166490668209447 
998	 0,163455564513867 
999	 0,163744984518363 
1000	 0,167348915609317 
1001	 0,165960154897911 
1002	 0,165448673915209 
1003	 0,167864237012451 
1004	 0,167041923897409 
1005	 0,164865648563803 
1006	 0,163740590188079 
1007	 0,164266944990308 
1008	 0,164810008739433 
1009	 0,162172708586119 
1010	 0,163336006308913 
1011	 0,168425191289478 
1012	 0,171927035531664 
1013	 0,173629352526598 
1014	 0,17311193933203 
1015	 0,169870969197441 
1016	 0,168570067639099 
1017	 0,172256360833789 
1018	 0,171522655241467 
1019	 0,168519605328892 
1020	 0,168610659657744 
1021	 0,170990432700465 
1022	 0,17339693635658 
1023	 0,169395467478316 
1024	 0,168774303842476 
1025	 0,173303411594364 
1026	 0,174505019234064 
1027	 0,174980490175635 
1028	 0,176147467085558 
1029	 0,174600067126312 
1030	 0,173476778623291 
1031	 0,176403315665762 
1032	 0,176594455625556 
1033	 0,174410447383578 
1034	 0,173263581231912 
1035	 0,173350980458404 
1036	 0,174222514575117 
1037	 0,173515255943862 
1038	 0,174339521941303 
1039	 0,17649853010255 
1040	 0,171025418809482 
1041	 0,167939502912712 
1042	 0,174227021608158 
1043	 0,173945526389763 
1044	 0,171688842561568 
1045	 0,176481665526706 
1046	 0,179174617259175 
1047	 0,178843961323399 
1048	 0,178069055806384 
1049	 0,175852562855145 
1050	 0,174008150803042 
1051	 0,180134708765682 
1052	 0,182123398521556 
1053	 0,175172690527467 
1054	 0,170280079405218 
1055	 0,167866601848557 
1056	 0,16793171615946 
1057	 0,172910504580557 
1058	 0,17759365864644 
1059	 0,175055690669246 
1060	 0,17965914054193 
1061	 0,18738845015896 
1062	 0,181999344732189 
1063	 0,178005866947278 
1064	 0,177540549676279 
1065	 0,171382662985861 
1066	 0,166434956028263 
1067	 0,167268990365701 
1068	 0,176560592359707 
1069	 0,1864520529467 
1070	 0,190121179810089 
1071	 0,188963817460131 
1072	 0,184357182642412 
1073	 0,178182227961852 
1074	 0,176151833188012 
1075	 0,173102079201027 
