Wavelength	AVEN00087.asd
325	 0,316042587409536 
326	 0,117877421576557 
327	 4,38807239482287E-02 
328	 0,125695779779375 
329	 9,34775584663641E-02 
330	 3,71827741050904E-02 
331	 2,87003013706859E-02 
332	 3,89979476035253E-02 
333	 0,056707204717155 
334	 6,93394227273043E-02 
335	 7,56008919388434E-02 
336	 7,52894628568852E-02 
337	 7,58962780636714E-02 
338	 0,086088279309658 
339	 0,107840850625965 
340	 4,12022594787456E-02 
341	-4,74322738004587E-02 
342	-3,36517542423964E-03 
343	 5,05927813042612E-02 
344	 7,48436760738079E-02 
345	 0,073551627786217 
346	 4,87117725719484E-02 
347	 6,72893120325533E-03 
348	 9,70466103671908E-03 
349	 4,36657430181513E-02 
350	 4,94233095846216E-02 
351	 0,045770280540254 
352	 3,83854817326569E-02 
353	 1,45048281753092E-02 
354	 3,63879243959916E-03 
355	 3,83030811138748E-02 
356	 4,32273642917357E-02 
357	 2,28888329729446E-02 
358	 4,58598636793322E-02 
359	 5,73647126610918E-02 
360	 3,56527724511265E-02 
361	 2,08728385960151E-02 
362	 1,33440644239779E-02 
363	 3,73566882504016E-03 
364	-1,79199195175544E-03 
365	-5,56477151174885E-04 
366	 8,66801819651272E-03 
367	 2,64039277182959E-02 
368	 4,63622749625615E-02 
369	 3,07327844741067E-02 
370	-7,753999398568E-04 
371	-4,7772401372829E-03 
372	 1,03417780682548E-03 
373	 1,15966171499027E-02 
374	 2,87249867145022E-02 
375	 3,46402338796577E-02 
376	 1,92307276347728E-02 
377	 1,57196094074235E-02 
378	 2,12577625318906E-02 
379	 1,57100525284416E-02 
380	 2,41879432493861E-02 
381	 4,37801891238786E-02 
382	 3,16580540880706E-02 
383	 7,49930373486224E-03 
384	-5,75306031109169E-03 
385	-0,002425770750638 
386	 1,27386792985845E-02 
387	 2,59455295566675E-02 
388	 3,33059311696747E-02 
389	 3,39614420032341E-02 
390	 3,80631448486489E-02 
391	 3,68618073551075E-02 
392	 1,97831766635694E-02 
393	 2,17900744280951E-02 
394	 3,75639093001812E-02 
395	 2,62803266906938E-02 
396	 1,32935021518222E-02 
397	 1,11823394472557E-02 
398	 9,76046966277795E-03 
399	 9,9536218213261E-03 
400	 0,014860039372104 
401	 0,016561012783823 
402	 1,45971450532921E-02 
403	 1,50359994570632E-02 
404	 1,57990320357402E-02 
405	 1,56325472738874E-02 
406	 0,017423168165552 
407	 2,03262197871169E-02 
408	 2,26345897600426E-02 
409	 2,21373112932169E-02 
410	 1,84297428370876E-02 
411	 0,011940907122818 
412	 0,011230888961701 
413	 2,28226000169674E-02 
414	 2,30121702016341E-02 
415	 1,53187092756978E-02 
416	 2,02597667324636E-02 
417	 0,022837926179929 
418	 1,87829412835909E-02 
419	 2,04069843328111E-02 
420	 2,25997658798038E-02 
421	 1,77300867997167E-02 
422	 1,72579397358687E-02 
423	 2,03815562056614E-02 
424	 1,56687662034214E-02 
425	 9,83206048042877E-03 
426	 7,54050102461888E-03 
427	 1,05576581147437E-02 
428	 1,49261233390338E-02 
429	 1,34138691186653E-02 
430	 1,05304290067073E-02 
431	 9,09810890081243E-03 
432	 1,56016663580762E-02 
433	 2,12212135661739E-02 
434	 0,018449858042346 
435	 1,51416958134444E-02 
436	 1,37337788012679E-02 
437	 1,72420279353199E-02 
438	 1,64423296796132E-02 
439	 9,32969990005211E-03 
440	 8,00619869555398E-03 
441	 1,13096620941891E-02 
442	 1,63173709734425E-02 
443	 1,65444896375058E-02 
444	 1,26964819277108E-02 
445	 1,30109275833628E-02 
446	 1,47450823185897E-02 
447	 1,58417363113645E-02 
448	 1,36028604826928E-02 
449	 1,12614756206322E-02 
450	 1,56374055383122E-02 
451	 1,86256348330926E-02 
452	 1,76978903110391E-02 
453	 1,36716973643131E-02 
454	 1,14728057435184E-02 
455	 1,51948139206311E-02 
456	 1,62859345364172E-02 
457	 1,48872296754479E-02 
458	 1,63286147854789E-02 
459	 1,61580109139652E-02 
460	 1,34083368801641E-02 
461	 1,40917777589176E-02 
462	 1,59599631431369E-02 
463	 0,015289820570067 
464	 1,46208575106675E-02 
465	 1,48141249706765E-02 
466	 1,68336723592497E-02 
467	 1,78175870512304E-02 
468	 1,63669106975156E-02 
469	 1,83665587984525E-02 
470	 2,10662207745821E-02 
471	 1,71300191500674E-02 
472	 1,56743683356739E-02 
473	 1,79469824071692E-02 
474	 1,47504537503813E-02 
475	 1,10135854613669E-02 
476	 1,18863394069088E-02 
477	 1,33223655915839E-02 
478	 1,43655538416043E-02 
479	 1,49617705267199E-02 
480	 1,46499299325589E-02 
481	 1,33010801805235E-02 
482	 1,15491536219809E-02 
483	 1,01083547318009E-02 
484	 9,74271692454263E-03 
485	 1,15334601614646E-02 
486	 1,44932771368127E-02 
487	 1,41968921580768E-02 
488	 1,29055838075253E-02 
489	 0,012542698977028 
490	 1,41872583939607E-02 
491	 1,60797725335878E-02 
492	 1,36592879870595E-02 
493	 1,22161064434633E-02 
494	 1,30294832059935E-02 
495	 1,18598407300027E-02 
496	 1,08987338648265E-02 
497	 1,28664484877156E-02 
498	 0,013915617461738 
499	 1,35820233789624E-02 
500	 1,34697563218618E-02 
501	 1,25782278288634E-02 
502	 1,09254302853181E-02 
503	 1,32821715679264E-02 
504	 1,65083484054558E-02 
505	 1,41871662962603E-02 
506	 1,24200731639145E-02 
507	 1,25563839964292E-02 
508	 1,17332123594868E-02 
509	 1,14690465740811E-02 
510	 1,30587081861625E-02 
511	 1,34936182083862E-02 
512	 1,29324716002313E-02 
513	 1,34969673537964E-02 
514	 1,32413680818975E-02 
515	 1,19515826829556E-02 
516	 1,38836840793218E-02 
517	 1,63017217326305E-02 
518	 1,49611095012435E-02 
519	 0,013351072044305 
520	 1,26228322590781E-02 
521	 1,34428390818017E-02 
522	 1,40504966816942E-02 
523	 0,013275847246739 
524	 1,31423852867217E-02 
525	 1,35212933517276E-02 
526	 1,33171193287754E-02 
527	 1,36369909028333E-02 
528	 1,44384284862076E-02 
529	 0,013539095418782 
530	 1,20970873253851E-02 
531	 1,15909486088378E-02 
532	 1,20037152297488E-02 
533	 1,29488339892562E-02 
534	 1,32397842505799E-02 
535	 1,33930886105479E-02 
536	 1,36761657731678E-02 
537	 1,37347495097742E-02 
538	 1,36585824031116E-02 
539	 1,36880078528592E-02 
540	 1,36395496734261E-02 
541	 0,013539648344018 
542	 1,37810837303487E-02 
543	 1,39070465915165E-02 
544	 1,34899611261925E-02 
545	 1,33223547794852E-02 
546	 1,34685196102208E-02 
547	 1,36418274737077E-02 
548	 1,37126582531158E-02 
549	 1,36769656477482E-02 
550	 1,41404549479551E-02 
551	 1,45575638063843E-02 
552	 1,39503056192367E-02 
553	 1,41933829113265E-02 
554	 1,50591685669122E-02 
555	 1,32495443037885E-02 
556	 1,18185024737659E-02 
557	 1,31932592431244E-02 
558	 1,37021216511955E-02 
559	 1,32703437933878E-02 
560	 1,35185569471608E-02 
561	 1,32925151516479E-02 
562	 1,24371949835987E-02 
563	 1,27156532008967E-02 
564	 1,34504083416121E-02 
565	 1,35544646300396E-02 
566	 1,34567381880033E-02 
567	 0,013236817191899 
568	 1,27802231548777E-02 
569	 1,26222589119599E-02 
570	 1,30812059574375E-02 
571	 1,32230953059648E-02 
572	 1,33993622424389E-02 
573	 1,48799136099142E-02 
574	 0,015283874949984 
575	 1,41933367609116E-02 
576	 0,014291348580754 
577	 1,48309681727943E-02 
578	 1,47652582212553E-02 
579	 1,47935936182968E-02 
580	 1,50116263645987E-02 
581	 1,52194489230015E-02 
582	 1,56247429540451E-02 
583	 1,62410269093655E-02 
584	 1,62503025096767E-02 
585	 1,60050367644553E-02 
586	 1,63106264074501E-02 
587	 0,016609643185879 
588	 1,67520755771143E-02 
589	 1,68424040014308E-02 
590	 1,69322789639292E-02 
591	 1,70399937871267E-02 
592	 1,65495183772256E-02 
593	 1,59261783703715E-02 
594	 1,68070254851853E-02 
595	 1,74023670586945E-02 
596	 1,70304895898794E-02 
597	 1,73324844419939E-02 
598	 1,75567469388387E-02 
599	 1,63084288462371E-02 
600	 0,015781971774774 
601	 1,63575923266655E-02 
602	 1,69469602641878E-02 
603	 1,71342777933158E-02 
604	 1,66743173122569E-02 
605	 1,66386282776111E-02 
606	 1,68668846670117E-02 
607	 1,64258276097502E-02 
608	 1,62334585497047E-02 
609	 1,65327437721118E-02 
610	 1,67082753816749E-02 
611	 1,64097260902575E-02 
612	 1,52929127416968E-02 
613	 1,52981860420374E-02 
614	 0,01621129453839 
615	 0,015631666458061 
616	 1,47140547924066E-02 
617	 1,42771377059939E-02 
618	 1,45728975604009E-02 
619	 1,52014672760446E-02 
620	 1,53457640575044E-02 
621	 1,51550183421366E-02 
622	 0,014732720285632 
623	 1,43118111620854E-02 
624	 1,44549825032193E-02 
625	 1,56328188475277E-02 
626	 1,56377753525062E-02 
627	 1,47548254741602E-02 
628	 1,53204721987262E-02 
629	 1,58119001778171E-02 
630	 1,55617172816792E-02 
631	 1,57053981551489E-02 
632	 1,58910378610126E-02 
633	 1,53153314699601E-02 
634	 1,51939753624418E-02 
635	 1,57390180128096E-02 
636	 1,63061038865396E-02 
637	 1,64090388874292E-02 
638	 1,57718187694781E-02 
639	 1,62377748087339E-02 
640	 1,74369852693863E-02 
641	 1,75494282925831E-02 
642	 1,77010214401159E-02 
643	 1,81264514835292E-02 
644	 1,75658369895758E-02 
645	 1,68057705542543E-02 
646	 1,69845346142993E-02 
647	 0,017473230141259 
648	 1,79702722361376E-02 
649	 1,80458954282179E-02 
650	 1,80347300323984E-02 
651	 1,81072474381875E-02 
652	 1,75640384279011E-02 
653	 1,69198070216407E-02 
654	 1,75109206366139E-02 
655	 1,72266584572557E-02 
656	 1,58782253335023E-02 
657	 1,62425545890854E-02 
658	 1,69640818782463E-02 
659	 1,65016930218309E-02 
660	 1,59938811441588E-02 
661	 0,015716711413035 
662	 0,01583114810335 
663	 1,56224608945327E-02 
664	 1,48545104382648E-02 
665	 1,46585435594503E-02 
666	 1,48742773131044E-02 
667	 0,015045580858446 
668	 1,51683233741554E-02 
669	 1,51031321139332E-02 
670	 1,44596884088149E-02 
671	 1,36814181803528E-02 
672	 1,31856931350086E-02 
673	 0,013338273787599 
674	 0,013883121938435 
675	 1,40817335311259E-02 
676	 1,42267806752888E-02 
677	 1,43608185225905E-02 
678	 1,42426176952153E-02 
679	 1,41181394810065E-02 
680	 1,42936913884586E-02 
681	 1,47634059734048E-02 
682	 1,53180617806092E-02 
683	 1,53191829603727E-02 
684	 1,53256796014619E-02 
685	 1,56406971464567E-02 
686	 1,58047058234434E-02 
687	 1,59519600830196E-02 
688	 0,01643182129485 
689	 1,68072183784724E-02 
690	 1,70343742931027E-02 
691	 1,74112976665682E-02 
692	 1,83272411186906E-02 
693	 2,00296712666682E-02 
694	 2,09893428028681E-02 
695	 2,16225001739714E-02 
696	 2,37877446398049E-02 
697	 2,60142789961951E-02 
698	 2,79460233128543E-02 
699	 3,12903392780702E-02 
700	 3,48879837262375E-02 
701	 3,71068584985695E-02 
702	 3,98742761919534E-02 
703	 4,34916954339605E-02 
704	 4,73200691803672E-02 
705	 5,10217984481172E-02 
706	 5,44181365688398E-02 
707	 5,80298058190969E-02 
708	 0,061716436326961 
709	 6,50860900947941E-02 
710	 6,83531651585577E-02 
711	 7,15437858062587E-02 
712	 7,44848397646537E-02 
713	 7,72535899612974E-02 
714	 7,99318161805556E-02 
715	 8,25893362807968E-02 
716	 8,51104735579598E-02 
717	 8,71589089606154E-02 
718	 8,90263703335646E-02 
719	 9,09099987617485E-02 
720	 9,31228832469763E-02 
721	 9,53156177783143E-02 
722	 9,70258245396212E-02 
723	 9,84313272667095E-02 
724	 9,96126280783281E-02 
725	 0,100683223907112 
726	 0,101681121495327 
727	 0,102635007480554 
728	 0,103571708779208 
729	 0,104375218550119 
730	 0,104792448351067 
731	 0,105567907775607 
732	 0,106733822340884 
733	 0,107376734947349 
734	 0,107798190142697 
735	 0,108291353026196 
736	 0,108784226045133 
737	 0,109230479787897 
738	 0,10954552472912 
739	 0,109697864827793 
740	 0,109780308390877 
741	 0,110332278803201 
742	 0,111029299979876 
743	 0,111442075816625 
744	 0,111480022393558 
745	 0,111359910507438 
746	 0,111772788115131 
747	 0,112417699057514 
748	 0,113031271061025 
749	 0,113001151008065 
750	 0,112726067090371 
751	 0,112925987410594 
752	 0,113174280740336 
753	 0,113405384623525 
754	 0,113809928708746 
755	 0,11417995070498 
756	 0,11433456841308 
757	 0,114044043050001 
758	 0,113738678594119 
759	 0,114379134773902 
760	 0,114747736930909 
761	 0,114560444143497 
762	 0,114548932055448 
763	 0,114590495487709 
764	 0,114562287794052 
765	 0,114904793320103 
766	 0,115430162683318 
767	 0,115450300804735 
768	 0,11547120161702 
769	 0,11562586812065 
770	 0,115466099437899 
771	 0,115300372751799 
772	 0,11552119526931 
773	 0,115812373204273 
774	 0,116048722684849 
775	 0,116106188958061 
776	 0,116098646245767 
777	 0,116112627265928 
778	 0,116261168590761 
779	 0,116495750080416 
780	 0,116724058793023 
781	 0,116957956898001 
782	 0,117145828485163 
783	 0,117101401649607 
784	 0,117145609504481 
785	 0,117441880783867 
786	 0,117421865132048 
787	 0,117310262035944 
788	 0,117659061254413 
789	 0,117834144778747 
790	 0,117756740262343 
791	 0,117968946982054 
792	 0,118090365054218 
793	 0,117863925863843 
794	 0,11803538324489 
795	 0,118437106267151 
796	 0,118455831442871 
797	 0,118342940889162 
798	 0,118264071146064 
799	 0,118617559311657 
800	 0,118997020278712 
801	 0,119004057326914 
802	 0,118786478986371 
803	 0,118604238399574 
804	 0,119036991757852 
805	 0,119507815583843 
806	 0,119735109608517 
807	 0,119480704524423 
808	 0,119327709149391 
809	 0,119877256616462 
810	 0,120202831157172 
811	 0,120161487197941 
812	 0,119900536782669 
813	 0,119754342971267 
814	 0,119953756398987 
815	 0,120787018384574 
816	 0,121511363448152 
817	 0,121262527486728 
818	 0,121074188032778 
819	 0,121203141124373 
820	 0,121665921100684 
821	 0,122008047717507 
822	 0,122033658163677 
823	 0,122112296810862 
824	 0,122262365147532 
825	 0,122456438013386 
826	 0,122540544298272 
827	 0,122568640873569 
828	 0,122895267416361 
829	 0,122905955317704 
830	 0,122462437254879 
831	 0,122979778401785 
832	 0,12363077467911 
833	 0,123107441638614 
834	 0,122950455457156 
835	 0,123284247441588 
836	 0,123163739091417 
837	 0,123229125198538 
838	 0,123720140554383 
839	 0,123806419132058 
840	 0,123646271780672 
841	 0,123594330900138 
842	 0,123796956901433 
843	 0,12422852903709 
844	 0,124680624773883 
845	 0,124894756674545 
846	 0,124784782317864 
847	 0,124882926807674 
848	 0,12512580101771 
849	 0,125335766126462 
850	 0,124869379312567 
851	 0,124000353208736 
852	 0,124091482149431 
853	 0,124636164195517 
854	 0,125222510731793 
855	 0,125050365164503 
856	 0,124731821015338 
857	 0,125217096042754 
858	 0,125730686509315 
859	 0,125995046363548 
860	 0,125791162344751 
861	 0,125472836901383 
862	 0,125287472089952 
863	 0,1253927167534 
864	 0,125694318548503 
865	 0,1260340253329 
866	 0,126097590732604 
867	 0,126008101037224 
868	 0,126368689410889 
869	 0,126926313242841 
870	 0,127453506145239 
871	 0,12736639724579 
872	 0,127141794622217 
873	 0,127410653877011 
874	 0,127917345342844 
875	 0,128368927184021 
876	 0,128066540081529 
877	 0,127883369856621 
878	 0,128203946225953 
879	 0,128894177844283 
880	 0,129297417667233 
881	 0,128801143991842 
882	 0,129054666539234 
883	 0,129758493447092 
884	 0,12910543122673 
885	 0,129037794633987 
886	 0,129967782209198 
887	 0,130224516844966 
888	 0,129978333285437 
889	 0,129583288329186 
890	 0,130309184416247 
891	 0,131498256227476 
892	 0,131186670694487 
893	 0,130925529423393 
894	 0,131130864914091 
895	 0,13124201011346 
896	 0,131565873887089 
897	 0,132246683296578 
898	 0,13225221938737 
899	 0,131937364906054 
900	 0,132224311306549 
901	 0,132401228469798 
902	 0,132363487467176 
903	 0,132524422135366 
904	 0,13241830707498 
905	 0,131938621805953 
906	 0,132535776355602 
907	 0,133505815918926 
908	 0,133616737300936 
909	 0,133143502028184 
910	 0,13253476578797 
911	 0,132932978236147 
912	 0,133659414478422 
913	 0,134248636142393 
914	 0,134099349960501 
915	 0,133707429544122 
916	 0,133675291599619 
917	 0,133484091121441 
918	 0,133415428419913 
919	 0,134535489398913 
920	 0,134824112700728 
921	 0,133944724054761 
922	 0,134037701479026 
923	 0,134218978967353 
924	 0,133741468834795 
925	 0,133618287800071 
926	 0,133490152066658 
927	 0,132397436252517 
928	 0,132158900631002 
929	 0,133039945910563 
930	 0,134099718772717 
931	 0,134271815818122 
932	 0,133208757329861 
933	 0,133335754436139 
934	 0,133887797167531 
935	 0,133550248697716 
936	 0,133148712194964 
937	 0,132789381394239 
938	 0,132178492569214 
939	 0,132039172631699 
940	 0,132586481651623 
941	 0,133376342790428 
942	 0,133856877716185 
943	 0,133520311621449 
944	 0,13206504304609 
945	 0,130134560814391 
946	 0,12889699287371 
947	 0,129122938265265 
948	 0,130213817791147 
949	 0,129070886313622 
950	 0,128093793779667 
951	 0,128385697777754 
952	 0,127407969899755 
953	 0,126187427435518 
954	 0,126197451555343 
955	 0,125819703354824 
956	 0,125113109834885 
957	 0,125182416860516 
958	 0,124785855087401 
959	 0,12376529489334 
960	 0,123347650250117 
961	 0,123655840952721 
962	 0,124499083980089 
963	 0,124032766247312 
964	 0,122367402684846 
965	 0,120132628844332 
966	 0,120844342473459 
967	 0,123873328263671 
968	 0,124560660193472 
969	 0,123749295727292 
970	 0,122322062659903 
971	 0,123674349821851 
972	 0,124081239173556 
973	 0,120539295711445 
974	 0,120717058402337 
975	 0,122868250313501 
976	 0,121521183237863 
977	 0,122604837543117 
978	 0,125701713328799 
979	 0,12366580652531 
980	 0,122870779513596 
981	 0,125615514560876 
982	 0,125417291350102 
983	 0,123847816609842 
984	 0,123103456227982 
985	 0,123547871342411 
986	 0,124842991084658 
987	 0,126186733607421 
988	 0,12574596427461 
989	 0,124142810937329 
990	 0,125897617563753 
991	 0,126900752657855 
992	 0,125627009224067 
993	 0,126883393543721 
994	 0,128351015363443 
995	 0,12753387833532 
996	 0,128969618469682 
997	 0,131264535613261 
998	 0,130137614139292 
999	 0,131234192170664 
1000	 0,134178629215629 
1001	 0,131796845991434 
1002	 0,129173182481548 
1003	 0,128969886404063 
1004	 0,12984226772468 
1005	 0,13164035302599 
1006	 0,133918604291943 
1007	 0,133295562055877 
1008	 0,13077338973343 
1009	 0,129137897600408 
1010	 0,131646898050476 
1011	 0,136841171794613 
1012	 0,136939783944258 
1013	 0,137531909799638 
1014	 0,139873673950636 
1015	 0,137354197641805 
1016	 0,13495624513692 
1017	 0,136662478026469 
1018	 0,135734631926564 
1019	 0,135016386612555 
1020	 0,139891972136828 
1021	 0,140275169869026 
1022	 0,13671622039692 
1023	 0,137068044358846 
1024	 0,141496129286928 
1025	 0,147774747952948 
1026	 0,144923077116727 
1027	 0,143424108775047 
1028	 0,148831538642483 
1029	 0,147318004081805 
1030	 0,143892853384729 
1031	 0,145820945970293 
1032	 0,147731982567664 
1033	 0,148230318977154 
1034	 0,14670945953117 
1035	 0,144090930680193 
1036	 0,142280905243762 
1037	 0,146475594736688 
1038	 0,149283986995395 
1039	 0,14709810371219 
1040	 0,140338076757983 
1041	 0,140199830027869 
1042	 0,152937889837538 
1043	 0,153179254249252 
1044	 0,146815248362965 
1045	 0,147039188196809 
1046	 0,148894805842178 
1047	 0,151361209772228 
1048	 0,154136507113608 
1049	 0,155423772497071 
1050	 0,154703594654339 
1051	 0,152161307424806 
1052	 0,153052591696324 
1053	 0,158773096909512 
1054	 0,161291292830137 
1055	 0,160018700797527 
1056	 0,155943341250281 
1057	 0,158754635818518 
1058	 0,161244901468564 
1059	 0,152398143796456 
1060	 0,153392931528321 
1061	 0,162510393262883 
1062	 0,165795258377337 
1063	 0,161709332269001 
1064	 0,151545281988611 
1065	 0,141032565375974 
1066	 0,139114189178997 
1067	 0,149181086884246 
1068	 0,163577113950645 
1069	 0,168878885339643 
1070	 0,15876596398707 
1071	 0,164174880648211 
1072	 0,173555857267468 
1073	 0,169208584413468 
1074	 0,153075366295669 
1075	 0,139112191317209 
