Wavelength	AVEN00078.asd
325	 0,038965734339839 
326	 4,40522048793249E-02 
327	-8,5709729715364E-03 
328	-0,114765711972472 
329	-0,044968847485639 
330	 5,16914466877004E-02 
331	 7,24616278021967E-02 
332	 5,80224556320174E-02 
333	 0,028185461580984 
334	 1,24829488477011E-02 
335	-0,016764906700777 
336	-4,88615932621802E-02 
337	-4,98729107982059E-02 
338	-2,77765536837689E-02 
339	 6,01783570571086E-03 
340	-5,75515431491404E-02 
341	-0,126380998811395 
342	 2,01710930233487E-02 
343	 0,117514920345754 
344	 0,111450327992532 
345	 0,10706946135493 
346	 9,39990566899903E-02 
347	 5,94550636032541E-02 
348	 5,34156274369964E-02 
349	 6,01311666358377E-02 
350	 9,56580185508805E-03 
351	 3,45678842910839E-04 
352	 5,32994034112638E-02 
353	 5,74854387766918E-02 
354	 3,61119180413256E-02 
355	 2,19796436461784E-02 
356	 3,21030902388226E-02 
357	 5,63262686378383E-02 
358	 0,054233137281274 
359	 4,07265244894361E-02 
360	 2,30659217961531E-02 
361	 1,13261664521004E-02 
362	 3,2696291807678E-03 
363	-9,49346636413339E-03 
364	-4,0493853220589E-03 
365	 1,70058150278397E-02 
366	 3,46171821334585E-02 
367	 3,76908854203093E-02 
368	 2,04285617854491E-02 
369	 5,50211909281844E-03 
370	-2,21684854600085E-03 
371	 2,26409485179284E-04 
372	 0,015918968556728 
373	 3,94919541006283E-02 
374	 5,45524585712927E-02 
375	 4,65067686160533E-02 
376	 1,08846074148225E-02 
377	 1,72889469009993E-03 
378	 0,01234274059397 
379	 5,95580330412062E-03 
380	 2,08723347899319E-02 
381	 5,30266086563269E-02 
382	 4,21223947815236E-02 
383	 8,90335839887829E-03 
384	-2,00132533603231E-02 
385	-3,94833684107953E-03 
386	 0,03586176816381 
387	 2,52957903610718E-02 
388	 1,92334202585241E-02 
389	 3,35776695425394E-02 
390	 3,52807034888932E-02 
391	 2,76347935854407E-02 
392	 1,68554553838011E-02 
393	 1,89656411976966E-02 
394	 3,26901897339553E-02 
395	 0,043257930157441 
396	 4,61562892655344E-02 
397	 3,98728652259786E-02 
398	 3,27011991019788E-02 
399	 2,63733780270745E-02 
400	 2,12731029306318E-02 
401	 0,024069902150979 
402	 3,14426807409543E-02 
403	 0,025290209060546 
404	 2,27130075197223E-02 
405	 3,39938533510641E-02 
406	 3,71158855039248E-02 
407	 3,42792094589999E-02 
408	 3,66010280986991E-02 
409	 3,63708144484082E-02 
410	 3,21916892054407E-02 
411	 2,66503656605318E-02 
412	 0,026283556715975 
413	 3,58411234421558E-02 
414	 3,50071344750345E-02 
415	 2,72830727054303E-02 
416	 3,07053460323684E-02 
417	 3,57589709872658E-02 
418	 3,85664941527681E-02 
419	 4,05440578762255E-02 
420	 3,91204192599273E-02 
421	 3,10247048974664E-02 
422	 3,02553501643047E-02 
423	 3,61696921274339E-02 
424	 3,52368157191355E-02 
425	 3,34152442350062E-02 
426	 3,40967007138749E-02 
427	 3,32674648338161E-02 
428	 3,23847255846542E-02 
429	 3,51232673110284E-02 
430	 0,035284411142999 
431	 3,28654845407157E-02 
432	 3,61102286325871E-02 
433	 4,00949776126341E-02 
434	 0,040281027135426 
435	 3,85035107573498E-02 
436	 3,62710552274402E-02 
437	 3,65609045454753E-02 
438	 3,62364924564174E-02 
439	 3,45816283817839E-02 
440	 3,52029349630769E-02 
441	 3,67026848741645E-02 
442	 3,69590581038309E-02 
443	 0,036712104190234 
444	 3,63171084337349E-02 
445	 3,60775439965463E-02 
446	 3,76850575886376E-02 
447	 4,12975757350502E-02 
448	 3,90409532095267E-02 
449	 3,40004827817301E-02 
450	 3,35408155317202E-02 
451	 3,60487602311625E-02 
452	 3,97702404130948E-02 
453	 3,86952806343138E-02 
454	 3,73398359517908E-02 
455	 3,97865290246986E-02 
456	 3,81510740821954E-02 
457	 3,45581798179977E-02 
458	 3,89490324722021E-02 
459	 0,04088877400343 
460	 3,74018745124777E-02 
461	 0,039756516670038 
462	 4,33643254416316E-02 
463	 4,08061588226967E-02 
464	 3,98928788860434E-02 
465	 4,13984151746356E-02 
466	 4,10226264370447E-02 
467	 3,98500709589472E-02 
468	 3,89304618799624E-02 
469	 0,041041898840927 
470	 4,42636354684078E-02 
471	 0,044118554918367 
472	 4,41764946454437E-02 
473	 4,45922631579746E-02 
474	 4,05054391188394E-02 
475	 3,66744605876837E-02 
476	 3,78143672458021E-02 
477	 3,96131343416698E-02 
478	 4,11996276247337E-02 
479	 4,33850647786272E-02 
480	 4,26556180900992E-02 
481	 3,84591401704046E-02 
482	 3,92106629065469E-02 
483	 4,13391738562556E-02 
484	 3,81731768961854E-02 
485	 3,71212643619136E-02 
486	 3,89469763472989E-02 
487	 3,87049919339134E-02 
488	 0,038563524147723 
489	 4,01089618051656E-02 
490	 4,16288123965785E-02 
491	 0,042567769155512 
492	 0,042461602602118 
493	 4,17413218509043E-02 
494	 4,10354323071164E-02 
495	 4,26294287103783E-02 
496	 4,40215612572508E-02 
497	 4,23006307895009E-02 
498	 4,18547446474081E-02 
499	 4,29383443945921E-02 
500	 0,04316645614286 
501	 4,30325646305458E-02 
502	 4,29373355535795E-02 
503	 4,40456088706027E-02 
504	 4,52406091016574E-02 
505	 4,43733643446412E-02 
506	 4,34488622161697E-02 
507	 0,043088701149435 
508	 4,28979673809269E-02 
509	 4,33977648540574E-02 
510	 4,49358644898138E-02 
511	 4,54266062110785E-02 
512	 4,49414609734336E-02 
513	 4,48909814118959E-02 
514	 4,40544773327781E-02 
515	 4,26481683336332E-02 
516	 4,52746078990743E-02 
517	 4,87915293317853E-02 
518	 4,84278911027008E-02 
519	 4,63718894505445E-02 
520	 4,42100117580845E-02 
521	 4,53655236724385E-02 
522	 4,69605835378198E-02 
523	 4,69234851797763E-02 
524	 4,70935127494865E-02 
525	 4,75918993606293E-02 
526	 4,81894623299694E-02 
527	 4,81692251501252E-02 
528	 4,74852371414482E-02 
529	 0,047433355369893 
530	 4,75674882525637E-02 
531	 4,72735921788752E-02 
532	 0,047811316824084 
533	 4,89765284727731E-02 
534	 4,92578037703323E-02 
535	 4,96110041152876E-02 
536	 5,04434630137393E-02 
537	 5,02375113846396E-02 
538	 4,95905767891882E-02 
539	 4,99940885983636E-02 
540	 4,99420262884885E-02 
541	 4,93046350638522E-02 
542	 4,96858999531224E-02 
543	 5,01930219032921E-02 
544	 4,99170409991263E-02 
545	 4,97669979858714E-02 
546	 0,050062054654954 
547	 5,11558018495942E-02 
548	 5,23645412280347E-02 
549	 5,31900005996705E-02 
550	 5,30484925571814E-02 
551	 5,24431405901534E-02 
552	 5,21901707792462E-02 
553	 5,28707794224746E-02 
554	 5,39695521289929E-02 
555	 5,26067914165278E-02 
556	 5,13400336786474E-02 
557	 5,22705288722271E-02 
558	 5,32110544405348E-02 
559	 0,053588508380695 
560	 5,29851083356121E-02 
561	 5,23929702716266E-02 
562	 5,22976331336462E-02 
563	 5,27018163347112E-02 
564	 5,32178144543537E-02 
565	 0,053344414981879 
566	 5,36469935796852E-02 
567	 5,40938074268977E-02 
568	 5,40529219475376E-02 
569	 5,40784958371206E-02 
570	 5,45435339726394E-02 
571	 5,49851154460526E-02 
572	 5,55181867052129E-02 
573	 5,66671457893803E-02 
574	 5,70886349931879E-02 
575	 5,65915284736925E-02 
576	 0,057013116458825 
577	 5,75040100291849E-02 
578	 5,69960024067408E-02 
579	 5,70617002023863E-02 
580	 0,057669142285034 
581	 5,74370735592053E-02 
582	 5,77523717053213E-02 
583	 5,91212749123895E-02 
584	 5,89577942704031E-02 
585	 5,80664702494556E-02 
586	 5,84265649983485E-02 
587	 0,059106462179869 
588	 5,96625598490505E-02 
589	 5,92994909054212E-02 
590	 5,91281050958884E-02 
591	 6,01193363002973E-02 
592	 6,00254437559439E-02 
593	 5,92810520014274E-02 
594	 6,04572289978758E-02 
595	 6,08885603413147E-02 
596	 5,97192401285235E-02 
597	 6,01334812554692E-02 
598	 6,11305527892301E-02 
599	 6,07077928839021E-02 
600	 6,06262622611936E-02 
601	 0,06110868248514 
602	 6,11449306771302E-02 
603	 6,08801437819365E-02 
604	 6,05025883552829E-02 
605	 6,06672134135599E-02 
606	 6,11361040441264E-02 
607	 6,10495174153201E-02 
608	 6,08761563678629E-02 
609	 6,08134121844752E-02 
610	 6,10650863164733E-02 
611	 6,11148860808366E-02 
612	 0,060323016104269 
613	 5,99322451173983E-02 
614	 0,059973667510035 
615	 5,93439673544054E-02 
616	 5,90495819277201E-02 
617	 5,96571767543102E-02 
618	 6,01027374938502E-02 
619	 6,03303785330676E-02 
620	 6,06057443333656E-02 
621	 6,05823094482173E-02 
622	 6,02478129207353E-02 
623	 6,00057263718676E-02 
624	 6,01292298265626E-02 
625	 6,08197497894132E-02 
626	 6,07783189334252E-02 
627	 6,02132855081523E-02 
628	 6,06362793545494E-02 
629	 6,09172982843206E-02 
630	 6,06092650142743E-02 
631	 6,09577228786526E-02 
632	 0,061376398690908 
633	 0,060650738191811 
634	 6,06829454996944E-02 
635	 6,16412104622595E-02 
636	 6,18290797994712E-02 
637	 6,15272107484233E-02 
638	 6,11185148492615E-02 
639	 6,19061924656532E-02 
640	 6,33217511048342E-02 
641	 0,063338463352676 
642	 6,31807351674378E-02 
643	 6,32650092204568E-02 
644	 6,30676648667864E-02 
645	 6,29106012836123E-02 
646	 6,32491197995532E-02 
647	 6,35626832052988E-02 
648	 6,37644784069498E-02 
649	 6,41765815601869E-02 
650	 0,06410513094816 
651	 6,32134124955747E-02 
652	 6,28769160792787E-02 
653	 6,30935482310992E-02 
654	 6,34971638201395E-02 
655	 6,31846227043145E-02 
656	 6,21683732022356E-02 
657	 6,23022873912721E-02 
658	 6,26239769057895E-02 
659	 6,20487945024471E-02 
660	 6,15300027196029E-02 
661	 6,11877861375296E-02 
662	 6,07369932090625E-02 
663	 6,04346532625372E-02 
664	 6,03802825974338E-02 
665	 0,060305691842721 
666	 6,01680946344503E-02 
667	 5,99610452139193E-02 
668	 5,97283082383915E-02 
669	 5,94756347153217E-02 
670	 5,90917636610017E-02 
671	 5,89752214175255E-02 
672	 5,93957566452566E-02 
673	 5,96244771263993E-02 
674	 0,059575603999313 
675	 5,92962495458217E-02 
676	 5,94911172783036E-02 
677	 6,01973629014569E-02 
678	 5,98949561255769E-02 
679	 5,95041257997778E-02 
680	 6,02416014252388E-02 
681	 6,07615134870114E-02 
682	 6,08586916374167E-02 
683	 6,09006846599305E-02 
684	 6,11834568275444E-02 
685	 6,18224910499889E-02 
686	 6,20587398280958E-02 
687	 6,23083626818515E-02 
688	 6,35083054562111E-02 
689	 6,45150733377319E-02 
690	 6,51335958711304E-02 
691	 6,61171368878659E-02 
692	 6,73869369709506E-02 
693	 6,88112801415766E-02 
694	 6,97441268422578E-02 
695	 7,06263709184641E-02 
696	 7,29959148618817E-02 
697	 7,50496523159692E-02 
698	 0,076226631328575 
699	 7,80459785103796E-02 
700	 8,02565704238998E-02 
701	 8,23688206185448E-02 
702	 8,41802721695393E-02 
703	 8,57767906876884E-02 
704	 8,76775423852704E-02 
705	 0,089684833675265 
706	 9,16429898336921E-02 
707	 9,33134105857141E-02 
708	 0,094844788328911 
709	 9,66000950373905E-02 
710	 9,81529615752191E-02 
711	 9,94069759254141E-02 
712	 0,100568656582003 
713	 0,101648588735724 
714	 0,10264839283963 
715	 0,103542018329412 
716	 0,104387305474263 
717	 0,105370539047074 
718	 0,10613122082235 
719	 0,106598555889196 
720	 0,107285536887288 
721	 0,10820534686976 
722	 0,109310584442284 
723	 0,109980121476887 
724	 0,11015572249826 
725	 0,110180980531001 
726	 0,110443393242272 
727	 0,111113860589772 
728	 0,111360821178873 
729	 0,111411566425201 
730	 0,11188406818085 
731	 0,112301203078961 
732	 0,11260323952841 
733	 0,113221960605402 
734	 0,113635124748187 
735	 0,113432233860031 
736	 0,113510487210196 
737	 0,113944327722352 
738	 0,114564251965731 
739	 0,114760249951596 
740	 0,114434024305297 
741	 0,114570876312063 
742	 0,115013207926865 
743	 0,11547103094751 
744	 0,115670404801816 
745	 0,115695455260612 
746	 0,116050630833748 
747	 0,116420533737469 
748	 0,116608645748847 
749	 0,116483390363209 
750	 0,116350552016248 
751	 0,116694895662186 
752	 0,117003894286558 
753	 0,11719801292009 
754	 0,117593528757063 
755	 0,117871066478138 
756	 0,117802084622897 
757	 0,117505112858638 
758	 0,117336159475405 
759	 0,117982890860451 
760	 0,118444702161386 
761	 0,118428365221535 
762	 0,11827094582203 
763	 0,118327726313408 
764	 0,118874318523067 
765	 0,119134199681022 
766	 0,119094118316613 
767	 0,119098777674734 
768	 0,119333047770801 
769	 0,119785510821364 
770	 0,11983909745088 
771	 0,119732701537257 
772	 0,119811522506341 
773	 0,120086933907979 
774	 0,120417551037313 
775	 0,120365247453979 
776	 0,120244832670588 
777	 0,120222357765391 
778	 0,120134723667669 
779	 0,120291523720694 
780	 0,121156679561727 
781	 0,121764194380477 
782	 0,121946750099095 
783	 0,122223384002021 
784	 0,122276990185268 
785	 0,12195864202014 
786	 0,121788480745318 
787	 0,121836194070612 
788	 0,122089550790382 
789	 0,122123180446848 
790	 0,121967914198383 
791	 0,122393031423414 
792	 0,122750782339012 
793	 0,122583508221622 
794	 0,123013797352937 
795	 0,123645380608987 
796	 0,123205216505057 
797	 0,123010030575929 
798	 0,123356258545695 
799	 0,12340738096783 
800	 0,123285468868777 
801	 0,12316678428553 
802	 0,123366105454193 
803	 0,123756861758202 
804	 0,123813542100505 
805	 0,124117823951968 
806	 0,124714339581593 
807	 0,1246943390647 
808	 0,124442936679458 
809	 0,124443157743245 
810	 0,124629551205102 
811	 0,124850607045069 
812	 0,124681171318001 
813	 0,124568625492304 
814	 0,124777648151388 
815	 0,125652099000439 
816	 0,12635891215193 
817	 0,125926311301343 
818	 0,125540027083186 
819	 0,125498377171402 
820	 0,125815891975618 
821	 0,126022955365418 
822	 0,125906807020885 
823	 0,12577998322533 
824	 0,125737931775333 
825	 0,125857948031646 
826	 0,126205475692281 
827	 0,126631611147002 
828	 0,12669862863777 
829	 0,126435214142847 
830	 0,126072297699469 
831	 0,127074509549865 
832	 0,12814020333862 
833	 0,1273278504649 
834	 0,127045276542208 
835	 0,127465890875586 
836	 0,127003470826919 
837	 0,126946617669264 
838	 0,127738964759584 
839	 0,12729186364857 
840	 0,126563226123252 
841	 0,127203077366879 
842	 0,127521073734673 
843	 0,127321142963369 
844	 0,127413068037608 
845	 0,127563189879165 
846	 0,127664440048538 
847	 0,127883549880532 
848	 0,127987537889535 
849	 0,127639449233058 
850	 0,127450092041715 
851	 0,127621512884539 
852	 0,128293496935156 
853	 0,1287080858163 
854	 0,128447295894271 
855	 0,127739933191659 
856	 0,127445228584284 
857	 0,128639979073187 
858	 0,129227790282118 
859	 0,128968505141536 
860	 0,129007109882188 
861	 0,128660697675017 
862	 0,127815634149168 
863	 0,127962301972892 
864	 0,128526605380328 
865	 0,128562705776924 
866	 0,128799476737818 
867	 0,129226778571026 
868	 0,129415832677437 
869	 0,129154240025268 
870	 0,128574897851319 
871	 0,129166908459312 
872	 0,130011377516397 
873	 0,129865188240122 
874	 0,129594729288752 
875	 0,129617493118739 
876	 0,13068788446786 
877	 0,1311058743302 
878	 0,130350556175509 
879	 0,130066478186632 
880	 0,130099683551219 
881	 0,130146496005321 
882	 0,130414605332259 
883	 0,130775034771516 
884	 0,130767068757249 
885	 0,131166193262977 
886	 0,131927806280008 
887	 0,131340621684698 
888	 0,13061483405237 
889	 0,130936641590373 
890	 0,13132558387018 
891	 0,131552459922317 
892	 0,131518763312885 
893	 0,131387781148746 
894	 0,1312438073849 
895	 0,131015721016536 
896	 0,131466597998321 
897	 0,132924094592177 
898	 0,132706906790479 
899	 0,131628393455602 
900	 0,131878541625625 
901	 0,132342731814949 
902	 0,132733934086034 
903	 0,133235564663135 
904	 0,133100829594888 
905	 0,132076762388287 
906	 0,131837137453731 
907	 0,132318273677008 
908	 0,133093096376844 
909	 0,133363168545293 
910	 0,133100459885781 
911	 0,132940441919729 
912	 0,133115443882767 
913	 0,133600837426146 
914	 0,133409192761148 
915	 0,133080900683792 
916	 0,133288754079667 
917	 0,133500330562852 
918	 0,133608378271574 
919	 0,13354401003839 
920	 0,133996384805389 
921	 0,134846284025063 
922	 0,134363204706605 
923	 0,133581998412343 
924	 0,133407338958768 
925	 0,133208111185212 
926	 0,132751119752947 
927	 0,131708624249995 
928	 0,132088765957181 
929	 0,133814682720585 
930	 0,134462044534638 
931	 0,134415261514006 
932	 0,134086300807584 
933	 0,134788339703979 
934	 0,135497803341439 
935	 0,134775315081959 
936	 0,134614310181164 
937	 0,134982641203437 
938	 0,134385509556854 
939	 0,134351556666028 
940	 0,13513708082152 
941	 0,134888494641303 
942	 0,134624755109372 
943	 0,135191847055757 
944	 0,134677425226666 
945	 0,13371757084113 
946	 0,134049976876345 
947	 0,134426587635346 
948	 0,134423013604248 
949	 0,133809377372548 
950	 0,133392626530129 
951	 0,133684182395239 
952	 0,134738229120497 
953	 0,135345767741245 
954	 0,134148114710859 
955	 0,132777670827592 
956	 0,132321120500599 
957	 0,134846943448728 
958	 0,135083918353138 
959	 0,132367799941991 
960	 0,132866635441949 
961	 0,134440317046532 
962	 0,135115805207795 
963	 0,134157583221464 
964	 0,13265857555349 
965	 0,132472747072053 
966	 0,132445775650387 
967	 0,132797394891784 
968	 0,135371946822304 
969	 0,135910418846419 
970	 0,133423977629121 
971	 0,133478051986819 
972	 0,134048705243275 
973	 0,133152209060744 
974	 0,13357212797815 
975	 0,134802373756613 
976	 0,135174059133161 
977	 0,135742337185403 
978	 0,136159933821145 
979	 0,134145512694269 
980	 0,133511303411216 
981	 0,135637061559921 
982	 0,136349682533081 
983	 0,136104807070646 
984	 0,135828496414572 
985	 0,137040321042595 
986	 0,138219590259223 
987	 0,135822348461612 
988	 0,134819997523744 
989	 0,13617832499255 
990	 0,137841557708768 
991	 0,138418663080748 
992	 0,137352342292582 
993	 0,136172716766758 
994	 0,136577502279608 
995	 0,139792682798904 
996	 0,141370469429535 
997	 0,140508400837344 
998	 0,137285984586275 
999	 0,138108267574822 
1000	 0,142184809000438 
1001	 0,139227869151323 
1002	 0,136965672692094 
1003	 0,138692618164414 
1004	 0,13905909101928 
1005	 0,138455694194298 
1006	 0,137664577777481 
1007	 0,136868769615541 
1008	 0,135587258969234 
1009	 0,132755458781422 
1010	 0,13554557509636 
1011	 0,142845208997954 
1012	 0,145178255352226 
1013	 0,145150338924718 
1014	 0,14370515129638 
1015	 0,14017722228123 
1016	 0,138615020300362 
1017	 0,141785686450634 
1018	 0,142744258965885 
1019	 0,141976651626682 
1020	 0,141833436192052 
1021	 0,140536793866903 
1022	 0,138483998830153 
1023	 0,137301098194429 
1024	 0,139656792796136 
1025	 0,144898445398791 
1026	 0,145715521509913 
1027	 0,145926001813486 
1028	 0,147808219369417 
1029	 0,148268904030762 
1030	 0,146795525473386 
1031	 0,143349152679901 
1032	 0,140222063428588 
1033	 0,138340230143363 
1034	 0,138209306597068 
1035	 0,138817162759474 
1036	 0,139762028165544 
1037	 0,140954048481085 
1038	 0,142758829246945 
1039	 0,144864148257089 
1040	 0,145197538830832 
1041	 0,146080401148665 
1042	 0,14838184549112 
1043	 0,142348756561531 
1044	 0,135002971502625 
1045	 0,13775486939577 
1046	 0,139675622274255 
1047	 0,140602307179232 
1048	 0,145939288245485 
1049	 0,148932471642737 
1050	 0,147206610073104 
1051	 0,140534709061453 
1052	 0,136122410006829 
1053	 0,137885640148449 
1054	 0,143226510164842 
1055	 0,147432404340897 
1056	 0,147062893939363 
1057	 0,147169387633373 
1058	 0,147866405345571 
1059	 0,148116099417313 
1060	 0,143001983986634 
1061	 0,136956605008034 
1062	 0,142151838371507 
1063	 0,152163621964386 
1064	 0,158711354949427 
1065	 0,140079115839981 
1066	 0,125961730483341 
1067	 0,130295896633794 
1068	 0,138137020898541 
1069	 0,145245619197996 
1070	 0,147931586000202 
1071	 0,145659970464827 
1072	 0,138107682460501 
1073	 0,126693437086762 
1074	 0,136845038125524 
1075	 0,153624517436947 
