Wavelength	AVEN00239.asd
325	 6,39559165456325E-02 
326	 5,58167223258881E-02 
327	 6,01987934196189E-02 
328	 6,79694424254691E-02 
329	-2,73610289050728E-02 
330	-7,55658968464726E-02 
331	-2,08005847192046E-03 
332	 5,82808161294217E-02 
333	 6,54850746268657E-02 
334	-2,16818862916841E-02 
335	-1,87095408070664E-02 
336	 8,24736651267474E-02 
337	 9,47086951163094E-02 
338	 7,22440698520922E-02 
339	 5,85371291373692E-02 
340	-3,10484768519564E-02 
341	-0,125747665134392 
342	-8,44474073246124E-02 
343	 1,71643278016567E-02 
344	 0,118946843471478 
345	 0,11517148890329 
346	 6,18865990102598E-02 
347	 2,57293843333037E-02 
348	 1,82448008363986E-02 
349	 2,60620889596226E-02 
350	 6,92924676255769E-03 
351	-7,11944018898254E-05 
352	 1,55011090431634E-02 
353	 1,99638770375562E-02 
354	 0,022330435387347 
355	 0,035009449585694 
356	 4,41596166678637E-02 
357	 4,43392507054155E-02 
358	 2,87506191033789E-02 
359	 2,37437382495163E-02 
360	 3,67453919481185E-02 
361	 2,49783294149003E-02 
362	-3,07076085850285E-04 
363	-2,08635007804963E-02 
364	-9,57413243898413E-03 
365	 2,45599659566919E-02 
366	 3,92928201980873E-02 
367	 3,82301851388477E-02 
368	 2,38846568280628E-02 
369	 5,43728930318369E-03 
370	-5,51130418790525E-03 
371	 1,05004781669888E-02 
372	 1,97070750755876E-02 
373	 1,74032501352122E-02 
374	 3,00328830574514E-02 
375	 4,26535599154855E-02 
376	 4,24266518660347E-02 
377	 1,85985201177541E-02 
378	-0,010694899162007 
379	 2,16458684883784E-04 
380	 2,47466665360666E-02 
381	 4,54661681378767E-02 
382	 3,63690076416921E-02 
383	 9,7261997368598E-03 
384	-1,81660096592543E-02 
385	-1,57483163187342E-02 
386	 1,08803104670717E-02 
387	 0,033027651837654 
388	 4,16940941090741E-02 
389	 3,48900487058573E-02 
390	 3,03108702166972E-02 
391	 2,55773628065727E-02 
392	 1,59312339623829E-02 
393	 9,24046140397726E-03 
394	 8,77225258133955E-03 
395	 1,75458657383536E-02 
396	 2,69321929818682E-02 
397	 3,07822007330329E-02 
398	 2,21607136986911E-02 
399	 8,82411290971602E-03 
400	 2,64448850931274E-03 
401	 7,77753912104753E-03 
402	 1,97557292753796E-02 
403	 1,96561440448668E-02 
404	 1,63978560791602E-02 
405	 1,66464909089825E-02 
406	 2,07057940518154E-02 
407	 0,024389350016782 
408	 1,93459978803575E-02 
409	 1,71088240247907E-02 
410	 1,92026980262415E-02 
411	 0,014790568152836 
412	 1,08207489394114E-02 
413	 1,38583660660673E-02 
414	 1,65908120340587E-02 
415	 1,76589298600243E-02 
416	 1,67435272580488E-02 
417	 1,89903365919862E-02 
418	 2,50161961960215E-02 
419	 2,55186592381207E-02 
420	 2,21010395452563E-02 
421	 1,78091177065415E-02 
422	 1,64744513018754E-02 
423	 1,67314543471878E-02 
424	 9,27382846659671E-03 
425	 7,16069781299269E-03 
426	 1,67450347018197E-02 
427	 0,020832589162632 
428	 2,01576114411724E-02 
429	 2,04421292970027E-02 
430	 1,88358438044819E-02 
431	 1,60091346714385E-02 
432	 1,74880313157752E-02 
433	 0,019449342774114 
434	 1,83472557871278E-02 
435	 1,48082069968344E-02 
436	 1,11620041775997E-02 
437	 1,28010806504295E-02 
438	 1,48394357785743E-02 
439	 1,56015752470934E-02 
440	 1,83288131138623E-02 
441	 2,03746691063634E-02 
442	 0,018214617469646 
443	 1,59370767206842E-02 
444	 1,47865702811245E-02 
445	 1,48770151368437E-02 
446	 1,60945632524639E-02 
447	 1,80827807371795E-02 
448	 1,89634722855358E-02 
449	 1,89573196786814E-02 
450	 1,90829086294522E-02 
451	 1,85696152394659E-02 
452	 1,73048465165491E-02 
453	 1,52021202025654E-02 
454	 1,50526336696236E-02 
455	 1,90524854012354E-02 
456	 2,07550453847333E-02 
457	 1,96940005518057E-02 
458	 1,82978355381859E-02 
459	 1,65261927342386E-02 
460	 1,48119202820492E-02 
461	 1,45141971835216E-02 
462	 1,58885114881957E-02 
463	 1,90954746335576E-02 
464	 1,86798631578059E-02 
465	 1,52170401277676E-02 
466	 1,58191018756527E-02 
467	 0,017480451294597 
468	 1,82416438999402E-02 
469	 1,95248083519812E-02 
470	 2,04948250480692E-02 
471	 1,92471081333588E-02 
472	 1,78411972492356E-02 
473	 1,70473484379368E-02 
474	 1,68407880342777E-02 
475	 1,66115564452402E-02 
476	 0,015817689814608 
477	 1,59778526964624E-02 
478	 1,70712118219252E-02 
479	 1,83380734304179E-02 
480	 1,88305270953034E-02 
481	 1,82305382805848E-02 
482	 1,80691260476092E-02 
483	 1,77074910926102E-02 
484	 1,59057165010566E-02 
485	 1,50901339618181E-02 
486	 1,57106204063161E-02 
487	 1,71150831703341E-02 
488	 1,68522225748882E-02 
489	 1,35919441058402E-02 
490	 1,39819694467402E-02 
491	 1,65716417580114E-02 
492	 1,56408025660471E-02 
493	 0,014098235084307 
494	 0,013203894238607 
495	 1,41103025287804E-02 
496	 1,59937483547529E-02 
497	 1,77838554559994E-02 
498	 1,74556193697275E-02 
499	 1,56631786429643E-02 
500	 1,59459368562833E-02 
501	 1,60767459648392E-02 
502	 0,015113335774067 
503	 1,61329208281228E-02 
504	 1,77245105733065E-02 
505	 0,016850442634756 
506	 1,58269295412541E-02 
507	 1,54355327106668E-02 
508	 1,57725995185943E-02 
509	 1,63030374228972E-02 
510	 1,65478934063811E-02 
511	 1,69202588437422E-02 
512	 1,73878139174505E-02 
513	 1,78941642680487E-02 
514	 1,72886442152586E-02 
515	 1,56595739997863E-02 
516	 1,70078491352368E-02 
517	 1,90975172851894E-02 
518	 0,01837432153837 
519	 0,017229427176441 
520	 1,64959355019505E-02 
521	 1,67992885780872E-02 
522	 0,017283080218065 
523	 1,72983131975427E-02 
524	 1,69726524814578E-02 
525	 1,67735571288079E-02 
526	 1,78788907154332E-02 
527	 1,81339693940538E-02 
528	 1,70776059967472E-02 
529	 1,67419389570538E-02 
530	 1,64995010302638E-02 
531	 1,54767058606442E-02 
532	 1,57555495352966E-02 
533	 1,71065694381698E-02 
534	 1,73359300290553E-02 
535	 1,74882731042823E-02 
536	 1,80610355379663E-02 
537	 1,79065072981347E-02 
538	 1,74328192096314E-02 
539	 1,76700449916505E-02 
540	 1,76823536590335E-02 
541	 1,73015759932865E-02 
542	 0,017204276352463 
543	 1,68508023443935E-02 
544	 0,015775102749197 
545	 1,59828578918105E-02 
546	 1,72356329226539E-02 
547	 1,77245511349509E-02 
548	 1,81548051568802E-02 
549	 1,87698086731066E-02 
550	 1,91775706012403E-02 
551	 1,91362019205414E-02 
552	 1,83121654230017E-02 
553	 1,79535972064662E-02 
554	 1,80467014251187E-02 
555	 1,66896257160623E-02 
556	 1,60348647245714E-02 
557	 1,77041380723619E-02 
558	 1,82069649208796E-02 
559	 1,75572618187509E-02 
560	 1,74425101085323E-02 
561	 1,73719080345516E-02 
562	 1,72457471555558E-02 
563	 1,73329434705886E-02 
564	 1,74170151352552E-02 
565	 1,71896785741394E-02 
566	 1,72626288214336E-02 
567	 1,75185300741654E-02 
568	 1,69202253371564E-02 
569	 1,65277008205973E-02 
570	 1,70197640806684E-02 
571	 1,71374618362009E-02 
572	 1,73068154356654E-02 
573	 1,90817067546997E-02 
574	 1,96928859783042E-02 
575	 1,85162958650193E-02 
576	 1,79051736049227E-02 
577	 1,80413009911346E-02 
578	 1,88963620086252E-02 
579	 1,93935849413801E-02 
580	 1,94113964474447E-02 
581	 1,94726277253414E-02 
582	 1,98548170873575E-02 
583	 2,05461820036411E-02 
584	 1,98922451402311E-02 
585	 1,90975990348904E-02 
586	 2,06829493400336E-02 
587	 2,18717986896962E-02 
588	 2,18475512641633E-02 
589	 2,11664126289494E-02 
590	 2,04795570279192E-02 
591	 2,03837453060051E-02 
592	 2,06931887429579E-02 
593	 2,11989220011563E-02 
594	 2,14792486855278E-02 
595	 2,16467205035148E-02 
596	 2,17479304344651E-02 
597	 2,19211079527345E-02 
598	 0,021789676417319 
599	 2,07416863053155E-02 
600	 2,04641280479354E-02 
601	 2,11831119926784E-02 
602	 2,18373389858579E-02 
603	 0,021832198947001 
604	 2,08450859333139E-02 
605	 2,06989580245097E-02 
606	 2,11734330300223E-02 
607	 2,08982147354467E-02 
608	 2,06402861066889E-02 
609	 0,020620187961205 
610	 2,05656505723009E-02 
611	 0,020300566529641 
612	 1,96433810079526E-02 
613	 1,93443931853416E-02 
614	 1,94806638239295E-02 
615	 1,97183323608748E-02 
616	 1,94386149207864E-02 
617	 1,84362396918076E-02 
618	 1,86629400043743E-02 
619	 1,96917075941893E-02 
620	 2,02279774551281E-02 
621	 1,99045520769563E-02 
622	 1,88500026503753E-02 
623	 1,84175741345346E-02 
624	 1,87885725335241E-02 
625	 1,99745685932649E-02 
626	 2,00712135023304E-02 
627	 1,92252688798702E-02 
628	 0,019208738835702 
629	 0,019114103647066 
630	 1,86735538570021E-02 
631	 1,93295035681037E-02 
632	 2,01987928690081E-02 
633	 1,95824161682563E-02 
634	 1,95224898799499E-02 
635	 2,02507517060301E-02 
636	 2,01029217234365E-02 
637	 1,98405020290092E-02 
638	 2,01600425069926E-02 
639	 2,09831524049706E-02 
640	 2,18536191970694E-02 
641	 2,16151199782118E-02 
642	 2,16768511789811E-02 
643	 2,24229072303185E-02 
644	 2,25038940613003E-02 
645	 0,02209673409919 
646	 2,15857540225591E-02 
647	 2,19437058400592E-02 
648	 2,28819348961348E-02 
649	 2,25068214082647E-02 
650	 2,17962391224997E-02 
651	 2,14349109511576E-02 
652	 2,12058628535422E-02 
653	 0,021205245830869 
654	 0,021766487415103 
655	 2,15723062485946E-02 
656	 2,04875543170727E-02 
657	 2,02816595505737E-02 
658	 2,03554661286994E-02 
659	 1,99895430634058E-02 
660	 1,97634334092605E-02 
661	 0,019635442117515 
662	 1,91797845984632E-02 
663	 1,85755756801992E-02 
664	 1,80212373019696E-02 
665	 1,82041415775157E-02 
666	 1,85671629903937E-02 
667	 1,81083635883057E-02 
668	 1,81526968179296E-02 
669	 0,01862441591597 
670	 1,76572447103244E-02 
671	 1,68358131435055E-02 
672	 1,73588450306126E-02 
673	 1,72136864556527E-02 
674	 1,66553982558115E-02 
675	 1,71358333803878E-02 
676	 1,77746761602105E-02 
677	 1,81166174894224E-02 
678	 1,75552768708285E-02 
679	 1,68493417098483E-02 
680	 0,016950124744078 
681	 0,017319490173174 
682	 1,77273427981052E-02 
683	 1,78445636145585E-02 
684	 1,80914037567497E-02 
685	 1,86178662319433E-02 
686	 1,84079776338268E-02 
687	 1,81736940845555E-02 
688	 1,94290887711644E-02 
689	 2,03783303186752E-02 
690	 2,06587139142086E-02 
691	 2,12020154210107E-02 
692	 2,22086942305174E-02 
693	 2,37732611956149E-02 
694	 2,49397286510862E-02 
695	 2,60054644723165E-02 
696	 2,81687729637541E-02 
697	 3,07423408357141E-02 
698	 3,35363613935746E-02 
699	 3,72368004526316E-02 
700	 4,08402309313571E-02 
701	 4,30416653850532E-02 
702	 4,62181509589037E-02 
703	 5,05443448451895E-02 
704	 5,44770300126899E-02 
705	 5,83961467377385E-02 
706	 6,25075723779039E-02 
707	 6,64543153306261E-02 
708	 7,03032356482368E-02 
709	 7,42862148384226E-02 
710	 7,81262439896499E-02 
711	 8,16824494156381E-02 
712	 8,47753289237542E-02 
713	 8,76295986036808E-02 
714	 9,04801476255595E-02 
715	 9,35897589289819E-02 
716	 9,66944036420899E-02 
717	 0,098992080568648 
718	 0,101030197032156 
719	 0,10310345710292 
720	 0,105468458678258 
721	 0,107770920614213 
722	 0,109545606222178 
723	 0,11121159650779 
724	 0,112755932071758 
725	 0,113766995938435 
726	 0,114745104241553 
727	 0,115965000030341 
728	 0,116917011546239 
729	 0,117698749776833 
730	 0,118604406797245 
731	 0,119409353230799 
732	 0,120087950758458 
733	 0,120821988404913 
734	 0,121518642901103 
735	 0,122089872257991 
736	 0,122541639477315 
737	 0,122976304447509 
738	 0,123703924863849 
739	 0,124043278543447 
740	 0,123929287185503 
741	 0,124551079451054 
742	 0,125450946787785 
743	 0,125984720654215 
744	 0,126241080321095 
745	 0,126361032255354 
746	 0,126710129007949 
747	 0,127223524353182 
748	 0,12779896357314 
749	 0,127980761093831 
750	 0,127945714062527 
751	 0,128044371710569 
752	 0,128270917722077 
753	 0,128618671610161 
754	 0,129055221439723 
755	 0,129324690281747 
756	 0,129267193539457 
757	 0,129216323572828 
758	 0,129300370041007 
759	 0,129657555249156 
760	 0,130015458734908 
761	 0,130235952302226 
762	 0,130176126709888 
763	 0,130173529531016 
764	 0,130536535225028 
765	 0,130918325459093 
766	 0,131203444524353 
767	 0,131282656177689 
768	 0,131358169993412 
769	 0,131521902843772 
770	 0,131779310773156 
771	 0,131930364213611 
772	 0,131757355349275 
773	 0,132057773250759 
774	 0,132672889391011 
775	 0,132559324202472 
776	 0,132297693346492 
777	 0,132227089454206 
778	 0,132466892161691 
779	 0,132775897829803 
780	 0,132774320422211 
781	 0,133035423647264 
782	 0,133520427999643 
783	 0,133543748251672 
784	 0,133503595344803 
785	 0,133671821715861 
786	 0,133954314421082 
787	 0,134273529813218 
788	 0,134523803222226 
789	 0,134633455889597 
790	 0,134631806184802 
791	 0,134764843172999 
792	 0,134843210305042 
793	 0,134730805916692 
794	 0,134667534065059 
795	 0,134767222194787 
796	 0,135201263897697 
797	 0,135470161273845 
798	 0,135466956264396 
799	 0,135629297517123 
800	 0,135803118241066 
801	 0,135830607649083 
802	 0,135803024067147 
803	 0,135870463376727 
804	 0,136410187087064 
805	 0,136713828677805 
806	 0,136606515779967 
807	 0,13681354880026 
808	 0,136875320994283 
809	 0,136306312912412 
810	 0,136388343798758 
811	 0,137006296909973 
812	 0,137092927631834 
813	 0,136981249934958 
814	 0,136912150928614 
815	 0,137541644180313 
816	 0,138260685094664 
817	 0,138298983861472 
818	 0,138204760795258 
819	 0,138195208492623 
820	 0,138533842699311 
821	 0,138827183742979 
822	 0,138906600695423 
823	 0,139044433701068 
824	 0,139179944375913 
825	 0,139207020855303 
826	 0,139519540524621 
827	 0,139991649536278 
828	 0,139988575267469 
829	 0,139610221301661 
830	 0,139105275474186 
831	 0,13974533870584 
832	 0,140631076120659 
833	 0,140370132577558 
834	 0,140209219199666 
835	 0,140358454696479 
836	 0,140441209793323 
837	 0,140625745594018 
838	 0,14091299607402 
839	 0,140665155506815 
840	 0,140426469582697 
841	 0,14104099703525 
842	 0,141406482411171 
843	 0,141410525296789 
844	 0,141665262649035 
845	 0,141997343171647 
846	 0,142252135964345 
847	 0,142009762528768 
848	 0,141732371044257 
849	 0,142122310948498 
850	 0,142144904272588 
851	 0,141751544447148 
852	 0,141599601972952 
853	 0,141876691069987 
854	 0,142555610089507 
855	 0,142662683720664 
856	 0,142480921063955 
857	 0,142553288103354 
858	 0,142737647473751 
859	 0,142891437825558 
860	 0,142646460073728 
861	 0,142326736493038 
862	 0,142196660900611 
863	 0,142695025130048 
864	 0,143371443055642 
865	 0,143589397012858 
866	 0,143897874163337 
867	 0,144193597948108 
868	 0,143796899867413 
869	 0,143318225232508 
870	 0,143141317838101 
871	 0,143532128859239 
872	 0,144167646737734 
873	 0,144616864895241 
874	 0,144668417412202 
875	 0,14443611295479 
876	 0,144337606928481 
877	 0,144654224958328 
878	 0,145372752786053 
879	 0,145580048816625 
880	 0,145672076126399 
881	 0,146126995810906 
882	 0,146229987279748 
883	 0,146124533298311 
884	 0,146620913142667 
885	 0,146713158751716 
886	 0,146251753299009 
887	 0,146440100750337 
888	 0,146788321382932 
889	 0,146823661095804 
890	 0,147509867252811 
891	 0,148258805456329 
892	 0,147371802176195 
893	 0,147172532079104 
894	 0,148000739594512 
895	 0,147640392082246 
896	 0,147441208692065 
897	 0,148354209356292 
898	 0,148457895186705 
899	 0,148020262188695 
900	 0,14804533337605 
901	 0,14810316086746 
902	 0,148078492955722 
903	 0,147938287634986 
904	 0,147762658528202 
905	 0,147639509893851 
906	 0,14762773292762 
907	 0,148203334391406 
908	 0,149982814441143 
909	 0,150296413975393 
910	 0,149126486438231 
911	 0,148513013429903 
912	 0,14896730616549 
913	 0,150348600325989 
914	 0,149902762760409 
915	 0,149152214871488 
916	 0,149922075594466 
917	 0,14909144098108 
918	 0,147528568540075 
919	 0,149069006990202 
920	 0,15017284312319 
921	 0,149793679901676 
922	 0,149237231838568 
923	 0,14899875560149 
924	 0,149361787119106 
925	 0,149201646606961 
926	 0,148714773499635 
927	 0,14859009355254 
928	 0,148407492764548 
929	 0,148293007307906 
930	 0,149113525431515 
931	 0,149783229296522 
932	 0,149680522402525 
933	 0,149425109711872 
934	 0,149177552769018 
935	 0,149047274126899 
936	 0,148808431839705 
937	 0,148439837417334 
938	 0,148100687242019 
939	 0,147252291799074 
940	 0,14603733183352 
941	 0,146066618609086 
942	 0,147021855765332 
943	 0,148266441859227 
944	 0,147310588425761 
945	 0,145167905519606 
946	 0,144495124762632 
947	 0,144508902090287 
948	 0,144773532575293 
949	 0,144326603536117 
950	 0,144112879693291 
951	 0,1444712854746 
952	 0,143979941551391 
953	 0,142786368834369 
954	 0,141286453563641 
955	 0,139631150783135 
956	 0,138792608326622 
957	 0,141324051567024 
958	 0,141864416687835 
959	 0,139424461522526 
960	 0,138967768687677 
961	 0,139231031366185 
962	 0,139204403907148 
963	 0,140192708019579 
964	 0,140486779513428 
965	 0,137367059294096 
966	 0,136286847489849 
967	 0,137782635571726 
968	 0,13892939706367 
969	 0,139854287640268 
970	 0,140395426721805 
971	 0,140386298218846 
972	 0,13928523323629 
973	 0,136957075088379 
974	 0,136919644986682 
975	 0,138285850542595 
976	 0,138356767833177 
977	 0,138712111916615 
978	 0,139376762809306 
979	 0,139175258426319 
980	 0,138790513507172 
981	 0,138640535333582 
982	 0,138927660725655 
983	 0,139202975784889 
984	 0,139136538388182 
985	 0,140960975488034 
986	 0,143042463280649 
987	 0,141558164295983 
988	 0,139674245799551 
989	 0,138737697497938 
990	 0,139936011973547 
991	 0,140856239907123 
992	 0,140390194699301 
993	 0,140306446666054 
994	 0,140901026482658 
995	 0,142320434891844 
996	 0,144910531933743 
997	 0,146536717493389 
998	 0,143062511819994 
999	 0,14255858719497 
1000	 0,145477483207952 
1001	 0,144175173215662 
1002	 0,143655827999463 
1003	 0,145807187287671 
1004	 0,146219213116344 
1005	 0,145549444271363 
1006	 0,144924358304263 
1007	 0,145955966227709 
1008	 0,147082409193465 
1009	 0,144967227919707 
1010	 0,145839138034019 
1011	 0,149743983620803 
1012	 0,151285903931521 
1013	 0,152676712205779 
1014	 0,154041134845998 
1015	 0,151404125830964 
1016	 0,149664407036579 
1017	 0,152662988638367 
1018	 0,155023150203393 
1019	 0,1548732053389 
1020	 0,150912637772977 
1021	 0,150625299660156 
1022	 0,153596184685801 
1023	 0,153064989189423 
1024	 0,15405105511712 
1025	 0,157113706806691 
1026	 0,157201835028387 
1027	 0,157514801271002 
1028	 0,159474059082371 
1029	 0,157036162826944 
1030	 0,154162322566889 
1031	 0,155820311606814 
1032	 0,154903918924923 
1033	 0,152482070278259 
1034	 0,153402896119643 
1035	 0,15362684164937 
1036	 0,152567111639284 
1037	 0,152018890726449 
1038	 0,152924205618018 
1039	 0,155347689746457 
1040	 0,156866354651664 
1041	 0,159393982589585 
1042	 0,163465191901669 
1043	 0,160752930859888 
1044	 0,153098856254607 
1045	 0,145595279932786 
1046	 0,152091250339358 
1047	 0,164618604563018 
1048	 0,157104338381982 
1049	 0,155748007832718 
1050	 0,16413294098493 
1051	 0,164584712056131 
1052	 0,159593767083923 
1053	 0,154022820298883 
1054	 0,167710263254971 
1055	 0,177025779568677 
1056	 0,163880471054976 
1057	 0,161625948654253 
1058	 0,16732122852573 
1059	 0,169635101776352 
1060	 0,169562553590282 
1061	 0,168539356273507 
1062	 0,16985803787575 
1063	 0,174453517013112 
1064	 0,176800852856289 
1065	 0,155138957974175 
1066	 0,141586494785779 
1067	 0,15147720910517 
1068	 0,171687509952906 
1069	 0,184865241137109 
1070	 0,179556250390244 
1071	 0,176055364775009 
1072	 0,171076909680432 
1073	 0,159212741289642 
1074	 0,159127579456669 
1075	 0,161715971787796 
