Wavelength	BEL100192.asd
325	 5,49358090297866E-03 
326	 4,26342699141513E-03 
327	 8,26527022328256E-03 
328	 1,40176412353248E-02 
329	 9,45824739573137E-03 
330	 6,22312520332927E-03 
331	 1,28010894370442E-02 
332	 1,85687202232703E-02 
333	 2,01828075014446E-02 
334	 1,41477580500892E-02 
335	 7,74310416656834E-03 
336	 4,92932962666559E-03 
337	 1,09580862173879E-02 
338	 1,69082943431472E-02 
339	 1,52912594716883E-02 
340	 0,01368369113475 
341	 1,36005980728336E-02 
342	 1,56263237958911E-02 
343	 1,63155345043784E-02 
344	 1,47983398052468E-02 
345	 1,28898124965436E-02 
346	 1,24033075486796E-02 
347	 1,46647093872999E-02 
348	 1,39852153690981E-02 
349	 1,14355907251155E-02 
350	 1,23571195137503E-02 
351	 1,29600995889854E-02 
352	 1,21305489611126E-02 
353	 1,24291802469087E-02 
354	 1,34577257861329E-02 
355	 0,01448946958745 
356	 1,56066208957246E-02 
357	 1,58460706738094E-02 
358	 1,20599078918064E-02 
359	 9,90321459526483E-03 
360	 0,011810070378039 
361	 0,01223692426784 
362	 1,21640159981291E-02 
363	 1,38377766196886E-02 
364	 0,013459023309575 
365	 1,13327480886001E-02 
366	 1,14586128908059E-02 
367	 1,22493580287385E-02 
368	 1,25472404544817E-02 
369	 1,15487806951514E-02 
370	 1,00143086077013E-02 
371	 9,38132945295334E-03 
372	 1,13491415420337E-02 
373	 0,01529064389435 
374	 1,65108303743979E-02 
375	 1,53215472140696E-02 
376	 0,012453225785565 
377	 1,15401652106216E-02 
378	 1,23091764078864E-02 
379	 1,24692175454214E-02 
380	 1,20841270264262E-02 
381	 1,13320611907593E-02 
382	 0,011616626407056 
383	 1,21348669544598E-02 
384	 1,19519483327603E-02 
385	 1,18530722553976E-02 
386	 1,22667926717624E-02 
387	 1,39386951365438E-02 
388	 1,53484327861941E-02 
389	 1,57968824755683E-02 
390	 1,54490448124149E-02 
391	 1,45141607083221E-02 
392	 1,32318519772816E-02 
393	 1,29418454812045E-02 
394	 1,35331902664245E-02 
395	 1,36520669396857E-02 
396	 1,37609729246197E-02 
397	 0,013944448364348 
398	 1,33526218323118E-02 
399	 1,26343411216682E-02 
400	 1,26752277061997E-02 
401	 1,29093513863144E-02 
402	 1,30676558030599E-02 
403	 1,25353856128347E-02 
404	 1,27869202764333E-02 
405	 1,45536498395244E-02 
406	 1,40467661782573E-02 
407	 0,012309154996271 
408	 1,26926500982599E-02 
409	 1,28991522955661E-02 
410	 1,25431091162427E-02 
411	 1,32473539250895E-02 
412	 1,36875134146739E-02 
413	 1,26504737880804E-02 
414	 1,23728788836486E-02 
415	 1,29641603296535E-02 
416	 1,36357535776133E-02 
417	 1,37994869670876E-02 
418	 0,013288156830223 
419	 1,30401396879904E-02 
420	 1,31058087158411E-02 
421	 1,34177318540352E-02 
422	 1,31796630794582E-02 
423	 1,26282099615913E-02 
424	 1,33742005689923E-02 
425	 1,39594668573927E-02 
426	 1,34667192766613E-02 
427	 1,30276177193398E-02 
428	 1,28345142618058E-02 
429	 1,29097958538414E-02 
430	 1,29240402917516E-02 
431	 1,28505175357025E-02 
432	 0,013101331430751 
433	 1,34450178138503E-02 
434	 1,36579645932633E-02 
435	 1,35867071122411E-02 
436	 1,34096998165796E-02 
437	 1,36721327640101E-02 
438	 1,37520846723009E-02 
439	 1,34922906422795E-02 
440	 1,36096736171399E-02 
441	 0,013729118720979 
442	 0,013302361014297 
443	 1,33820127951431E-02 
444	 1,39341509720641E-02 
445	 1,40388108365304E-02 
446	 1,37993058959781E-02 
447	 1,33485323206572E-02 
448	 1,31966463487219E-02 
449	 1,34621304672781E-02 
450	 1,43010907488703E-02 
451	 1,42341274727548E-02 
452	 1,32756605367126E-02 
453	 1,40088934370239E-02 
454	 1,50607085664729E-02 
455	 1,49821970223584E-02 
456	 1,43314954067961E-02 
457	 1,35734042547414E-02 
458	 1,35375188953554E-02 
459	 1,41586923512175E-02 
460	 1,51362165864753E-02 
461	 1,46982994414941E-02 
462	 0,01389323481149 
463	 1,44107845495982E-02 
464	 1,48132277948553E-02 
465	 0,014787143891516 
466	 1,46321821463158E-02 
467	 1,44921518569076E-02 
468	 1,44339043828512E-02 
469	 1,39480155903036E-02 
470	 1,34196755217427E-02 
471	 1,37683430134182E-02 
472	 1,41957702017253E-02 
473	 1,44119408626147E-02 
474	 1,44508454002001E-02 
475	 1,44989370110479E-02 
476	 1,47314669406045E-02 
477	 0,014741559809783 
478	 1,45912025949184E-02 
479	 1,47506025209905E-02 
480	 1,46248245205717E-02 
481	 1,40654266924231E-02 
482	 1,42252861547326E-02 
483	 1,46147038690746E-02 
484	 1,42301689612131E-02 
485	 1,41864170899834E-02 
486	 1,46327329559466E-02 
487	 1,48548710667449E-02 
488	 1,46941786352069E-02 
489	 1,41565773452738E-02 
490	 1,45693353138796E-02 
491	 0,015330516385606 
492	 0,014461561381721 
493	 1,39751007216553E-02 
494	 1,44525367394282E-02 
495	 1,48432708222762E-02 
496	 0,014970225420932 
497	 1,47318119048585E-02 
498	 1,49379708901098E-02 
499	 1,54955061534841E-02 
500	 1,54603783059027E-02 
501	 1,51276349985766E-02 
502	 0,014725043560964 
503	 0,014439257112722 
504	 1,45972273141569E-02 
505	 1,58286185716557E-02 
506	 1,58356102263642E-02 
507	 1,44055226227544E-02 
508	 1,39010619835159E-02 
509	 1,42649261556609E-02 
510	 0,015279113577251 
511	 1,60040674725007E-02 
512	 1,62151498401569E-02 
513	 1,59342108736197E-02 
514	 1,56692038581436E-02 
515	 1,56557044415183E-02 
516	 1,53941041249033E-02 
517	 1,53390913430361E-02 
518	 1,62255804206582E-02 
519	 1,64595045788124E-02 
520	 1,59324841052961E-02 
521	 1,58952456497603E-02 
522	 1,58039828805722E-02 
523	 1,53490196092113E-02 
524	 1,57507236535128E-02 
525	 1,66173977696787E-02 
526	 1,66095934775684E-02 
527	 1,64925852085141E-02 
528	 1,64967248638391E-02 
529	 1,64032818178262E-02 
530	 1,63575695674352E-02 
531	 1,65335400490014E-02 
532	 1,66509502177108E-02 
533	 1,66416868579857E-02 
534	 0,016475821587778 
535	 1,65690060959537E-02 
536	 1,70578666091883E-02 
537	 1,67628715916355E-02 
538	 1,61168354332615E-02 
539	 1,62847936720842E-02 
540	 1,63601964196322E-02 
541	 1,61845186528533E-02 
542	 1,64146270939389E-02 
543	 1,67331056164928E-02 
544	 0,016803181358817 
545	 1,69107483899218E-02 
546	 1,70190284547476E-02 
547	 1,68364500513322E-02 
548	 1,67613965306489E-02 
549	 1,69605757436658E-02 
550	 1,70614649069755E-02 
551	 1,70486470297263E-02 
552	 1,69646996442441E-02 
553	 0,016981570986731 
554	 1,71000761335322E-02 
555	 1,70588184828719E-02 
556	 1,70657851972378E-02 
557	 1,72735898753854E-02 
558	 1,71129173153543E-02 
559	 0,016751191293592 
560	 0,016883766800991 
561	 1,71568854752867E-02 
562	 1,73592565521296E-02 
563	 1,71298562834878E-02 
564	 1,67787196379973E-02 
565	 1,67683170035086E-02 
566	 1,69622173813421E-02 
567	 1,72391108208176E-02 
568	 1,72813251689198E-02 
569	 1,72925396743534E-02 
570	 1,73988277192513E-02 
571	 1,72469755631679E-02 
572	 1,70341671437546E-02 
573	 1,72741526277277E-02 
574	 1,77582584183928E-02 
575	 1,83162617031955E-02 
576	 1,84698580094118E-02 
577	 1,85408787791494E-02 
578	 1,89256678809267E-02 
579	 1,87335314089878E-02 
580	 1,81422301126969E-02 
581	 1,82953534506498E-02 
582	 1,86490413079179E-02 
583	 1,88789841887361E-02 
584	 1,89618731650499E-02 
585	 1,90461596010174E-02 
586	 1,94466975203067E-02 
587	 1,96822719589798E-02 
588	 1,96323090695115E-02 
589	 1,95983760361909E-02 
590	 1,96689860099553E-02 
591	 1,98891766820821E-02 
592	 1,98284430916828E-02 
593	 1,95556795678256E-02 
594	 1,94326972868906E-02 
595	 1,96395872453992E-02 
596	 2,01144705730182E-02 
597	 1,97158423417513E-02 
598	 1,92469755483345E-02 
599	 2,00839432944908E-02 
600	 2,05742174616346E-02 
601	 2,03537095488879E-02 
602	 0,019959852321893 
603	 1,96675963103763E-02 
604	 1,96844653239144E-02 
605	 1,98743043992239E-02 
606	 1,99981074201581E-02 
607	 0,019511024525076 
608	 1,90983606120543E-02 
609	 1,90495065899093E-02 
610	 1,92621346092792E-02 
611	 0,01942636737079 
612	 0,019168204291563 
613	 1,90968989922544E-02 
614	 1,91972091720855E-02 
615	 1,88086905129621E-02 
616	 1,86055816736325E-02 
617	 1,89254634572683E-02 
618	 1,84837587079704E-02 
619	 1,78331272746592E-02 
620	 1,84800918867694E-02 
621	 1,87152664466759E-02 
622	 1,81666498169691E-02 
623	 1,80416991672593E-02 
624	 1,82299644455982E-02 
625	 1,85215506105324E-02 
626	 1,86417497155805E-02 
627	 1,85970074182346E-02 
628	 1,86383857130766E-02 
629	 1,87753561421703E-02 
630	 1,89704399728448E-02 
631	 1,88628381700292E-02 
632	 1,86850691031493E-02 
633	 1,88728846637897E-02 
634	 1,91068593430657E-02 
635	 1,93057723867451E-02 
636	 1,95286766749596E-02 
637	 1,97793890364149E-02 
638	 2,00555907642841E-02 
639	 2,02369157698702E-02 
640	 2,03880640665057E-02 
641	 2,07987128046756E-02 
642	 2,08905004164511E-02 
643	 2,05313538060403E-02 
644	 2,05141546240379E-02 
645	 2,06699653189096E-02 
646	 2,06628641722328E-02 
647	 2,05809527414393E-02 
648	 2,05455800966407E-02 
649	 2,09738873358502E-02 
650	 2,11556947203535E-02 
651	 2,06917390636318E-02 
652	 2,05451210799285E-02 
653	 2,06218457061681E-02 
654	 2,03990323862585E-02 
655	 2,03365400873833E-02 
656	 2,04449084404533E-02 
657	 0,020016900780757 
658	 1,91799442481387E-02 
659	 1,81231146979827E-02 
660	 0,017887361465231 
661	 1,83039032133014E-02 
662	 1,83496555090172E-02 
663	 1,80603417371216E-02 
664	 1,74533702819138E-02 
665	 1,67184134407579E-02 
666	 1,62105057738198E-02 
667	 1,64160152983077E-02 
668	 1,67517602379146E-02 
669	 1,69315776679881E-02 
670	 1,66319441568932E-02 
671	 1,63028874892448E-02 
672	 1,63387001375131E-02 
673	 0,016743521990119 
674	 1,71735394281655E-02 
675	 1,67919277085469E-02 
676	 1,64213690269097E-02 
677	 1,63908569933833E-02 
678	 1,65926999342614E-02 
679	 1,69077479737112E-02 
680	 1,71982077060604E-02 
681	 1,73228136344266E-02 
682	 1,71939693918004E-02 
683	 1,65631741982373E-02 
684	 1,63743532186925E-02 
685	 1,72060202953854E-02 
686	 1,81976178663557E-02 
687	 1,90659167014018E-02 
688	 1,93839657340954E-02 
689	 1,94813155945074E-02 
690	 0,019637988397372 
691	 2,03296688963301E-02 
692	 2,10491007638136E-02 
693	 2,14102789438121E-02 
694	 2,28130119308695E-02 
695	 2,47828149209304E-02 
696	 2,55803174603175E-02 
697	 0,026726708793096 
698	 2,88346213351936E-02 
699	 3,12855305670347E-02 
700	 3,37339744892898E-02 
701	 0,035717035819521 
702	 3,76342458795619E-02 
703	 3,94588470278512E-02 
704	 0,040776327156276 
705	 4,26019016503039E-02 
706	 4,53846158695725E-02 
707	 4,74151327539674E-02 
708	 0,048797975259999 
709	 5,01528198856532E-02 
710	 5,18175186534781E-02 
711	 5,38118370406426E-02 
712	 5,56274581875986E-02 
713	 5,70925516907909E-02 
714	 5,80772884919146E-02 
715	 5,85742467556136E-02 
716	 5,88507262645748E-02 
717	 5,95878759420733E-02 
718	 6,09003470463011E-02 
719	 6,24584209214875E-02 
720	 6,29203011921718E-02 
721	 6,31939736448046E-02 
722	 6,44603931970078E-02 
723	 6,56671263341635E-02 
724	 6,65704599919129E-02 
725	 6,69876403396208E-02 
726	 6,70043107741829E-02 
727	 6,68801108381074E-02 
728	 6,76807138924681E-02 
729	 6,88099821262454E-02 
730	 6,89129157288475E-02 
731	 6,95352839343485E-02 
732	 7,07137661385784E-02 
733	 7,13020374327327E-02 
734	 7,15965901640483E-02 
735	 7,18410770730846E-02 
736	 7,20524482839158E-02 
737	 7,22643700496031E-02 
738	 7,24837559282243E-02 
739	 7,29264901957201E-02 
740	 0,073661103591868 
741	 7,46488830028202E-02 
742	 7,53707126082702E-02 
743	 7,52892390458959E-02 
744	 7,51401459424015E-02 
745	 7,50621745468425E-02 
746	 7,47917033079477E-02 
747	 7,50178823638868E-02 
748	 7,59418384125189E-02 
749	 7,60940680126211E-02 
750	 7,59296552493765E-02 
751	 7,64527134832166E-02 
752	 7,68756660693254E-02 
753	 0,076960657315938 
754	 7,66095554588285E-02 
755	 7,64891875987607E-02 
756	 7,70164972340194E-02 
757	 7,72333141741947E-02 
758	 7,69980335718234E-02 
759	 7,59892805392145E-02 
760	 7,44638884614228E-02 
761	 7,42970280636883E-02 
762	 7,66298000771593E-02 
763	 7,86048003335795E-02 
764	 7,88855332260292E-02 
765	 7,89993326267028E-02 
766	 7,90332326394356E-02 
767	 0,078685399672156 
768	 7,87943116983851E-02 
769	 7,94021153272024E-02 
770	 7,94263049369267E-02 
771	 7,94029501945385E-02 
772	 7,99952026026826E-02 
773	 0,080025204638472 
774	 0,0795777678189 
775	 7,97236747415864E-02 
776	 8,00294968857523E-02 
777	 0,08026635666925 
778	 8,04252288040926E-02 
779	 8,05511704874148E-02 
780	 8,07266769648327E-02 
781	 8,06722878449196E-02 
782	 8,04928237751327E-02 
783	 0,080867815602275 
784	 8,11105443959713E-02 
785	 8,07808497887811E-02 
786	 8,03169709250446E-02 
787	 8,01057993646795E-02 
788	 8,07742872183845E-02 
789	 8,10899538473656E-02 
790	 8,08513845599308E-02 
791	 8,11686545203851E-02 
792	 8,16230606269708E-02 
793	 8,18299995031273E-02 
794	 8,16668494564372E-02 
795	 8,14051684095796E-02 
796	 0,081692489696584 
797	 8,19363280410804E-02 
798	 8,19634332936275E-02 
799	 8,20488510925505E-02 
800	 0,08188252961626 
801	 8,12590136987672E-02 
802	 8,18455774328186E-02 
803	 0,083243986728708 
804	 8,36641709418203E-02 
805	 8,37605698002026E-02 
806	 8,37343646599664E-02 
807	 8,36205123302933E-02 
808	 8,33355415772811E-02 
809	 8,27862034622546E-02 
810	 8,22678848921581E-02 
811	 8,18746199975025E-02 
812	 8,16249488774724E-02 
813	 8,14687500057605E-02 
814	 8,13276464151227E-02 
815	 8,08616390007897E-02 
816	 8,03372743233215E-02 
817	 8,02072132893398E-02 
818	 8,11346114046423E-02 
819	 8,25489179353554E-02 
820	 0,082945795521833 
821	 8,28290074560717E-02 
822	 8,25716361845724E-02 
823	 8,33832779127069E-02 
824	 8,41568802389143E-02 
825	 0,083489217578649 
826	 8,37150854414297E-02 
827	 8,46115992333126E-02 
828	 8,36144786210727E-02 
829	 8,34602902109814E-02 
830	 8,51460562603263E-02 
831	 0,084966346185341 
832	 8,40033585961831E-02 
833	 8,41449496184434E-02 
834	 0,084834393778911 
835	 8,55560500961302E-02 
836	 8,51176491133505E-02 
837	 8,47046311121964E-02 
838	 8,50092343042498E-02 
839	 8,63201811039129E-02 
840	 8,74404507579423E-02 
841	 8,67646817945313E-02 
842	 0,085741675772025 
843	 8,52001306830312E-02 
844	 8,64319329926064E-02 
845	 8,77585593977272E-02 
846	 8,81135795326216E-02 
847	 8,72611076781154E-02 
848	 8,61247971356389E-02 
849	 8,60716354048143E-02 
850	 8,58318839172813E-02 
851	 8,54735444154887E-02 
852	 8,63601970336121E-02 
853	 8,71763518973715E-02 
854	 0,087274127478241 
855	 0,087940207132026 
856	 8,84874365247082E-02 
857	 8,78752598052925E-02 
858	 8,73982172565481E-02 
859	 8,75085111539394E-02 
860	 0,088709196923537 
861	 8,92123252319223E-02 
862	 8,82415166794003E-02 
863	 8,75950964910808E-02 
864	 8,74111756421053E-02 
865	 8,75881361113106E-02 
866	 8,79575639218822E-02 
867	 8,82404515025266E-02 
868	 8,77464044645709E-02 
869	 8,77141092488498E-02 
870	 8,84498387506944E-02 
871	 8,78564298307085E-02 
872	 8,73549981403733E-02 
873	 8,87774798517796E-02 
874	 8,94290914785328E-02 
875	 8,89878758392396E-02 
876	 8,83110342129012E-02 
877	 8,79878988520361E-02 
878	 8,83230911166362E-02 
879	 8,91561493300836E-02 
880	 8,94137761658145E-02 
881	 8,81035940693005E-02 
882	 0,088535532866091 
883	 8,99554158041913E-02 
884	 8,83129323388276E-02 
885	 0,08743462270471 
886	 8,83765861990391E-02 
887	 8,87279616583204E-02 
888	 8,91832820110412E-02 
889	 9,04185058436617E-02 
890	 9,09299048173311E-02 
891	 9,02581230612869E-02 
892	 8,78776105686308E-02 
893	 0,086175018471677 
894	 8,59414900491756E-02 
895	 8,50518798564032E-02 
896	 8,51714608746235E-02 
897	 8,76326232132874E-02 
898	 8,77789861980626E-02 
899	 8,63714525844357E-02 
900	 8,68445168654479E-02 
901	 8,71384831756945E-02 
902	 8,69909931505425E-02 
903	 8,75976872879732E-02 
904	 8,76686238129448E-02 
905	 8,66163096873032E-02 
906	 8,62928913849049E-02 
907	 8,63519732006005E-02 
908	 0,085924453503698 
909	 8,78785604351761E-02 
910	 9,08328354218036E-02 
911	 0,087358131476808 
912	 8,40966721623139E-02 
913	 8,45032244882202E-02 
914	 8,63933379185467E-02 
915	 8,88812643570391E-02 
916	 9,11251934841424E-02 
917	 9,14685626486683E-02 
918	 9,03113493982138E-02 
919	 8,92548530111108E-02 
920	 8,86553270234597E-02 
921	 8,85322464993381E-02 
922	 8,79650890383118E-02 
923	 8,69311150910207E-02 
924	 0,085437442015339 
925	 8,34243326123238E-02 
926	 8,21114602461624E-02 
927	 8,44649956945946E-02 
928	 8,44867643249204E-02 
929	 8,13032319535195E-02 
930	 8,53151382991431E-02 
931	 8,97816850476509E-02 
932	 8,69621130644879E-02 
933	 7,42094083682887E-02 
934	 6,48343922859867E-02 
935	 8,29815526603686E-02 
936	 8,79851994843235E-02 
937	 7,60144391771409E-02 
938	 0,071177988397607 
939	 7,64013887946952E-02 
940	 8,86760315344828E-02 
941	 8,75381803374925E-02 
942	 0,082617053666342 
943	 8,25844871885271E-02 
944	 8,72854577337268E-02 
945	 0,092812004928267 
946	 9,25365461698595E-02 
947	 0,082127900651695 
948	 6,44383805037947E-02 
949	 5,27481033035395E-02 
950	 0,051246953853295 
951	 6,15398954551084E-02 
952	 8,38337940826862E-02 
953	 9,57192376598578E-02 
954	 7,68343269498881E-02 
955	 7,66715137819035E-02 
956	 9,07354775154548E-02 
957	 8,57988707685882E-02 
958	 8,08452121012088E-02 
959	 7,92715603442942E-02 
960	 6,96937156380988E-02 
961	 7,05169094724193E-02 
962	 0,088795415029944 
963	 8,90484004402159E-02 
964	 8,23340406432692E-02 
965	 8,62993984546696E-02 
966	 8,76061654169338E-02 
967	 8,40136960452381E-02 
968	 0,075207206208133 
969	 7,12266169000713E-02 
970	 7,56614391259028E-02 
971	 8,34847808953026E-02 
972	 8,78638004351266E-02 
973	 8,43528096387015E-02 
974	 8,53203943560854E-02 
975	 8,81738886124994E-02 
976	 8,48928544042118E-02 
977	 8,79252397435866E-02 
978	 9,50526602321857E-02 
979	 0,089677770242758 
980	 8,10294790209136E-02 
981	 7,59727475125908E-02 
982	 8,40481409992455E-02 
983	 0,093645797909853 
984	 9,45591716180304E-02 
985	 9,49873124403725E-02 
986	 9,34730817053419E-02 
987	 8,47153739709736E-02 
988	 8,33764988734016E-02 
989	 8,94271566078577E-02 
990	 8,80466973060633E-02 
991	 8,74047109207709E-02 
992	 9,02716046348299E-02 
993	 8,70620089410874E-02 
994	 8,43890233221936E-02 
995	 8,89053209627839E-02 
996	 8,78979559457858E-02 
997	 8,47246921047555E-02 
998	 9,01228376648575E-02 
999	 9,56701716476885E-02 
1000	 9,67785961904694E-02 
1001	 8,62191657891878E-02 
1002	 8,06007396284258E-02 
1003	 8,66546653486568E-02 
1004	 8,89301241706889E-02 
1005	 8,68553770361453E-02 
1006	 8,18540951967243E-02 
1007	 8,18807964757689E-02 
1008	 8,56485113593527E-02 
1009	 8,79165546865322E-02 
1010	 9,11689582919107E-02 
1011	 9,39994399293638E-02 
1012	 9,09328580629302E-02 
1013	 8,83665653955239E-02 
1014	 8,81345812194966E-02 
1015	 8,12468306661296E-02 
1016	 8,13841217996287E-02 
1017	 9,69249971872931E-02 
1018	 9,10268526641461E-02 
1019	 8,01071742527971E-02 
1020	 9,53842033645832E-02 
1021	 0,106823101427055 
1022	 0,105483327530306 
1023	 8,56713034931651E-02 
1024	 0,079656813970777 
1025	 9,25035821325304E-02 
1026	 0,08437600708261 
1027	 8,39048961956149E-02 
1028	 0,10403593472682 
1029	 0,102220509997175 
1030	 8,70259576809103E-02 
1031	 7,64291885513511E-02 
1032	 0,093634690626033 
1033	 0,117155260049588 
1034	 9,63999082779179E-02 
1035	 8,36100151460333E-02 
1036	 8,68570950112805E-02 
1037	 7,53284154156766E-02 
1038	 7,64978608085791E-02 
1039	 9,65784728967882E-02 
1040	 0,103100172978683 
1041	 0,101997693670605 
1042	 0,100060563649886 
1043	 0,100460527784184 
1044	 0,102086049153761 
1045	 0,10230576234826 
1046	 9,75957814189835E-02 
1047	 0,095033088554139 
1048	 0,114297990502422 
1049	 0,108725954012528 
1050	 7,93348127556742E-02 
1051	 9,80242533408291E-02 
1052	 0,101314127852959 
1053	 6,90887425208162E-02 
1054	 8,34509782882865E-02 
1055	 0,103613349548848 
1056	 9,52467775147178E-02 
1057	 7,71232867529965E-02 
1058	 6,20251815614082E-02 
1059	 6,50547913478263E-02 
1060	 9,09536363687565E-02 
1061	 0,117490937201812 
1062	 9,27101777854718E-02 
1063	 9,86963302456697E-02 
1064	 0,133380238213758 
1065	 0,102168035264112 
1066	 8,15534768282137E-02 
1067	 9,86862385680938E-02 
1068	 7,52408275876348E-02 
1069	 7,01370497186789E-02 
1070	 0,119297829566107 
1071	 0,113243103745699 
1072	 7,61432644168366E-02 
1073	 0,053521333189822 
1074	 6,51402485370745E-02 
1075	 9,28994578676527E-02 
