Wavelength	BEL100156.asd
325	 1,40581170346627E-02 
326	 8,71477898271229E-03 
327	 9,6779024219629E-03 
328	 1,43127116552457E-02 
329	 1,46906619766029E-02 
330	 0,01548306414248 
331	 0,020193172949662 
332	 2,51736672825913E-02 
333	 2,78319934350445E-02 
334	 2,45274129725814E-02 
335	 0,017345033871522 
336	 1,00600918644797E-02 
337	 1,50555673206341E-02 
338	 2,10884454798091E-02 
339	 1,83526599297033E-02 
340	 1,59312636413711E-02 
341	 1,55084413687612E-02 
342	 1,81829964858949E-02 
343	 1,57595406118578E-02 
344	 8,5064715844538E-03 
345	 1,23653315835429E-02 
346	 1,83298214983857E-02 
347	 1,69194350647134E-02 
348	 1,43593779023166E-02 
349	 1,25398428481306E-02 
350	 1,31839175861906E-02 
351	 1,33354003568284E-02 
352	 0,012275257883569 
353	 1,33640157443907E-02 
354	 1,50522222076454E-02 
355	 1,52353822863222E-02 
356	 1,47775534827014E-02 
357	 1,39856943567564E-02 
358	 1,30142998164336E-02 
359	 1,29989975231978E-02 
360	 1,41868801220947E-02 
361	 1,39716850303015E-02 
362	 1,30913414180501E-02 
363	 1,29641334292375E-02 
364	 1,24349595384125E-02 
365	 1,16960412415875E-02 
366	 1,21944822953936E-02 
367	 1,30426214895698E-02 
368	 1,35618863318868E-02 
369	 1,31808268427911E-02 
370	 1,23507256998701E-02 
371	 1,19688565647418E-02 
372	 1,28095131246191E-02 
373	 0,014635811680564 
374	 1,56304899748138E-02 
375	 1,46547472506565E-02 
376	 1,12683935411083E-02 
377	 1,11227130989124E-02 
378	 1,35619860926944E-02 
379	 1,47785254094866E-02 
380	 1,51174710753893E-02 
381	 1,46120899007477E-02 
382	 1,37825702570814E-02 
383	 1,30937925844499E-02 
384	 1,29995781832103E-02 
385	 0,013050596474047 
386	 1,31274573536486E-02 
387	 1,29975848672076E-02 
388	 1,41573271881146E-02 
389	 1,63283407788537E-02 
390	 1,42815001973117E-02 
391	 1,16339720404505E-02 
392	 1,31345202330281E-02 
393	 1,35807878751129E-02 
394	 1,25194078131415E-02 
395	 1,20113799609769E-02 
396	 1,27596885343577E-02 
397	 1,45281787426517E-02 
398	 0,013968978584769 
399	 1,26412786640112E-02 
400	 1,29126126679453E-02 
401	 1,32470636189676E-02 
402	 0,01323521397417 
403	 1,25039555454165E-02 
404	 1,24800230563535E-02 
405	 1,39568180293251E-02 
406	 1,42411122892478E-02 
407	 1,35119357664579E-02 
408	 1,29959642980709E-02 
409	 1,26404517943875E-02 
410	 1,25154655123276E-02 
411	 1,27566605663583E-02 
412	 1,28719829689701E-02 
413	 1,24339875718119E-02 
414	 1,21995308017698E-02 
415	 1,23482556427978E-02 
416	 1,30345099643777E-02 
417	 0,013307391838612 
418	 1,28338940958803E-02 
419	 1,24604160507584E-02 
420	 1,23866308915681E-02 
421	 1,27523918304073E-02 
422	 1,26245894308908E-02 
423	 1,21502059728792E-02 
424	 1,27464370067896E-02 
425	 1,32384756139255E-02 
426	 1,29026840617387E-02 
427	 1,28122807087756E-02 
428	 1,28633194677478E-02 
429	 0,012504360150324 
430	 0,012516540541539 
431	 0,012928154894709 
432	 1,27267364852149E-02 
433	 1,24939335955436E-02 
434	 1,27287568738324E-02 
435	 1,27196197058039E-02 
436	 1,25178301171326E-02 
437	 1,25673789235433E-02 
438	 1,25996852068516E-02 
439	 1,25463858832694E-02 
440	 1,26657787102071E-02 
441	 1,27677080209997E-02 
442	 1,25889597503316E-02 
443	 1,26769920109084E-02 
444	 1,30283879904031E-02 
445	 1,32532066948498E-02 
446	 1,30891064123766E-02 
447	 1,24805078188216E-02 
448	 1,24379113816344E-02 
449	 0,012844834712773 
450	 1,32488705874948E-02 
451	 1,31869563014612E-02 
452	 0,012762092053773 
453	 1,33461246309871E-02 
454	 1,40323881914605E-02 
455	 1,38866660846961E-02 
456	 1,33710119661987E-02 
457	 1,28700698199219E-02 
458	 1,30458618508034E-02 
459	 1,38097996779978E-02 
460	 1,48460641799703E-02 
461	 1,44720924288591E-02 
462	 1,36104476265133E-02 
463	 1,37668169666384E-02 
464	 1,38641727626627E-02 
465	 1,37539443456185E-02 
466	 1,39833543734369E-02 
467	 1,38749775665535E-02 
468	 1,30568583521021E-02 
469	 1,27193543409326E-02 
470	 1,28604876849858E-02 
471	 1,30880309555931E-02 
472	 0,013228868235628 
473	 1,32178756954575E-02 
474	 1,31877424770883E-02 
475	 0,01328883636541 
476	 1,36496130829405E-02 
477	 1,39673548289435E-02 
478	 1,41089508929512E-02 
479	 1,39334845264078E-02 
480	 1,36239365943092E-02 
481	 1,33563401021245E-02 
482	 1,35908665213336E-02 
483	 1,40181425664993E-02 
484	 1,40723595973801E-02 
485	 1,38706539243997E-02 
486	 1,35326373277978E-02 
487	 1,34411372043164E-02 
488	 1,33132855221685E-02 
489	 1,29819159822383E-02 
490	 0,013236823108386 
491	 1,37014275065123E-02 
492	 1,31277327131733E-02 
493	 1,30851917305153E-02 
494	 1,39064490084742E-02 
495	 0,01416690806278 
496	 1,39665680429212E-02 
497	 1,35641298050012E-02 
498	 1,38667860233132E-02 
499	 1,46517018516042E-02 
500	 1,44321003165205E-02 
501	 1,39336436782186E-02 
502	 1,36494213478533E-02 
503	 1,37027471266826E-02 
504	 1,40333022400136E-02 
505	 1,45268126801435E-02 
506	 1,46941801727465E-02 
507	 1,44309665177945E-02 
508	 1,40145663844117E-02 
509	 1,39296084035914E-02 
510	 1,45501670510195E-02 
511	 1,46796195008481E-02 
512	 1,43568609055454E-02 
513	 1,42963550951221E-02 
514	 0,014676778683288 
515	 1,54651247276396E-02 
516	 1,56176161850935E-02 
517	 1,54912633039519E-02 
518	 1,58006868448737E-02 
519	 0,015831274733249 
520	 1,55321469188159E-02 
521	 0,015365345330844 
522	 1,51665798995635E-02 
523	 1,48790252853385E-02 
524	 1,52678527840449E-02 
525	 1,60309430328062E-02 
526	 1,62713347259799E-02 
527	 0,016040049420725 
528	 1,55286828132695E-02 
529	 1,57580723687642E-02 
530	 1,61852483839256E-02 
531	 1,61014406496853E-02 
532	 1,58403821040895E-02 
533	 1,55784517438419E-02 
534	 1,55940384683138E-02 
535	 1,58155794386273E-02 
536	 0,016124613838442 
537	 0,01590304525839 
538	 0,015517304930324 
539	 0,015864561406163 
540	 0,01606815078575 
541	 1,59133867352644E-02 
542	 1,58317022194548E-02 
543	 1,58143642698841E-02 
544	 1,58374686000061E-02 
545	 1,60603173577918E-02 
546	 1,64087844065694E-02 
547	 1,66452010225939E-02 
548	 1,66243385327895E-02 
549	 1,63287020585754E-02 
550	 1,62327832843121E-02 
551	 1,63178052874654E-02 
552	 1,64483516132551E-02 
553	 1,67270936142561E-02 
554	 0,016999711290813 
555	 1,65089784923298E-02 
556	 1,62578758338664E-02 
557	 0,017036906965221 
558	 1,69933335682663E-02 
559	 1,63238688539949E-02 
560	 1,64543496620415E-02 
561	 0,016829343976893 
562	 1,71042085680395E-02 
563	 1,65065650987495E-02 
564	 1,57312371375726E-02 
565	 1,58129785747838E-02 
566	 1,58308588384007E-02 
567	 1,56810867715977E-02 
568	 1,58738220197872E-02 
569	 1,62257184464041E-02 
570	 1,65606755497864E-02 
571	 1,66150692737894E-02 
572	 1,64939158219403E-02 
573	 1,64422008875633E-02 
574	 1,70370333271072E-02 
575	 1,81906814022937E-02 
576	 1,82090176367339E-02 
577	 1,77331131753448E-02 
578	 0,017657016255319 
579	 1,79488111061523E-02 
580	 1,83906177432473E-02 
581	 1,82400229428822E-02 
582	 1,81720452089723E-02 
583	 0,01855967511539 
584	 1,90709867009534E-02 
585	 1,95466510615492E-02 
586	 1,97857823893459E-02 
587	 1,99731007590302E-02 
588	 2,01679513302003E-02 
589	 2,03556416819882E-02 
590	 0,020417602232626 
591	 2,02592234020853E-02 
592	 2,01528847615798E-02 
593	 2,01638767728811E-02 
594	 2,02955261118044E-02 
595	 2,04329303180042E-02 
596	 2,05107234282854E-02 
597	 2,05228909072368E-02 
598	 2,05594410670778E-02 
599	 2,07519304167341E-02 
600	 2,09955508042853E-02 
601	 2,11683989959411E-02 
602	 2,09465182633383E-02 
603	 2,07604508555987E-02 
604	 2,08880856829614E-02 
605	 2,03689699403559E-02 
606	 1,94643776236773E-02 
607	 1,91205450692204E-02 
608	 1,93804758875585E-02 
609	 2,00795878694955E-02 
610	 1,99743191232122E-02 
611	 1,94814307511253E-02 
612	 1,92827108766862E-02 
613	 1,91523356163635E-02 
614	 1,90620667959581E-02 
615	 1,90635524422654E-02 
616	 1,89824994390846E-02 
617	 1,86916270655331E-02 
618	 1,80917755773795E-02 
619	 0,017617965158924 
620	 1,81472386098606E-02 
621	 1,86943744729133E-02 
622	 1,88092112344645E-02 
623	 1,80834906584345E-02 
624	 1,75933501422771E-02 
625	 1,84554070651026E-02 
626	 1,86998570294435E-02 
627	 0,01814710563583 
628	 1,75313537068497E-02 
629	 1,77939873033913E-02 
630	 0,019165237256532 
631	 1,91245334350425E-02 
632	 1,85884934223082E-02 
633	 1,95845295463085E-02 
634	 1,96546751240024E-02 
635	 1,87247057693497E-02 
636	 1,95380072760951E-02 
637	 2,04188824775328E-02 
638	 1,99888403796221E-02 
639	 2,03343630339822E-02 
640	 2,12773001527066E-02 
641	 0,021384280507433 
642	 2,13441957877515E-02 
643	 2,13740417932418E-02 
644	 2,11331175165348E-02 
645	 2,08457776976866E-02 
646	 2,08485130297207E-02 
647	 2,10789316026993E-02 
648	 2,14247256834629E-02 
649	 2,16414938310742E-02 
650	 2,14484745615125E-02 
651	 2,07544860813088E-02 
652	 2,04086080267197E-02 
653	 2,04776117913339E-02 
654	 0,020900443764925 
655	 2,07884838946325E-02 
656	 2,00084369041721E-02 
657	 2,00329157496203E-02 
658	 1,99530024614259E-02 
659	 1,88613242314139E-02 
660	 1,83694895126877E-02 
661	 1,84081491811631E-02 
662	 1,78730944229899E-02 
663	 1,71961985968985E-02 
664	 1,66226014460869E-02 
665	 1,62830486323724E-02 
666	 1,60658843005762E-02 
667	 1,57442146721339E-02 
668	 1,58112714711158E-02 
669	 0,016175288612702 
670	 0,01597105818378 
671	 1,54719805913057E-02 
672	 1,49869483850142E-02 
673	 1,51577684698697E-02 
674	 1,56876998511269E-02 
675	 1,55959304945099E-02 
676	 1,52955887861089E-02 
677	 1,50330373079212E-02 
678	 1,53696631246785E-02 
679	 1,58041058026275E-02 
680	 0,015685644193846 
681	 1,57815528991999E-02 
682	 1,61222046296657E-02 
683	 1,61695956860176E-02 
684	 1,62865878241817E-02 
685	 1,67471380933757E-02 
686	 0,017724464634384 
687	 1,88838342770949E-02 
688	 1,92367815591905E-02 
689	 1,91816798937198E-02 
690	 1,91918440148319E-02 
691	 2,04385496988743E-02 
692	 2,16069809396908E-02 
693	 2,16470666989024E-02 
694	 2,34535118389132E-02 
695	 2,63586070104664E-02 
696	 2,74607837301587E-02 
697	 0,028850902342617 
698	 3,13604500889998E-02 
699	 3,42337590908032E-02 
700	 3,72565984527037E-02 
701	 4,01270326066812E-02 
702	 0,042432155231352 
703	 0,044356061226831 
704	 4,69126772844134E-02 
705	 4,97034271928008E-02 
706	 5,24401864156915E-02 
707	 5,51530578345602E-02 
708	 5,75583022191751E-02 
709	 5,91693657337404E-02 
710	 6,06191379575155E-02 
711	 6,22600073636908E-02 
712	 6,46315160310758E-02 
713	 6,68820835924529E-02 
714	 6,82161999780544E-02 
715	 6,92133627113457E-02 
716	 7,00455321357384E-02 
717	 7,04684360084167E-02 
718	 7,14377605293543E-02 
719	 7,33357184219409E-02 
720	 7,50859560910101E-02 
721	 7,63133119749414E-02 
722	 7,72748511675872E-02 
723	 7,74250052569809E-02 
724	 7,71088214649016E-02 
725	 7,82318532828859E-02 
726	 0,079374892990957 
727	 0,079700365248083 
728	 7,99595169399604E-02 
729	 0,080476345645755 
730	 8,16002593597851E-02 
731	 8,26703519452106E-02 
732	 8,34327052497896E-02 
733	 8,39803648276422E-02 
734	 8,45373435479627E-02 
735	 8,52907009148657E-02 
736	 8,62408063080942E-02 
737	 8,70979599491005E-02 
738	 8,72000033187807E-02 
739	 8,74493791243363E-02 
740	 8,81406999530624E-02 
741	 0,088881316731441 
742	 8,94846161123747E-02 
743	 8,97854689320288E-02 
744	 0,089782009277936 
745	 8,96332701811489E-02 
746	 8,97108661688759E-02 
747	 9,01085111553426E-02 
748	 9,08135039228574E-02 
749	 9,13011298318608E-02 
750	 9,15722082928453E-02 
751	 9,17487292461649E-02 
752	 9,18029789289834E-02 
753	 9,17675204388395E-02 
754	 9,16917867134429E-02 
755	 9,18379272011166E-02 
756	 9,22995671809348E-02 
757	 9,20655579165212E-02 
758	 9,11862071789615E-02 
759	 8,97848202552247E-02 
760	 8,85398052817956E-02 
761	 8,95599619619322E-02 
762	 9,02055331488796E-02 
763	 9,07222778234778E-02 
764	 9,16411581567722E-02 
765	 9,26043121288087E-02 
766	 9,32918566169554E-02 
767	 9,34383797298136E-02 
768	 9,38976977220235E-02 
769	 9,47050765207854E-02 
770	 9,47265422947403E-02 
771	 9,44068632696695E-02 
772	 9,43324936211967E-02 
773	 9,47636766712142E-02 
774	 9,54821347396958E-02 
775	 9,56078832028683E-02 
776	 9,56329617061932E-02 
777	 0,095792181176268 
778	 9,58654460366034E-02 
779	 0,095873737444704 
780	 9,58762002755455E-02 
781	 9,58966269773765E-02 
782	 0,096021548096145 
783	 9,65538735257047E-02 
784	 9,69462145892637E-02 
785	 9,67994371678142E-02 
786	 9,61462206276026E-02 
787	 0,095396551766183 
788	 9,52768668418107E-02 
789	 0,095506932991221 
790	 9,59697205895892E-02 
791	 9,65929160246092E-02 
792	 9,69346210757947E-02 
793	 9,67136337123067E-02 
794	 9,67521671323952E-02 
795	 9,70251396706436E-02 
796	 9,71359188787695E-02 
797	 9,74202781673114E-02 
798	 0,097777411008183 
799	 9,72567449955733E-02 
800	 9,66360453374761E-02 
801	 9,67319305660857E-02 
802	 9,73450640384341E-02 
803	 9,81688491273175E-02 
804	 0,098619933047295 
805	 9,86828512997782E-02 
806	 9,84493913185548E-02 
807	 9,85599496605004E-02 
808	 0,098568828202581 
809	 9,79493687117841E-02 
810	 9,74203750957195E-02 
811	 9,70127668235882E-02 
812	 9,61890540994339E-02 
813	 9,56236496353774E-02 
814	 9,57000950799798E-02 
815	 0,095999502581395 
816	 9,61836079116996E-02 
817	 9,59128433824298E-02 
818	 9,71459845619711E-02 
819	 9,90082807986825E-02 
820	 9,83499156080661E-02 
821	 9,75614881061967E-02 
822	 9,77064883318338E-02 
823	 0,098376788544427 
824	 9,88088658362031E-02 
825	 9,82086109148356E-02 
826	 9,82769177323163E-02 
827	 9,88924294860416E-02 
828	 9,83968693931512E-02 
829	 9,79826226307465E-02 
830	 9,83164087131878E-02 
831	 0,099282944430016 
832	 9,99759697221983E-02 
833	 0,099299574653985 
834	 0,099654476799372 
835	 0,100980829747565 
836	 0,101460826549076 
837	 0,101371127844158 
838	 0,101000884603863 
839	 0,101472890594423 
840	 0,102141206692083 
841	 0,101967620111326 
842	 0,102075204007166 
843	 0,10256996597058 
844	 0,102866224893796 
845	 0,103198690774185 
846	 0,10356631858805 
847	 0,103106062290432 
848	 0,10244489618364 
849	 0,102616610229541 
850	 0,102106035365659 
851	 0,101298844504492 
852	 0,102874704595398 
853	 0,104469889607706 
854	 0,104765274535667 
855	 0,10502139696228 
856	 0,10493096572605 
857	 0,10395540865008 
858	 0,103389245256126 
859	 0,103604599918062 
860	 0,10490093563946 
861	 0,105064758283524 
862	 0,103369121545912 
863	 0,103602655946293 
864	 0,104678192082833 
865	 0,104578722238768 
866	 0,104712859336314 
867	 0,10495907657643 
868	 0,103784814620848 
869	 0,103719995240586 
870	 0,105405850667872 
871	 0,104956893870343 
872	 0,103800489515912 
873	 0,104045821997425 
874	 0,104953226656631 
875	 0,105901502617762 
876	 0,105527913352961 
877	 0,105214882363519 
878	 0,105493376873613 
879	 0,105665938733199 
880	 0,105669524448112 
881	 0,105517084597821 
882	 0,105720229297271 
883	 0,106207963551617 
884	 0,106604965870259 
885	 0,106413993480596 
886	 0,105497435082405 
887	 0,104092386635286 
888	 0,103767234580524 
889	 0,105857912057792 
890	 0,108301836480661 
891	 0,109117341356585 
892	 0,10441920967475 
893	 0,100864464768282 
894	 0,100817370530884 
895	 0,100684968576391 
896	 0,101024810470384 
897	 0,102299401947656 
898	 0,102809621797663 
899	 0,102665384984343 
900	 0,102850808816685 
901	 0,102994992862065 
902	 0,102783033867294 
903	 0,101046130264745 
904	 0,100932756379314 
905	 0,103801078223135 
906	 0,104471968109981 
907	 0,103868497308967 
908	 0,104338513199399 
909	 0,104689567392149 
910	 0,104153529350796 
911	 0,10072854767242 
912	 9,98378997512248E-02 
913	 0,103256537721663 
914	 0,102895032477022 
915	 0,101969082555905 
916	 0,104446265882703 
917	 0,104265076467497 
918	 0,102308937528756 
919	 0,103347143421791 
920	 0,103722361139668 
921	 0,102777527624508 
922	 0,103423895770231 
923	 0,102340637450199 
924	 9,72334091015495E-02 
925	 9,74913547747948E-02 
926	 0,100752305307179 
927	 9,75642240277426E-02 
928	 9,36990103847461E-02 
929	 0,092162368110918 
930	 9,74891706222006E-02 
931	 0,100605224713232 
932	 9,20504642389362E-02 
933	 0,081409505190488 
934	 7,89136052898738E-02 
935	 9,63440802274953E-02 
936	 8,80320296663758E-02 
937	 6,33898395444336E-02 
938	 9,14354823471499E-02 
939	 0,108400033461117 
940	 0,098795573848382 
941	 9,40532135138439E-02 
942	 9,30293141913874E-02 
943	 9,36679296912208E-02 
944	 9,86826597702837E-02 
945	 0,103970786585817 
946	 0,101961864933353 
947	 9,46585374561844E-02 
948	 8,53648064574607E-02 
949	 8,30623829558782E-02 
950	 8,18569568188558E-02 
951	 7,96361554391154E-02 
952	 8,41820885328546E-02 
953	 9,09210568216799E-02 
954	 9,46402893940219E-02 
955	 9,57761243779801E-02 
956	 9,81789076457885E-02 
957	 0,112618601735034 
958	 0,11408157477259 
959	 9,96140794293049E-02 
960	 8,59033121895183E-02 
961	 8,45784173961283E-02 
962	 9,89889883443879E-02 
963	 0,102069069273244 
964	 9,59123225722736E-02 
965	 8,67134121923982E-02 
966	 8,96981408787553E-02 
967	 9,89990187456149E-02 
968	 8,96308442184253E-02 
969	 8,58070159129678E-02 
970	 9,37174265535234E-02 
971	 9,40839431243974E-02 
972	 9,38178649129747E-02 
973	 9,86942611149977E-02 
974	 9,76549864599955E-02 
975	 9,46934233538448E-02 
976	 9,94200933940682E-02 
977	 0,10155597206242 
978	 0,100298412808729 
979	 0,103133506383409 
980	 0,101284905739657 
981	 9,33398055838609E-02 
982	 9,49013699234727E-02 
983	 0,101351817067632 
984	 0,107002125589363 
985	 0,106387457929185 
986	 0,101522076423627 
987	 9,78764253883632E-02 
988	 9,75452727292112E-02 
989	 0,100774688093302 
990	 0,106910906724863 
991	 0,106289191930576 
992	 9,65687793949706E-02 
993	 9,64032632068866E-02 
994	 0,09989987518145 
995	 9,98787397481196E-02 
996	 0,105224195887885 
997	 0,112252521998212 
998	 0,111348861606975 
999	 0,110403143809122 
1000	 0,110220353012917 
1001	 0,105556124630291 
1002	 9,92786429492713E-02 
1003	 9,44550735082971E-02 
1004	 9,85983668802985E-02 
1005	 0,104194897230092 
1006	 0,103339359828485 
1007	 9,74478258172966E-02 
1008	 9,32155906975355E-02 
1009	 0,102027269077686 
1010	 0,11219063059205 
1011	 0,116051226569996 
1012	 0,100189712663573 
1013	 9,38479647356979E-02 
1014	 0,106209027903222 
1015	 0,106753427759714 
1016	 0,102329812384654 
1017	 0,100753805442508 
1018	 0,105641751750296 
1019	 0,111818543355738 
1020	 0,111037818410819 
1021	 0,112554937075324 
1022	 0,115139694550618 
1023	 0,109577470438977 
1024	 0,102595547985107 
1025	 9,82475685823557E-02 
1026	 9,96253306110244E-02 
1027	 0,109189678353278 
1028	 0,124173432978547 
1029	 0,120692749461594 
1030	 0,110388646669259 
1031	 0,110981815734863 
1032	 0,121294780380884 
1033	 0,129129168698035 
1034	 0,110888410351273 
1035	 0,104756055307996 
1036	 0,115465930347842 
1037	 0,116895656335505 
1038	 0,114621450188538 
1039	 0,112613380027097 
1040	 0,119702081692574 
1041	 0,126254350450373 
1042	 0,124664467965595 
1043	 0,127495388090972 
1044	 0,129601083016296 
1045	 0,122379682445365 
1046	 0,119244159485814 
1047	 0,122126233851741 
1048	 0,129527675615937 
1049	 0,123677962762471 
1050	 0,106384944640121 
1051	 0,110840622621642 
1052	 0,124987381982914 
1053	 0,140138373617484 
1054	 0,138975214735393 
1055	 0,137030717605432 
1056	 0,144154171315572 
1057	 0,118427944754757 
1058	 8,65354736930168E-02 
1059	 9,56730553322727E-02 
1060	 0,11766247956413 
1061	 0,138057327859495 
1062	 0,139533123182916 
1063	 0,139260848699581 
1064	 0,135017088764242 
1065	 9,47531364715248E-02 
1066	 7,97175340221038E-02 
1067	 0,110983638807227 
1068	 0,114926910574156 
1069	 0,120569775965098 
1070	 0,145833542679483 
1071	 0,149246509863377 
1072	 0,132417022065641 
1073	 0,104601446869125 
1074	 0,108823493499635 
1075	 0,132976550494024 
