Wavelength	BEL100035.asd
325	 2,18641974229173E-02 
326	 2,29204984555786E-02 
327	 2,30463688348112E-02 
328	 2,28658176071018E-02 
329	 2,45751822456322E-02 
330	 2,50632197923382E-02 
331	 2,24198717653368E-02 
332	 2,35349522984539E-02 
333	 2,61445997972205E-02 
334	 2,31690811877003E-02 
335	 2,13242970676807E-02 
336	 2,19601523673129E-02 
337	 2,10760611214461E-02 
338	 2,06173044162912E-02 
339	 2,22746123709736E-02 
340	 0,02246550713936 
341	 2,21810482935636E-02 
342	 2,57071845883943E-02 
343	 2,61981745337384E-02 
344	 2,27548602555701E-02 
345	 2,29123423767673E-02 
346	 2,41926913671563E-02 
347	 2,37198063137104E-02 
348	 2,27486066891113E-02 
349	 2,19879297648614E-02 
350	 2,26785290160218E-02 
351	 2,30175967567903E-02 
352	 2,25514851735728E-02 
353	 2,32079813654173E-02 
354	 2,42185609261618E-02 
355	 2,45002106944907E-02 
356	 2,43276043287115E-02 
357	 2,38033864169103E-02 
358	 2,28287431853772E-02 
359	 2,29465284706353E-02 
360	 2,46413873538243E-02 
361	 0,025342093422418 
362	 2,52677721507396E-02 
363	 2,51741437451026E-02 
364	 0,024914136000184 
365	 2,46083073861199E-02 
366	 2,47542617555316E-02 
367	 2,43782295290151E-02 
368	 2,30292579171444E-02 
369	 2,24183696536231E-02 
370	 0,022714204965324 
371	 0,023774515929335 
372	 2,46852731993296E-02 
373	 0,025022406613482 
374	 2,47583596493514E-02 
375	 2,42321061719999E-02 
376	 2,38004964755022E-02 
377	 2,39186610080536E-02 
378	 2,45347720239239E-02 
379	 2,53555900637062E-02 
380	 2,59615320212129E-02 
381	 2,61300212220174E-02 
382	 2,58346509351651E-02 
383	 2,51969436000192E-02 
384	 2,44482206786724E-02 
385	 2,50802567132773E-02 
386	 2,62689915536398E-02 
387	 0,025101979862038 
388	 2,39473993842646E-02 
389	 2,37345340295162E-02 
390	 2,38153271216901E-02 
391	 2,42582484337944E-02 
392	 2,51924299711754E-02 
393	 2,52151249505837E-02 
394	 0,02453199327808 
395	 2,47137852407795E-02 
396	 2,52402337197791E-02 
397	 2,56521641650554E-02 
398	 2,47697719727933E-02 
399	 2,39644233446159E-02 
400	 2,51422924438401E-02 
401	 2,53926212745688E-02 
402	 2,45950110330991E-02 
403	 2,46955361009215E-02 
404	 2,49917405423467E-02 
405	 2,50183689803201E-02 
406	 2,54444562690061E-02 
407	 2,59208847732193E-02 
408	 0,025585600391056 
409	 2,50026567738071E-02 
410	 2,45266781256183E-02 
411	 2,48049719673138E-02 
412	 2,52034291822252E-02 
413	 2,51126919958635E-02 
414	 2,51282088648404E-02 
415	 2,53126934510984E-02 
416	 2,55825830911741E-02 
417	 2,56413017430935E-02 
418	 2,54050563614484E-02 
419	 2,52835296558703E-02 
420	 2,52705872105402E-02 
421	 2,52988047693479E-02 
422	 2,52048524792133E-02 
423	 2,51038769376774E-02 
424	 2,55724454936664E-02 
425	 2,59357555390506E-02 
426	 0,025805007792402 
427	 2,61183934914874E-02 
428	 2,64991453260848E-02 
429	 2,59343721577385E-02 
430	 2,55900122745272E-02 
431	 2,57548620558659E-02 
432	 2,58987112619413E-02 
433	 2,58917390374363E-02 
434	 2,56814231479465E-02 
435	 2,58757264736945E-02 
436	 2,62958544605343E-02 
437	 2,61902356485767E-02 
438	 2,62484207394087E-02 
439	 2,66455667991359E-02 
440	 2,67014274234304E-02 
441	 2,65053865773881E-02 
442	 0,026251959690555 
443	 2,64469061032084E-02 
444	 2,69517589221407E-02 
445	 0,026859868355775 
446	 2,67300645666961E-02 
447	 2,68931922417991E-02 
448	 2,69700219662129E-02 
449	 2,70142459501207E-02 
450	 2,72244793503596E-02 
451	 2,73963346634376E-02 
452	 2,74827112294399E-02 
453	 2,75863609429043E-02 
454	 2,77344163548918E-02 
455	 2,79261806219443E-02 
456	 2,77194938436113E-02 
457	 0,027400847115795 
458	 2,80517087465764E-02 
459	 2,83791590321413E-02 
460	 2,79176446681748E-02 
461	 2,76841557635811E-02 
462	 2,77460033781927E-02 
463	 2,80461648917156E-02 
464	 2,82548419145989E-02 
465	 2,82594040144102E-02 
466	 2,80451364427126E-02 
467	 2,79475372631988E-02 
468	 2,81803297220752E-02 
469	 2,83412246615275E-02 
470	 2,83593227255757E-02 
471	 2,81812710710067E-02 
472	 2,84085872583209E-02 
473	 2,90307646741975E-02 
474	 2,89294218788928E-02 
475	 2,85967987929561E-02 
476	 2,86107932617115E-02 
477	 2,91286876246513E-02 
478	 2,97585854810873E-02 
479	 2,92829007435627E-02 
480	 2,89184799663159E-02 
481	 2,91479970314583E-02 
482	 2,87436929696267E-02 
483	 2,83946551285418E-02 
484	 2,94299819643234E-02 
485	 2,98198448488076E-02 
486	 2,92109982133152E-02 
487	 2,88482713438402E-02 
488	 2,87676862711506E-02 
489	 2,89348271457367E-02 
490	 2,88472067331936E-02 
491	 2,86561071614919E-02 
492	 0,028973163115684 
493	 2,90339518464337E-02 
494	 2,86777832598471E-02 
495	 2,86298919950367E-02 
496	 2,87527657214057E-02 
497	 2,88189301113776E-02 
498	 2,88744286845725E-02 
499	 2,89501850488266E-02 
500	 2,91467043567201E-02 
501	 2,92943309867294E-02 
502	 2,93296591378145E-02 
503	 2,96756635114244E-02 
504	 3,00963804820197E-02 
505	 3,00701291415682E-02 
506	 3,00922865216721E-02 
507	 3,03123540801392E-02 
508	 3,06866092857339E-02 
509	 3,09738984164592E-02 
510	 3,09733129014548E-02 
511	 3,10970517614249E-02 
512	 3,14034611220401E-02 
513	 3,18333661306595E-02 
514	 3,21923851570887E-02 
515	 3,23890455680469E-02 
516	 3,26138817178415E-02 
517	 3,27537117203695E-02 
518	 3,25962683516102E-02 
519	 3,30142429415578E-02 
520	 3,38640325695269E-02 
521	 0,033828265971073 
522	 3,36388537856734E-02 
523	 3,38236383374713E-02 
524	 0,033962643535832 
525	 3,40566099484447E-02 
526	 3,43007427820705E-02 
527	 3,42460723961782E-02 
528	 3,38817295456338E-02 
529	 3,40727128485405E-02 
530	 3,43666070677469E-02 
531	 3,41787201266207E-02 
532	 3,42450548381661E-02 
533	 3,45565844639679E-02 
534	 3,45051848653749E-02 
535	 3,45120340790116E-02 
536	 0,034771432266245 
537	 3,46037604709668E-02 
538	 3,43320356661121E-02 
539	 0,034773014711023 
540	 3,50996707408442E-02 
541	 3,50842608681692E-02 
542	 3,50552847077714E-02 
543	 0,035086347564956 
544	 3,52314268876502E-02 
545	 3,54308224443572E-02 
546	 0,035615871017432 
547	 3,56087276808166E-02 
548	 3,57603661458784E-02 
549	 3,61698902921837E-02 
550	 3,61835004941257E-02 
551	 3,60426268780055E-02 
552	 3,62501184624714E-02 
553	 3,64328743136596E-02 
554	 0,036482342446732 
555	 3,63999928525132E-02 
556	 3,63569176504394E-02 
557	 3,64741255596095E-02 
558	 3,62704310402008E-02 
559	 3,58474305119897E-02 
560	 3,56684787662175E-02 
561	 3,57074187825259E-02 
562	 3,58817494491857E-02 
563	 3,56530688914921E-02 
564	 0,035367023459726 
565	 3,55603074919966E-02 
566	 3,57472383306262E-02 
567	 3,58344125690265E-02 
568	 3,59921136135804E-02 
569	 3,61224106779712E-02 
570	 3,61778824516328E-02 
571	 3,64404145938514E-02 
572	 3,68513328522926E-02 
573	 3,71039250739461E-02 
574	 3,79644247033279E-02 
575	 3,94054042336567E-02 
576	 3,97075633189283E-02 
577	 3,97811812951709E-02 
578	 4,07904124470548E-02 
579	 0,041352768022424 
580	 4,14373430311429E-02 
581	 4,19177350253182E-02 
582	 4,25673470590239E-02 
583	 4,32273331948222E-02 
584	 4,35991220700879E-02 
585	 4,38612027401489E-02 
586	 4,44037906813079E-02 
587	 4,52884944658138E-02 
588	 4,63373290104183E-02 
589	 4,63888860983098E-02 
590	 4,64320194218052E-02 
591	 4,74630821467653E-02 
592	 4,76864943436672E-02 
593	 4,72156598449538E-02 
594	 4,72899294581424E-02 
595	 4,74074737774597E-02 
596	 4,73551047711718E-02 
597	 4,71666413664705E-02 
598	 4,69420451433675E-02 
599	 4,68122919835786E-02 
600	 0,046939953021886 
601	 4,71106090421407E-02 
602	 4,63028497194558E-02 
603	 4,56197224854861E-02 
604	 4,58590645740514E-02 
605	 4,56377628265428E-02 
606	 4,50557053385028E-02 
607	 0,044993829683375 
608	 0,044763388646424 
609	 4,42151662431716E-02 
610	 4,41003789724481E-02 
611	 4,40187293494537E-02 
612	 4,33877976527773E-02 
613	 4,29649917077039E-02 
614	 4,28202755682176E-02 
615	 0,0424866418466 
616	 0,042157513024025 
617	 4,19562529840039E-02 
618	 4,17478418449309E-02 
619	 4,16164861741783E-02 
620	 4,17928047765257E-02 
621	 4,17790643025512E-02 
622	 4,15070014940418E-02 
623	 0,041552042409419 
624	 4,18173485434504E-02 
625	 4,21467062866329E-02 
626	 4,22219711324206E-02 
627	 4,21544572295961E-02 
628	 4,25841254889451E-02 
629	 4,28634592504331E-02 
630	 4,27047915187667E-02 
631	 4,26615694254365E-02 
632	 4,29305797703344E-02 
633	 4,37249203409255E-02 
634	 0,044257734914818 
635	 0,044398153992827 
636	 4,46893145157418E-02 
637	 4,50758101043173E-02 
638	 4,55137495321241E-02 
639	 4,61940800457184E-02 
640	 4,69767792407427E-02 
641	 4,74499900700453E-02 
642	 4,77065257231361E-02 
643	 4,78711232687116E-02 
644	 4,84675296094065E-02 
645	 4,92448706609993E-02 
646	 4,97784695753109E-02 
647	 5,01188258625099E-02 
648	 0,050173894399433 
649	 4,97140130171661E-02 
650	 4,91353157746391E-02 
651	 4,87096252664708E-02 
652	 4,83008912790528E-02 
653	 4,78395596661705E-02 
654	 4,72213704007647E-02 
655	 4,63353499702228E-02 
656	 0,045273359708446 
657	 4,46767847815309E-02 
658	 4,39636460367407E-02 
659	 4,25180053221905E-02 
660	 4,11076155892366E-02 
661	 3,99904555251555E-02 
662	 3,94795228739391E-02 
663	 0,03894069885153 
664	 3,80214120010188E-02 
665	 3,67267696719887E-02 
666	 3,56061126167547E-02 
667	 3,55160639166823E-02 
668	 3,53006349424542E-02 
669	 3,47363425011448E-02 
670	 3,44071086305102E-02 
671	 3,41849834715967E-02 
672	 3,39657509292052E-02 
673	 3,38712953370261E-02 
674	 3,38966359103818E-02 
675	 3,39629386859271E-02 
676	 3,42170992009896E-02 
677	 3,46433473296883E-02 
678	 0,034894780166407 
679	 3,49605009094907E-02 
680	 3,48738993037393E-02 
681	 3,52620994325131E-02 
682	 0,036061053723362 
683	 3,64890861834117E-02 
684	 3,69968990545027E-02 
685	 3,79911696014584E-02 
686	 4,01099364693963E-02 
687	 4,28389856909805E-02 
688	 4,39714848057173E-02 
689	 4,47505454288448E-02 
690	 4,59332730719809E-02 
691	 4,84333999306391E-02 
692	 5,15190820645508E-02 
693	 5,46152134874132E-02 
694	 5,85372429401024E-02 
695	 6,28205147586071E-02 
696	 6,65581450671425E-02 
697	 7,08406088176223E-02 
698	 7,64634053231489E-02 
699	 8,28999381676428E-02 
700	 8,97416450759795E-02 
701	 9,61204671009138E-02 
702	 0,102141412289923 
703	 0,107900435547667 
704	 0,114131624788616 
705	 0,120280128489195 
706	 0,125951275500928 
707	 0,131516744345226 
708	 0,136881939464962 
709	 0,141859589954143 
710	 0,146957656030715 
711	 0,152061472783989 
712	 0,155984630934475 
713	 0,15986336873666 
714	 0,164869769853186 
715	 0,170650482110319 
716	 0,177781228232397 
717	 0,186558886505615 
718	 0,195327977778319 
719	 0,199993752276215 
720	 0,198524447902472 
721	 0,196141427007926 
722	 0,19704387959976 
723	 0,200238299299568 
724	 0,205236528591642 
725	 0,208322307953494 
726	 0,20978480595967 
727	 0,210367411224094 
728	 0,211524656043655 
729	 0,213056865837722 
730	 0,214382129609255 
731	 0,212946641997149 
732	 0,209510779674906 
733	 0,20773738410634 
734	 0,207315529902617 
735	 0,207965031329943 
736	 0,208772181919466 
737	 0,209179897777773 
738	 0,208481467539527 
739	 0,207785267353703 
740	 0,207441805772784 
741	 0,206794826183823 
742	 0,206382464010734 
743	 0,206809224115266 
744	 0,207001767661391 
745	 0,206955289963718 
746	 0,207426202146084 
747	 0,207960569610589 
748	 0,208308872300616 
749	 0,208517194452622 
750	 0,208696050495116 
751	 0,208999996032038 
752	 0,20953489050485 
753	 0,210159176013134 
754	 0,210249744984821 
755	 0,210278507728279 
756	 0,210592895791245 
757	 0,210784974138093 
758	 0,211480576282018 
759	 0,21549119779368 
760	 0,226292199285231 
761	 0,24187750191623 
762	 0,247857930045133 
763	 0,244568790515014 
764	 0,240039365734084 
765	 0,232615830670632 
766	 0,225921996434096 
767	 0,221391575405529 
768	 0,218617598164899 
769	 0,217268922009954 
770	 0,216638088153371 
771	 0,216487000186694 
772	 0,216651633382317 
773	 0,216882152037768 
774	 0,217129919994379 
775	 0,21756538296534 
776	 0,217818851620698 
777	 0,217794661509769 
778	 0,218278955122099 
779	 0,218966448631335 
780	 0,21927634764327 
781	 0,219662784253768 
782	 0,220126404159693 
783	 0,220187704752055 
784	 0,220454715034387 
785	 0,221347842390939 
786	 0,222611949586212 
787	 0,224014148779919 
788	 0,225191036356148 
789	 0,226053220071827 
790	 0,226525852546409 
791	 0,226660724166027 
792	 0,226571946883695 
793	 0,226407555693531 
794	 0,226516202662779 
795	 0,226910410423908 
796	 0,227435817706196 
797	 0,228184325888783 
798	 0,229098513419968 
799	 0,229996252562572 
800	 0,230621297268803 
801	 0,230754597141062 
802	 0,231172220250289 
803	 0,231673864099011 
804	 0,231455146325603 
805	 0,230515219508065 
806	 0,229300308142521 
807	 0,229875188576618 
808	 0,231538511789562 
809	 0,233347571368438 
810	 0,23488532725093 
811	 0,236356192472595 
812	 0,238979415845907 
813	 0,241970827907276 
814	 0,244893130777913 
815	 0,248238275672075 
816	 0,250937768949852 
817	 0,251558901245747 
818	 0,2502362328716 
819	 0,248147061983595 
820	 0,247160525143836 
821	 0,247435474868881 
822	 0,24871097020021 
823	 0,24804438854717 
824	 0,246670740221591 
825	 0,246463373035403 
826	 0,246418607745794 
827	 0,246264993369256 
828	 0,245729584099272 
829	 0,245586356263976 
830	 0,246097392748399 
831	 0,246073390484518 
832	 0,24558604539531 
833	 0,244913923642393 
834	 0,244016261201223 
835	 0,243085190675738 
836	 0,242633725824293 
837	 0,242032293029333 
838	 0,241073912384771 
839	 0,24057945259082 
840	 0,240496877228277 
841	 0,240640621346895 
842	 0,23994037775303 
843	 0,238616506737661 
844	 0,238238221059983 
845	 0,238240325062895 
846	 0,238281063135308 
847	 0,23818907587307 
848	 0,238009350940389 
849	 0,237854887088698 
850	 0,237645999019378 
851	 0,237512611586019 
852	 0,237900235092061 
853	 0,238528240930632 
854	 0,239080876063377 
855	 0,238731271154495 
856	 0,238255722215778 
857	 0,238775517178308 
858	 0,239432175010429 
859	 0,239702701114413 
860	 0,238541217073526 
861	 0,237796958107584 
862	 0,238306420660246 
863	 0,238422885028071 
864	 0,238459952749515 
865	 0,239055725659505 
866	 0,239384344776703 
867	 0,239361282771252 
868	 0,23936222987009 
869	 0,239500789711191 
870	 0,23983490593714 
871	 0,240272359119764 
872	 0,240639235486817 
873	 0,240751686085478 
874	 0,240822285281824 
875	 0,241002632957709 
876	 0,24156225060011 
877	 0,242173219517222 
878	 0,242649654463895 
879	 0,242848505980911 
880	 0,24321194203672 
881	 0,244183004277517 
882	 0,24474135313892 
883	 0,244694466491539 
884	 0,243958939350407 
885	 0,244180409159821 
886	 0,245663777517933 
887	 0,246223725543251 
888	 0,24660756475544 
889	 0,247683468570245 
890	 0,249370951520081 
891	 0,251375122076279 
892	 0,253087784405053 
893	 0,253917251266193 
894	 0,254215316111938 
895	 0,257443097743665 
896	 0,261420058998855 
897	 0,263635819799254 
898	 0,265818327871683 
899	 0,268150616703618 
900	 0,270587200255811 
901	 0,270905662457768 
902	 0,269513645094395 
903	 0,270166864388454 
904	 0,270537400407642 
905	 0,269506290074663 
906	 0,26995015687236 
907	 0,271301137633941 
908	 0,272192483183975 
909	 0,273601653200673 
910	 0,275654261470163 
911	 0,27793385310114 
912	 0,27970446912571 
913	 0,28072306857737 
914	 0,282836615614837 
915	 0,283417455297945 
916	 0,279908063618807 
917	 0,277799762695305 
918	 0,277052896725441 
919	 0,27439121360341 
920	 0,274631778258897 
921	 0,277813870776951 
922	 0,277071849671261 
923	 0,275212368937156 
924	 0,274863183921741 
925	 0,275051390716305 
926	 0,276083762289591 
927	 0,278922511540001 
928	 0,281316233856998 
929	 0,283673701454785 
930	 0,294238653558464 
931	 0,306988273403254 
932	 0,314218958317153 
933	 0,316172947839287 
934	 0,318155414437237 
935	 0,331694051993222 
936	 0,335503929164428 
937	 0,330727009646302 
938	 0,34288074972041 
939	 0,348884686452507 
940	 0,341268082767079 
941	 0,321325039317614 
942	 0,312130854168475 
943	 0,329313492031979 
944	 0,339240013670587 
945	 0,340611552959841 
946	 0,341174872303081 
947	 0,340984414810186 
948	 0,338640060601821 
949	 0,32627704330482 
950	 0,322137061070946 
951	 0,331974143918064 
952	 0,328170785313023 
953	 0,317138892012072 
954	 0,31030566696745 
955	 0,320886912579263 
956	 0,334824981166509 
957	 0,31647772146708 
958	 0,307503649895949 
959	 0,314547772488764 
960	 0,312094411041861 
961	 0,310292157486592 
962	 0,312967847027675 
963	 0,30020961205369 
964	 0,286155895754031 
965	 0,289826220415044 
966	 0,289224192494229 
967	 0,282641026500579 
968	 0,276445053864073 
969	 0,275886241787737 
970	 0,281371837617226 
971	 0,28501537401434 
972	 0,284280476028612 
973	 0,278442357436412 
974	 0,278451184533293 
975	 0,279828102706359 
976	 0,2719470243711 
977	 0,270320566030278 
978	 0,275765224024197 
979	 0,277749245796427 
980	 0,276830910270709 
981	 0,273603277972562 
982	 0,270469907404276 
983	 0,267437320049451 
984	 0,264528035799311 
985	 0,264298770715823 
986	 0,265289728565374 
987	 0,264244575157281 
988	 0,264138053692888 
989	 0,26458491924542 
990	 0,261287959779758 
991	 0,26026674164474 
992	 0,263462871913374 
993	 0,262653099454826 
994	 0,26257428287731 
995	 0,2679989043908 
996	 0,270171841381981 
997	 0,269507314196484 
998	 0,270066031955806 
999	 0,266739815882901 
1000	 0,260460345695786 
1001	 0,258945693843344 
1002	 0,259513849322873 
1003	 0,260619947634336 
1004	 0,261123117953901 
1005	 0,263559398658634 
1006	 0,26935395749764 
1007	 0,266359220719806 
1008	 0,258789299664974 
1009	 0,257753742934736 
1010	 0,259879476884777 
1011	 0,263266766435554 
1012	 0,264447406653224 
1013	 0,264861952099531 
1014	 0,265250217153386 
1015	 0,266655813947767 
1016	 0,266227640685752 
1017	 0,262577576252394 
1018	 0,265313795296204 
1019	 0,271286322200528 
1020	 0,273586983813563 
1021	 0,270876020533524 
1022	 0,26621085410897 
1023	 0,269362401852988 
1024	 0,270015240983769 
1025	 0,266877742837669 
1026	 0,271183393146327 
1027	 0,272112233162728 
1028	 0,264947151107903 
1029	 0,270396126763735 
1030	 0,277879408415311 
1031	 0,273166789534289 
1032	 0,261372752137754 
1033	 0,252894116078379 
1034	 0,265116222403842 
1035	 0,276210551022825 
1036	 0,277630086789799 
1037	 0,265260741602631 
1038	 0,260378720677159 
1039	 0,269103396492286 
1040	 0,265203502879552 
1041	 0,259576472634508 
1042	 0,262093094375892 
1043	 0,265580810686438 
1044	 0,268511272893897 
1045	 0,269506798922058 
1046	 0,267604283366842 
1047	 0,263403210442521 
1048	 0,257673609878997 
1049	 0,269067924801618 
1050	 0,288073097387477 
1051	 0,25558253127146 
1052	 0,241857047082855 
1053	 0,273933078738717 
1054	 0,28133399748125 
1055	 0,276106810194572 
1056	 0,271899243704272 
1057	 0,268491548004091 
1058	 0,26579972289373 
1059	 0,263118214039486 
1060	 0,265444443560273 
1061	 0,267625684759365 
1062	 0,254844676405888 
1063	 0,264757919359547 
1064	 0,293112359035885 
1065	 0,281796544605935 
1066	 0,272757805473842 
1067	 0,27973908637605 
1068	 0,26568607878287 
1069	 0,262749045879426 
1070	 0,290970076590645 
1071	 0,29630662952597 
1072	 0,288799080740588 
1073	 0,286213886496253 
1074	 0,259746354776985 
1075	 0,238761569506618 
