Wavelength	BEL100131.asd
325	 0,019286897912264 
326	 2,27830609901288E-02 
327	 2,11979449265759E-02 
328	 1,48350725203816E-02 
329	 1,68885069523737E-02 
330	 1,95198253230242E-02 
331	 1,72005898395091E-02 
332	 2,29154501191094E-02 
333	 3,12761563138549E-02 
334	 2,81589569704772E-02 
335	 1,95434970925281E-02 
336	 1,06426310197979E-02 
337	 1,48939585204079E-02 
338	 2,26668797185905E-02 
339	 2,48875904995413E-02 
340	 2,17720545695049E-02 
341	 0,017718565984335 
342	 2,33156890440597E-02 
343	 2,52901140264494E-02 
344	 2,10806270313886E-02 
345	 2,11581063763237E-02 
346	 2,29838004648129E-02 
347	 2,33816780117607E-02 
348	 2,25357429678384E-02 
349	 2,10673674816431E-02 
350	 2,03410106424025E-02 
351	 2,01601931731585E-02 
352	 2,02431983865207E-02 
353	 1,92013473174165E-02 
354	 1,82883319899539E-02 
355	 1,90623220896885E-02 
356	 1,97296846225871E-02 
357	 2,00773880859397E-02 
358	 2,08638370543028E-02 
359	 2,14307816812499E-02 
360	 0,021186636994048 
361	 1,83885549548401E-02 
362	 1,62477517994771E-02 
363	 1,92537657669226E-02 
364	 2,04468221969117E-02 
365	 1,90028409468186E-02 
366	 1,79366854529288E-02 
367	 1,84613316291859E-02 
368	 2,09818222799078E-02 
369	 2,15377600403112E-02 
370	 0,020496674746993 
371	 1,95280363181736E-02 
372	 2,02557175078647E-02 
373	 2,24058788752567E-02 
374	 2,21835086333636E-02 
375	 2,10781805046442E-02 
376	 0,020495060743382 
377	 2,04029844284876E-02 
378	 2,04943109389861E-02 
379	 1,98382516604022E-02 
380	 2,01818036462601E-02 
381	 2,17469825676471E-02 
382	 2,25361118265797E-02 
383	 2,18442099005695E-02 
384	 1,92893627730732E-02 
385	 1,83534781940317E-02 
386	 1,93689146184183E-02 
387	 2,11284543349671E-02 
388	 2,28189014543145E-02 
389	 2,36253214196535E-02 
390	 2,16850677854457E-02 
391	 1,91930979754348E-02 
392	 0,018886269707196 
393	 1,98451854102866E-02 
394	 2,12065977649332E-02 
395	 2,12784901048479E-02 
396	 2,09277270508087E-02 
397	 2,06540519011739E-02 
398	 2,05230227299422E-02 
399	 2,06524256199771E-02 
400	 2,11867802049676E-02 
401	 2,16090261058329E-02 
402	 0,021554979474712 
403	 1,99395204979562E-02 
404	 1,95745581540343E-02 
405	 0,022045978874113 
406	 0,022156865287352 
407	 2,05451150071621E-02 
408	 2,01880147671573E-02 
409	 2,00108088019179E-02 
410	 1,97817629616251E-02 
411	 1,96019498838306E-02 
412	 1,96852837056036E-02 
413	 2,01935654347665E-02 
414	 2,03309184616133E-02 
415	 2,02453109654417E-02 
416	 2,07865296824932E-02 
417	 2,12909573944701E-02 
418	 2,13650192341929E-02 
419	 2,04694033661281E-02 
420	 1,95978064326521E-02 
421	 2,00937889911339E-02 
422	 2,05390583599081E-02 
423	 2,06463069209578E-02 
424	 2,07900886879221E-02 
425	 2,07749059463637E-02 
426	 0,020517483529768 
427	 2,04811989746761E-02 
428	 2,06280006484995E-02 
429	 2,07451396244104E-02 
430	 2,08180662175812E-02 
431	 0,020807553775149 
432	 2,05976604524037E-02 
433	 2,05357955018073E-02 
434	 2,08754413202118E-02 
435	 2,08685259521492E-02 
436	 2,06011712973427E-02 
437	 2,06175594869661E-02 
438	 2,06990017850062E-02 
439	 2,07798186018579E-02 
440	 2,09438562466246E-02 
441	 2,11449394047788E-02 
442	 2,13190559971127E-02 
443	 2,15379139351807E-02 
444	 2,17457618722812E-02 
445	 2,17562946354888E-02 
446	 2,15399565965967E-02 
447	 2,11666742014594E-02 
448	 2,13485425159338E-02 
449	 2,18293392120742E-02 
450	 2,19882192307432E-02 
451	 2,16308220572395E-02 
452	 2,10592369296171E-02 
453	 2,21246212903859E-02 
454	 2,30677721213926E-02 
455	 2,21823986643776E-02 
456	 2,14638175253475E-02 
457	 2,13710912967298E-02 
458	 0,021933613807595 
459	 2,28031908423447E-02 
460	 2,36015219210534E-02 
461	 2,33313574984265E-02 
462	 2,26109045074376E-02 
463	 2,24246919093458E-02 
464	 2,26193940111668E-02 
465	 2,29904620583003E-02 
466	 2,28549147568976E-02 
467	 2,27054929148122E-02 
468	 2,28454949625241E-02 
469	 2,26230194114923E-02 
470	 2,22613208455857E-02 
471	 2,24195088885257E-02 
472	 2,24568930781323E-02 
473	 2,22744534682826E-02 
474	 2,24050099294526E-02 
475	 2,28681206219278E-02 
476	 0,023600627084778 
477	 2,35286231290106E-02 
478	 2,28107358098347E-02 
479	 2,24771699642398E-02 
480	 2,26172528575643E-02 
481	 2,31857543931403E-02 
482	 2,32828642156056E-02 
483	 2,30917141218559E-02 
484	 2,30798543097852E-02 
485	 0,023176852399344 
486	 0,023313412510111 
487	 2,32909686987024E-02 
488	 2,30046983213895E-02 
489	 2,24785796827957E-02 
490	 2,28486949876009E-02 
491	 2,35147120155806E-02 
492	 2,25501912912687E-02 
493	 0,022155111669886 
494	 2,29363911867762E-02 
495	 2,36276279748266E-02 
496	 2,37631550787562E-02 
497	 2,29435969404258E-02 
498	 2,30363486714831E-02 
499	 0,023956485058888 
500	 0,023881060326679 
501	 0,023354607305164 
502	 2,28039994251865E-02 
503	 2,27735618224214E-02 
504	 2,33522772815303E-02 
505	 2,46402756272702E-02 
506	 0,024948041095042 
507	 2,41175728248635E-02 
508	 2,40064480037203E-02 
509	 2,44061728239828E-02 
510	 2,50095738277132E-02 
511	 2,53207822557564E-02 
512	 2,53411611123228E-02 
513	 2,54128900760243E-02 
514	 2,54677011039888E-02 
515	 2,54980346222422E-02 
516	 2,55167077246265E-02 
517	 2,57297003969638E-02 
518	 0,026435043528509 
519	 2,66225005083118E-02 
520	 2,62811568625559E-02 
521	 2,64264997007917E-02 
522	 2,64622290802083E-02 
523	 2,60293344487894E-02 
524	 0,026180815221462 
525	 0,026835642101818 
526	 2,74858974928611E-02 
527	 2,77398555363126E-02 
528	 2,75090991027384E-02 
529	 2,73458419910974E-02 
530	 2,73344343219161E-02 
531	 2,75101776704087E-02 
532	 2,75936329657303E-02 
533	 2,75528712291957E-02 
534	 2,75035211128134E-02 
535	 2,76110887589819E-02 
536	 2,79319917350727E-02 
537	 0,028010630444168 
538	 2,79197808193457E-02 
539	 0,027918918060524 
540	 2,79970822119275E-02 
541	 2,81539359951527E-02 
542	 2,83773698135945E-02 
543	 2,84807840769541E-02 
544	 2,83010609906015E-02 
545	 2,82032049334287E-02 
546	 2,83203991125227E-02 
547	 0,028810257390278 
548	 2,92153844273444E-02 
549	 0,029268345641907 
550	 2,89395045604462E-02 
551	 2,86598776512328E-02 
552	 2,91006704847509E-02 
553	 2,95500556714861E-02 
554	 2,97608190407801E-02 
555	 2,96676459929104E-02 
556	 2,96419979676595E-02 
557	 2,99620291085476E-02 
558	 2,97977421476814E-02 
559	 2,92614159085883E-02 
560	 0,028963781036389 
561	 2,91809361335546E-02 
562	 2,98403351798099E-02 
563	 2,95689749400295E-02 
564	 0,029064113959465 
565	 2,94428836542861E-02 
566	 2,98623345783921E-02 
567	 3,00580854598402E-02 
568	 0,02992915562095 
569	 2,97082046698319E-02 
570	 2,96099274576639E-02 
571	 2,98758430476374E-02 
572	 3,02889483781138E-02 
573	 3,02216344922348E-02 
574	 3,05961342771133E-02 
575	 3,16043336266289E-02 
576	 3,24483429774087E-02 
577	 3,28181420556021E-02 
578	 0,032462810443546 
579	 3,25037689086351E-02 
580	 3,29571728484762E-02 
581	 3,28936360061759E-02 
582	 3,29677986573204E-02 
583	 3,35095329474899E-02 
584	 3,40224127279617E-02 
585	 3,43876665105296E-02 
586	 3,44946036438063E-02 
587	 0,034819188937211 
588	 3,54182728860104E-02 
589	 3,56179659182996E-02 
590	 3,57324255547584E-02 
591	 3,60806165361463E-02 
592	 3,59012604896438E-02 
593	 0,035379179359297 
594	 3,53179417498258E-02 
595	 3,56120356305232E-02 
596	 0,036118049369485 
597	 0,036113981955305 
598	 3,59401355888805E-02 
599	 3,62281486931797E-02 
600	 3,63584741557495E-02 
601	 3,62173764059305E-02 
602	 3,60803268391987E-02 
603	 3,58844984717311E-02 
604	 0,035586051866615 
605	 3,52963421467513E-02 
606	 0,035031076187217 
607	 3,47769000261608E-02 
608	 3,45134926695495E-02 
609	 3,42431005914666E-02 
610	 3,40145269064476E-02 
611	 3,38416446763886E-02 
612	 3,37333087422623E-02 
613	 3,37393840540043E-02 
614	 3,37333589150583E-02 
615	 3,32453362898857E-02 
616	 3,28568509078133E-02 
617	 3,28699684345551E-02 
618	 3,22052010198435E-02 
619	 3,13875340405223E-02 
620	 3,17506792881969E-02 
621	 3,21379973005707E-02 
622	 3,21471181068241E-02 
623	 0,031825607143835 
624	 3,16938455262411E-02 
625	 3,22746107768597E-02 
626	 0,0325513539989 
627	 3,23706934588091E-02 
628	 3,19166559797794E-02 
629	 3,20515404155102E-02 
630	 3,30106495077997E-02 
631	 3,26715992659892E-02 
632	 3,21155149133356E-02 
633	 3,35413619135517E-02 
634	 3,40030551429137E-02 
635	 3,31726834914995E-02 
636	 3,34551463975843E-02 
637	 3,39787397791083E-02 
638	 0,033991550485112 
639	 3,43814744792699E-02 
640	 3,50014604492767E-02 
641	 3,50359872387688E-02 
642	 3,52755766612747E-02 
643	 3,59099196160931E-02 
644	 3,60274119862063E-02 
645	 3,58858496943374E-02 
646	 3,59501451943813E-02 
647	 3,59621569065898E-02 
648	 3,59612007800663E-02 
649	 3,63571656724017E-02 
650	 3,64637375268895E-02 
651	 3,58853459188535E-02 
652	 3,54486664107592E-02 
653	 3,51669948919787E-02 
654	 3,48231359736058E-02 
655	 3,41385668313906E-02 
656	 3,31578848424964E-02 
657	 3,27026178477478E-02 
658	 3,21976551394996E-02 
659	 3,10348518056508E-02 
660	 3,00485582689716E-02 
661	 2,94296394186441E-02 
662	 2,93110116430425E-02 
663	 2,89060220660882E-02 
664	 2,78852792513724E-02 
665	 2,71438741729549E-02 
666	 2,66197249507076E-02 
667	 2,60198902941261E-02 
668	 2,57316459379905E-02 
669	 0,025743924489097 
670	 2,55903833867936E-02 
671	 2,53845960483702E-02 
672	 2,52610602874527E-02 
673	 2,55554725054207E-02 
674	 2,60835285482909E-02 
675	 0,02628675015903 
676	 2,63548856810987E-02 
677	 2,64048245110076E-02 
678	 2,67471846398646E-02 
679	 2,71518145079019E-02 
680	 2,73136095689087E-02 
681	 2,75465702261422E-02 
682	 2,78588663574663E-02 
683	 2,80077781380477E-02 
684	 2,82283638574667E-02 
685	 2,87348029890985E-02 
686	 2,98008436719733E-02 
687	 3,12416510912751E-02 
688	 3,22480469610495E-02 
689	 3,30780799303263E-02 
690	 3,39935166326641E-02 
691	 3,56011718187241E-02 
692	 3,73570443206078E-02 
693	 3,88620642463933E-02 
694	 0,041864619242542 
695	 4,54986719995231E-02 
696	 4,70452976190476E-02 
697	 4,93514474688092E-02 
698	 5,35077712157373E-02 
699	 5,78075545970477E-02 
700	 6,19662567757234E-02 
701	 6,56922131933603E-02 
702	 6,93544071373613E-02 
703	 7,28477377290773E-02 
704	 7,56623145488101E-02 
705	 7,88740248608649E-02 
706	 0,082984515324839 
707	 8,65089324255091E-02 
708	 8,94215538608503E-02 
709	 9,20807365644854E-02 
710	 9,47677033183436E-02 
711	 9,75324731522049E-02 
712	 0,100075133043003 
713	 0,102417416330524 
714	 0,104599506092817 
715	 0,10627071285918 
716	 0,107755597629275 
717	 0,109953111740387 
718	 0,11245837238329 
719	 0,114493113159192 
720	 0,115874496996124 
721	 0,116504939970519 
722	 0,11663285132933 
723	 0,117672901009413 
724	 0,119778165320941 
725	 0,12150194575423 
726	 0,122287119253524 
727	 0,122113710078449 
728	 0,122788172027384 
729	 0,124139899330359 
730	 0,125403945412489 
731	 0,126051843830026 
732	 0,126134939351833 
733	 0,126515702988985 
734	 0,127082119390862 
735	 0,127737880533975 
736	 0,128190334676894 
737	 0,128498641558855 
738	 0,128962883830754 
739	 0,129585508279556 
740	 0,130305652723902 
741	 0,130717061187242 
742	 0,131215847863949 
743	 0,132250982208505 
744	 0,132552439529163 
745	 0,132184450471821 
746	 0,132179365535721 
747	 0,132383016847123 
748	 0,132741710965533 
749	 0,133253451352155 
750	 0,133890166451869 
751	 0,134634836046012 
752	 0,13491268685369 
753	 0,134730705496505 
754	 0,134779982175206 
755	 0,13490486092303 
756	 0,134967427500228 
757	 0,134834872456852 
758	 0,134481394758802 
759	 0,133518446528217 
760	 0,134034728946034 
761	 0,138337203650126 
762	 0,139637542282389 
763	 0,138820084378466 
764	 0,138202717590224 
765	 0,138820557901644 
766	 0,139548778028589 
767	 0,138719192295801 
768	 0,138528609331821 
769	 0,139244959932423 
770	 0,139218028559078 
771	 0,138875944707612 
772	 0,138826589614686 
773	 0,139206514324693 
774	 0,139847806953005 
775	 0,140157683627289 
776	 0,140159772198019 
777	 0,139965194178937 
778	 0,140291513439389 
779	 0,140890204695305 
780	 0,141273403880844 
781	 0,141282839067393 
782	 0,141135532779539 
783	 0,14186169344233 
784	 0,142410530687289 
785	 0,142100848960186 
786	 0,141615305249851 
787	 0,141304168905875 
788	 0,141605851020423 
789	 0,142226649666818 
790	 0,142953482781202 
791	 0,143468975317153 
792	 0,143685949593214 
793	 0,143596876490721 
794	 0,143667825124366 
795	 0,143890676652687 
796	 0,14406544646053 
797	 0,144085031613548 
798	 0,143936187225377 
799	 0,143740380913455 
800	 0,143744244742862 
801	 0,144184972668759 
802	 0,145017957519075 
803	 0,145909312083575 
804	 0,146079922001323 
805	 0,146443998834863 
806	 0,147096724581902 
807	 0,146702379136316 
808	 0,146050566914618 
809	 0,146096589718198 
810	 0,14629067299226 
811	 0,146338679546395 
812	 0,145532116916402 
813	 0,14535803606699 
814	 0,146506045423823 
815	 0,147061086276616 
816	 0,146976313869227 
817	 0,146634058212177 
818	 0,147969225234059 
819	 0,149928116978359 
820	 0,148841421909508 
821	 0,147624690869843 
822	 0,147674003108583 
823	 0,149070248015871 
824	 0,150243549340863 
825	 0,149429892137548 
826	 0,149318519899525 
827	 0,149971379458424 
828	 0,149488946614843 
829	 0,149795957844677 
830	 0,15149710735288 
831	 0,151606238569773 
832	 0,150851854016567 
833	 0,150594452667505 
834	 0,151034709486347 
835	 0,151741267961783 
836	 0,151171499706249 
837	 0,150740300105549 
838	 0,151140833504256 
839	 0,151775327715538 
840	 0,152401512888316 
841	 0,15279894202373 
842	 0,152478741818084 
843	 0,151724124990763 
844	 0,151690943018032 
845	 0,152449228107867 
846	 0,153712160513957 
847	 0,153195862135744 
848	 0,151996954943198 
849	 0,152082070027458 
850	 0,151777034379324 
851	 0,151145942934225 
852	 0,151786676357841 
853	 0,152761578146471 
854	 0,153425560462543 
855	 0,153395496764667 
856	 0,153384985420479 
857	 0,154375768101074 
858	 0,154591544671159 
859	 0,154053725577316 
860	 0,154196058445809 
861	 0,15424890303916 
862	 0,153908025113442 
863	 0,1537850381672 
864	 0,154023699654888 
865	 0,154708741273696 
866	 0,155549880757595 
867	 0,156070301802363 
868	 0,155091420572976 
869	 0,154533728727543 
870	 0,155128666569152 
871	 0,155164959554274 
872	 0,155062680119553 
873	 0,155475477784689 
874	 0,15531983695686 
875	 0,154721270973851 
876	 0,154631658935183 
877	 0,155134224670074 
878	 0,156156558232953 
879	 0,157108955304018 
880	 0,157201699974044 
881	 0,155793201446795 
882	 0,155738300632843 
883	 0,156949500157977 
884	 0,15757906124312 
885	 0,15770255720537 
886	 0,157303839812806 
887	 0,156509465261609 
888	 0,15630952097873 
889	 0,157548226044091 
890	 0,158796188782895 
891	 0,159281338790938 
892	 0,157804644607285 
893	 0,156728748584567 
894	 0,156753397632732 
895	 0,155744958205916 
896	 0,155488218256125 
897	 0,157554979264477 
898	 0,158162724479858 
899	 0,157818739431669 
900	 0,159123464856985 
901	 0,158942436819189 
902	 0,157279959665049 
903	 0,157465303684335 
904	 0,157244609569411 
905	 0,155673882160727 
906	 0,156627188730933 
907	 0,15831677307838 
908	 0,157399953892243 
909	 0,159368306117704 
910	 0,163162632421967 
911	 0,159936361637239 
912	 0,156569294596808 
913	 0,156774026415475 
914	 0,1595553971301 
915	 0,161901340771647 
916	 0,160914462161542 
917	 0,16000868815908 
918	 0,159916563266013 
919	 0,160842008692013 
920	 0,160539909839998 
921	 0,158824096571618 
922	 0,15854750505222 
923	 0,158830630784256 
924	 0,158637911052127 
925	 0,155699280410959 
926	 0,151974698617058 
927	 0,153127418142652 
928	 0,154344881956124 
929	 0,154099522441294 
930	 0,154930044334847 
931	 0,155068378184782 
932	 0,153508811335164 
933	 0,158520205941155 
934	 0,168957311212417 
935	 0,17721948238437 
936	 0,172316555694564 
937	 0,159881198064488 
938	 0,167945006388749 
939	 0,163767890680314 
940	 0,143290752032573 
941	 0,140011326538757 
942	 0,149660781110909 
943	 0,165192973080629 
944	 0,161759921743643 
945	 0,150741026011248 
946	 0,161701862705218 
947	 0,160929857206764 
948	 0,144716950728362 
949	 0,136541901105456 
950	 0,136118209832768 
951	 0,142164371179334 
952	 0,149093341455346 
953	 0,15478467629794 
954	 0,158133062224277 
955	 0,160961388600479 
956	 0,163382948080253 
957	 0,165788861701373 
958	 0,162729306728874 
959	 0,154783147746319 
960	 0,147877870455392 
961	 0,14982514115417 
962	 0,161967759246142 
963	 0,160375813329694 
964	 0,154356284321252 
965	 0,157989130315857 
966	 0,159127190265789 
967	 0,156289704007233 
968	 0,151671115758233 
969	 0,147590947333391 
970	 0,14593464287979 
971	 0,14848591612689 
972	 0,153658277294304 
973	 0,159316435052741 
974	 0,158827206987559 
975	 0,153587743927388 
976	 0,14753827713295 
977	 0,150442565802224 
978	 0,159564581782871 
979	 0,158622918820418 
980	 0,151631531304625 
981	 0,14365608211519 
982	 0,150283919773766 
983	 0,160012187579168 
984	 0,161935731861315 
985	 0,160580579491473 
986	 0,15692689894509 
987	 0,151343315551543 
988	 0,150755056365459 
989	 0,154938390031504 
990	 0,156708121145834 
991	 0,154778541643187 
992	 0,149802436667536 
993	 0,150320133467206 
994	 0,152886315506756 
995	 0,153316493718958 
996	 0,15436647035649 
997	 0,156294730443453 
998	 0,158787093506148 
999	 0,16199867604825 
1000	 0,164146038932699 
1001	 0,159292533168958 
1002	 0,155679756409768 
1003	 0,156876908622675 
1004	 0,156408839106083 
1005	 0,155548435167243 
1006	 0,155456248254032 
1007	 0,148617967518892 
1008	 0,142711091371221 
1009	 0,153411008740386 
1010	 0,165857332945873 
1011	 0,171766318943395 
1012	 0,159052231884918 
1013	 0,155674435620867 
1014	 0,16921320565537 
1015	 0,165498198253674 
1016	 0,156727848782197 
1017	 0,155142033761652 
1018	 0,158926288038763 
1019	 0,16412707668805 
1020	 0,165254454118998 
1021	 0,166367986743678 
1022	 0,166768340880502 
1023	 0,162135213471201 
1024	 0,156612187620186 
1025	 0,153864564059134 
1026	 0,16062966297244 
1027	 0,168532935694379 
1028	 0,171165048859476 
1029	 0,166864801990619 
1030	 0,163696879165294 
1031	 0,171175782831833 
1032	 0,178820745665454 
1033	 0,177067564587581 
1034	 0,150494671536306 
1035	 0,155394443036406 
1036	 0,190425173013085 
1037	 0,187667347101084 
1038	 0,181618717441211 
1039	 0,184811321081611 
1040	 0,178964531042179 
1041	 0,170822110076597 
1042	 0,166641353362224 
1043	 0,160956676358981 
1044	 0,158062493416403 
1045	 0,164286361919407 
1046	 0,173572294021234 
1047	 0,183061916923747 
1048	 0,189488749015345 
1049	 0,183279742765273 
1050	 0,167976166032252 
1051	 0,173586778953919 
1052	 0,175749510214929 
1053	 0,165290833902844 
1054	 0,166345135036795 
1055	 0,16893046507061 
1056	 0,164244700247639 
1057	 0,158244030148742 
1058	 0,157918587187322 
1059	 0,1707162864298 
1060	 0,184772006609113 
1061	 0,187645736745987 
1062	 0,154692119248023 
1063	 0,17020852045947 
1064	 0,223756302263948 
1065	 0,197411213162124 
1066	 0,155142391593632 
1067	 0,141914670775197 
1068	 0,193426869163716 
1069	 0,239057646973624 
1070	 0,218708779743064 
1071	 0,199158917107494 
1072	 0,171756936074541 
1073	 0,124932729058985 
1074	 0,15795779570631 
1075	 0,216182568267825 
