Wavelength	BEL100138.asd
325	 9,31135377313601E-03 
326	 1,13611349448619E-02 
327	 0,016299119034456 
328	 2,10320303491423E-02 
329	 1,60024434079249E-02 
330	 1,13017490804707E-02 
331	 1,45516203997903E-02 
332	 1,94598631018486E-02 
333	 2,28846337147997E-02 
334	 2,11685406705509E-02 
335	 1,52903889314842E-02 
336	 8,21175809295076E-03 
337	 1,00387537745198E-02 
338	 1,56856336921056E-02 
339	 1,98868625747278E-02 
340	 1,84325484933715E-02 
341	 0,014464619953054 
342	 1,72007794510207E-02 
343	 1,81909874042144E-02 
344	 1,56263119430176E-02 
345	 1,49465654817786E-02 
346	 1,50795129631591E-02 
347	 1,46405262096873E-02 
348	 1,43836628393735E-02 
349	 0,014556025459051 
350	 1,57143197514414E-02 
351	 1,57832910072685E-02 
352	 1,44313115821761E-02 
353	 0,015200566197306 
354	 1,61161130972932E-02 
355	 1,45715880577601E-02 
356	 1,43832769933082E-02 
357	 0,015679839401764 
358	 1,64137969690221E-02 
359	 1,61046014696641E-02 
360	 1,47661201425491E-02 
361	 1,45620083828013E-02 
362	 1,47070307645776E-02 
363	 1,37725189829334E-02 
364	 1,36722366369147E-02 
365	 1,41955256966872E-02 
366	 1,28130920131449E-02 
367	 1,26429510235628E-02 
368	 1,52539459782183E-02 
369	 1,59133928005602E-02 
370	 1,47006897722796E-02 
371	 1,28829319036771E-02 
372	 1,32218176834857E-02 
373	 1,58278325349359E-02 
374	 1,69472251404866E-02 
375	 0,016183090845353 
376	 1,36405356527935E-02 
377	 1,32989503082695E-02 
378	 1,49315155182183E-02 
379	 1,64535464167431E-02 
380	 1,65306186471523E-02 
381	 0,014938063338542 
382	 1,38704568711669E-02 
383	 1,36966650202624E-02 
384	 1,45656527703438E-02 
385	 1,49360437611854E-02 
386	 1,45466530021586E-02 
387	 1,32754481897146E-02 
388	 1,43455467954833E-02 
389	 1,79812653720716E-02 
390	 1,75222979710695E-02 
391	 1,53222267298375E-02 
392	 1,48734037443507E-02 
393	 1,49308619233494E-02 
394	 0,015269482803645 
395	 1,59152479684384E-02 
396	 1,63935664454148E-02 
397	 1,63724650086712E-02 
398	 1,52206674804047E-02 
399	 1,43557885896407E-02 
400	 0,015619255913772 
401	 1,66121694070825E-02 
402	 1,67303826743709E-02 
403	 1,57957680712985E-02 
404	 1,56748791009034E-02 
405	 1,73744457382411E-02 
406	 1,68995235301627E-02 
407	 0,015288450155671 
408	 1,60309353120578E-02 
409	 1,61346211142779E-02 
410	 1,51160511014242E-02 
411	 0,015103349183902 
412	 1,54806102860629E-02 
413	 1,55672319692806E-02 
414	 1,55722881314727E-02 
415	 1,57068837461201E-02 
416	 1,66011718466021E-02 
417	 1,68256145754435E-02 
418	 1,59300132284373E-02 
419	 0,015350595109499 
420	 1,52594999472814E-02 
421	 1,56701451431938E-02 
422	 1,57979291700552E-02 
423	 1,56379806728478E-02 
424	 1,59819027776149E-02 
425	 1,63275747571206E-02 
426	 1,63539505691587E-02 
427	 1,64430898479973E-02 
428	 0,016420337546031 
429	 1,57946789848595E-02 
430	 1,56548669074141E-02 
431	 1,61366541936039E-02 
432	 1,61375610784005E-02 
433	 1,60747754525789E-02 
434	 1,63162551765198E-02 
435	 1,62302522869435E-02 
436	 1,59454386408928E-02 
437	 1,60462326470409E-02 
438	 1,61629007337507E-02 
439	 1,61891077109337E-02 
440	 1,64355331698827E-02 
441	 1,66079780797672E-02 
442	 1,63127607347102E-02 
443	 0,016350451415169 
444	 1,67970710238449E-02 
445	 1,73296122135229E-02 
446	 1,73216743390453E-02 
447	 1,65132926847646E-02 
448	 1,63150276584652E-02 
449	 1,66346433213325E-02 
450	 1,69285159068411E-02 
451	 1,69731452535683E-02 
452	 1,67945483839139E-02 
453	 1,70215762781286E-02 
454	 1,73878462876814E-02 
455	 1,75763779095833E-02 
456	 1,71801586337241E-02 
457	 1,65577772480025E-02 
458	 0,016849856141387 
459	 0,017420365614647 
460	 1,78960273266033E-02 
461	 1,78157153741929E-02 
462	 1,75297900683597E-02 
463	 1,75910466401658E-02 
464	 1,77064294399607E-02 
465	 1,77763187299431E-02 
466	 1,76778923548547E-02 
467	 1,76751288632431E-02 
468	 1,79081066014598E-02 
469	 1,78458658689229E-02 
470	 1,75688273128419E-02 
471	 1,74035231051338E-02 
472	 1,72809820325293E-02 
473	 1,71787049461935E-02 
474	 1,69715550386258E-02 
475	 1,69698761421396E-02 
476	 1,74702330050302E-02 
477	 1,79732728356033E-02 
478	 1,82368162218246E-02 
479	 1,79137666270911E-02 
480	 1,76927315614676E-02 
481	 0,017863867861408 
482	 1,77621988294341E-02 
483	 0,017603762033193 
484	 1,78401686077767E-02 
485	 1,83216415561249E-02 
486	 1,87550887131536E-02 
487	 1,82947870842192E-02 
488	 1,74572210367925E-02 
489	 1,67916350097954E-02 
490	 1,74930825794252E-02 
491	 1,86262157544328E-02 
492	 1,75037363792092E-02 
493	 1,68458309241691E-02 
494	 1,74274992744382E-02 
495	 1,77850752298929E-02 
496	 0,017782074341809 
497	 1,74010952449578E-02 
498	 0,017591478427869 
499	 0,018234620663539 
500	 1,81513468948073E-02 
501	 1,78427876716835E-02 
502	 1,76687129633379E-02 
503	 1,78770062637925E-02 
504	 1,83859423534535E-02 
505	 0,019058581027159 
506	 1,89775697936341E-02 
507	 1,81856397879453E-02 
508	 1,81890535221143E-02 
509	 1,86458006702218E-02 
510	 1,91485436864353E-02 
511	 1,94539315239749E-02 
512	 1,94701024885722E-02 
513	 1,90330913997704E-02 
514	 1,90947137350491E-02 
515	 1,99683694418408E-02 
516	 2,02129757750412E-02 
517	 2,02182826393657E-02 
518	 0,020811272300312 
519	 2,09385638865268E-02 
520	 2,05340563108506E-02 
521	 2,03200631709764E-02 
522	 2,02061905720818E-02 
523	 2,01556300821021E-02 
524	 2,05492813206854E-02 
525	 2,11387034008483E-02 
526	 2,12516936019884E-02 
527	 2,11865809056555E-02 
528	 0,021123812861787 
529	 2,14863990693085E-02 
530	 2,18413612901384E-02 
531	 2,16640694634452E-02 
532	 2,13038775868118E-02 
533	 2,09602698922353E-02 
534	 2,09005681208161E-02 
535	 2,11802435834492E-02 
536	 0,021725355144876 
537	 2,15975374605788E-02 
538	 2,12121371127042E-02 
539	 2,16683468358245E-02 
540	 2,18386393665546E-02 
541	 2,15279052445401E-02 
542	 2,16369900477662E-02 
543	 2,18818319770679E-02 
544	 0,021935594176852 
545	 2,18334788402868E-02 
546	 2,17453423738514E-02 
547	 2,21718540664952E-02 
548	 2,24673198504998E-02 
549	 2,23536704846704E-02 
550	 2,23899226172399E-02 
551	 2,25360617322474E-02 
552	 2,26299148945658E-02 
553	 2,25958757906841E-02 
554	 2,25017206845227E-02 
555	 2,27405492997862E-02 
556	 2,30357469777163E-02 
557	 2,30962103911394E-02 
558	 2,24353412652565E-02 
559	 2,15903896057036E-02 
560	 2,21968162261533E-02 
561	 2,27433274432479E-02 
562	 2,26067027779189E-02 
563	 2,21320191311448E-02 
564	 2,17258898985904E-02 
565	 2,18933379503129E-02 
566	 2,19080027824707E-02 
567	 2,17396508126672E-02 
568	 2,20634570869622E-02 
569	 2,23233167353005E-02 
570	 2,21624073075259E-02 
571	 2,23763501222241E-02 
572	 2,28648329456631E-02 
573	 2,31302283232504E-02 
574	 2,33863654709934E-02 
575	 2,37041937624325E-02 
576	 2,41096587648152E-02 
577	 2,45332460167365E-02 
578	 2,48898904134093E-02 
579	 2,52190426896218E-02 
580	 2,55239640461176E-02 
581	 2,57901510398363E-02 
582	 0,026060376380941 
583	 2,63535025849942E-02 
584	 2,65747263077016E-02 
585	 2,68052158961287E-02 
586	 2,72406173194455E-02 
587	 2,74487529737907E-02 
588	 2,73700277498553E-02 
589	 0,027495065156192 
590	 2,78292374900852E-02 
591	 2,83035926491743E-02 
592	 0,028302090122788 
593	 2,79499849759555E-02 
594	 2,78404500505213E-02 
595	 2,81677015561738E-02 
596	 0,028875104170807 
597	 2,88310152948388E-02 
598	 2,84427555044624E-02 
599	 2,84838221928099E-02 
600	 2,88700319187881E-02 
601	 2,93267890440797E-02 
602	 2,88666406948406E-02 
603	 2,83156566867006E-02 
604	 2,82785198514555E-02 
605	 2,76318388477762E-02 
606	 2,67781370854297E-02 
607	 2,72531967687466E-02 
608	 2,74133126100723E-02 
609	 0,026783086484543 
610	 2,67507698388723E-02 
611	 2,67541246366784E-02 
612	 2,59403386970416E-02 
613	 2,57016749162686E-02 
614	 2,60432417576719E-02 
615	 2,56640082247934E-02 
616	 2,54129207083014E-02 
617	 2,57304375850204E-02 
618	 2,52296687465629E-02 
619	 2,44671166186389E-02 
620	 2,49258177866159E-02 
621	 2,54140164683269E-02 
622	 2,55238997709949E-02 
623	 2,53283466717404E-02 
624	 2,52342273038875E-02 
625	 2,56426483289553E-02 
626	 2,54896212078992E-02 
627	 2,48861567117601E-02 
628	 2,48781897412217E-02 
629	 2,51905768365249E-02 
630	 0,025596578658045 
631	 0,025444104801568 
632	 2,52985625730588E-02 
633	 2,62225722196484E-02 
634	 2,66845000980201E-02 
635	 2,65239895440523E-02 
636	 2,71009889242597E-02 
637	 2,76183872305695E-02 
638	 2,74498677969031E-02 
639	 2,79743942608132E-02 
640	 2,89246188556813E-02 
641	 2,89221637146046E-02 
642	 2,90229110318645E-02 
643	 0,02948752522998 
644	 2,91728158539512E-02 
645	 2,86430390685197E-02 
646	 2,88067712840415E-02 
647	 2,88284027207007E-02 
648	 2,86929732638939E-02 
649	 2,92281778053162E-02 
650	 2,95381302418526E-02 
651	 2,90634203175415E-02 
652	 2,84942503034738E-02 
653	 2,80359956839335E-02 
654	 2,78762784628983E-02 
655	 2,77043238444352E-02 
656	 2,73736991314659E-02 
657	 2,68639016882925E-02 
658	 2,61847826587753E-02 
659	 2,53265663061479E-02 
660	 2,44532648157546E-02 
661	 2,37945144041503E-02 
662	 2,39703468339832E-02 
663	 2,38310694105804E-02 
664	 2,28595509573499E-02 
665	 2,20504657359594E-02 
666	 2,14510345126951E-02 
667	 2,09268046555028E-02 
668	 2,05048261558205E-02 
669	 2,02911861855967E-02 
670	 2,07642697465995E-02 
671	 2,10037808019346E-02 
672	 2,03274285426412E-02 
673	 2,02030921080479E-02 
674	 2,04489465532486E-02 
675	 1,99153171524883E-02 
676	 1,95815116800636E-02 
677	 1,98195398939717E-02 
678	 2,05125168634633E-02 
679	 2,12145921517044E-02 
680	 2,14153661294092E-02 
681	 2,14490471524252E-02 
682	 2,14027220811813E-02 
683	 2,11630572787374E-02 
684	 2,14300665929606E-02 
685	 2,26041128597563E-02 
686	 2,35612061187892E-02 
687	 2,41489817610872E-02 
688	 2,43266580346268E-02 
689	 2,51010292108349E-02 
690	 2,66163269840889E-02 
691	 2,81788481890044E-02 
692	 2,95540511956522E-02 
693	 3,06390442673216E-02 
694	 3,30803840929273E-02 
695	 3,63435395890617E-02 
696	 3,85200496031746E-02 
697	 0,041106018354079 
698	 4,47383974783061E-02 
699	 4,85714150838029E-02 
700	 5,21877373434448E-02 
701	 5,50218121063361E-02 
702	 5,88271969874749E-02 
703	 6,32863213499538E-02 
704	 6,61825264274453E-02 
705	 6,93176106786249E-02 
706	 7,35835716165392E-02 
707	 7,69026020132554E-02 
708	 7,94963599119796E-02 
709	 8,22858342594709E-02 
710	 8,52535980172615E-02 
711	 8,83248955934857E-02 
712	 9,11139734347761E-02 
713	 9,35453638752118E-02 
714	 9,55831059702244E-02 
715	 9,71633920797972E-02 
716	 9,84655123161769E-02 
717	 9,95532126514652E-02 
718	 0,10121630650103 
719	 0,103615884022892 
720	 0,105869840533562 
721	 0,107205435921904 
722	 0,107554179861123 
723	 0,108485394688303 
724	 0,110165078675524 
725	 0,111104183310812 
726	 0,111795829970077 
727	 0,112619080157307 
728	 0,113199148835618 
729	 0,113949159201145 
730	 0,115606405942781 
731	 0,117142802025495 
732	 0,118111271349742 
733	 0,118421541326804 
734	 0,118658046119248 
735	 0,119236673780598 
736	 0,11952057395289 
737	 0,119705053644217 
738	 0,120523332666556 
739	 0,121519267297049 
740	 0,122441190017085 
741	 0,12299751155407 
742	 0,123277770509718 
743	 0,123422736721597 
744	 0,123668399709103 
745	 0,124055521931232 
746	 0,124451243872795 
747	 0,125018451072261 
748	 0,125747164038735 
749	 0,125905794885923 
750	 0,125923131477664 
751	 0,126606712795858 
752	 0,127148917913143 
753	 0,127365577933237 
754	 0,127510556673733 
755	 0,127485275791781 
756	 0,127241811814735 
757	 0,127052809790148 
758	 0,126737459845636 
759	 0,125174624753703 
760	 0,12424210256949 
761	 0,126924297452596 
762	 0,127646942719196 
763	 0,127670033706831 
764	 0,128648674154449 
765	 0,129628360000224 
766	 0,130222498930531 
767	 0,13008007167712 
768	 0,130414349501967 
769	 0,13132929557657 
770	 0,131562194216293 
771	 0,131347790956534 
772	 0,131052832185931 
773	 0,131360061391542 
774	 0,132043978139823 
775	 0,131805842689433 
776	 0,13182205690579 
777	 0,132559941444932 
778	 0,132693651422938 
779	 0,132623224743016 
780	 0,133158937992204 
781	 0,133477662542006 
782	 0,133528820581242 
783	 0,133989713950597 
784	 0,134274960457939 
785	 0,134005869314749 
786	 0,133512446088638 
787	 0,133175746650942 
788	 0,133622324146807 
789	 0,133888222228152 
790	 0,133828031446318 
791	 0,134344996945962 
792	 0,134889034303855 
793	 0,135017417603168 
794	 0,135143490245138 
795	 0,135234274170453 
796	 0,135031882347905 
797	 0,135061086395144 
798	 0,135419354671238 
799	 0,135686508076517 
800	 0,135581456830618 
801	 0,134962566179378 
802	 0,135658056590559 
803	 0,137195274025927 
804	 0,137486327549079 
805	 0,137554521827261 
806	 0,137697650833939 
807	 0,137710827944372 
808	 0,13746878950765 
809	 0,136865974417639 
810	 0,136733289932179 
811	 0,136909024894555 
812	 0,13618979256731 
813	 0,135393533340653 
814	 0,135008944759739 
815	 0,13506156510148 
816	 0,135258722336842 
817	 0,13518582825411 
818	 0,136370422968949 
819	 0,138055803684675 
820	 0,137643062052662 
821	 0,137354797053447 
822	 0,13806064553734 
823	 0,138431962424072 
824	 0,138438777725392 
825	 0,138265666767816 
826	 0,139045305954716 
827	 0,140213211492813 
828	 0,138882827140666 
829	 0,138340549318179 
830	 0,139909598037552 
831	 0,139669705663926 
832	 0,1388599477513 
833	 0,139573637333795 
834	 0,141205650060508 
835	 0,142781827751452 
836	 0,141898652914133 
837	 0,140995233137939 
838	 0,141334398999468 
839	 0,142355608001426 
840	 0,142966393463421 
841	 0,141802776157579 
842	 0,141409839122956 
843	 0,142037498691374 
844	 0,14213257734339 
845	 0,142613368735658 
846	 0,143711200331409 
847	 0,14360737782873 
848	 0,142778530676438 
849	 0,142216939994958 
850	 0,141800958436505 
851	 0,141770281954034 
852	 0,142894995129447 
853	 0,143828596115896 
854	 0,143907319032661 
855	 0,144572602309752 
856	 0,145136893228609 
857	 0,144532433158524 
858	 0,143832927274731 
859	 0,143594996018511 
860	 0,144802008635256 
861	 0,145249336303368 
862	 0,144164645046131 
863	 0,144922982489824 
864	 0,146260652407478 
865	 0,146009375025751 
866	 0,145675095433331 
867	 0,145470762617302 
868	 0,144775646224992 
869	 0,144897443956123 
870	 0,146073492266063 
871	 0,145825796331536 
872	 0,144927287416108 
873	 0,144587623062267 
874	 0,144924445297349 
875	 0,145734199850414 
876	 0,146300566057212 
877	 0,146715905784865 
878	 0,146981955802967 
879	 0,14713975839264 
880	 0,147081796618305 
881	 0,146725799392686 
882	 0,146854184188556 
883	 0,147217215722693 
884	 0,146543949566576 
885	 0,146778002660812 
886	 0,148085263643657 
887	 0,147247961930744 
888	 0,146560044109429 
889	 0,148265393101366 
890	 0,149916837493088 
891	 0,150165689913398 
892	 0,146797136789993 
893	 0,143861088131152 
894	 0,143023752420738 
895	 0,14292326454872 
896	 0,144136306671098 
897	 0,14673687577377 
898	 0,145608232178649 
899	 0,143013143030593 
900	 0,145468249686171 
901	 0,146398630920366 
902	 0,145182773620812 
903	 0,146778139686905 
904	 0,148162279832332 
905	 0,147512168579497 
906	 0,145839966697179 
907	 0,144186880285959 
908	 0,143899991914088 
909	 0,14588289483698 
910	 0,148274061538381 
911	 0,143718602338216 
912	 0,14037663471853 
913	 0,142195269620698 
914	 0,145220587584597 
915	 0,146359347897426 
916	 0,143187523939859 
917	 0,142478125357658 
918	 0,144254935951592 
919	 0,145508416317288 
920	 0,145584028104805 
921	 0,144574208482452 
922	 0,144651074341992 
923	 0,144742043499155 
924	 0,143891653361844 
925	 0,142979481187163 
926	 0,141870427005126 
927	 0,139960657110398 
928	 0,137831825325325 
929	 0,136573283321671 
930	 0,14039420297262 
931	 0,143984664908511 
932	 0,141682499500132 
933	 0,136702740245353 
934	 0,137802727928943 
935	 0,15709965718709 
936	 0,147581779247423 
937	 0,116389420061926 
938	 0,126799992267612 
939	 0,13177320434794 
940	 0,120693710745174 
941	 0,12184693309461 
942	 0,125020464251453 
943	 0,122173193942925 
944	 0,128083304190474 
945	 0,136843172342944 
946	 0,133770418243535 
947	 0,130578943720689 
948	 0,129380852577334 
949	 0,123995323361869 
950	 0,122302306690563 
951	 0,126765517118366 
952	 0,126768978768612 
953	 0,12272572337748 
954	 0,116784741550303 
955	 0,125720398512214 
956	 0,141604121315797 
957	 0,140274576904616 
958	 0,134745613722289 
959	 0,129463769465288 
960	 0,12305143287447 
961	 0,125662090694376 
962	 0,14027123446455 
963	 0,145039140926463 
964	 0,140283306304044 
965	 0,129323711914711 
966	 0,130394872406105 
967	 0,139502580228963 
968	 0,135463880505586 
969	 0,13340205143989 
970	 0,136456462329848 
971	 0,129509044845148 
972	 0,125666040348101 
973	 0,135043091884786 
974	 0,139809775314427 
975	 0,138118954916336 
976	 0,131757946935761 
977	 0,131960414402524 
978	 0,138404806651859 
979	 0,140297457741322 
980	 0,136362664845394 
981	 0,128639237890087 
982	 0,131663862839564 
983	 0,139410157685364 
984	 0,145212439698961 
985	 0,146060472272152 
986	 0,142754124324557 
987	 0,137800602921866 
988	 0,137995196852632 
989	 0,142360190898944 
990	 0,140804098384546 
991	 0,137013298771554 
992	 0,133879824325438 
993	 0,136089869391622 
994	 0,139760584848103 
995	 0,140491061752793 
996	 0,139796812727697 
997	 0,139477019914934 
998	 0,142474502173849 
999	 0,146245053346436 
1000	 0,148540213879944 
1001	 0,144781041399886 
1002	 0,14142795209501 
1003	 0,141893202982047 
1004	 0,144491830501187 
1005	 0,146482080253109 
1006	 0,145058951242591 
1007	 0,137323613780686 
1008	 0,129250808982977 
1009	 0,132182466695865 
1010	 0,140853432849517 
1011	 0,148463095782791 
1012	 0,138676580615418 
1013	 0,138022320337321 
1014	 0,152876977870313 
1015	 0,148425940974595 
1016	 0,141740828199958 
1017	 0,147712960706397 
1018	 0,15086900005937 
1019	 0,148736915253823 
1020	 0,141325902300166 
1021	 0,142975339621833 
1022	 0,149235503665606 
1023	 0,13631407395521 
1024	 0,131831318766865 
1025	 0,142915404249184 
1026	 0,15392178629875 
1027	 0,158193043244962 
1028	 0,15346938598498 
1029	 0,155172793793529 
1030	 0,156945619478174 
1031	 0,150173214948756 
1032	 0,155138150303976 
1033	 0,16000083533694 
1034	 0,133496110138236 
1035	 0,129268526669678 
1036	 0,150740836090134 
1037	 0,150659063288773 
1038	 0,146138813548326 
1039	 0,145589887997339 
1040	 0,153034383974608 
1041	 0,15777029867518 
1042	 0,15184311190468 
1043	 0,148675396326582 
1044	 0,152938170176977 
1045	 0,166786944909219 
1046	 0,163641587734937 
1047	 0,1547655836559 
1048	 0,182207557945448 
1049	 0,173816408656944 
1050	 0,12752436308499 
1051	 0,133744238809034 
1052	 0,150129476305939 
1053	 0,157002712729606 
1054	 0,170010985003026 
1055	 0,170909314848565 
1056	 0,148711005887102 
1057	 0,133056558098381 
1058	 0,12665476840214 
1059	 0,126625360595542 
1060	 0,168470928455384 
1061	 0,215923668174149 
1062	 0,172018117541363 
1063	 0,166609480730978 
1064	 0,206105235641406 
1065	 0,168780056316434 
1066	 0,126483982059759 
1067	 0,117990325587552 
1068	 0,119385650247427 
1069	 0,145250772761698 
1070	 0,189381561327034 
1071	 0,153426495279476 
1072	 9,68696400426479E-02 
1073	 0,106510605717095 
1074	 0,141865615374988 
1075	 0,171157751085986 
