Wavelength	BEL100100.asd
325	 1,27108562189562E-02 
326	 1,42507377393895E-02 
327	 1,50570236919595E-02 
328	 1,50760791853367E-02 
329	 1,46750774533973E-02 
330	 1,48251648899858E-02 
331	 1,59746779623646E-02 
332	 0,014291176329628 
333	 1,21712907351095E-02 
334	 0,016257751501378 
335	 1,76218841330357E-02 
336	 0,014905239528524 
337	 1,50088623298486E-02 
338	 1,57313708298951E-02 
339	 1,49082461509154E-02 
340	 1,46285539057681E-02 
341	 1,51259836598264E-02 
342	 0,016269104100811 
343	 1,68072873727367E-02 
344	 1,65067866803981E-02 
345	 1,68120310781704E-02 
346	 0,016600343244028 
347	 1,48384710937219E-02 
348	 1,51520734145696E-02 
349	 1,69030313554958E-02 
350	 0,016856457084058 
351	 1,67651090830354E-02 
352	 1,71507411628966E-02 
353	 0,017006676662429 
354	 1,65225935596138E-02 
355	 1,60158394831362E-02 
356	 1,62325753937581E-02 
357	 1,69415101128356E-02 
358	 1,69379574072346E-02 
359	 1,68188723744936E-02 
360	 1,69190395778544E-02 
361	 1,74427930882214E-02 
362	 1,77082735971577E-02 
363	 1,67458363992579E-02 
364	 1,66298218316786E-02 
365	 1,73884153335081E-02 
366	 0,017325228696305 
367	 1,71645674204847E-02 
368	 1,73365821075014E-02 
369	 1,74235353666086E-02 
370	 1,73913139876438E-02 
371	 1,72767105518148E-02 
372	 1,71182940732509E-02 
373	 1,70103739367849E-02 
374	 1,73094380580613E-02 
375	 1,73527247409358E-02 
376	 1,66608368137746E-02 
377	 1,66140631850977E-02 
378	 1,70250406270126E-02 
379	 1,68155376813981E-02 
380	 1,68574012091154E-02 
381	 1,73365456774614E-02 
382	 1,76612267950403E-02 
383	 1,79297708334663E-02 
384	 1,82398144215735E-02 
385	 1,78411149753883E-02 
386	 1,71200866569767E-02 
387	 1,74414311649094E-02 
388	 1,79367688439637E-02 
389	 1,82403855032597E-02 
390	 1,84234361790696E-02 
391	 0,018602501798722 
392	 1,89110337017904E-02 
393	 1,88370336393408E-02 
394	 1,83843308269224E-02 
395	 1,77626363616225E-02 
396	 1,77797984597716E-02 
397	 1,86177036146708E-02 
398	 1,87874000809623E-02 
399	 1,85603059956706E-02 
400	 1,84943206259607E-02 
401	 1,84651648702326E-02 
402	 1,84626613259716E-02 
403	 0,018524283201513 
404	 1,84668673033482E-02 
405	 1,82149309174989E-02 
406	 1,83913824824426E-02 
407	 1,87578545338121E-02 
408	 1,86082515400033E-02 
409	 1,86195300410715E-02 
410	 1,88836451537067E-02 
411	 1,88053926126659E-02 
412	 1,86420326631535E-02 
413	 1,86779566007763E-02 
414	 1,91871554243952E-02 
415	 1,99180590664753E-02 
416	 1,99777816119573E-02 
417	 2,00922287550262E-02 
418	 2,05672033661289E-02 
419	 2,10495643432134E-02 
420	 2,14690743784134E-02 
421	 2,17790441804919E-02 
422	 2,21704056707379E-02 
423	 2,25712065876424E-02 
424	 2,25632068684085E-02 
425	 2,24542699061868E-02 
426	 2,24545671306498E-02 
427	 2,24110742132668E-02 
428	 2,24058859104915E-02 
429	 0,022622045866587 
430	 2,28709334357318E-02 
431	 2,31399873751013E-02 
432	 2,36664204147827E-02 
433	 2,42533902077253E-02 
434	 2,47180038005978E-02 
435	 2,53431706680256E-02 
436	 2,60675636218986E-02 
437	 2,66190456981323E-02 
438	 2,70609872365226E-02 
439	 2,74124224600845E-02 
440	 2,76756077962412E-02 
441	 2,78885598603372E-02 
442	 2,80934515623335E-02 
443	 2,85498783662603E-02 
444	 0,029201347413578 
445	 2,96795628994864E-02 
446	 2,98534652218211E-02 
447	 2,97201624058754E-02 
448	 3,00731727571709E-02 
449	 3,06030614337263E-02 
450	 3,05023340404416E-02 
451	 3,03837626802191E-02 
452	 3,04142653659613E-02 
453	 3,04472675262465E-02 
454	 3,03647491737817E-02 
455	 3,00821558657405E-02 
456	 3,00136742805062E-02 
457	 3,00637545430397E-02 
458	 2,97275259534553E-02 
459	 2,94395554234418E-02 
460	 2,93855909536153E-02 
461	 2,94607162217103E-02 
462	 2,94495843197867E-02 
463	 2,90817940226471E-02 
464	 2,87879831810716E-02 
465	 2,86590346982494E-02 
466	 2,85645048813207E-02 
467	 2,84627370856663E-02 
468	 2,83312320354154E-02 
469	 0,02827163506928 
470	 0,028237392902558 
471	 2,80870542707246E-02 
472	 2,80525774782872E-02 
473	 2,82085846931552E-02 
474	 2,85118039119253E-02 
475	 2,87333351122866E-02 
476	 2,86669264504833E-02 
477	 0,028944584408271 
478	 2,94315533290489E-02 
479	 2,93408271825854E-02 
480	 2,92792732335627E-02 
481	 2,94714251478159E-02 
482	 2,93429058089497E-02 
483	 2,88766471081287E-02 
484	 2,81248958526824E-02 
485	 2,77789034543508E-02 
486	 2,79035859017602E-02 
487	 2,78007688212522E-02 
488	 2,77869856315485E-02 
489	 2,81079725655065E-02 
490	 2,85542408767133E-02 
491	 2,89456332700867E-02 
492	 2,89261188762192E-02 
493	 0,029079015813986 
494	 2,95616879893163E-02 
495	 2,99375810506749E-02 
496	 3,01324339264806E-02 
497	 3,01077012561904E-02 
498	 3,00721901226234E-02 
499	 3,00484057937017E-02 
500	 2,98657012578782E-02 
501	 2,98069567060632E-02 
502	 3,00511576219336E-02 
503	 3,04857781481102E-02 
504	 0,03104701866571 
505	 3,16654949889638E-02 
506	 3,22522940607867E-02 
507	 3,27748334783057E-02 
508	 0,033289902981519 
509	 3,37853320842355E-02 
510	 0,034252174014761 
511	 3,48343381166575E-02 
512	 3,53602502017381E-02 
513	 3,52834871642509E-02 
514	 3,51782034854923E-02 
515	 3,53058114745121E-02 
516	 3,53542641162259E-02 
517	 3,54969705683984E-02 
518	 3,60038415319948E-02 
519	 3,70785767766179E-02 
520	 3,85294984533982E-02 
521	 3,95346846492703E-02 
522	 4,01702215948313E-02 
523	 0,04054814442916 
524	 4,11322288027253E-02 
525	 0,041813814811558 
526	 4,20387788363594E-02 
527	 4,26227433254091E-02 
528	 4,37110670786338E-02 
529	 4,42950035021601E-02 
530	 4,46895810484674E-02 
531	 4,53688367040724E-02 
532	 4,58628473663552E-02 
533	 4,61372619938023E-02 
534	 4,64350926032737E-02 
535	 4,67730440483066E-02 
536	 4,71233138364205E-02 
537	 4,71080245486643E-02 
538	 4,69530146759709E-02 
539	 4,71887473105019E-02 
540	 4,73840171398962E-02 
541	 4,74815136821689E-02 
542	 4,78688425597721E-02 
543	 4,83301100401338E-02 
544	 4,86358044142701E-02 
545	 4,90513400233193E-02 
546	 4,94789026333905E-02 
547	 4,94475640571955E-02 
548	 4,96271179755469E-02 
549	 5,02578519051157E-02 
550	 5,04345414086433E-02 
551	 5,03701894167168E-02 
552	 5,05832050246645E-02 
553	 5,06128912603297E-02 
554	 5,03605583377617E-02 
555	 4,99867774960755E-02 
556	 4,95436100221202E-02 
557	 0,049079126845157 
558	 4,86098305820483E-02 
559	 4,81873011344104E-02 
560	 4,79106088405008E-02 
561	 4,77022521792105E-02 
562	 4,74912886850646E-02 
563	 4,71074522277936E-02 
564	 4,66225790107595E-02 
565	 4,61538050986861E-02 
566	 4,57526559986454E-02 
567	 0,045414627457245 
568	 4,50505964585581E-02 
569	 4,46495907353921E-02 
570	 0,04424224777017 
571	 4,41657639881149E-02 
572	 4,43587921584922E-02 
573	 4,46141247405879E-02 
574	 4,46416841579021E-02 
575	 4,44569098375772E-02 
576	 4,48311302376665E-02 
577	 4,52696883539601E-02 
578	 4,51811114625464E-02 
579	 0,045604011471935 
580	 4,65193480199918E-02 
581	 4,71336283458808E-02 
582	 4,76535002771611E-02 
583	 4,81310497275144E-02 
584	 4,82266666534289E-02 
585	 4,79367425420805E-02 
586	 4,73508722106034E-02 
587	 4,63963785285006E-02 
588	 4,52714268322867E-02 
589	 4,47257953257552E-02 
590	 4,45169472007775E-02 
591	 4,43891795333844E-02 
592	 4,46729140197198E-02 
593	 4,52381230539745E-02 
594	 4,56268651187334E-02 
595	 4,59477813517514E-02 
596	 4,62441887786394E-02 
597	 4,66106411052565E-02 
598	 4,68414109625309E-02 
599	 4,66097699025412E-02 
600	 4,65512815993717E-02 
601	 4,67423935648854E-02 
602	 0,046700258655704 
603	 0,04659578351158 
604	 4,65574744607156E-02 
605	 4,64002922519566E-02 
606	 4,60484443336176E-02 
607	 4,53917869755808E-02 
608	 4,46570393169114E-02 
609	 4,39774522426263E-02 
610	 4,34364205631595E-02 
611	 4,30230731197336E-02 
612	 4,27091870063174E-02 
613	 0,042155262892198 
614	 4,14556341216523E-02 
615	 4,12146031900879E-02 
616	 4,11303771294867E-02 
617	 4,10048636308127E-02 
618	 4,09399118961815E-02 
619	 4,09341166634494E-02 
620	 4,09926148294869E-02 
621	 4,09212744429106E-02 
622	 4,06457176018647E-02 
623	 4,02053773953925E-02 
624	 3,97365864273595E-02 
625	 3,93762318878355E-02 
626	 3,90192934939779E-02 
627	 3,86956274214885E-02 
628	 3,84794250491736E-02 
629	 3,86167769814871E-02 
630	 0,039140300702354 
631	 3,92649518757861E-02 
632	 3,92493542080897E-02 
633	 3,96837286504142E-02 
634	 4,00104691924573E-02 
635	 4,02088102749294E-02 
636	 4,08911263727808E-02 
637	 4,15959089612786E-02 
638	 4,19128281570637E-02 
639	 4,20427180560765E-02 
640	 4,20729669392558E-02 
641	 4,20804512553521E-02 
642	 4,23292604206693E-02 
643	 4,27802056577601E-02 
644	 4,25571164935704E-02 
645	 4,18120084798494E-02 
646	 4,08573397031454E-02 
647	 4,01891979361636E-02 
648	 0,039933790852273 
649	 0,039906091523026 
650	 3,99422470248679E-02 
651	 3,99057729745589E-02 
652	 3,98820668548539E-02 
653	 3,94772403647533E-02 
654	 3,78307016990792E-02 
655	 3,63063114779533E-02 
656	 3,55374225206916E-02 
657	 3,57801809598902E-02 
658	 3,64090590656741E-02 
659	 3,67321903647749E-02 
660	 0,036653452837223 
661	 3,62015652403324E-02 
662	 3,56192379516577E-02 
663	 3,48653525655344E-02 
664	 3,40215831316706E-02 
665	 3,36519839095601E-02 
666	 3,34754868920853E-02 
667	 3,29265297379699E-02 
668	 0,032615298482663 
669	 3,25847598277659E-02 
670	 0,032283730257336 
671	 3,19861943485913E-02 
672	 3,19286625318357E-02 
673	 3,20291242808537E-02 
674	 3,21868406605921E-02 
675	 3,21781083061936E-02 
676	 3,22871696820055E-02 
677	 3,25834892500017E-02 
678	 3,28073534357796E-02 
679	 3,29972302124251E-02 
680	 3,32271062905249E-02 
681	 3,35855920715178E-02 
682	 3,39593493760355E-02 
683	 3,39743540608147E-02 
684	 3,37594585902448E-02 
685	 3,33628005011684E-02 
686	 3,23463265170817E-02 
687	 3,14401323524257E-02 
688	 3,21230318226492E-02 
689	 3,36327695429001E-02 
690	 3,55728491853683E-02 
691	 3,76060091545518E-02 
692	 3,95068548123827E-02 
693	 4,11299885327896E-02 
694	 4,38975183904225E-02 
695	 4,79161143678127E-02 
696	 5,29209645232788E-02 
697	 5,71423916202131E-02 
698	 5,99563377593259E-02 
699	 6,30488118813049E-02 
700	 0,066791655596777 
701	 7,14071323137518E-02 
702	 7,71948167487029E-02 
703	 8,37350253583474E-02 
704	 8,96061514522365E-02 
705	 9,50731724449213E-02 
706	 0,100339783841398 
707	 0,105703094942567 
708	 0,111086414703422 
709	 0,116279304617866 
710	 0,12115201384511 
711	 0,125507227139485 
712	 0,129213530026053 
713	 0,131463918388074 
714	 0,131280977470107 
715	 0,124181725634704 
716	 0,11466885937814 
717	 0,115005091464473 
718	 0,118262263124061 
719	 0,120319151863747 
720	 0,121560440945685 
721	 0,122352402123961 
722	 0,123498915345885 
723	 0,124879022587562 
724	 0,126458091816177 
725	 0,127605974458336 
726	 0,128560462207701 
727	 0,129551566968321 
728	 0,130406106746865 
729	 0,131001443373241 
730	 0,13055275228966 
731	 0,136160203631987 
732	 0,148049646928699 
733	 0,157626217008266 
734	 0,163433817263514 
735	 0,164839916316974 
736	 0,166478837457478 
737	 0,169221112108919 
738	 0,172486129514793 
739	 0,175984874618417 
740	 0,179491756002319 
741	 0,182766891910133 
742	 0,185936276750332 
743	 0,189156938317518 
744	 0,191283714190031 
745	 0,192371369679621 
746	 0,193520346456312 
747	 0,194102074865992 
748	 0,193901686915742 
749	 0,193683252162452 
750	 0,193615032954573 
751	 0,193766599531662 
752	 0,194117187811757 
753	 0,194602253770017 
754	 0,195276968228573 
755	 0,195713307764583 
756	 0,194439170104295 
757	 0,18028334205881 
758	 0,161410691450049 
759	 0,149195509727829 
760	 0,141319380016435 
761	 0,146339291656763 
762	 0,147882586050303 
763	 0,146643390550549 
764	 0,145807157371592 
765	 0,14268659385609 
766	 0,143557010409653 
767	 0,160334633074785 
768	 0,176479983347041 
769	 0,184229277423164 
770	 0,188169054725751 
771	 0,189876175513665 
772	 0,190919416242867 
773	 0,191104848459272 
774	 0,190818998289947 
775	 0,190815964319635 
776	 0,190817672256334 
777	 0,19063933520391 
778	 0,189953158062794 
779	 0,189094543423887 
780	 0,188593186618512 
781	 0,188178732055881 
782	 0,187553044076952 
783	 0,186043940776301 
784	 0,184130497797682 
785	 0,18202883883961 
786	 0,178832760105316 
787	 0,174742045571251 
788	 0,170190962533471 
789	 0,166565006223096 
790	 0,164437986419949 
791	 0,163735061218154 
792	 0,163837735591035 
793	 0,164045550975035 
794	 0,162709093870965 
795	 0,160530761361631 
796	 0,159579973764301 
797	 0,159018527849171 
798	 0,158313004484861 
799	 0,156279116257429 
800	 0,15379453855394 
801	 0,151812438814136 
802	 0,151127956509919 
803	 0,151472166343303 
804	 0,151773001767478 
805	 0,152091019108284 
806	 0,152358267588691 
807	 0,152505750410968 
808	 0,152707808888591 
809	 0,153153982884038 
810	 0,153547140285032 
811	 0,153869157080514 
812	 0,154289885981436 
813	 0,154772223146079 
814	 0,155351770613737 
815	 0,156433101791255 
816	 0,157236171391148 
817	 0,156735041527411 
818	 0,15663527089892 
819	 0,15696449725033 
820	 0,156633508783865 
821	 0,156562150087858 
822	 0,157063252467321 
823	 0,157176751718822 
824	 0,157249888594835 
825	 0,157809338506812 
826	 0,158026179579513 
827	 0,157864706727897 
828	 0,157729680431191 
829	 0,157721095225994 
830	 0,157882375664479 
831	 0,157988637374827 
832	 0,158102127293817 
833	 0,158333232799297 
834	 0,158475410261102 
835	 0,158443801064751 
836	 0,158089937408136 
837	 0,157970104047696 
838	 0,158296887460128 
839	 0,158412915624524 
840	 0,158342644414268 
841	 0,158222509261764 
842	 0,158182954188312 
843	 0,158248722619089 
844	 0,158359184028958 
845	 0,158429615421119 
846	 0,158442317054331 
847	 0,158668003060441 
848	 0,158872938201383 
849	 0,158680380660621 
850	 0,158843878155482 
851	 0,159353597428085 
852	 0,159466042598621 
853	 0,159444751017598 
854	 0,159440041785861 
855	 0,159403261339029 
856	 0,159465643668353 
857	 0,159788539580818 
858	 0,159920794344023 
859	 0,159874758725982 
860	 0,160031102034026 
861	 0,160279667544679 
862	 0,160524115038511 
863	 0,160503181157178 
864	 0,160412461039109 
865	 0,160551102840093 
866	 0,160633476482085 
867	 0,160704249726703 
868	 0,161171730107523 
869	 0,161291180406125 
870	 0,160871364413661 
871	 0,161023703955394 
872	 0,161460771916682 
873	 0,161716616879437 
874	 0,16204393539323 
875	 0,162293321041702 
876	 0,161861804389365 
877	 0,161709914346132 
878	 0,16218523476281 
879	 0,162577780800491 
880	 0,162906263330506 
881	 0,163238172097372 
882	 0,163243624139119 
883	 0,163133591010316 
884	 0,163623560348416 
885	 0,16421901849188 
886	 0,164672471780512 
887	 0,164761674030867 
888	 0,164704123721858 
889	 0,164740646196577 
890	 0,164976417490304 
891	 0,165237359758744 
892	 0,164981963860472 
893	 0,165161204569527 
894	 0,165994831122488 
895	 0,166320385881395 
896	 0,16698366837582 
897	 0,168641665489927 
898	 0,168715207481854 
899	 0,167832240525878 
900	 0,168271579946105 
901	 0,168650374809135 
902	 0,168689164012116 
903	 0,168837645149974 
904	 0,168631424878893 
905	 0,167963727552626 
906	 0,168258100984148 
907	 0,168963012051645 
908	 0,168990997671478 
909	 0,168766653256193 
910	 0,168703715263643 
911	 0,169871250420743 
912	 0,170995016435214 
913	 0,171367327393048 
914	 0,171311675013866 
915	 0,171070261932063 
916	 0,170909168083775 
917	 0,171347622735468 
918	 0,171883455058985 
919	 0,171048119352263 
920	 0,17075157478832 
921	 0,171148856092166 
922	 0,169796380574309 
923	 0,168658646952161 
924	 0,169444018992189 
925	 0,170266703517811 
926	 0,170938016063066 
927	 0,171799731791095 
928	 0,172238237594464 
929	 0,172172773106812 
930	 0,17315295071286 
931	 0,172672297752053 
932	 0,168537000932383 
933	 0,167046955520835 
934	 0,168938013482544 
935	 0,172046993948264 
936	 0,174656908369169 
937	 0,175552977396284 
938	 0,173679608798805 
939	 0,172464298517365 
940	 0,17236111724912 
941	 0,168696023871736 
942	 0,166329925639646 
943	 0,168964815041968 
944	 0,17109624446856 
945	 0,17070270006238 
946	 0,165444311200372 
947	 0,16434221275463 
948	 0,168367503521547 
949	 0,170678591884154 
950	 0,169868631713779 
951	 0,166313610811986 
952	 0,167250578922171 
953	 0,16795089046686 
954	 0,162957036623626 
955	 0,160401551348771 
956	 0,161013732539228 
957	 0,162882990944793 
958	 0,163529189331588 
959	 0,162807049744101 
960	 0,164389022930617 
961	 0,163415963599256 
962	 0,158453042851799 
963	 0,160776380297452 
964	 0,165768315159755 
965	 0,166528855233681 
966	 0,16378045419242 
967	 0,15992521898447 
968	 0,160512530648283 
969	 0,162964803396614 
970	 0,165358983585841 
971	 0,163355175473428 
972	 0,162315158108113 
973	 0,166110950532188 
974	 0,164097103320707 
975	 0,15998245334531 
976	 0,162744999895195 
977	 0,162604409679131 
978	 0,159451530019141 
979	 0,161827004616979 
980	 0,162485509793444 
981	 0,159315968488065 
982	 0,159901721375622 
983	 0,161633438210068 
984	 0,161695923542114 
985	 0,162155326435329 
986	 0,162420775858357 
987	 0,160854863688058 
988	 0,16039309638061 
989	 0,161511715160261 
990	 0,163195031818546 
991	 0,162285482261315 
992	 0,158806601432582 
993	 0,163356767220343 
994	 0,167421002947968 
995	 0,162260454466521 
996	 0,160099022743463 
997	 0,161221802379007 
998	 0,161744537338276 
999	 0,162218381985169 
1000	 0,162353667731686 
1001	 0,160841689867306 
1002	 0,161565693423306 
1003	 0,164969611442197 
1004	 0,161360476771236 
1005	 0,157717098942246 
1006	 0,161079556186481 
1007	 0,16233683136225 
1008	 0,161729601442036 
1009	 0,162407489690144 
1010	 0,164684266809445 
1011	 0,167979491506321 
1012	 0,170406310025738 
1013	 0,171129680875877 
1014	 0,170028240596813 
1015	 0,16866516053052 
1016	 0,168837201115915 
1017	 0,171265568682908 
1018	 0,169171345805406 
1019	 0,16625058106095 
1020	 0,169364582255873 
1021	 0,170936376639282 
1022	 0,170491707344792 
1023	 0,17207593602396 
1024	 0,171510806860468 
1025	 0,168203102627983 
1026	 0,165662121172671 
1027	 0,166029415227254 
1028	 0,169726115884144 
1029	 0,170101879249014 
1030	 0,168527253535993 
1031	 0,167512040659533 
1032	 0,165727699738773 
1033	 0,165925479224973 
1034	 0,173944172869836 
1035	 0,176423053923124 
1036	 0,171640611709989 
1037	 0,167296995635041 
1038	 0,168488982267639 
1039	 0,175800826840522 
1040	 0,178642081186455 
1041	 0,17558819301598 
1042	 0,167469303723448 
1043	 0,165875628196675 
1044	 0,168305327504649 
1045	 0,168886367401809 
1046	 0,168971587232266 
1047	 0,169060309357303 
1048	 0,170295844940896 
1049	 0,167728611336292 
1050	 0,163155251383957 
1051	 0,170910999090394 
1052	 0,170330799798163 
1053	 0,156179891204944 
1054	 0,16311730653367 
1055	 0,174848760839123 
1056	 0,174637820755191 
1057	 0,164705139212517 
1058	 0,155893552180527 
1059	 0,16304223450174 
1060	 0,171967878790582 
1061	 0,175758062071841 
1062	 0,166470311296467 
1063	 0,167474715402198 
1064	 0,178367829022611 
1065	 0,166899566785595 
1066	 0,167659674468056 
1067	 0,18502107396892 
1068	 0,156751967572532 
1069	 0,135965057097041 
1070	 0,163302802170491 
1071	 0,182055778495822 
1072	 0,179855506057121 
1073	 0,152711286495146 
1074	 0,15187608442606 
1075	 0,168065616201805 
