Wavelength	BELON00332.asd
325	-1,23011455706012E-02 
326	 7,97590227342293E-02 
327	 5,09674710903609E-02 
328	-0,106901202330053 
329	-7,19705506723762E-02 
330	 3,70274784115147E-02 
331	 6,28330023014597E-02 
332	-4,70536960960767E-03 
333	-4,90570036024581E-02 
334	 0,165890048491819 
335	 0,207074414148828 
336	 5,98424757529826E-02 
337	 0,101748821348943 
338	 0,150568730823346 
339	 4,18079346846972E-02 
340	 3,75267103561143E-02 
341	 0,113138680479741 
342	 9,30529620233713E-02 
343	 7,11649001351744E-02 
344	 6,54130760923922E-02 
345	 4,27802582634562E-02 
346	 4,54403825004316E-02 
347	 0,108604204127154 
348	 0,10859732513669 
349	 6,96645414702798E-02 
350	 0,110142142624795 
351	 0,134206572571259 
352	 0,114751576428769 
353	 0,119140437730332 
354	 0,119103047013056 
355	 7,65737885029222E-02 
356	 5,46600135015913E-02 
357	 6,30714155527509E-02 
358	 0,102189761970479 
359	 0,122395136120989 
360	 0,106138264491418 
361	 0,103132720672512 
362	 0,112217001557582 
363	 0,123364543298716 
364	 0,13262643813311 
365	 0,135960044088214 
366	 0,124178323783217 
367	 0,114576768054538 
368	 0,115125601443314 
369	 0,096291131750494 
370	 0,077106245819318 
371	 0,100696911820116 
372	 0,12195707409881 
373	 0,124039496262688 
374	 9,63346720585374E-02 
375	 8,50120663071864E-02 
376	 0,120452179381546 
377	 0,13443915040562 
378	 0,131207741235571 
379	 0,144223223149365 
380	 0,137267768459121 
381	 0,110055763631587 
382	 0,124531290556057 
383	 0,137951427493455 
384	 0,111562847418526 
385	 9,82295541079883E-02 
386	 0,102742119006287 
387	 0,108989088610271 
388	 0,118913773704893 
389	 0,130606318835815 
390	 0,138173393926574 
391	 0,136914608818276 
392	 0,12220003253068 
393	 0,121397621483428 
394	 0,131014791952338 
395	 0,120775376009759 
396	 0,117516105854768 
397	 0,132107066550125 
398	 0,136255680477872 
399	 0,133650277604934 
400	 0,134993449914349 
401	 0,126209095415903 
402	 0,110692638661928 
403	 0,110941392752897 
404	 0,11887637413205 
405	 0,127306765146272 
406	 0,124774890330952 
407	 0,116434886963274 
408	 0,115491716084138 
409	 0,117740542246219 
410	 0,121523837017875 
411	 0,124195611454695 
412	 0,125259611984228 
413	 0,124715807232243 
414	 0,125229486485077 
415	 0,126973813164491 
416	 0,129090419718977 
417	 0,130702223315524 
418	 0,130681003856988 
419	 0,124851370345836 
420	 0,118597427274333 
421	 0,118959066134815 
422	 0,12173416903735 
423	 0,124432127143655 
424	 0,12273331116688 
425	 0,121168454423644 
426	 0,122390499646279 
427	 0,123346446598577 
428	 0,124042799956326 
429	 0,125252773299183 
430	 0,125794001403404 
431	 0,125733253939107 
432	 0,126992681248033 
433	 0,128310025039031 
434	 0,1282910740327 
435	 0,122501659365213 
436	 0,11586212692307 
437	 0,122586868722971 
438	 0,128246599824823 
439	 0,127619935243844 
440	 0,128249240961979 
441	 0,127472020005374 
442	 0,121212684282149 
443	 0,121344346269393 
444	 0,127884012821289 
445	 0,131208362527988 
446	 0,130804030293496 
447	 0,127163830318429 
448	 0,128361613960154 
449	 0,13138900030164 
450	 0,128380186295156 
451	 0,126590133109072 
452	 0,128039326343852 
453	 0,131119780715539 
454	 0,13291979859396 
455	 0,131151750526922 
456	 0,131616390586225 
457	 0,133618102926823 
458	 0,131881831704623 
459	 0,13170480360653 
460	 0,134463870543641 
461	 0,133753255536376 
462	 0,132304081932715 
463	 0,134501178467179 
464	 0,135308426802234 
465	 0,133959633071886 
466	 0,131867742217505 
467	 0,132150935791999 
468	 0,136169556851798 
469	 0,13626017918906 
470	 0,134091988297826 
471	 0,135281497903301 
472	 0,136607937684881 
473	 0,13704343001319 
474	 0,136514718766099 
475	 0,13587838580273 
476	 0,136018373044129 
477	 0,137725249227276 
478	 0,139714446861315 
479	 0,137942087536476 
480	 0,137498062736129 
481	 0,139808516191728 
482	 0,136902753377245 
483	 0,132711501401439 
484	 0,134213652172979 
485	 0,135556284343539 
486	 0,135517276195621 
487	 0,136068530215088 
488	 0,134986331090977 
489	 0,131138042853796 
490	 0,131450337276584 
491	 0,134287776594162 
492	 0,133192890727615 
493	 0,133264484609153 
494	 0,13539212068236 
495	 0,135027678481966 
496	 0,13353372795705 
497	 0,132817310007364 
498	 0,132869595463046 
499	 0,133285944477721 
500	 0,132537572146793 
501	 0,132281935670135 
502	 0,133561802358079 
503	 0,136957069278837 
504	 0,139811084832355 
505	 0,13743043060625 
506	 0,135890803747616 
507	 0,136829128493093 
508	 0,138491021156522 
509	 0,139882422878254 
510	 0,140224675429423 
511	 0,140754251878901 
512	 0,142047769725335 
513	 0,145220445575894 
514	 0,147083610441766 
515	 0,146487297061505 
516	 0,145798185919062 
517	 0,146076595094541 
518	 0,148443211836527 
519	 0,14880897132117 
520	 0,147014165117076 
521	 0,146618144281941 
522	 0,14680513176825 
523	 0,146968203394896 
524	 0,147544040960388 
525	 0,148224477543848 
526	 0,14823943920488 
527	 0,148413665565191 
528	 0,148722626834891 
529	 0,147568547474843 
530	 0,145873448292949 
531	 0,144815199756086 
532	 0,14453380329899 
533	 0,145115124301073 
534	 0,146850966713071 
535	 0,147763987930673 
536	 0,146830065746763 
537	 0,146149781310206 
538	 0,146174873764146 
539	 0,147280688776644 
540	 0,147217113614192 
541	 0,145857066836259 
542	 0,146273679956951 
543	 0,147087654783321 
544	 0,14685386993586 
545	 0,14692142434234 
546	 0,147219117972273 
547	 0,146693582567126 
548	 0,146752008537448 
549	 0,147879122471309 
550	 0,148274138535515 
551	 0,148284530155807 
552	 0,14880674089147 
553	 0,148774769022919 
554	 0,148043990873023 
555	 0,147251600212435 
556	 0,146582311146622 
557	 0,146176603930678 
558	 0,145986991249276 
559	 0,145882040260573 
560	 0,145578612896691 
561	 0,145284255257551 
562	 0,14505115503104 
563	 0,144776024368816 
564	 0,144147264104168 
565	 0,142762519950457 
566	 0,142765269122981 
567	 0,144195525835883 
568	 0,145203880670017 
569	 0,145629879246413 
570	 0,145465765682022 
571	 0,145901309679657 
572	 0,146956350268481 
573	 0,148255963456304 
574	 0,149322541714389 
575	 0,150188395924211 
576	 0,152251672254252 
577	 0,15428867309478 
578	 0,154871130352468 
579	 0,155804615240983 
580	 0,157282917182332 
581	 0,158472943756212 
582	 0,15990561923709 
583	 0,161758326851327 
584	 0,163058132365327 
585	 0,164062942965262 
586	 0,165455797784293 
587	 0,166696569699635 
588	 0,167727468666929 
589	 0,169006240766086 
590	 0,170243423313083 
591	 0,171147677893168 
592	 0,171720876134643 
593	 0,172067756385592 
594	 0,172497515988334 
595	 0,172621766933344 
596	 0,172399805890018 
597	 0,172800505350194 
598	 0,173352172529219 
599	 0,173220766931002 
600	 0,172687998468445 
601	 0,171975780792496 
602	 0,171598797476154 
603	 0,171315431219138 
604	 0,170905126795264 
605	 0,170222638178406 
606	 0,169381019278704 
607	 0,16870837114615 
608	 0,16805080493506 
609	 0,167369369136499 
610	 0,166754756549384 
611	 0,16599959300712 
612	 0,164852280851144 
613	 0,164088078831371 
614	 0,163767558761755 
615	 0,163384043395313 
616	 0,163031182937245 
617	 0,162747006390739 
618	 0,162333824648805 
619	 0,162025231489734 
620	 0,162395478775732 
621	 0,162304726303333 
622	 0,161608368274354 
623	 0,161559907716024 
624	 0,161879555433811 
625	 0,162183381790042 
626	 0,162076970156844 
627	 0,161724097655647 
628	 0,161731561820707 
629	 0,162548360998656 
630	 0,164150765766117 
631	 0,164474137658705 
632	 0,164291832653581 
633	 0,165260758109832 
634	 0,166232442208425 
635	 0,166947167490435 
636	 0,167693085666291 
637	 0,16849590177803 
638	 0,16940646362925 
639	 0,170858809583939 
640	 0,172523150612896 
641	 0,173491775807058 
642	 0,174052097771076 
643	 0,174348749778793 
644	 0,174581219858564 
645	 0,175016749555204 
646	 0,175957759206594 
647	 0,176233434813554 
648	 0,175804080266905 
649	 0,175745887699211 
650	 0,175391401158519 
651	 0,174329527513687 
652	 0,173139590038978 
653	 0,171804936719027 
654	 0,170010490228091 
655	 0,168747319645686 
656	 0,168105106320267 
657	 0,166839904007267 
658	 0,164829841240799 
659	 0,162095746307972 
660	 0,160182498828156 
661	 0,158887157480619 
662	 0,156554267539317 
663	 0,154039750364349 
664	 0,151837607068136 
665	 0,150195117971982 
666	 0,148839956577274 
667	 0,147264974488205 
668	 0,146231395163959 
669	 0,145862969363974 
670	 0,145800682649375 
671	 0,145739032827249 
672	 0,145407842924255 
673	 0,1445524080796 
674	 0,14364867932463 
675	 0,143975293898185 
676	 0,144078001638683 
677	 0,143534135781944 
678	 0,143178164177915 
679	 0,143285169117132 
680	 0,14407836083061 
681	 0,144713156877668 
682	 0,145205173132767 
683	 0,146248901739999 
684	 0,147733508712534 
685	 0,149597852982945 
686	 0,151683116784737 
687	 0,154365711025717 
688	 0,15836566412001 
689	 0,162423688679546 
690	 0,166423106098692 
691	 0,171513865099001 
692	 0,177750550066931 
693	 0,185115905652801 
694	 0,19315692981167 
695	 0,202070518750415 
696	 0,212604473222157 
697	 0,224043188583065 
698	 0,23600892892344 
699	 0,24828232094409 
700	 0,261013009164697 
701	 0,274439701071123 
702	 0,288176795054772 
703	 0,301964469853 
704	 0,315607007536056 
705	 0,328951959095933 
706	 0,341905668947171 
707	 0,354776871550119 
708	 0,367240930709511 
709	 0,378646933978006 
710	 0,389897317431302 
711	 0,401102832925836 
712	 0,411556935542449 
713	 0,421200215606182 
714	 0,43003248344169 
715	 0,438656764923583 
716	 0,446950442633394 
717	 0,454267897951966 
718	 0,461106812957619 
719	 0,467657085445442 
720	 0,473831426061733 
721	 0,479487424207931 
722	 0,484425263077246 
723	 0,489200572013968 
724	 0,493788796218677 
725	 0,497489444433947 
726	 0,500875771415476 
727	 0,504298609991807 
728	 0,507388782130874 
729	 0,51016585927867 
730	 0,512750398616118 
731	 0,515048508344064 
732	 0,517039083814753 
733	 0,51867348565693 
734	 0,520368463572716 
735	 0,522419899338791 
736	 0,523807178178811 
737	 0,524754842614673 
738	 0,526329378065856 
739	 0,527577837561139 
740	 0,5282615850246 
741	 0,529120888521333 
742	 0,530061901392277 
743	 0,530909771694068 
744	 0,531879775250454 
745	 0,532803258102039 
746	 0,533026550320323 
747	 0,533247574771434 
748	 0,533850998291055 
749	 0,534645321668159 
750	 0,535356876680665 
751	 0,535610895811751 
752	 0,535782240224024 
753	 0,535944111340471 
754	 0,535894138988957 
755	 0,535968775250503 
756	 0,536398868447842 
757	 0,536901760207861 
758	 0,537342077102578 
759	 0,537534564396447 
760	 0,537869775398723 
761	 0,538361067025416 
762	 0,538424252066379 
763	 0,538393418950665 
764	 0,538599340036951 
765	 0,538739596499273 
766	 0,538817773123657 
767	 0,538975184500775 
768	 0,539179020905554 
769	 0,5394056027389 
770	 0,539596536048923 
771	 0,539727047365083 
772	 0,539780433034193 
773	 0,539904877296227 
774	 0,540096073872189 
775	 0,540229716092113 
776	 0,540334501750685 
777	 0,540401639462073 
778	 0,540266198932312 
779	 0,540153947452189 
780	 0,540409219591948 
781	 0,540692171139302 
782	 0,540872318903895 
783	 0,540844534615533 
784	 0,540862120165264 
785	 0,541071388816701 
786	 0,541197092023292 
787	 0,541173489463321 
788	 0,540937209801336 
789	 0,540962281134111 
790	 0,541281285406448 
791	 0,541362909394027 
792	 0,541341117530568 
793	 0,541326097744844 
794	 0,541132548166812 
795	 0,541026986657363 
796	 0,541650087692839 
797	 0,542122101340771 
798	 0,542148213439359 
799	 0,541940562602415 
800	 0,54178023469338 
801	 0,541906461401591 
802	 0,541973610250834 
803	 0,541937264972421 
804	 0,541823411296438 
805	 0,541918684215732 
806	 0,542220259917399 
807	 0,542028413013163 
808	 0,54187465166451 
809	 0,542334554349223 
810	 0,542362397865528 
811	 0,541993745897545 
812	 0,541907965296559 
813	 0,542089805346163 
814	 0,542428357013981 
815	 0,542122691411489 
816	 0,541917944808779 
817	 0,542744616819059 
818	 0,543637847079402 
819	 0,544129659486288 
820	 0,543546524175858 
821	 0,543102105289014 
822	 0,54335085425233 
823	 0,54362558253673 
824	 0,543697734329002 
825	 0,543373488391938 
826	 0,543334241445814 
827	 0,543550694478321 
828	 0,543308891405122 
829	 0,543284351905199 
830	 0,543746725130903 
831	 0,544008615986829 
832	 0,544074449882758 
833	 0,544062316007801 
834	 0,544026077582464 
835	 0,544012679512382 
836	 0,544117498944687 
837	 0,544070303020538 
838	 0,543785262155564 
839	 0,543763201327996 
840	 0,543887862778534 
841	 0,543913725111021 
842	 0,543854379068507 
843	 0,543785940704887 
844	 0,543945453360611 
845	 0,544248008727248 
846	 0,544534156851507 
847	 0,544099425186789 
848	 0,543464530323858 
849	 0,543459638848093 
850	 0,543456895662873 
851	 0,543396039320567 
852	 0,543590654728504 
853	 0,543807733531206 
854	 0,543907323864018 
855	 0,543901827675195 
856	 0,543872114778712 
857	 0,543927025573926 
858	 0,54371063451796 
859	 0,543448991256492 
860	 0,544212907310882 
861	 0,544533931395646 
862	 0,543872880562525 
863	 0,544110603329882 
864	 0,544809931887945 
865	 0,545143332006 
866	 0,545294888038508 
867	 0,545197269291841 
868	 0,544460665031422 
869	 0,544367638146328 
870	 0,545300531472517 
871	 0,545406234445398 
872	 0,545114463041439 
873	 0,545153672624132 
874	 0,54535627720957 
875	 0,545528472305838 
876	 0,545157994224696 
877	 0,54492175955884 
878	 0,545058373425724 
879	 0,545154619961496 
880	 0,545006454836963 
881	 0,544465395556491 
882	 0,54409393465965 
883	 0,544106247723597 
884	 0,544784780453275 
885	 0,545120456726879 
886	 0,544814356279539 
887	 0,544536276408762 
888	 0,544536409332655 
889	 0,54495574017042 
890	 0,545050295775951 
891	 0,544747983855924 
892	 0,544135157547208 
893	 0,544283121341692 
894	 0,545154977653207 
895	 0,544821545501654 
896	 0,544364159046021 
897	 0,54462121082415 
898	 0,544627247383967 
899	 0,544490652816898 
900	 0,544665815916498 
901	 0,544574530161402 
902	 0,544344108600624 
903	 0,545199280719187 
904	 0,545409609672146 
905	 0,544117118816594 
906	 0,54361400175608 
907	 0,54351964214632 
908	 0,542884893418024 
909	 0,543071804888113 
910	 0,543914892486243 
911	 0,543893802182777 
912	 0,54379564121027 
913	 0,543895946754191 
914	 0,543569322213786 
915	 0,543213865033191 
916	 0,543314436481573 
917	 0,543779745019325 
918	 0,544145513665658 
919	 0,543266978899083 
920	 0,542723983259028 
921	 0,542879294762155 
922	 0,542508058909831 
923	 0,542145768869841 
924	 0,542198902830075 
925	 0,541699707652552 
926	 0,540885707466534 
927	 0,54048120659476 
928	 0,539566732343901 
929	 0,538365517516347 
930	 0,538429708772687 
931	 0,539414657242403 
932	 0,540569045392364 
933	 0,538547900442764 
934	 0,535647963871877 
935	 0,535255682304895 
936	 0,535652585397999 
937	 0,536095714690267 
938	 0,53558448769355 
939	 0,535058215393764 
940	 0,534571962652067 
941	 0,532443013116747 
942	 0,530649494665242 
943	 0,530875281192415 
944	 0,53111720064326 
945	 0,530388510161587 
946	 0,52748817061368 
947	 0,526185375141438 
948	 0,526799863297292 
949	 0,526280821776952 
950	 0,524317935691185 
951	 0,521151980334861 
952	 0,519549353705974 
953	 0,519011489140738 
954	 0,518482900164109 
955	 0,516745807322926 
956	 0,514407282195799 
957	 0,51384723379192 
958	 0,512764682352692 
959	 0,510893319722374 
960	 0,510802442415588 
961	 0,510668268530362 
962	 0,509223173736561 
963	 0,508685365580221 
964	 0,50856360502812 
965	 0,507649606593258 
966	 0,507540564757112 
967	 0,507995693725162 
968	 0,506975012228405 
969	 0,506432882507497 
970	 0,506960437769262 
971	 0,507037593877524 
972	 0,506550895613179 
973	 0,505593244614934 
974	 0,505019942509809 
975	 0,505679995795082 
976	 0,508822575474527 
977	 0,508949579939684 
978	 0,505629230349254 
979	 0,502798637713625 
980	 0,502306205502054 
981	 0,504937066570933 
982	 0,508913275688225 
983	 0,51101115102829 
984	 0,508579722983119 
985	 0,507102552043111 
986	 0,50748068294553 
987	 0,50932621241982 
988	 0,510466184464697 
989	 0,510469622036802 
990	 0,510616200590933 
991	 0,510892644793312 
992	 0,511381689723323 
993	 0,512520469061059 
994	 0,513181517720889 
995	 0,512307544157417 
996	 0,51162607277938 
997	 0,51179762079548 
998	 0,513403728922567 
999	 0,514569931110552 
1000	 0,514617707050961 
1001	 0,513027334370618 
1002	 0,513990623080966 
1003	 0,518597691427484 
1004	 0,520081013914791 
1005	 0,519143882956517 
1006	 0,517347958453458 
1007	 0,517980899374316 
1008	 0,519763814032373 
1009	 0,519258504845478 
1010	 0,520255283188879 
1011	 0,522557443862271 
1012	 0,522189976268975 
1013	 0,522083657757239 
1014	 0,523145130366336 
1015	 0,523052742797826 
1016	 0,522594219633334 
1017	 0,522759444922238 
1018	 0,525408543137549 
1019	 0,527790050739325 
1020	 0,5256648448586 
1021	 0,525637228071381 
1022	 0,52771893307225 
1023	 0,527182287503719 
1024	 0,528433344852259 
1025	 0,531030107251929 
1026	 0,525996437818512 
1027	 0,522365820004836 
1028	 0,525419142898033 
1029	 0,526661675555748 
1030	 0,528372029148434 
1031	 0,533469663751347 
1032	 0,530040493334856 
1033	 0,5232427670199 
1034	 0,527985954566683 
1035	 0,52897842115976 
1036	 0,525663509691178 
1037	 0,53258743981656 
1038	 0,53464228650033 
1039	 0,527143175882128 
1040	 0,523560824143245 
1041	 0,525245982229504 
1042	 0,531611083874386 
1043	 0,533906509325955 
1044	 0,533895991364138 
1045	 0,535796019044805 
1046	 0,537532798348732 
1047	 0,53600595653372 
1048	 0,524347808260781 
1049	 0,526315422726101 
1050	 0,541533400940374 
1051	 0,538178892937855 
1052	 0,53342690386085 
1053	 0,534852349138021 
1054	 0,533473410736031 
1055	 0,52956896626938 
1056	 0,524894629401776 
1057	 0,529513729043061 
1058	 0,533626261448241 
1059	 0,5227807627466 
1060	 0,520894829808565 
1061	 0,525793371162709 
1062	 0,519686466168271 
1063	 0,523950229244295 
1064	 0,536043632096887 
1065	 0,522126547368809 
1066	 0,514483911731377 
1067	 0,524197927673239 
1068	 0,530926379950563 
1069	 0,529036918595799 
1070	 0,518529752163116 
1071	 0,527449745420717 
1072	 0,538581940521382 
1073	 0,52859739693924 
1074	 0,519039141478018 
1075	 0,512594909692793 
