Wavelength	BELON00284.asd
325	-3,11438797221322E-02 
326	-2,44455575034087E-02 
327	 1,13246911852634E-02 
328	 1,16674796981262E-02 
329	 2,64382841259109E-02 
330	 3,68138925722558E-02 
331	 2,36394016778014E-02 
332	-4,34056222306519E-02 
333	-7,97715322028218E-02 
334	 8,29384147295276E-02 
335	 0,152006304012608 
336	 9,97554375621867E-02 
337	 0,113863214352277 
338	 0,120114932786357 
339	 4,60658591037642E-02 
340	 2,13968712257105E-02 
341	 4,40686627488328E-02 
342	 1,89944885249635E-02 
343	 4,45974455828291E-02 
344	 0,114358431719296 
345	 5,73337994990629E-02 
346	 4,29053617588593E-03 
347	 7,93348465818447E-02 
348	 9,19367423262239E-02 
349	 5,09925728635426E-02 
350	 6,40443950850578E-02 
351	 8,03698922910892E-02 
352	 7,94425178345523E-02 
353	 5,31858661633814E-02 
354	 2,69220827568941E-02 
355	 3,50298277526733E-02 
356	 0,032625273692971 
357	 2,02984273928698E-02 
358	 2,52123760473619E-02 
359	 3,20332738797781E-02 
360	 3,45400675205372E-02 
361	 4,08209428605042E-02 
362	 4,53314547557957E-02 
363	 3,95167225447706E-02 
364	 4,99606021463193E-02 
365	 6,91513571836635E-02 
366	 4,74484102066831E-02 
367	 2,19765165728906E-02 
368	 1,69498230158067E-02 
369	 2,82702481851792E-02 
370	 4,87322184177003E-02 
371	 6,63070669637012E-02 
372	 6,73604932855886E-02 
373	 5,21250811932253E-02 
374	 3,71294264101911E-02 
375	 3,70469758496204E-02 
376	 5,89072932260036E-02 
377	 0,062057997183835 
378	 5,32153802036367E-02 
379	 6,15357784872958E-02 
380	 5,77643641546718E-02 
381	 4,00983625377669E-02 
382	 5,27780255853091E-02 
383	 5,51897525081341E-02 
384	 0,012741366946056 
385	 7,73221847267972E-03 
386	 3,36096482910534E-02 
387	 2,97737639433036E-02 
388	 3,31623917687153E-02 
389	 5,02156060930448E-02 
390	 4,01760631404082E-02 
391	 2,67283869069515E-02 
392	 4,06426816303802E-02 
393	 3,86649549669336E-02 
394	 2,35762270429616E-02 
395	 3,04464782008334E-02 
396	 0,038248021490942 
397	 3,70573542622672E-02 
398	 0,041000085779846 
399	 4,52476965173028E-02 
400	 4,05936246442232E-02 
401	 3,69061783842206E-02 
402	 3,65679661446435E-02 
403	 3,81944039581949E-02 
404	 3,77435449571753E-02 
405	 3,35697321552631E-02 
406	 3,78648170251032E-02 
407	 4,56158339657272E-02 
408	 4,42697702769757E-02 
409	 3,82274718511687E-02 
410	 3,10158441740592E-02 
411	 3,25092599995677E-02 
412	 3,80137990516891E-02 
413	 4,23534918518235E-02 
414	 3,92755136630326E-02 
415	 3,40932664576933E-02 
416	 4,37771539910832E-02 
417	 5,18099614643176E-02 
418	 5,14443441695899E-02 
419	 4,50677549880839E-02 
420	 4,01944129675834E-02 
421	 4,58176427604233E-02 
422	 4,52692321956714E-02 
423	 3,91952709859974E-02 
424	 4,21562130412973E-02 
425	 4,73929278435864E-02 
426	 5,00908636862825E-02 
427	 4,84519425602505E-02 
428	 4,45697579034801E-02 
429	 4,20723033815035E-02 
430	 4,44233705458375E-02 
431	 5,03488519639683E-02 
432	 4,97434678727466E-02 
433	 4,74516303940137E-02 
434	 0,047814581553648 
435	 4,43456504989584E-02 
436	 4,02206867191912E-02 
437	 0,046693448657922 
438	 4,94091427401331E-02 
439	 4,49211413033778E-02 
440	 0,050386538709558 
441	 5,73003131868032E-02 
442	 5,33436136600474E-02 
443	 5,12224815749627E-02 
444	 5,26166981090399E-02 
445	 5,24782987293049E-02 
446	 5,13580332618978E-02 
447	 4,98767483368984E-02 
448	 5,08284155522012E-02 
449	 5,25527214242494E-02 
450	 5,12064455431448E-02 
451	 5,08856818402339E-02 
452	 5,23711194992219E-02 
453	 5,31575019316932E-02 
454	 5,32282207919699E-02 
455	 5,27370696803491E-02 
456	 5,26489442383108E-02 
457	 5,29198184532793E-02 
458	 5,24629857005904E-02 
459	 5,40798874724861E-02 
460	 5,78362386743377E-02 
461	 0,056608195677036 
462	 5,36472165298977E-02 
463	 5,41218384542731E-02 
464	 5,50628065702353E-02 
465	 0,055442514804371 
466	 5,39143699813479E-02 
467	 0,053791320379553 
468	 5,66985812509702E-02 
469	 5,60075689776193E-02 
470	 5,38700787048523E-02 
471	 5,66641689521967E-02 
472	 0,058082656854662 
473	 5,66953817085553E-02 
474	 0,055596570278018 
475	 5,56385663028204E-02 
476	 5,74427948985374E-02 
477	 6,03796944082057E-02 
478	 6,27600316938023E-02 
479	 6,07206085554724E-02 
480	 5,87162011718367E-02 
481	 5,85906149505609E-02 
482	 5,65782398638888E-02 
483	 5,52232275890251E-02 
484	 5,88735608035445E-02 
485	 6,00289362441759E-02 
486	 5,79608833689595E-02 
487	 5,81376836151829E-02 
488	 5,85571927491279E-02 
489	 5,78906050011382E-02 
490	 5,97770851336491E-02 
491	 6,24443127011732E-02 
492	 6,02891790452864E-02 
493	 6,04831795543361E-02 
494	 6,43225765596471E-02 
495	 6,47446686675111E-02 
496	 6,27879777499668E-02 
497	 0,060287195242327 
498	 0,060313430444583 
499	 6,23576525506421E-02 
500	 6,22401814826617E-02 
501	 6,22706090930484E-02 
502	 6,36277285692718E-02 
503	 6,50723004637759E-02 
504	 6,57631521050477E-02 
505	 6,44327557892494E-02 
506	 6,43667868601896E-02 
507	 6,57639363557506E-02 
508	 6,46777674713841E-02 
509	 6,35496025489645E-02 
510	 6,46028193882016E-02 
511	 0,064814130754511 
512	 6,46561925825888E-02 
513	 6,70345973345146E-02 
514	 6,85786222763348E-02 
515	 6,81460723105463E-02 
516	 0,068627457551892 
517	 6,93368520525233E-02 
518	 0,06891721579637 
519	 6,86936706850847E-02 
520	 0,069135922517151 
521	 0,07081579268165 
522	 7,15025532137041E-02 
523	 6,98839684340431E-02 
524	 7,01146277277356E-02 
525	 7,17556246219551E-02 
526	 7,23664024906319E-02 
527	 7,26888723015247E-02 
528	 7,27671929799693E-02 
529	 7,18148728751207E-02 
530	 7,10501028244171E-02 
531	 7,18664963151547E-02 
532	 7,23782685111473E-02 
533	 7,24678601111261E-02 
534	 7,31500537414556E-02 
535	 7,42386214078134E-02 
536	 7,54731239222138E-02 
537	 7,57535930153796E-02 
538	 7,54412848471192E-02 
539	 0,075462766164344 
540	 7,54808963534057E-02 
541	 7,55733430723822E-02 
542	 7,64470665970623E-02 
543	 7,71509571343286E-02 
544	 0,076806663014242 
545	 7,72115424415262E-02 
546	 0,078137097916253 
547	 7,78864988392339E-02 
548	 7,76321772416559E-02 
549	 7,79850601789631E-02 
550	 7,89424977709014E-02 
551	 7,99656947860787E-02 
552	 8,02570603663892E-02 
553	 8,00969104442524E-02 
554	 7,98332617556001E-02 
555	 8,04959366397097E-02 
556	 8,11629929347738E-02 
557	 8,11172816390308E-02 
558	 8,16904976896016E-02 
559	 8,25156182039413E-02 
560	 8,19716764411551E-02 
561	 8,19897821257883E-02 
562	 8,30938119514533E-02 
563	 8,33738168950664E-02 
564	 8,32159896005452E-02 
565	 8,33454672136229E-02 
566	 8,42076714107869E-02 
567	 8,53780849366606E-02 
568	 8,49212789780521E-02 
569	 8,43916318085803E-02 
570	 8,48505554751249E-02 
571	 8,53692763940068E-02 
572	 8,55861722905951E-02 
573	 0,084913934986274 
574	 0,08497528359017 
575	 8,61238592144066E-02 
576	 8,67495048521127E-02 
577	 8,72316750350328E-02 
578	 8,81031218545569E-02 
579	 0,088160445171044 
580	 8,75106430755518E-02 
581	 8,72354802313918E-02 
582	 8,74963607446526E-02 
583	 8,83031780123747E-02 
584	 8,87674676255301E-02 
585	 8,89735464835527E-02 
586	 8,93157368233431E-02 
587	 8,94693533965675E-02 
588	 8,95599177471791E-02 
589	 9,05238514739271E-02 
590	 9,15136443837686E-02 
591	 9,17105541816375E-02 
592	 9,14693576317896E-02 
593	 9,11707246326452E-02 
594	 9,16670793925927E-02 
595	 9,19397531311347E-02 
596	 9,16546668796852E-02 
597	 9,21202396059842E-02 
598	 9,25265086741611E-02 
599	 9,14430101267165E-02 
600	 9,11648714929359E-02 
601	 9,20680499361158E-02 
602	 9,29490574168258E-02 
603	 9,34103662562183E-02 
604	 9,32014449646208E-02 
605	 9,32065323503842E-02 
606	 9,32944515283769E-02 
607	 9,26503909590258E-02 
608	 9,23181041016458E-02 
609	 0,092648828653388 
610	 9,31355768715829E-02 
611	 9,34482863346001E-02 
612	 9,32502121261082E-02 
613	 9,31045736806559E-02 
614	 9,31004836460648E-02 
615	 0,092965807984755 
616	 9,30087422353977E-02 
617	 9,33647781267316E-02 
618	 0,093384650023648 
619	 0,09321887078335 
620	 9,33085992016819E-02 
621	 9,38265879372562E-02 
622	 9,45649860913056E-02 
623	 9,42088171183899E-02 
624	 9,37625717273868E-02 
625	 9,42958879672088E-02 
626	 9,43763204322241E-02 
627	 0,094103998956124 
628	 9,46934047357153E-02 
629	 9,52173345353239E-02 
630	 9,51907346368393E-02 
631	 9,47645898426409E-02 
632	 9,45169303649329E-02 
633	 9,53442668888774E-02 
634	 9,59997117310555E-02 
635	 9,61213547453391E-02 
636	 9,59471999002388E-02 
637	 9,56874582152385E-02 
638	 9,55890050814879E-02 
639	 9,65464010174574E-02 
640	 9,79118193422325E-02 
641	 9,76864417961049E-02 
642	 9,73537677711211E-02 
643	 9,74902364813598E-02 
644	 9,77570370064305E-02 
645	 9,79620321915746E-02 
646	 9,78934491514925E-02 
647	 9,76649657621128E-02 
648	 9,74838709104803E-02 
649	 9,79297486334196E-02 
650	 9,83715608436352E-02 
651	 9,83733706192022E-02 
652	 9,82307506540587E-02 
653	 9,78433344108261E-02 
654	 0,096809912340168 
655	 9,65117276209668E-02 
656	 9,71548237938071E-02 
657	 9,71796326553952E-02 
658	 9,69294413602051E-02 
659	 0,096850793637306 
660	 9,66021391016822E-02 
661	 9,62154755609182E-02 
662	 9,59467573111377E-02 
663	 9,57046254447832E-02 
664	 9,54713010505769E-02 
665	 9,54527489118532E-02 
666	 9,53882258921102E-02 
667	 9,48043774707461E-02 
668	 9,49573066265177E-02 
669	 9,58237838896905E-02 
670	 9,58113002150758E-02 
671	 9,57242426211845E-02 
672	 9,61742858332765E-02 
673	 9,60977208020481E-02 
674	 0,095685400986627 
675	 9,58595166792853E-02 
676	 9,57808526857528E-02 
677	 9,53448907364901E-02 
678	 9,56513635179087E-02 
679	 9,63566737743099E-02 
680	 9,69430985207152E-02 
681	 0,097451368551099 
682	 0,09783165196965 
683	 9,79142296809892E-02 
684	 9,82437317868597E-02 
685	 9,90607083152452E-02 
686	 9,94169862216928E-02 
687	 9,96514367230722E-02 
688	 0,100608545340167 
689	 0,101382056758317 
690	 0,101827822822016 
691	 0,102609257262084 
692	 0,10340719782956 
693	 0,103942612068744 
694	 0,104727028469943 
695	 0,105773851515473 
696	 0,106884038767023 
697	 0,107941258008306 
698	 0,108884458367363 
699	 0,109766946228145 
700	 0,110662916662211 
701	 0,111655516221021 
702	 0,11281414308669 
703	 0,114124190363554 
704	 0,115617544282208 
705	 0,116553069478134 
706	 0,116612861170822 
707	 0,117464124699366 
708	 0,118673322517655 
709	 0,118936281896833 
710	 0,119506777566954 
711	 0,120597174112162 
712	 0,121370869994347 
713	 0,121888104064792 
714	 0,122264077248335 
715	 0,122909692300914 
716	 0,123681962048488 
717	 0,123937475344497 
718	 0,124403058479424 
719	 0,125236705474319 
720	 0,125417918521367 
721	 0,125485743992477 
722	 0,126236227469756 
723	 0,126606760158665 
724	 0,126585043842723 
725	 0,126967672055318 
726	 0,127623831361498 
727	 0,128382752558007 
728	 0,128553527306837 
729	 0,128376183325941 
730	 0,12844826955323 
731	 0,128571496124882 
732	 0,128753383674829 
733	 0,129165980638259 
734	 0,129718100816487 
735	 0,1302695462973 
736	 0,130105824908226 
737	 0,129627973338325 
738	 0,130141669669296 
739	 0,130748951580945 
740	 0,131093974924057 
741	 0,131212281426414 
742	 0,131209481334479 
743	 0,131216084422732 
744	 0,131401344714952 
745	 0,131733984884522 
746	 0,131950035579196 
747	 0,132300048924665 
748	 0,132819299187548 
749	 0,132831454477273 
750	 0,132524285062189 
751	 0,132288425483805 
752	 0,132517286764536 
753	 0,133107849173602 
754	 0,133163575189317 
755	 0,133207696858601 
756	 0,133610625687778 
757	 0,134023209641128 
758	 0,134340311504631 
759	 0,134467542087244 
760	 0,134495516849847 
761	 0,134566453465078 
762	 0,135215267948849 
763	 0,135589012375471 
764	 0,134945231672848 
765	 0,134759976904107 
766	 0,135157290433461 
767	 0,135712768910121 
768	 0,13606791079704 
769	 0,136072209920976 
770	 0,135969228579402 
771	 0,136043803732727 
772	 0,13658050409035 
773	 0,136763976253726 
774	 0,136659595712882 
775	 0,137114646323178 
776	 0,137457446123587 
777	 0,137359468388418 
778	 0,137095448900267 
779	 0,13698913070946 
780	 0,137449905813796 
781	 0,137896131164738 
782	 0,138146811209036 
783	 0,138248657182491 
784	 0,138156894409215 
785	 0,137906246480132 
786	 0,137968699568026 
787	 0,138264451228024 
788	 0,138518138223377 
789	 0,138845134419204 
790	 0,139177873479764 
791	 0,139181795065606 
792	 0,139104999490744 
793	 0,139160639497646 
794	 0,139281203178108 
795	 0,139486454728236 
796	 0,139855696459006 
797	 0,140106284267659 
798	 0,140119805518526 
799	 0,13984417624574 
800	 0,139758435934561 
801	 0,140258922006435 
802	 0,140390821943184 
803	 0,140256122867001 
804	 0,14060672823554 
805	 0,140923441933011 
806	 0,141039935976792 
807	 0,141118464505922 
808	 0,141262709290938 
809	 0,141536512453265 
810	 0,141064085354236 
811	 0,140268998772615 
812	 0,140841682947752 
813	 0,141335099215348 
814	 0,141232391197236 
815	 0,141370187792562 
816	 0,141718600770695 
817	 0,142153645615436 
818	 0,142479100190289 
819	 0,142585870004681 
820	 0,142314100379686 
821	 0,142119918906288 
822	 0,142217607133219 
823	 0,142350122389691 
824	 0,142423721102842 
825	 0,142357618526443 
826	 0,142532985022052 
827	 0,142888763071958 
828	 0,142932283860336 
829	 0,142960160589377 
830	 0,143103180586874 
831	 0,14320916966374 
832	 0,143097053537487 
833	 0,142553235981469 
834	 0,142854139477284 
835	 0,143742393916868 
836	 0,143228304981819 
837	 0,142936377980409 
838	 0,143574074087981 
839	 0,143444754394971 
840	 0,143132848543825 
841	 0,143704460851008 
842	 0,143945487749624 
843	 0,14380604538137 
844	 0,144213448317948 
845	 0,144440514272137 
846	 0,144147444350255 
847	 0,14394757387153 
848	 0,143820860201264 
849	 0,143634357246655 
850	 0,143706065556256 
851	 0,143922749879169 
852	 0,143685902365801 
853	 0,143293459889521 
854	 0,143003293338452 
855	 0,143327407906848 
856	 0,143880567927517 
857	 0,144063116212099 
858	 0,143843600955748 
859	 0,143547227928706 
860	 0,144347248135309 
861	 0,144637130993331 
862	 0,143830103025105 
863	 0,144066585816535 
864	 0,144502215680096 
865	 0,143787779406647 
866	 0,144232676965489 
867	 0,145455003354494 
868	 0,14465296614115 
869	 0,143639846649243 
870	 0,143358575557458 
871	 0,143802310614529 
872	 0,14445070607683 
873	 0,144674883846739 
874	 0,144772613225117 
875	 0,144811121545518 
876	 0,144829628354153 
877	 0,144769775424545 
878	 0,144671656120782 
879	 0,144892451990344 
880	 0,145067671677841 
881	 0,144791076655734 
882	 0,144364808597469 
883	 0,144044788592416 
884	 0,14426820334021 
885	 0,144749745284584 
886	 0,145321982517238 
887	 0,145849118153562 
888	 0,14595507018891 
889	 0,145399141682272 
890	 0,145495862078892 
891	 0,146015611725199 
892	 0,145902813081436 
893	 0,145737722034267 
894	 0,145690435991744 
895	 0,145711532815756 
896	 0,14566857965799 
897	 0,145494021167876 
898	 0,145603232767258 
899	 0,145780142884904 
900	 0,145554163033565 
901	 0,144823984043994 
902	 0,14412144593278 
903	 0,145537402426607 
904	 0,146608286424433 
905	 0,145949247228236 
906	 0,145803235349038 
907	 0,145947868512748 
908	 0,145685702636578 
909	 0,145690563756491 
910	 0,145961351770389 
911	 0,14599599891841 
912	 0,145968553959472 
913	 0,145962571819377 
914	 0,146001437819243 
915	 0,14604080953396 
916	 0,146033567432963 
917	 0,14606023367446 
918	 0,146246357866242 
919	 0,146932539875296 
920	 0,14717648453697 
921	 0,146812434593559 
922	 0,146822374945681 
923	 0,146990650681081 
924	 0,147102388498702 
925	 0,147224795201543 
926	 0,147405770790539 
927	 0,147770207120473 
928	 0,147152529806088 
929	 0,145888745651185 
930	 0,146362426982513 
931	 0,147289844506577 
932	 0,147772738126931 
933	 0,147334432011288 
934	 0,14677420070818 
935	 0,147173264619708 
936	 0,147794794985125 
937	 0,148251613005158 
938	 0,14789335236644 
939	 0,147863015071279 
940	 0,148396451415409 
941	 0,148264369404652 
942	 0,147812685669986 
943	 0,147430400878042 
944	 0,147185358852319 
945	 0,147011128363802 
946	 0,146699620198872 
947	 0,147083882934688 
948	 0,148045890058725 
949	 0,148407173068091 
950	 0,14795106084098 
951	 0,146911187454949 
952	 0,14757736703295 
953	 0,148859963802781 
954	 0,149154975494134 
955	 0,149287175292273 
956	 0,149045804119755 
957	 0,14729502554037 
958	 0,147136424434195 
959	 0,148798923834106 
960	 0,147768881105387 
961	 0,146793545202063 
962	 0,147896826949516 
963	 0,148876377031001 
964	 0,148728428901136 
965	 0,146478212471394 
966	 0,146726631146024 
967	 0,149033632548674 
968	 0,147975545514644 
969	 0,147974162048907 
970	 0,150094043489861 
971	 0,149570886692084 
972	 0,148421684878368 
973	 0,148639083838264 
974	 0,147928267071283 
975	 0,147638487324373 
976	 0,15079287969045 
977	 0,151692527803519 
978	 0,149561922535009 
979	 0,147279532194774 
980	 0,147425261038129 
981	 0,150544612855168 
982	 0,151178309352686 
983	 0,150592321008204 
984	 0,150575355100266 
985	 0,150855917078858 
986	 0,151181188532889 
987	 0,150993473470694 
988	 0,152301590864063 
989	 0,15426433060226 
990	 0,15174764402596 
991	 0,149672757808049 
992	 0,150462975383844 
993	 0,15135716508799 
994	 0,151669102965858 
995	 0,151093783296999 
996	 0,152289276358666 
997	 0,153681041168883 
998	 0,151254266836181 
999	 0,150655824803537 
1000	 0,152536178817882 
1001	 0,153071995236174 
1002	 0,153078653321315 
1003	 0,153019983828484 
1004	 0,153800631925539 
1005	 0,152777133514964 
1006	 0,148160059584031 
1007	 0,150189355760597 
1008	 0,155020249507149 
1009	 0,152747750908541 
1010	 0,152406303682465 
1011	 0,154419007592912 
1012	 0,151849016294014 
1013	 0,151901198726922 
1014	 0,155914294751437 
1015	 0,153636105856325 
1016	 0,150229181723341 
1017	 0,150467975427036 
1018	 0,151581887364298 
1019	 0,152667963489451 
1020	 0,152961514160731 
1021	 0,154530633442376 
1022	 0,157467563258722 
1023	 0,161239762052013 
1024	 0,160234017075531 
1025	 0,154208572915047 
1026	 0,151631615841442 
1027	 0,152039962073856 
1028	 0,154470176072664 
1029	 0,156052205580687 
1030	 0,155938681161279 
1031	 0,153861366461043 
1032	 0,153532301799959 
1033	 0,155047305684691 
1034	 0,156967002247512 
1035	 0,157886785248253 
1036	 0,156978476155909 
1037	 0,153194950050578 
1038	 0,151136921494918 
1039	 0,152418871398812 
1040	 0,152899499100458 
1041	 0,152520144664341 
1042	 0,152039025434893 
1043	 0,156990778260799 
1044	 0,161582150790869 
1045	 0,157670911548493 
1046	 0,160357844213672 
1047	 0,166029450091912 
1048	 0,157995236645168 
1049	 0,158837842922744 
1050	 0,168370809278194 
1051	 0,157021090890065 
1052	 0,152902259393334 
1053	 0,166136561552209 
1054	 0,169857820267711 
1055	 0,166207022684019 
1056	 0,158838645481817 
1057	 0,149805273803079 
1058	 0,14618329568246 
1059	 0,155715035525972 
1060	 0,162249868716284 
1061	 0,16260548733074 
1062	 0,158664551160652 
1063	 0,160542291421067 
1064	 0,167191707201078 
1065	 0,161314885419637 
1066	 0,158466925405092 
1067	 0,163045820219059 
1068	 0,16083256485235 
1069	 0,154428621905224 
1070	 0,148168473543723 
1071	 0,150031342048552 
1072	 0,155809972730614 
1073	 0,159090100904099 
1074	 0,161435142022999 
1075	 0,156837102606257 
