Wavelength	BELON00027.asd
325	 0,442728515267229 
326	 0,159376130450511 
327	 6,09055173203404E-02 
328	 0,132270653390341 
329	 4,94898955750883E-02 
330	-2,64015829083865E-04 
331	 0,154364031882239 
332	 0,203764833751678 
333	 0,140483547460292 
334	 3,12541997968675E-02 
335	 7,15821431642863E-02 
336	 0,228168385422963 
337	 0,172191773257219 
338	 5,17299249037989E-02 
339	-1,39964005556388E-02 
340	 2,67711020746532E-02 
341	 0,100683685241535 
342	 4,38091605462356E-02 
343	 3,34992483292697E-02 
344	 9,21542479302106E-02 
345	 9,11900408659219E-02 
346	 7,42592799672564E-02 
347	 8,79787786553332E-02 
348	 4,99847001675602E-02 
349	-2,77455330252157E-03 
350	 5,46757628964939E-02 
351	 9,35945997418372E-02 
352	 7,48609322246098E-02 
353	 8,21586413920437E-02 
354	 8,58204891022504E-02 
355	 4,39789102201291E-02 
356	 2,21526108434208E-02 
357	 2,71390792699912E-02 
358	 4,77859972424881E-02 
359	 0,059745795200728 
360	 5,20430483748296E-02 
361	 3,31883549972043E-02 
362	 2,36445775168816E-02 
363	 0,048489019725425 
364	 0,05803186823842 
365	 4,49166654223305E-02 
366	 2,68092534172282E-02 
367	 2,34771765299075E-02 
368	 4,18963572151416E-02 
369	 3,94386061300062E-02 
370	 0,032423720956686 
371	 6,19594885648694E-02 
372	 6,93581816255061E-02 
373	 0,048482292605842 
374	 4,68694052130447E-02 
375	 5,41366255667331E-02 
376	 5,91649709639535E-02 
377	 4,25517706473006E-02 
378	 2,33880775436451E-02 
379	 5,20054969010759E-02 
380	 5,75741517064715E-02 
381	 2,87813913966718E-02 
382	 3,52212768757359E-02 
383	 4,59422737587022E-02 
384	 3,05853516017773E-02 
385	 1,66937992220757E-02 
386	 1,33294919111319E-02 
387	 2,89980408926967E-02 
388	 4,65890499562455E-02 
389	 5,53067883187728E-02 
390	 4,20127680873069E-02 
391	 2,50824588309146E-02 
392	 2,70798442481354E-02 
393	 2,70146481848474E-02 
394	 2,39093853756263E-02 
395	 2,90009994468555E-02 
396	 3,16619265845286E-02 
397	 2,80279072684747E-02 
398	 3,34675430507602E-02 
399	 4,19372570927389E-02 
400	 4,28775871924464E-02 
401	 3,45524216701634E-02 
402	 2,08584347188334E-02 
403	 1,58822016855508E-02 
404	 1,72150793246731E-02 
405	 2,18747103304067E-02 
406	 2,04952715279659E-02 
407	 1,66879621622576E-02 
408	 2,06113465256922E-02 
409	 0,024373287504766 
410	 2,59955715686025E-02 
411	 2,78680380348049E-02 
412	 2,72045756165112E-02 
413	 2,19329295362767E-02 
414	 2,05581824388906E-02 
415	 2,27584797732731E-02 
416	 2,34085893482144E-02 
417	 2,48282836210907E-02 
418	 2,67198857489292E-02 
419	 2,23662042284983E-02 
420	 1,67963716066622E-02 
421	 1,69572903871287E-02 
422	 1,84061913213533E-02 
423	 1,95083272367977E-02 
424	 1,86349342027481E-02 
425	 1,77505622321547E-02 
426	 1,79109014543862E-02 
427	 1,68034171186335E-02 
428	 1,54940535715037E-02 
429	 1,62150058735304E-02 
430	 1,89362029583527E-02 
431	 0,022393230907111 
432	 2,16209131614345E-02 
433	 2,03933124748582E-02 
434	 2,18186912327048E-02 
435	 0,018078056687844 
436	 1,25817775557431E-02 
437	 1,75382965795775E-02 
438	 2,08575580168865E-02 
439	 1,86240015629365E-02 
440	 1,88673557486751E-02 
441	 2,01800286951506E-02 
442	 1,99446729812488E-02 
443	 1,99658856472216E-02 
444	 0,020764270556031 
445	 2,32751685890506E-02 
446	 2,28418646861328E-02 
447	 1,75416222578785E-02 
448	 1,70233598435212E-02 
449	 2,00332969217701E-02 
450	 2,19316963256818E-02 
451	 2,12296858282557E-02 
452	 1,88287387074633E-02 
453	 2,23636069666473E-02 
454	 2,50278437210459E-02 
455	 2,07058192092099E-02 
456	 1,80642889028622E-02 
457	 1,78072022617342E-02 
458	 1,66844033335843E-02 
459	 1,72772108242994E-02 
460	 1,97698042549388E-02 
461	 1,84649123212518E-02 
462	 1,71206040194448E-02 
463	 2,13993655421927E-02 
464	 2,22825793550654E-02 
465	 1,91422553864807E-02 
466	 0,017813926188645 
467	 1,80679974792359E-02 
468	 1,96000359333721E-02 
469	 2,08810451962673E-02 
470	 2,16909671972729E-02 
471	 2,24141670280392E-02 
472	 2,12903436507143E-02 
473	 1,85149332991888E-02 
474	 0,017396723662953 
475	 1,74983052597891E-02 
476	 1,81975836959631E-02 
477	 2,00543639073466E-02 
478	 2,22827980151368E-02 
479	 2,30278308904855E-02 
480	 2,26409828008358E-02 
481	 2,12507101311803E-02 
482	 1,84292018934165E-02 
483	 1,63915740751938E-02 
484	 1,84042839511753E-02 
485	 1,91970157268697E-02 
486	 1,78607272579784E-02 
487	 1,66191343052426E-02 
488	 1,67140440603432E-02 
489	 1,87045302750718E-02 
490	 1,78341650556582E-02 
491	 1,58234189996234E-02 
492	 1,85210140421455E-02 
493	 0,020531250698504 
494	 1,99499436756838E-02 
495	 1,76319690584964E-02 
496	 1,52021845606085E-02 
497	 1,43738946593925E-02 
498	 1,43941448875849E-02 
499	 1,50095250606701E-02 
500	 1,60870337464183E-02 
501	 1,67740186336841E-02 
502	 1,67592168729333E-02 
503	 1,80671211748003E-02 
504	 1,93646446322932E-02 
505	 1,78555814334099E-02 
506	 1,69245772874082E-02 
507	 1,72217096652577E-02 
508	 0,016594889136435 
509	 1,63640782248996E-02 
510	 1,76589257835677E-02 
511	 1,76966884695418E-02 
512	 1,72153431418618E-02 
513	 2,00478469368892E-02 
514	 2,03520076465905E-02 
515	 1,66094976366736E-02 
516	 1,64648706664527E-02 
517	 1,83591939051801E-02 
518	 1,90801249361812E-02 
519	 1,85914589498096E-02 
520	 1,73719975644018E-02 
521	 1,74762336478373E-02 
522	 0,017744736614425 
523	 1,74314904457863E-02 
524	 1,83140811614896E-02 
525	 1,95847925571025E-02 
526	 1,89521988612605E-02 
527	 1,78236912290119E-02 
528	 1,68254784668885E-02 
529	 1,64572808739953E-02 
530	 1,64120340975231E-02 
531	 1,62828788278614E-02 
532	 0,016432414554321 
533	 1,68886883571822E-02 
534	 1,76653527383562E-02 
535	 1,78945296757604E-02 
536	 1,72078155286767E-02 
537	 1,71585197812689E-02 
538	 1,76012153130513E-02 
539	 0,017927057633749 
540	 1,76103740773273E-02 
541	 1,68106827160112E-02 
542	 1,72405399120653E-02 
543	 1,75816998657995E-02 
544	 1,65723684784429E-02 
545	 1,68711942022313E-02 
546	 1,78340121635288E-02 
547	 0,015940678742707 
548	 0,015000818845242 
549	 1,65196437225522E-02 
550	 1,68940346242483E-02 
551	 1,66111132333495E-02 
552	 1,71005200998897E-02 
553	 1,69925110514841E-02 
554	 1,62846242930515E-02 
555	 1,64780444916896E-02 
556	 1,68035272502956E-02 
557	 1,66142246377363E-02 
558	 1,64893109919514E-02 
559	 1,64574123269422E-02 
560	 1,62931386401415E-02 
561	 1,63058824891264E-02 
562	 1,66444795147194E-02 
563	 1,75182438193261E-02 
564	 1,79080103652765E-02 
565	 1,64822661901905E-02 
566	 1,61395623437412E-02 
567	 1,70638049878235E-02 
568	 0,017028643734245 
569	 1,68808612197077E-02 
570	 1,71550289357073E-02 
571	 1,70147481708243E-02 
572	 1,67050109875872E-02 
573	 1,70456452577655E-02 
574	 0,017182060406042 
575	 0,016997304735611 
576	 0,017475018432929 
577	 1,83008358706913E-02 
578	 1,90304048891064E-02 
579	 1,91477282973352E-02 
580	 1,86238426332469E-02 
581	 0,017648636001899 
582	 1,74221091609882E-02 
583	 1,84827609445975E-02 
584	 0,018985816936248 
585	 1,90787731687019E-02 
586	 1,94930375741632E-02 
587	 1,98332003334216E-02 
588	 2,00017027864959E-02 
589	 2,00973240147946E-02 
590	 0,020016631172556 
591	 1,97054701680891E-02 
592	 1,99894909488584E-02 
593	 0,020640294443192 
594	 2,06447532256247E-02 
595	 0,020262512035739 
596	 1,97409179684835E-02 
597	 1,99894739640206E-02 
598	 2,04002892292039E-02 
599	 1,99242098851687E-02 
600	 1,94425828896449E-02 
601	 1,92642081941413E-02 
602	 1,95590106196211E-02 
603	 1,98130515164429E-02 
604	 1,96376226523372E-02 
605	 1,95801211764972E-02 
606	 1,95721932203452E-02 
607	 0,019175192056018 
608	 1,89670314115095E-02 
609	 1,90851382205692E-02 
610	 1,89243261757895E-02 
611	 1,86931339381528E-02 
612	 1,87098295928648E-02 
613	 1,83076606344037E-02 
614	 1,76564150150595E-02 
615	 1,77907122419899E-02 
616	 1,82788424097664E-02 
617	 1,87604733615804E-02 
618	 1,87264472228373E-02 
619	 0,018401397559497 
620	 0,018375069310195 
621	 1,84780974967386E-02 
622	 1,85823078385691E-02 
623	 1,82384894590294E-02 
624	 1,80072117861027E-02 
625	 1,84558286475051E-02 
626	 1,85052655483393E-02 
627	 1,82425786473745E-02 
628	 0,018599415101916 
629	 0,019106933946469 
630	 0,019490980758034 
631	 1,96342153243339E-02 
632	 1,96508204943882E-02 
633	 1,97590624930866E-02 
634	 1,97680796752176E-02 
635	 1,96773305766447E-02 
636	 1,96377878680071E-02 
637	 1,98108585047938E-02 
638	 2,02996533511232E-02 
639	 2,06568424692909E-02 
640	 0,020891023560831 
641	 2,13415254913693E-02 
642	 0,021394206242071 
643	 2,09580743950176E-02 
644	 2,10672864196577E-02 
645	 0,02146269953112 
646	 2,16813819790324E-02 
647	 2,16913526972994E-02 
648	 2,15833245317483E-02 
649	 2,17265423239676E-02 
650	 2,19864212400996E-02 
651	 2,22250094763716E-02 
652	 2,21405340736333E-02 
653	 2,17245411376248E-02 
654	 0,021026920603232 
655	 2,04752352567965E-02 
656	 0,020243850097971 
657	 2,02626820749526E-02 
658	 2,02496087642275E-02 
659	 1,99276039630882E-02 
660	 1,95564676478004E-02 
661	 1,92451799340236E-02 
662	 1,91776843852854E-02 
663	 1,88729502113043E-02 
664	 1,81747253221484E-02 
665	 1,78535792861202E-02 
666	 1,77724734203715E-02 
667	 1,75602732270943E-02 
668	 1,75052869857813E-02 
669	 1,77191715739217E-02 
670	 1,84097671187212E-02 
671	 1,88319066399503E-02 
672	 1,84335905192338E-02 
673	 1,81080132331032E-02 
674	 0,017976166561324 
675	 1,78731538717894E-02 
676	 1,80020761024308E-02 
677	 1,83149605310334E-02 
678	 1,80918491931995E-02 
679	 1,79704903517054E-02 
680	 1,87515683446555E-02 
681	 1,89021844563903E-02 
682	 1,84786630632825E-02 
683	 1,88904230249978E-02 
684	 1,93164741394242E-02 
685	 1,93014678383454E-02 
686	 1,92190416919176E-02 
687	 1,94149001997326E-02 
688	 2,04308301906252E-02 
689	 2,11820667122389E-02 
690	 2,15065387849302E-02 
691	 2,22522679692952E-02 
692	 2,34233609602636E-02 
693	 2,49579434851486E-02 
694	 0,026201891741317 
695	 2,76355970520663E-02 
696	 3,07940693248011E-02 
697	 3,42847423014935E-02 
698	 3,76434518895044E-02 
699	 4,16965494066493E-02 
700	 4,65639486932019E-02 
701	 5,22911221914115E-02 
702	 5,86864854735173E-02 
703	 6,54909095488336E-02 
704	 7,22103883058288E-02 
705	 7,91931674893497E-02 
706	 8,66714259514866E-02 
707	 9,46918781772774E-02 
708	 0,102861786346992 
709	 0,110482220518785 
710	 0,118278663000138 
711	 0,126461874312901 
712	 0,135057109524101 
713	 0,143264360617038 
714	 0,150397005100239 
715	 0,157699080006573 
716	 0,165144542319267 
717	 0,172003545655676 
718	 0,1788520174116 
719	 0,185730915505675 
720	 0,191602663605194 
721	 0,196917615653006 
722	 0,202342584917129 
723	 0,207306776191712 
724	 0,211809862828372 
725	 0,216142842545877 
726	 0,22043619883047 
727	 0,224692746654247 
728	 0,228169198451812 
729	 0,230992410189441 
730	 0,233544078069298 
731	 0,236197970879839 
732	 0,238909387578419 
733	 0,240774682528323 
734	 0,242601373105109 
735	 0,245044421906168 
736	 0,246859800924797 
737	 0,248160092967974 
738	 0,2498041532378 
739	 0,251242122279827 
740	 0,252321181459506 
741	 0,253280422992396 
742	 0,254300819972316 
743	 0,255556331162397 
744	 0,256433071427821 
745	 0,257021971599744 
746	 0,258101285384644 
747	 0,258971256236298 
748	 0,259320930662902 
749	 0,25979792020991 
750	 0,260348598678281 
751	 0,260757039300791 
752	 0,261362490923473 
753	 0,262085804909593 
754	 0,262233924252494 
755	 0,262557464415462 
756	 0,26351776841012 
757	 0,263972741036597 
758	 0,264016132646299 
759	 0,26421989999013 
760	 0,264247209543784 
761	 0,264187972434112 
762	 0,264871498786144 
763	 0,26557740250084 
764	 0,265619878495801 
765	 0,265666095541514 
766	 0,265843255938517 
767	 0,266139897280211 
768	 0,266423271805716 
769	 0,266623049411592 
770	 0,266693905274578 
771	 0,266843410444147 
772	 0,267302582738727 
773	 0,267323770892754 
774	 0,267071134906912 
775	 0,267622618077235 
776	 0,268004898703791 
777	 0,26780989251337 
778	 0,267981868220854 
779	 0,268318677429742 
780	 0,268371692120066 
781	 0,268476855942414 
782	 0,268673570195876 
783	 0,26883044417805 
784	 0,268800589654395 
785	 0,268542112883967 
786	 0,268541059640714 
787	 0,268767379718572 
788	 0,269041873636094 
789	 0,269213796680602 
790	 0,269263348679115 
791	 0,26940778564055 
792	 0,269449841249982 
793	 0,269263972032409 
794	 0,269294658640533 
795	 0,269487959936015 
796	 0,269584056084911 
797	 0,269501792351483 
798	 0,269296038947171 
799	 0,269371161918918 
800	 0,26964546935058 
801	 0,269997003983271 
802	 0,270116426612464 
803	 0,270103733367598 
804	 0,270442350979297 
805	 0,27043774355802 
806	 0,270026764126199 
807	 0,270325011401713 
808	 0,270793235370519 
809	 0,270775357246905 
810	 0,270470026680906 
811	 0,270184357246487 
812	 0,270660751491822 
813	 0,271090355552006 
814	 0,271180239461768 
815	 0,271476967621485 
816	 0,271753539722703 
817	 0,271707546528833 
818	 0,271920699263982 
819	 0,272306201514933 
820	 0,272194373536755 
821	 0,272087781076902 
822	 0,272219306255364 
823	 0,27242655225593 
824	 0,272613413675414 
825	 0,272677188007218 
826	 0,2723998788817 
827	 0,272006505577173 
828	 0,272366442320848 
829	 0,272631292281564 
830	 0,272453345602019 
831	 0,272767779446036 
832	 0,273051890422811 
833	 0,272484942060336 
834	 0,272274972604485 
835	 0,272533262442446 
836	 0,272505980108271 
837	 0,272751417949449 
838	 0,27342700654009 
839	 0,273473721858789 
840	 0,273296236357293 
841	 0,273627139740488 
842	 0,27367653415045 
843	 0,273473997912876 
844	 0,273757204444881 
845	 0,274127730918652 
846	 0,274305783579462 
847	 0,273979031332732 
848	 0,273599748319794 
849	 0,273839228906349 
850	 0,273925327193547 
851	 0,273793775697735 
852	 0,273900786348489 
853	 0,274036235468711 
854	 0,274072214654029 
855	 0,273941150871612 
856	 0,273834190679227 
857	 0,274014719957076 
858	 0,274049252887544 
859	 0,274012581496246 
860	 0,274525880275086 
861	 0,274916984400942 
862	 0,274867127544431 
863	 0,274828415947229 
864	 0,274738161922034 
865	 0,274466132994161 
866	 0,274974947315284 
867	 0,275808817058826 
868	 0,274831700120724 
869	 0,274147775572142 
870	 0,274640830158224 
871	 0,274971984465869 
872	 0,275124469918967 
873	 0,27521990012701 
874	 0,274953309327259 
875	 0,274543290479845 
876	 0,274733175617033 
877	 0,275163654186116 
878	 0,275568255906162 
879	 0,275395746988064 
880	 0,275107821498649 
881	 0,275229130714868 
882	 0,275174208906272 
883	 0,274901321611865 
884	 0,274467395458847 
885	 0,274808212778215 
886	 0,275949291931028 
887	 0,276155877458017 
888	 0,275771978096889 
889	 0,275267208457771 
890	 0,275038137497346 
891	 0,275057227215872 
892	 0,2750316632206 
893	 0,27509765139769 
894	 0,275238731180786 
895	 0,275280086879649 
896	 0,27515497668767 
897	 0,274877669973749 
898	 0,275106269730667 
899	 0,275328495107389 
900	 0,274423352118346 
901	 0,274245634780531 
902	 0,275031043071601 
903	 0,275647947057559 
904	 0,275483656908529 
905	 0,274420568299922 
906	 0,274723703800118 
907	 0,275281675877819 
908	 0,274148522831545 
909	 0,273909368761669 
910	 0,27467403648884 
911	 0,274870903345787 
912	 0,274143573364714 
913	 0,272701281958952 
914	 0,272991556304458 
915	 0,273881533496359 
916	 0,273890130678677 
917	 0,273938365296511 
918	 0,273840605470955 
919	 0,272679409062903 
920	 0,27172920483639 
921	 0,271529233297118 
922	 0,272229362588652 
923	 0,272495614464517 
924	 0,271320422344412 
925	 0,270270764736505 
926	 0,269692213111929 
927	 0,26976892352755 
928	 0,268651398570702 
929	 0,266636800867105 
930	 0,266879618413139 
931	 0,267198231748352 
932	 0,266332788951482 
933	 0,265254057975861 
934	 0,264089437790034 
935	 0,262909071019047 
936	 0,262675506648874 
937	 0,262996391715743 
938	 0,262217029606821 
939	 0,261207799754305 
940	 0,260170729651904 
941	 0,258431490152622 
942	 0,256880359232083 
943	 0,256248857782462 
944	 0,25539319263305 
945	 0,254160199816296 
946	 0,252664823430175 
947	 0,250887496416614 
948	 0,248999115081174 
949	 0,247540884340218 
950	 0,24603946105047 
951	 0,244256513362129 
952	 0,242429552815995 
953	 0,24103664867915 
954	 0,240530348916158 
955	 0,238882180548927 
956	 0,23637077679843 
957	 0,234850290200663 
958	 0,233349823843508 
959	 0,231826946711649 
960	 0,231467691919355 
961	 0,231090213541798 
962	 0,22978743418623 
963	 0,228240661478937 
964	 0,226753468233893 
965	 0,225603102173051 
966	 0,226076795324352 
967	 0,22754460546261 
968	 0,227122485044167 
969	 0,226565057703408 
970	 0,226523486302733 
971	 0,226335979708159 
972	 0,226145432403143 
973	 0,226065710567121 
974	 0,22532608459574 
975	 0,225217938270582 
976	 0,22830113431678 
977	 0,228052018658709 
978	 0,224327031985962 
979	 0,223187186727298 
980	 0,22293261456933 
981	 0,223117602152888 
982	 0,225799035288346 
983	 0,228407333814873 
984	 0,228286784418056 
985	 0,227148007547301 
986	 0,226204901084784 
987	 0,227095528539787 
988	 0,228550577032616 
989	 0,229749908322324 
990	 0,229390166257941 
991	 0,228656105532961 
992	 0,228367013213374 
993	 0,229125115372593 
994	 0,229710371119943 
995	 0,229025859430826 
996	 0,230172012440511 
997	 0,232567098764295 
998	 0,234001708737468 
999	 0,235423351176814 
1000	 0,236663652589854 
1001	 0,23639169019766 
1002	 0,236387459554747 
1003	 0,237347610540037 
1004	 0,237561179958702 
1005	 0,237297198951449 
1006	 0,237077349754067 
1007	 0,238414666120513 
1008	 0,239942125531645 
1009	 0,238815719058644 
1010	 0,239253382083681 
1011	 0,241124996965841 
1012	 0,239821680625434 
1013	 0,240376910198842 
1014	 0,243978498932655 
1015	 0,245035417201052 
1016	 0,243563109477053 
1017	 0,240705222605766 
1018	 0,243762446786398 
1019	 0,24864092065349 
1020	 0,247772157754998 
1021	 0,24676600497484 
1022	 0,246971120509855 
1023	 0,24843354546837 
1024	 0,250280797397442 
1025	 0,251983389380942 
1026	 0,253247793128291 
1027	 0,252327449754775 
1028	 0,249189859317302 
1029	 0,251130253824644 
1030	 0,254449680316079 
1031	 0,254081765126898 
1032	 0,253667735712115 
1033	 0,254795491617119 
1034	 0,259374443420581 
1035	 0,259923075284528 
1036	 0,256524618547515 
1037	 0,258049902037739 
1038	 0,257851057411768 
1039	 0,254112046651523 
1040	 0,253294884077963 
1041	 0,25500507090612 
1042	 0,258365473838365 
1043	 0,261605708985776 
1044	 0,26453184449726 
1045	 0,267468783070924 
1046	 0,272514716765273 
1047	 0,274891286330938 
1048	 0,262538425812099 
1049	 0,258565246778948 
1050	 0,265960336081318 
1051	 0,265698809271121 
1052	 0,268243817190388 
1053	 0,276304821119971 
1054	 0,276151296342743 
1055	 0,274501372841041 
1056	 0,276831558223594 
1057	 0,272381850294338 
1058	 0,263053982569733 
1059	 0,25411928788556 
1060	 0,260764214445983 
1061	 0,275121582522146 
1062	 0,271584851478238 
1063	 0,267954585442173 
1064	 0,268957702136333 
1065	 0,271923230777069 
1066	 0,277110040124298 
1067	 0,281779193109589 
1068	 0,272864813690039 
1069	 0,262867178803286 
1070	 0,262228782381466 
1071	 0,261294117177339 
1072	 0,265293602103418 
1073	 0,280095733379483 
1074	 0,288342141096049 
1075	 0,281966770691326 
