Wavelength	BELON00369.asd
325	 0,520663951866308 
326	 0,440295517155021 
327	 0,406342946556922 
328	 0,415848374415335 
329	 0,234077079107505 
330	 0,113835319384991 
331	 0,272558174194417 
332	 0,409256852917517 
333	 0,454234982776209 
334	 0,392041261007599 
335	 0,359782719565439 
336	 0,369718892680795 
337	 0,30984889796989 
338	 0,261553457307047 
339	 0,292326302763952 
340	 0,319907880537709 
341	 0,310515435181529 
342	 0,248982291110706 
343	 0,234129641093018 
344	 0,266938209508348 
345	 0,207053240329449 
346	 0,168226581999507 
347	 0,255490009042246 
348	 0,263432613339289 
349	 0,207982233893629 
350	 0,21683818856566 
351	 0,250698944071778 
352	 0,285446939854312 
353	 0,272237879318074 
354	 0,228103302244902 
355	 0,187040893228449 
356	 0,182989423753514 
357	 0,208520896451403 
358	 0,234354578441947 
359	 0,229958935567681 
360	 0,191978803365357 
361	 0,209752441203118 
362	 0,243174929215504 
363	 0,224271653901019 
364	 0,21390192553527 
365	 0,220816030147224 
366	 0,222786488632995 
367	 0,228435240350407 
368	 0,239109676120679 
369	 0,224660562438944 
370	 0,19940286397791 
371	 0,196756906403133 
372	 0,203515793468698 
373	 0,209918661353964 
374	 0,189092026880315 
375	 0,186043195603208 
376	 0,22834887583582 
377	 0,228988047773758 
378	 0,203542567121688 
379	 0,21161308389901 
380	 0,22511933962225 
381	 0,235247190554582 
382	 0,238848963843827 
383	 0,231530696722355 
384	 0,211295347010636 
385	 0,203418403411462 
386	 0,207319003369754 
387	 0,205821882814906 
388	 0,210443945298699 
389	 0,221825905673918 
390	 0,222472744266107 
391	 0,218777873652744 
392	 0,219700412205056 
393	 0,222575285128662 
394	 0,225471287165547 
395	 0,224116557953717 
396	 0,223864417006689 
397	 0,226695468230267 
398	 0,225482316679696 
399	 0,222353615034708 
400	 0,221586633164589 
401	 0,219903283447401 
402	 0,216223522121456 
403	 0,209255576004947 
404	 0,204530572602343 
405	 0,204930349449815 
406	 0,201445029415308 
407	 0,197602844889963 
408	 0,202911397825267 
409	 0,209286679877585 
410	 0,212606217729009 
411	 0,204920801630987 
412	 0,199848658732234 
413	 0,208882481524524 
414	 0,210707229194555 
415	 0,205928029485731 
416	 0,206683888567517 
417	 0,206246781514359 
418	 0,202410655162231 
419	 0,197277831804587 
420	 0,195226189211738 
421	 0,2013482063115 
422	 0,205326769291465 
423	 0,204727390216139 
424	 0,199289455489622 
425	 0,199441092234981 
426	 0,2092999070699 
427	 0,2067524430413 
428	 0,197459241174165 
429	 0,196444812523305 
430	 0,197229084480988 
431	 0,198197265246073 
432	 0,199826847441431 
433	 0,201590174811825 
434	 0,20288978198867 
435	 0,201110913045557 
436	 0,197695732533233 
437	 0,196754422960077 
438	 0,198676650189663 
439	 0,202697615096727 
440	 0,203107846110732 
441	 0,201616942976993 
442	 0,201047386538619 
443	 0,200440302720661 
444	 0,200478687634066 
445	 0,20411990843386 
446	 0,206316745092187 
447	 0,204403318406389 
448	 0,204244858956286 
449	 0,204944865175132 
450	 0,203241134943168 
451	 0,201672337204784 
452	 0,201390771281879 
453	 0,203758459944193 
454	 0,205638200823344 
455	 0,204333515255862 
456	 0,204225566760907 
457	 0,205564424618826 
458	 0,206902004075382 
459	 0,20706174888473 
460	 0,205736283274007 
461	 0,204450573630826 
462	 0,20522319910679 
463	 0,210469906682134 
464	 0,211178195602869 
465	 0,207242052920533 
466	 0,206882349336693 
467	 0,207000207432395 
468	 0,205894311349634 
469	 0,207595671127362 
470	 0,210428243473894 
471	 0,210094583143685 
472	 0,209280567286248 
473	 0,208940609069143 
474	 0,209305977222347 
475	 0,209937782469211 
476	 0,210388049758281 
477	 0,21134922930627 
478	 0,211844469735613 
479	 0,208731773334828 
480	 0,2063581420887 
481	 0,20673623709552 
482	 0,20781175673625 
483	 0,208808669518338 
484	 0,208952238607968 
485	 0,209266155479504 
486	 0,209353153415931 
487	 0,206664325456835 
488	 0,203863455214966 
489	 0,203197733319881 
490	 0,205675825328718 
491	 0,208928930154622 
492	 0,207330406035648 
493	 0,206534136780334 
494	 0,207828580413586 
495	 0,206885676965539 
496	 0,205349388593936 
497	 0,205378472431729 
498	 0,205339164738271 
499	 0,204992634180072 
500	 0,20474216547374 
501	 0,20430361332046 
502	 0,203847211692921 
503	 0,205986086723027 
504	 0,20894016114562 
505	 0,209223451080403 
506	 0,208514612322258 
507	 0,207722826903213 
508	 0,208355306660964 
509	 0,209661140670816 
510	 0,210833956794381 
511	 0,211198550435383 
512	 0,211233280144625 
513	 0,212631059427559 
514	 0,213721636932656 
515	 0,213845988031026 
516	 0,213718535931623 
517	 0,213697672407068 
518	 0,214157658638682 
519	 0,214545428983786 
520	 0,21481573539881 
521	 0,215512146519566 
522	 0,215654878648836 
523	 0,214718450376166 
524	 0,215170093443367 
525	 0,216236316272723 
526	 0,215284957196106 
527	 0,214299654460976 
528	 0,213944552662263 
529	 0,213921739809687 
530	 0,213774369115997 
531	 0,213022636685802 
532	 0,212717705244617 
533	 0,21301404451703 
534	 0,21362336587615 
535	 0,214152734472595 
536	 0,214253810658803 
537	 0,21320088721461 
538	 0,21208412882369 
539	 0,213064609449668 
540	 0,213862757039331 
541	 0,213842712325108 
542	 0,213708708970322 
543	 0,213592042538862 
544	 0,213591118954372 
545	 0,213724986949882 
546	 0,213848924877664 
547	 0,213495512849884 
548	 0,213427563119715 
549	 0,213950640260201 
550	 0,214347861146029 
551	 0,214557327839873 
552	 0,214623352218655 
553	 0,214655221640194 
554	 0,214644764927886 
555	 0,214467756140393 
556	 0,213981821265329 
557	 0,21310857861261 
558	 0,212317562150581 
559	 0,211773534806535 
560	 0,211583845649862 
561	 0,211628644634713 
562	 0,211740440279962 
563	 0,211376103904892 
564	 0,210784157504907 
565	 0,210345990408139 
566	 0,210846878145934 
567	 0,211895764323062 
568	 0,21134105573079 
569	 0,210884228375018 
570	 0,211669392469466 
571	 0,212460310714707 
572	 0,213101795576892 
573	 0,21359931269507 
574	 0,214734982597857 
575	 0,216613883645372 
576	 0,218151403965724 
577	 0,219498469028793 
578	 0,220914920112951 
579	 0,222010288910808 
580	 0,222744132708803 
581	 0,223043831695579 
582	 0,224322338614124 
583	 0,227063109230609 
584	 0,228226903585889 
585	 0,228390201648787 
586	 0,22928235476178 
587	 0,230267756695317 
588	 0,231102014195231 
589	 0,231336471627199 
590	 0,231664738890429 
591	 0,232707046922144 
592	 0,233474233920854 
593	 0,233890831343089 
594	 0,234336655099429 
595	 0,234677089480619 
596	 0,234830276580482 
597	 0,234611480642161 
598	 0,234369400348019 
599	 0,234655512481014 
600	 0,23443356696295 
601	 0,233700156008771 
602	 0,233625024014792 
603	 0,233639252984108 
604	 0,233251883867933 
605	 0,232387738072973 
606	 0,231350138548328 
607	 0,230824999843921 
608	 0,230625187728306 
609	 0,230647751562413 
610	 0,230797495914496 
611	 0,230350086643903 
612	 0,228473148768361 
613	 0,227069047561099 
614	 0,226548431877894 
615	 0,226473854864114 
616	 0,226364950949725 
617	 0,225916005554637 
618	 0,2254833628396 
619	 0,225304135201292 
620	 0,225805629800653 
621	 0,225810833240215 
622	 0,225161062003076 
623	 0,225212469176443 
624	 0,225438268753564 
625	 0,225226771724967 
626	 0,224900593055042 
627	 0,224796010174041 
628	 0,225727935276862 
629	 0,226449278232511 
630	 0,226452840518742 
631	 0,227301984653451 
632	 0,228330857489257 
633	 0,228166664515844 
634	 0,228184421828464 
635	 0,228825119222711 
636	 0,230101095356335 
637	 0,231302788272555 
638	 0,231869298066829 
639	 0,232696489635449 
640	 0,233731831999769 
641	 0,234435401973821 
642	 0,235088014736091 
643	 0,235790404846614 
644	 0,236531196190042 
645	 0,237120691664585 
646	 0,237324640182945 
647	 0,237212517106922 
648	 0,23688937339519 
649	 0,236670081385408 
650	 0,236195504605515 
651	 0,235234347443319 
652	 0,233984823372454 
653	 0,232687689315146 
654	 0,231748258681222 
655	 0,23073205992779 
656	 0,229524465112722 
657	 0,22832964397594 
658	 0,227132079216945 
659	 0,225893436772428 
660	 0,224360266283554 
661	 0,222550940831661 
662	 0,220595843989389 
663	 0,218960101360694 
664	 0,217840927103623 
665	 0,216708470780233 
666	 0,215427433533275 
667	 0,21386869007895 
668	 0,212870839363242 
669	 0,212555235594601 
670	 0,212359287204752 
671	 0,212057546246673 
672	 0,21151006006793 
673	 0,211194811145278 
674	 0,211145705344812 
675	 0,211336174871176 
676	 0,211011917837678 
677	 0,210121227260412 
678	 0,210105975387496 
679	 0,210578348996006 
680	 0,210930416263002 
681	 0,211584336238167 
682	 0,212394212668214 
683	 0,212582605039471 
684	 0,213046263881892 
685	 0,21436504602351 
686	 0,216388166189511 
687	 0,218998314984043 
688	 0,22202041255884 
689	 0,225331155069195 
690	 0,229038055648877 
691	 0,233680436606117 
692	 0,239188169930524 
693	 0,245459765342466 
694	 0,25217732431745 
695	 0,259621575158453 
696	 0,268592689180935 
697	 0,278716718161625 
698	 0,289614253276546 
699	 0,300116624207235 
700	 0,310773832757643 
701	 0,322446287006596 
702	 0,33465928127683 
703	 0,347102000976214 
704	 0,359414377298841 
705	 0,37147211243171 
706	 0,383153950860081 
707	 0,394410512577233 
708	 0,40515412341352 
709	 0,415247478745173 
710	 0,425272954662046 
711	 0,435260393999912 
712	 0,44456214076906 
713	 0,453175118718976 
714	 0,461120277601483 
715	 0,468434772833015 
716	 0,47531382182877 
717	 0,482295800208321 
718	 0,488452172326383 
719	 0,49353958737417 
720	 0,49872444304586 
721	 0,503836565339246 
722	 0,50848559422925 
723	 0,512571120917057 
724	 0,516206824255378 
725	 0,519793246443977 
726	 0,523138197739399 
727	 0,526103729034773 
728	 0,528493121748213 
729	 0,530562585814261 
730	 0,532817221131091 
731	 0,534648060264452 
732	 0,536091168844324 
733	 0,53811732365352 
734	 0,539938474971593 
735	 0,540896838753496 
736	 0,542081593895707 
737	 0,543528157926227 
738	 0,544825053440465 
739	 0,545945579186314 
740	 0,546827973904981 
741	 0,547317458268351 
742	 0,547736929169538 
743	 0,548465715582007 
744	 0,549288519823735 
745	 0,550152490194534 
746	 0,551131513306597 
747	 0,55173571343074 
748	 0,551774480811292 
749	 0,551985097587804 
750	 0,552270955727424 
751	 0,552322558178691 
752	 0,552603834436277 
753	 0,553109583813861 
754	 0,553327113818856 
755	 0,553467733998228 
756	 0,553704746536351 
757	 0,554135708756565 
758	 0,554553056147921 
759	 0,554491023013167 
760	 0,554501516373901 
761	 0,554756538306775 
762	 0,555149086587376 
763	 0,555368817619326 
764	 0,555173610083934 
765	 0,555334877002007 
766	 0,555787168984986 
767	 0,555950770291004 
768	 0,556135397065662 
769	 0,556411763371589 
770	 0,556552381337357 
771	 0,556537087282895 
772	 0,55637229299897 
773	 0,556222592287191 
774	 0,556191325698927 
775	 0,556418277822847 
776	 0,556742474136593 
777	 0,557020499111528 
778	 0,556973134143511 
779	 0,556776040317174 
780	 0,556720982668086 
781	 0,557118120161313 
782	 0,557714747422839 
783	 0,557287230406848 
784	 0,556882500111785 
785	 0,55715383732 
786	 0,557297409924349 
787	 0,557385708930646 
788	 0,55776806454686 
789	 0,557874514526428 
790	 0,557655199011129 
791	 0,557674229301029 
792	 0,557723398955427 
793	 0,557647725496016 
794	 0,557740893227427 
795	 0,557968593956702 
796	 0,558177872983363 
797	 0,558267593829422 
798	 0,558186032082344 
799	 0,557918340165946 
800	 0,557688083707757 
801	 0,557706989094687 
802	 0,557969520067286 
803	 0,558232609203812 
804	 0,557850079034462 
805	 0,557740956470813 
806	 0,558107696905627 
807	 0,557963772653458 
808	 0,557933512282751 
809	 0,558678485722904 
810	 0,55843445296126 
811	 0,557513314048692 
812	 0,557789254889552 
813	 0,558295514529101 
814	 0,558599269242427 
815	 0,55859076797316 
816	 0,558616431064783 
817	 0,55908616170822 
818	 0,559299720695343 
819	 0,559202254288535 
820	 0,559112243471367 
821	 0,559125469155304 
822	 0,559292127576332 
823	 0,559497809888126 
824	 0,559697831669642 
825	 0,559852815827308 
826	 0,55979766127377 
827	 0,559654385158261 
828	 0,559929049280723 
829	 0,560196169379085 
830	 0,560234708043915 
831	 0,560241870439232 
832	 0,560061822391592 
833	 0,559468161609695 
834	 0,559410543665073 
835	 0,559870228223285 
836	 0,559983929616162 
837	 0,559824285714073 
838	 0,559499877218423 
839	 0,559541402829224 
840	 0,559828496032162 
841	 0,56009851611918 
842	 0,559937673357562 
843	 0,559500240968464 
844	 0,559655796271949 
845	 0,560006941129105 
846	 0,560266922872789 
847	 0,560112818512221 
848	 0,559714936098075 
849	 0,55937094278406 
850	 0,559419539060135 
851	 0,559749545726873 
852	 0,559652307178673 
853	 0,55960643911287 
854	 0,559837397632478 
855	 0,559996996497943 
856	 0,560174807679861 
857	 0,56054138657712 
858	 0,560274925856643 
859	 0,559645668720204 
860	 0,560207804050455 
861	 0,560594608942474 
862	 0,560230659680741 
863	 0,560362311292555 
864	 0,560630967517314 
865	 0,560424731206175 
866	 0,561084907091757 
867	 0,562191355352941 
868	 0,56156439794302 
869	 0,560681521339295 
870	 0,560360550165177 
871	 0,560793525053432 
872	 0,561596212764633 
873	 0,562248913489315 
874	 0,562078556233708 
875	 0,561408470665048 
876	 0,56163811765186 
877	 0,561875454328431 
878	 0,561803389686444 
879	 0,561886115291653 
880	 0,561759145168916 
881	 0,561059850972246 
882	 0,560962425260893 
883	 0,561348580917481 
884	 0,561283006350568 
885	 0,56099103381379 
886	 0,560654526310025 
887	 0,56086406346923 
888	 0,561179072941473 
889	 0,561169679969325 
890	 0,561301145363185 
891	 0,561332736952227 
892	 0,560497530837947 
893	 0,560372666073951 
894	 0,561072646075183 
895	 0,560576676536654 
896	 0,560065654793482 
897	 0,560437864672279 
898	 0,560488092879547 
899	 0,560483456234558 
900	 0,561246794650378 
901	 0,561390471034122 
902	 0,560922717766465 
903	 0,561570589823148 
904	 0,561669826981891 
905	 0,560456770426081 
906	 0,560493982081077 
907	 0,561087375956392 
908	 0,560816939918206 
909	 0,56027967419147 
910	 0,559861220418909 
911	 0,5603154404009 
912	 0,560894261322739 
913	 0,561092693921893 
914	 0,560234866556546 
915	 0,559716539014634 
916	 0,561002107217661 
917	 0,561355389847893 
918	 0,560515304526303 
919	 0,559131116220347 
920	 0,558861411363762 
921	 0,560020613996351 
922	 0,560807396598139 
923	 0,560854735055874 
924	 0,559948427918509 
925	 0,558292967142227 
926	 0,557075074617092 
927	 0,558349208956478 
928	 0,557778600624594 
929	 0,555213667830288 
930	 0,554782717631912 
931	 0,555659506417724 
932	 0,556982714441216 
933	 0,556574222173456 
934	 0,555135877253598 
935	 0,553967691623609 
936	 0,553833506120671 
937	 0,554248694361858 
938	 0,553200970260608 
939	 0,552438266435282 
940	 0,552349785271961 
941	 0,551378813434835 
942	 0,550216055801068 
943	 0,549515162249922 
944	 0,54871436894755 
945	 0,547716498631817 
946	 0,546486261278243 
947	 0,545580847884932 
948	 0,545114377429169 
949	 0,544927599814458 
950	 0,544133668108639 
951	 0,542437776869363 
952	 0,541461530748157 
953	 0,541079285471714 
954	 0,540864284583197 
955	 0,539721367898762 
956	 0,53774815941194 
957	 0,535766208581946 
958	 0,534344005267197 
959	 0,53368326073525 
960	 0,533450850767114 
961	 0,532817851427072 
962	 0,53135150114087 
963	 0,530980101489227 
964	 0,531079014783921 
965	 0,530280277426329 
966	 0,530479022754695 
967	 0,531398197631916 
968	 0,530686382379014 
969	 0,530468621149138 
970	 0,53110716414536 
971	 0,529160711006387 
972	 0,528385987788244 
973	 0,53178107271629 
974	 0,531789191520828 
975	 0,529742918141201 
976	 0,530292900366715 
977	 0,531708318491616 
978	 0,532635719916089 
979	 0,529773499822367 
980	 0,528065343073187 
981	 0,529559993322861 
982	 0,530044132600112 
983	 0,530850259429678 
984	 0,533344728550601 
985	 0,533344631835949 
986	 0,532204003958652 
987	 0,534047382656161 
988	 0,534701863902028 
989	 0,533839894357176 
990	 0,534858777533022 
991	 0,535097771278273 
992	 0,53365050561302 
993	 0,534014301597562 
994	 0,534562210806356 
995	 0,533656298270509 
996	 0,536434601806534 
997	 0,540184820137954 
998	 0,53800989443484 
999	 0,536346439019292 
1000	 0,536925833918147 
1001	 0,53874190821952 
1002	 0,540894764259997 
1003	 0,542420512777628 
1004	 0,541230520031926 
1005	 0,540590206586737 
1006	 0,543434834339344 
1007	 0,544335112201508 
1008	 0,543662275812931 
1009	 0,543757136316016 
1010	 0,545530762438777 
1011	 0,54770004935566 
1012	 0,544533556173587 
1013	 0,544789614315403 
1014	 0,550271955756684 
1015	 0,548889088726614 
1016	 0,546183612995951 
1017	 0,547072437360016 
1018	 0,546072546296568 
1019	 0,545659271149321 
1020	 0,55027851912208 
1021	 0,552277120343618 
1022	 0,551129738712133 
1023	 0,550289307901515 
1024	 0,552483171211812 
1025	 0,55693794413529 
1026	 0,554574238487042 
1027	 0,55341989323504 
1028	 0,557503253093654 
1029	 0,555057194217419 
1030	 0,551545270999435 
1031	 0,554300685682759 
1032	 0,555157891894436 
1033	 0,554489984099196 
1034	 0,556346141960876 
1035	 0,55488366029263 
1036	 0,552034201765116 
1037	 0,560453222247631 
1038	 0,566522856300322 
1039	 0,564182306956708 
1040	 0,55711723535385 
1041	 0,554210287242001 
1042	 0,560940361390434 
1043	 0,560988716642788 
1044	 0,558161918014329 
1045	 0,560619573333225 
1046	 0,565758849530436 
1047	 0,56899140790264 
1048	 0,561180789585188 
1049	 0,556913085590451 
1050	 0,558777955874074 
1051	 0,557295243327382 
1052	 0,558529887258678 
1053	 0,564545113649251 
1054	 0,571381950794015 
1055	 0,569931266584346 
1056	 0,555638351778692 
1057	 0,558579465948476 
1058	 0,567178552968228 
1059	 0,560141362023654 
1060	 0,56603656848236 
1061	 0,57464591558975 
1062	 0,548556603152819 
1063	 0,544924835808177 
1064	 0,569398607996298 
1065	 0,575941755298102 
1066	 0,574744382499419 
1067	 0,570243043097198 
1068	 0,56187252251125 
1069	 0,55892938537322 
1070	 0,567532238413582 
1071	 0,576646281026382 
1072	 0,580661867323257 
1073	 0,575124124922261 
1074	 0,572466567038972 
1075	 0,569923370344566 
