Wavelength	BELON00148.asd
325	 0,145471966633319 
326	 0,216951888026268 
327	 0,242609436818604 
328	 0,173979167264484 
329	 7,47772518969274E-02 
330	 5,89407922254755E-02 
331	 0,190138402850027 
332	 0,194152320535481 
333	 0,121249082137031 
334	 0,149392695603129 
335	 0,202804405608811 
336	 0,245468155738848 
337	 0,202495012735644 
338	 0,146123985014663 
339	 0,13006460873152 
340	 0,107239846491385 
341	 8,25842218144371E-02 
342	 6,04766733027552E-02 
343	 7,18155058933512E-02 
344	 0,110984681021716 
345	 0,107443558602191 
346	 9,70722953174313E-02 
347	 0,116073885703526 
348	 0,105200860726265 
349	 7,36615418522361E-02 
350	 6,90274083456165E-02 
351	 5,67695791099731E-02 
352	 3,46838877769286E-02 
353	 0,074364330558763 
354	 0,101658681865696 
355	 2,18910885994728E-02 
356	 1,29465258405455E-02 
357	 6,90605967860078E-02 
358	 9,02018282055749E-02 
359	 6,91043881248751E-02 
360	 0,014015288277457 
361	 2,10978652283651E-02 
362	 5,29695410743967E-02 
363	 4,28654337140313E-02 
364	 3,97322060457595E-02 
365	 4,88565103393277E-02 
366	 4,71806146232586E-02 
367	 5,28819859341126E-02 
368	 7,26584082388658E-02 
369	 7,35383768606672E-02 
370	 5,85821442035175E-02 
371	 3,97723468028308E-02 
372	 3,41972895908756E-02 
373	 4,23770467963819E-02 
374	 4,08635470752097E-02 
375	 3,97388703393246E-02 
376	 4,65126336421712E-02 
377	 0,051738355860457 
378	 5,49532368011001E-02 
379	 5,87705588795578E-02 
380	 5,62696597855168E-02 
381	 4,88280587141725E-02 
382	 5,82945576218443E-02 
383	 5,90656616898763E-02 
384	 2,96895098102455E-02 
385	 0,01791569724696 
386	 2,50875260754767E-02 
387	 2,73062292258079E-02 
388	 0,038013775879031 
389	 0,056202805202096 
390	 5,65296615675893E-02 
391	 4,28779733056454E-02 
392	 2,26486623629915E-02 
393	 2,28108697740112E-02 
394	 3,94895348026911E-02 
395	 4,53413469405972E-02 
396	 0,04182818073878 
397	 3,18951772808572E-02 
398	 3,40397336145873E-02 
399	 3,64211926531608E-02 
400	 1,76763211319425E-02 
401	 1,45555730137726E-02 
402	 2,87347273799434E-02 
403	 0,029411530061117 
404	 2,91625382328867E-02 
405	 3,53349040178322E-02 
406	 2,82177182053279E-02 
407	 1,59292660113301E-02 
408	 1,97898816415528E-02 
409	 2,14622777480547E-02 
410	 1,81857519732495E-02 
411	 2,34681874220587E-02 
412	 2,84273587205709E-02 
413	 2,49144059494208E-02 
414	 2,09624351885398E-02 
415	 1,91507514670857E-02 
416	 2,17097226660321E-02 
417	 2,62216845051333E-02 
418	 3,01382628436465E-02 
419	 2,57981929766043E-02 
420	 1,95112372936836E-02 
421	 0,019975328107362 
422	 2,05042095273532E-02 
423	 1,96968234139054E-02 
424	 1,80362295245678E-02 
425	 1,69010477935331E-02 
426	 1,70572339028382E-02 
427	 1,66846892222779E-02 
428	 1,66325440240505E-02 
429	 1,88887063974189E-02 
430	 0,021320940832536 
431	 2,27345078181259E-02 
432	 2,15806813890004E-02 
433	 1,93563980461947E-02 
434	 0,017481734927208 
435	 1,64644606775843E-02 
436	 1,63629263061291E-02 
437	 1,67920225883699E-02 
438	 1,80583237559693E-02 
439	 1,97658334833407E-02 
440	 0,019307395581419 
441	 1,82320158050319E-02 
442	 1,87346899821493E-02 
443	 2,00908906467616E-02 
444	 0,021798481930589 
445	 2,31875362257864E-02 
446	 2,24830174458843E-02 
447	 1,92412770845951E-02 
448	 1,95715701381673E-02 
449	 2,20027115824724E-02 
450	 2,23279356810531E-02 
451	 2,13914626723123E-02 
452	 2,01952046746976E-02 
453	 2,27847401815429E-02 
454	 2,42507351117274E-02 
455	 2,03292094209738E-02 
456	 1,88799302078883E-02 
457	 1,97390128903318E-02 
458	 1,80215009903878E-02 
459	 0,0171495580117 
460	 1,79741787469076E-02 
461	 1,61970735536266E-02 
462	 1,49125628325415E-02 
463	 1,86814218730602E-02 
464	 2,13307119174975E-02 
465	 2,12122480704843E-02 
466	 0,01826369138329 
467	 1,69206507500676E-02 
468	 0,019602860200825 
469	 1,93449296769331E-02 
470	 1,77822000890773E-02 
471	 2,04244301146555E-02 
472	 2,16988362614964E-02 
473	 2,01396703413056E-02 
474	 1,76098989488382E-02 
475	 1,60396878435639E-02 
476	 1,71400187124789E-02 
477	 1,93861111956898E-02 
478	 2,09859193980058E-02 
479	 1,78446703291708E-02 
480	 1,68404548929256E-02 
481	 2,01893382075091E-02 
482	 1,86082691785759E-02 
483	 1,56425275752896E-02 
484	 1,79448528128791E-02 
485	 2,02674364346448E-02 
486	 0,020743861490122 
487	 1,78347460794121E-02 
488	 1,53255073783416E-02 
489	 0,016061584925043 
490	 1,77319575456324E-02 
491	 1,91126251307432E-02 
492	 1,83664267086302E-02 
493	 1,81800568681917E-02 
494	 1,91255598040661E-02 
495	 0,01893972424739 
496	 1,77421206224668E-02 
497	 1,58916419115282E-02 
498	 0,015002117666094 
499	 1,53155357229498E-02 
500	 1,61572024711934E-02 
501	 1,72428450160391E-02 
502	 1,82592891315271E-02 
503	 1,87810012041047E-02 
504	 1,82191686284928E-02 
505	 1,54887817121974E-02 
506	 1,44214090029875E-02 
507	 1,54738529537074E-02 
508	 1,47893739154808E-02 
509	 0,014243428990439 
510	 1,56025472903317E-02 
511	 1,74028224774352E-02 
512	 1,88902133111348E-02 
513	 0,01902612512295 
514	 1,87892869968866E-02 
515	 1,85559982708983E-02 
516	 1,75163283371413E-02 
517	 1,69224093923409E-02 
518	 1,85880454156149E-02 
519	 1,89313782778926E-02 
520	 1,76895381062003E-02 
521	 1,77105037124233E-02 
522	 1,73344617745507E-02 
523	 1,55939525052401E-02 
524	 1,57486732856752E-02 
525	 1,72736872375853E-02 
526	 1,80041812742634E-02 
527	 1,80516044081386E-02 
528	 1,74265804645539E-02 
529	 1,65164943728741E-02 
530	 1,56891880846361E-02 
531	 1,53050675661928E-02 
532	 1,57525027017256E-02 
533	 1,67704602369133E-02 
534	 1,74229761668004E-02 
535	 1,76416794069851E-02 
536	 1,74140690442179E-02 
537	 1,70643914643502E-02 
538	 1,69670383397342E-02 
539	 1,78015290558112E-02 
540	 1,76147672666757E-02 
541	 1,62914126723809E-02 
542	 1,63537540467605E-02 
543	 1,68452363805412E-02 
544	 1,67404071218214E-02 
545	 0,017043233226852 
546	 1,74544470561192E-02 
547	 1,65666110466241E-02 
548	 1,59773430728059E-02 
549	 1,64058869964477E-02 
550	 1,68465789923997E-02 
551	 0,017178350634497 
552	 1,74457299557105E-02 
553	 1,68656095796336E-02 
554	 1,58455030589056E-02 
555	 1,69901478888217E-02 
556	 1,78854513392755E-02 
557	 1,66067398496769E-02 
558	 1,57118890715423E-02 
559	 1,54934979195745E-02 
560	 1,53468133868902E-02 
561	 1,58651711117134E-02 
562	 1,69126595031784E-02 
563	 1,64778669777658E-02 
564	 1,53082188300983E-02 
565	 1,46047207350072E-02 
566	 1,55392366268836E-02 
567	 1,75546645762869E-02 
568	 1,76220429331113E-02 
569	 1,71568964562799E-02 
570	 1,71349717847592E-02 
571	 1,68074741700773E-02 
572	 1,64120512833627E-02 
573	 1,66704669488661E-02 
574	 1,67516067175954E-02 
575	 1,65710801278882E-02 
576	 1,73452635044663E-02 
577	 1,81699369483321E-02 
578	 1,79744861803377E-02 
579	 1,82153285687905E-02 
580	 1,87754914916979E-02 
581	 1,81225714048253E-02 
582	 0,017896006272392 
583	 1,88235311353792E-02 
584	 1,86404812274181E-02 
585	 1,80637091332955E-02 
586	 1,89120156077718E-02 
587	 1,92748915041149E-02 
588	 1,89313954245369E-02 
589	 1,96402459647025E-02 
590	 2,03504275380495E-02 
591	 2,00682150051523E-02 
592	 2,00633382634004E-02 
593	 2,03295482667498E-02 
594	 2,01479640925276E-02 
595	 1,99364613005916E-02 
596	 1,98515429182292E-02 
597	 1,95840860526988E-02 
598	 1,92927459419361E-02 
599	 0,019255936484285 
600	 1,91010381271564E-02 
601	 1,88956447516836E-02 
602	 1,93180976508865E-02 
603	 1,97456841149918E-02 
604	 1,96820599437409E-02 
605	 1,95143023616675E-02 
606	 1,93103846373793E-02 
607	 1,90634934979695E-02 
608	 1,87592983278917E-02 
609	 1,84976051415422E-02 
610	 0,018895875730076 
611	 1,90985602942719E-02 
612	 1,80177411270722E-02 
613	 1,74648244862581E-02 
614	 1,77607505355533E-02 
615	 1,84351728809871E-02 
616	 1,87027780194491E-02 
617	 1,81057103113841E-02 
618	 1,75188822533962E-02 
619	 1,72144428922697E-02 
620	 1,74437143206586E-02 
621	 1,76705554402666E-02 
622	 1,76717708709044E-02 
623	 1,73533718837346E-02 
624	 1,72545578668571E-02 
625	 1,79004623308543E-02 
626	 1,83560775206721E-02 
627	 1,84720396657872E-02 
628	 1,84902888373599E-02 
629	 1,83582605334083E-02 
630	 1,81337774029978E-02 
631	 1,83051215348142E-02 
632	 1,86635174016271E-02 
633	 1,87854424919068E-02 
634	 1,87693055313133E-02 
635	 0,018752676186715 
636	 1,91970229340806E-02 
637	 1,96795708985084E-02 
638	 1,98540431066216E-02 
639	 2,02324430581056E-02 
640	 2,07480752943857E-02 
641	 2,10622381214297E-02 
642	 2,10948342415473E-02 
643	 2,08770325747816E-02 
644	 2,08527090352674E-02 
645	 2,10010621712852E-02 
646	 2,12352086524911E-02 
647	 0,021059290373383 
648	 2,06476420775528E-02 
649	 2,10200232479194E-02 
650	 2,16938594922888E-02 
651	 2,22170009660238E-02 
652	 2,17251190276994E-02 
653	 2,06513901618777E-02 
654	 2,01050612895899E-02 
655	 0,019723340707084 
656	 1,94868666948663E-02 
657	 1,97156974420027E-02 
658	 1,98934792444921E-02 
659	 1,94991757728192E-02 
660	 1,93647209826906E-02 
661	 1,93699112447119E-02 
662	 1,86140166351396E-02 
663	 1,79247368661579E-02 
664	 1,76967103390411E-02 
665	 1,74804260725234E-02 
666	 1,72100754618078E-02 
667	 1,68434732474659E-02 
668	 1,68550303225974E-02 
669	 1,72873049141891E-02 
670	 1,78033338354974E-02 
671	 1,79979962735371E-02 
672	 1,76011303690869E-02 
673	 1,73381487239052E-02 
674	 1,72951988826766E-02 
675	 1,73818680169173E-02 
676	 1,71910395773646E-02 
677	 1,67138909228805E-02 
678	 1,67928610141841E-02 
679	 0,017342201805354 
680	 1,81573634659923E-02 
681	 1,81707898187954E-02 
682	 1,76109101176899E-02 
683	 0,01810937450352 
684	 1,86442275859016E-02 
685	 1,86689223254616E-02 
686	 1,88670069158557E-02 
687	 1,93790545538619E-02 
688	 2,03172752729711E-02 
689	 2,10133188606924E-02 
690	 2,14165131406064E-02 
691	 2,22538010953922E-02 
692	 2,34874674266297E-02 
693	 2,50517910458046E-02 
694	 2,68261861645936E-02 
695	 2,89619377733967E-02 
696	 3,19081927550825E-02 
697	 3,51599713020833E-02 
698	 3,85512064995118E-02 
699	 0,042395237394403 
700	 4,67979285191047E-02 
701	 0,051849181838432 
702	 5,74643290927035E-02 
703	 6,34872737356606E-02 
704	 6,97206745108482E-02 
705	 7,57031845603801E-02 
706	 8,12740666852922E-02 
707	 8,79055670954265E-02 
708	 9,48667777569457E-02 
709	 0,100407622108827 
710	 0,106221632623185 
711	 0,112722880907167 
712	 0,119440431589279 
713	 0,125468148294215 
714	 0,130079533703762 
715	 0,135076637891073 
716	 0,140458791282551 
717	 0,145302258249756 
718	 0,149741269956834 
719	 0,153793271121418 
720	 0,157466604635222 
721	 0,161017707297876 
722	 0,164738317343737 
723	 0,167984315374163 
724	 0,170742695291758 
725	 0,173417061676606 
726	 0,176195230328405 
727	 0,179096002116381 
728	 0,181225026341408 
729	 0,182689215962471 
730	 0,183853966081725 
731	 0,185424217698051 
732	 0,187412945390855 
733	 0,188711057177514 
734	 0,189819314129526 
735	 0,191162603528873 
736	 0,19188525457526 
737	 0,192408902410207 
738	 0,194247896975486 
739	 0,195478386983054 
740	 0,195573090834166 
741	 0,196052621638754 
742	 0,196754837854398 
743	 0,197349411903032 
744	 0,198032860856453 
745	 0,198749244618219 
746	 0,199227022518195 
747	 0,199692068070803 
748	 0,200232227280879 
749	 0,200587321715116 
750	 0,200753514617385 
751	 0,200758754742491 
752	 0,201014463362499 
753	 0,201534952265512 
754	 0,201870059805702 
755	 0,202177108049722 
756	 0,202548600841961 
757	 0,202704525940707 
758	 0,2027383067176 
759	 0,202906074026157 
760	 0,203189702866728 
761	 0,203521379991158 
762	 0,203569085334878 
763	 0,203646164193862 
764	 0,204033842603923 
765	 0,20414294669397 
766	 0,204082480889877 
767	 0,204434796263969 
768	 0,204788931925386 
769	 0,20497591196596 
770	 0,204998458354279 
771	 0,205095362324386 
772	 0,205531453741066 
773	 0,205611949252124 
774	 0,205422137554888 
775	 0,205722255014499 
776	 0,206090875571047 
777	 0,206285811360711 
778	 0,206251531857438 
779	 0,206120464336855 
780	 0,206091554165875 
781	 0,206228375578822 
782	 0,206481284533623 
783	 0,206610435156559 
784	 0,206635691097649 
785	 0,206608336325565 
786	 0,206877152685358 
787	 0,207159565399075 
788	 0,206844620679462 
789	 0,206860996824548 
790	 0,207289739480251 
791	 0,207214422428856 
792	 0,207052934475843 
793	 0,207164322749756 
794	 0,20746192748717 
795	 0,207803195195938 
796	 0,207941444974462 
797	 0,207892342896761 
798	 0,207690948175236 
799	 0,207478879264933 
800	 0,207382243659934 
801	 0,207495068420388 
802	 0,207549724418459 
803	 0,207562053089029 
804	 0,207737127527967 
805	 0,207810131294295 
806	 0,207733530094168 
807	 0,20779338502433 
808	 0,208013789512068 
809	 0,208373892714341 
810	 0,208381285382107 
811	 0,208177489699797 
812	 0,208482063034245 
813	 0,208659319623138 
814	 0,208554848277932 
815	 0,208933229240809 
816	 0,209413899991817 
817	 0,209482794075159 
818	 0,209537617190584 
819	 0,209669826545544 
820	 0,209855083080694 
821	 0,210158056070816 
822	 0,210568146301085 
823	 0,210890178488294 
824	 0,210945448006917 
825	 0,210553850413149 
826	 0,210448575966975 
827	 0,21063151911316 
828	 0,210445364501406 
829	 0,210348751498286 
830	 0,210578014927027 
831	 0,211069895430617 
832	 0,211400493113159 
833	 0,211029139657004 
834	 0,21081273872114 
835	 0,210778665939138 
836	 0,210141411972066 
837	 0,209989857989474 
838	 0,210766066926848 
839	 0,211046654917192 
840	 0,211158134606066 
841	 0,211792121626506 
842	 0,211592770943795 
843	 0,210753315852786 
844	 0,211011101576637 
845	 0,211539316774149 
846	 0,211795052719479 
847	 0,211375254685127 
848	 0,210797641900747 
849	 0,210850870776946 
850	 0,210752816310756 
851	 0,210445048628814 
852	 0,210332847734636 
853	 0,210507750020612 
854	 0,210925642022733 
855	 0,210920264858517 
856	 0,210711323773583 
857	 0,210706779873946 
858	 0,210591756801313 
859	 0,21042562710786 
860	 0,210655322120569 
861	 0,210663307934164 
862	 0,210256442687445 
863	 0,210435837936772 
864	 0,210808728743904 
865	 0,210740566668581 
866	 0,211122731558386 
867	 0,21172505866889 
868	 0,211200848166907 
869	 0,210829288001616 
870	 0,211159624365492 
871	 0,211451361076533 
872	 0,211644116452559 
873	 0,21174369897564 
874	 0,211551411670805 
875	 0,211278131098196 
876	 0,211566686717288 
877	 0,212210189315347 
878	 0,212951129943776 
879	 0,212915785056503 
880	 0,212731657607031 
881	 0,213110122717009 
882	 0,212991187459147 
883	 0,212552050331541 
884	 0,212797427854099 
885	 0,213018286073148 
886	 0,213098858112714 
887	 0,213872148430052 
888	 0,214229841126053 
889	 0,21327772313342 
890	 0,213640748796714 
891	 0,214954286450117 
892	 0,215412119609118 
893	 0,215377406427807 
894	 0,214991070235399 
895	 0,214557802454396 
896	 0,214284379935265 
897	 0,214252464980663 
898	 0,213583348714293 
899	 0,213029281939186 
900	 0,214164082395601 
901	 0,214763373921938 
902	 0,214586488512524 
903	 0,215486758827205 
904	 0,215746379804016 
905	 0,214564187147084 
906	 0,214531600456495 
907	 0,214859275654692 
908	 0,213992518936708 
909	 0,213847284114428 
910	 0,214449389199476 
911	 0,214412558223806 
912	 0,21415674502417 
913	 0,21389119476184 
914	 0,213678341925442 
915	 0,21370925972033 
916	 0,214157909193573 
917	 0,214773999809011 
918	 0,215159747362315 
919	 0,214531862628681 
920	 0,213669035282058 
921	 0,213036334528793 
922	 0,213328721365244 
923	 0,213330192491807 
924	 0,21216597675414 
925	 0,211852643869766 
926	 0,2122972227392 
927	 0,21282628341517 
928	 0,211551854030327 
929	 0,209018327042688 
930	 0,20919577578901 
931	 0,210248216369269 
932	 0,210889806029487 
933	 0,210489780337867 
934	 0,209559299103315 
935	 0,208888096367151 
936	 0,208123737425039 
937	 0,207319092355828 
938	 0,20665422156877 
939	 0,206748723757392 
940	 0,207280371742619 
941	 0,205345380595223 
942	 0,203510916265892 
943	 0,203975394821196 
944	 0,203568501111868 
945	 0,202183346268488 
946	 0,200587403612817 
947	 0,199568140595543 
948	 0,199240539506053 
949	 0,199040506172924 
950	 0,198141188902335 
951	 0,196320119945681 
952	 0,195560275999334 
953	 0,195012567893729 
954	 0,193458289634582 
955	 0,192473773587791 
956	 0,191794046346133 
957	 0,189843001918603 
958	 0,188123556953197 
959	 0,187372545402359 
960	 0,188341314435974 
961	 0,188941668081433 
962	 0,187681629388947 
963	 0,186467552647862 
964	 0,185349749198292 
965	 0,183969754215264 
966	 0,18377678553502 
967	 0,184603907259786 
968	 0,184868729094076 
969	 0,184561464579856 
970	 0,183801324960176 
971	 0,183463399686155 
972	 0,183596117548958 
973	 0,18404280029642 
974	 0,183107262240531 
975	 0,182424620969136 
976	 0,185452652713018 
977	 0,185436624625017 
978	 0,182155326443967 
979	 0,181507285310927 
980	 0,182144445128406 
981	 0,183401652941049 
982	 0,185235122041742 
983	 0,186240043056431 
984	 0,185242415309335 
985	 0,185057224572171 
986	 0,18540751939517 
987	 0,184601418664783 
988	 0,185668873362391 
989	 0,188290837695349 
990	 0,188213770950212 
991	 0,187810672065286 
992	 0,188259939501611 
993	 0,188783841860065 
994	 0,18825541426267 
995	 0,185953240165978 
996	 0,186834813441607 
997	 0,189766874009388 
998	 0,190786301475625 
999	 0,190959969474714 
1000	 0,190737811697295 
1001	 0,190811531147352 
1002	 0,191559862888293 
1003	 0,193027064093321 
1004	 0,194580456136963 
1005	 0,194344867183932 
1006	 0,19110067861347 
1007	 0,19101673362495 
1008	 0,193183521949897 
1009	 0,193966956775076 
1010	 0,194213648928486 
1011	 0,194043511580086 
1012	 0,192971864177356 
1013	 0,194886432046744 
1014	 0,199835734629809 
1015	 0,198905258047838 
1016	 0,195870161935356 
1017	 0,194599890827551 
1018	 0,195341609015815 
1019	 0,196938908764436 
1020	 0,197509175214664 
1021	 0,198113917636569 
1022	 0,199253916219522 
1023	 0,201943611619279 
1024	 0,202621802073663 
1025	 0,200938328159927 
1026	 0,201185525376514 
1027	 0,203266304646341 
1028	 0,206225610041622 
1029	 0,204403198989452 
1030	 0,203427885838044 
1031	 0,209779959286084 
1032	 0,210596358044716 
1033	 0,207084865709432 
1034	 0,206828059839959 
1035	 0,20779870110403 
1036	 0,209267875892815 
1037	 0,210106491467703 
1038	 0,211297837859304 
1039	 0,212798739776856 
1040	 0,212721253980006 
1041	 0,20929606893152 
1042	 0,202923307225821 
1043	 0,207969121118864 
1044	 0,215611797992326 
1045	 0,21183210644209 
1046	 0,210471428805865 
1047	 0,212728759728801 
1048	 0,214160357228533 
1049	 0,21493509117895 
1050	 0,215455829001401 
1051	 0,21736465246972 
1052	 0,22060992355024 
1053	 0,224112907192017 
1054	 0,22313689671294 
1055	 0,220661706253995 
1056	 0,219810166743677 
1057	 0,222293190116148 
1058	 0,222592611789979 
1059	 0,213569789848716 
1060	 0,213159115863847 
1061	 0,217765759076571 
1062	 0,209473096199589 
1063	 0,210155025759337 
1064	 0,221241719261521 
1065	 0,222549441543363 
1066	 0,225529438872663 
1067	 0,231662127924018 
1068	 0,223340648227645 
1069	 0,208150522343583 
1070	 0,196559462721982 
1071	 0,203108951548587 
1072	 0,220050580727406 
1073	 0,23464134357573 
1074	 0,23748758334317 
1075	 0,230045397772579 
