Wavelength	BELON00293.asd
325	-5,93674703039355E-02 
326	-6,27486991123355E-03 
327	 6,11624918900352E-02 
328	 5,57462194037132E-02 
329	-5,90549169859515E-02 
330	-0,113357717716649 
331	 2,35534193729597E-02 
332	 2,55203751382152E-02 
333	-1,88402154575516E-02 
334	 0,181265986767748 
335	 0,224666449332899 
336	 8,58962794893016E-02 
337	 4,63815585114828E-02 
338	 4,03010628739977E-02 
339	 3,77331269109332E-04 
340	 2,74410942848771E-02 
341	 8,79530479353944E-02 
342	 0,092801879142696 
343	 7,59162171380927E-02 
344	 4,96652823779809E-02 
345	 0,027028823944106 
346	 3,77126404710905E-02 
347	 0,101441793385711 
348	 7,29797087817103E-02 
349	-5,41089257314371E-03 
350	 3,40576813477358E-02 
351	 6,57104767547665E-02 
352	 4,86774036754152E-02 
353	 4,28027394408846E-02 
354	 0,026181585266132 
355	-2,76417461417628E-02 
356	-4,00811524215354E-02 
357	-1,11537152112686E-02 
358	 2,76899606601063E-02 
359	 0,03823253253291 
360	 1,00064890189174E-02 
361	 5,13347022587269E-03 
362	 1,85611372993019E-02 
363	 3,28539400877695E-02 
364	 3,00036667309366E-02 
365	 0,016568474714812 
366	 3,52534528623083E-02 
367	 4,75835780608827E-02 
368	 0,033359855508392 
369	 2,86320428659513E-02 
370	 2,53073131546589E-02 
371	-4,40754499743643E-04 
372	-6,53573831416397E-04 
373	 2,18901782857808E-02 
374	-6,2066430154829E-03 
375	-2,30124721016319E-02 
376	 1,50764000978455E-02 
377	 3,32219608153259E-02 
378	 3,38886355234472E-02 
379	 4,80978844141558E-02 
380	 4,54213205727637E-02 
381	 2,51759661219912E-02 
382	 3,62465945526567E-02 
383	 4,41850560496511E-02 
384	 1,77631653835501E-02 
385	 9,55424234484993E-05 
386	-3,00469723271725E-03 
387	-1,61190582849449E-03 
388	 9,5040384604932E-03 
389	 2,55803398691451E-02 
390	 1,54831476234606E-02 
391	 2,32564686984391E-03 
392	 1,55056918206307E-02 
393	 2,08738148301226E-02 
394	 1,52855819346005E-02 
395	 1,06141526543496E-02 
396	 1,19031162601724E-02 
397	 2,03047482619921E-02 
398	 2,31417940854796E-02 
399	 2,09749875293279E-02 
400	 1,67524095039527E-02 
401	 1,44855431557892E-02 
402	 1,41184650450556E-02 
403	 9,95317368897682E-03 
404	 7,39691317169454E-03 
405	 9,93932790398921E-03 
406	 1,60087562870717E-02 
407	 2,01092423627411E-02 
408	 0,011081547853436 
409	 1,08700198454449E-02 
410	 2,18177764318265E-02 
411	 2,28151093932148E-02 
412	 1,83511403561636E-02 
413	 1,38303680786808E-02 
414	 7,87260784172593E-03 
415	 3,76526421579612E-03 
416	 0,010093919726086 
417	 1,57496415396661E-02 
418	 1,61856067956603E-02 
419	 1,46270595344119E-02 
420	 0,012194197498605 
421	 9,8987195235339E-03 
422	 1,00719223802992E-02 
423	 1,15319163546502E-02 
424	 8,19897312438709E-03 
425	 7,29006479342672E-03 
426	 1,20496692072003E-02 
427	 1,01351884581753E-02 
428	 5,71152303014221E-03 
429	 9,12044249584212E-03 
430	 1,20610483066887E-02 
431	 0,012627805046903 
432	 1,42905438805447E-02 
433	 1,39428858304811E-02 
434	 9,23562501544822E-03 
435	 8,23349038161138E-03 
436	 1,09281247328362E-02 
437	 1,36461631938239E-02 
438	 1,45497879478789E-02 
439	 1,31097939361772E-02 
440	 1,22351124914909E-02 
441	 1,22798701989323E-02 
442	 1,33027534239395E-02 
443	 1,25279561735376E-02 
444	 1,10015036708221E-02 
445	 0,015233576385156 
446	 0,016628013807962 
447	 1,09725847099819E-02 
448	 1,05345214190368E-02 
449	 1,35973542412264E-02 
450	 1,40228530908624E-02 
451	 1,18340132475199E-02 
452	 8,41445314180975E-03 
453	 1,05640092906683E-02 
454	 0,013885759531599 
455	 1,41095093217707E-02 
456	 1,32024211238738E-02 
457	 0,011755188282894 
458	 9,75305223828832E-03 
459	 1,09550713890556E-02 
460	 1,55725238105436E-02 
461	 1,40328410466162E-02 
462	 1,06873903015043E-02 
463	 1,24952081428149E-02 
464	 1,29685809922481E-02 
465	 1,12172268881226E-02 
466	 9,40684070810483E-03 
467	 9,76088921399787E-03 
468	 1,31911756415188E-02 
469	 1,39099784599117E-02 
470	 1,24233117700286E-02 
471	 1,13769892492845E-02 
472	 1,17482578869236E-02 
473	 1,30971083045855E-02 
474	 1,12104376291141E-02 
475	 8,90486658136424E-03 
476	 9,14914265497577E-03 
477	 0,010916258151756 
478	 1,30629964688407E-02 
479	 1,32322293802328E-02 
480	 1,34964430059306E-02 
481	 1,42410103198973E-02 
482	 0,011093735864309 
483	 7,34372408231425E-03 
484	 8,31975270635042E-03 
485	 0,011925534110906 
486	 1,56246035738973E-02 
487	 1,26074234781027E-02 
488	 8,51620079013425E-03 
489	 7,92479198056846E-03 
490	 1,05275785216473E-02 
491	 1,38402170444024E-02 
492	 1,25222482026942E-02 
493	 1,10610211546484E-02 
494	 1,09414345462876E-02 
495	 1,11814523264992E-02 
496	 0,011251214210617 
497	 1,06318462285588E-02 
498	 8,99398819327247E-03 
499	 7,32602577412753E-03 
500	 8,6832925897158E-03 
501	 1,03855019813296E-02 
502	 1,09415927193479E-02 
503	 1,19827053981739E-02 
504	 1,23773091130609E-02 
505	 9,64440454564226E-03 
506	 8,99618905246797E-03 
507	 1,09668629368186E-02 
508	 1,04799528602891E-02 
509	 9,2092147302035E-03 
510	 8,90903239772458E-03 
511	 9,8292519811944E-03 
512	 1,15609074254491E-02 
513	 1,32604204452707E-02 
514	 1,32497710317022E-02 
515	 1,12311736062481E-02 
516	 1,04974842357402E-02 
517	 1,09821961593322E-02 
518	 1,20760435051156E-02 
519	 1,26562607326943E-02 
520	 1,25072869557388E-02 
521	 1,23314302552029E-02 
522	 1,18554680206738E-02 
523	 0,011011782188689 
524	 1,12726629675935E-02 
525	 1,21973228115642E-02 
526	 1,23414094355186E-02 
527	 1,22979812805072E-02 
528	 1,20747638611751E-02 
529	 1,07432693922082E-02 
530	 9,58530777936383E-03 
531	 1,00795811080737E-02 
532	 1,00130567381614E-02 
533	 9,39556034302726E-03 
534	 9,89812958878662E-03 
535	 1,06482092083271E-02 
536	 1,10932668389005E-02 
537	 1,12401751342486E-02 
538	 1,12510766239801E-02 
539	 1,14681443233091E-02 
540	 1,13520355980133E-02 
541	 1,08924224608307E-02 
542	 1,08711181757931E-02 
543	 1,07154576209004E-02 
544	 9,91436194539951E-03 
545	 1,05244999011915E-02 
546	 1,19545531393716E-02 
547	 1,14445078708088E-02 
548	 1,07461526106648E-02 
549	 1,06914928829445E-02 
550	 1,06965303848269E-02 
551	 1,09039529672614E-02 
552	 1,16688110410454E-02 
553	 1,15398330294947E-02 
554	 1,05689015559786E-02 
555	 1,08019104279637E-02 
556	 0,011101398961193 
557	 1,05586895300409E-02 
558	 1,06243670445139E-02 
559	 1,10863255910121E-02 
560	 1,07410850585894E-02 
561	 1,05276422922031E-02 
562	 1,07576662742105E-02 
563	 1,09750718594084E-02 
564	 1,09348193524266E-02 
565	 1,03691339158286E-02 
566	 1,06300055775003E-02 
567	 1,16310409308882E-02 
568	 1,17503283432892E-02 
569	 1,18592990128717E-02 
570	 1,24536725268396E-02 
571	 0,012123064708804 
572	 1,12839281178238E-02 
573	 1,12596444961161E-02 
574	 1,13935790767322E-02 
575	 1,15187282211586E-02 
576	 1,18487968200103E-02 
577	 1,22674208939266E-02 
578	 1,26340881084148E-02 
579	 1,30383736380729E-02 
580	 1,33566321556935E-02 
581	 1,31302962302624E-02 
582	 1,30966975239227E-02 
583	 1,35583006378023E-02 
584	 1,31836532190268E-02 
585	 1,27102798741203E-02 
586	 1,37696444313029E-02 
587	 1,43757184958105E-02 
588	 1,41498259101184E-02 
589	 1,43378751712452E-02 
590	 1,46552960688753E-02 
591	 1,47962342849769E-02 
592	 1,50078348610798E-02 
593	 1,51830878439422E-02 
594	 1,48944866609973E-02 
595	 1,46708616931054E-02 
596	 1,47395575610834E-02 
597	 1,47911710021418E-02 
598	 0,014734707546232 
599	 1,44783565394351E-02 
600	 1,44383864405634E-02 
601	 1,46153334661481E-02 
602	 1,44890627405369E-02 
603	 1,44188095682247E-02 
604	 1,46361333329072E-02 
605	 1,42760803842462E-02 
606	 0,013644458487051 
607	 1,38643868203326E-02 
608	 1,38767538202615E-02 
609	 0,013507243904931 
610	 1,43104981231834E-02 
611	 1,47709131375927E-02 
612	 1,29149688697265E-02 
613	 1,23912438388577E-02 
614	 1,34211334171176E-02 
615	 1,36090952301251E-02 
616	 1,32706918054406E-02 
617	 1,26695030241433E-02 
618	 1,23712981937322E-02 
619	 1,25036220737699E-02 
620	 1,31304810647206E-02 
621	 1,37771980635819E-02 
622	 1,40580149192365E-02 
623	 1,30794252378253E-02 
624	 1,24055681388218E-02 
625	 1,35944097935149E-02 
626	 1,36274155831181E-02 
627	 1,27072636557369E-02 
628	 1,34403833168701E-02 
629	 0,013955991898959 
630	 1,34706673993825E-02 
631	 1,36588921985026E-02 
632	 1,42216585786218E-02 
633	 1,43776455123998E-02 
634	 1,42857366311252E-02 
635	 1,41197541111145E-02 
636	 0,014463739817569 
637	 1,47727823552384E-02 
638	 1,46487536604228E-02 
639	 1,54791969549083E-02 
640	 1,66567891141556E-02 
641	 1,59828051284084E-02 
642	 0,015558833753956 
643	 1,60586184863158E-02 
644	 1,59991013147482E-02 
645	 1,57515244805085E-02 
646	 1,59614513212965E-02 
647	 0,016036618275006 
648	 0,015984562315666 
649	 0,016322732226672 
650	 1,68093967647942E-02 
651	 1,71965206818354E-02 
652	 1,69370164533878E-02 
653	 1,61296482789778E-02 
654	 1,50615211517163E-02 
655	 0,014466514738098 
656	 1,45686763284575E-02 
657	 1,49422617925485E-02 
658	 1,50278230120879E-02 
659	 1,43360828815662E-02 
660	 0,014439306522221 
661	 1,51065558760051E-02 
662	 1,47333201240566E-02 
663	 1,39208335154108E-02 
664	 1,30232033176288E-02 
665	 1,22754981217666E-02 
666	 1,18502109718499E-02 
667	 1,19223955165579E-02 
668	 0,01229212026179 
669	 1,27350674921417E-02 
670	 1,27325447219881E-02 
671	 1,27100296871374E-02 
672	 1,29971443465631E-02 
673	 1,31656776676786E-02 
674	 1,31717415577328E-02 
675	 1,30569339260165E-02 
676	 1,31117892711713E-02 
677	 1,33332775591652E-02 
678	 1,29305461859968E-02 
679	 1,26429364720484E-02 
680	 1,33932124410624E-02 
681	 1,36920109471237E-02 
682	 1,34503239945552E-02 
683	 1,35995346850645E-02 
684	 1,37171667866773E-02 
685	 1,36316723216852E-02 
686	 1,39439257842885E-02 
687	 1,46048998021291E-02 
688	 1,53925367397585E-02 
689	 1,61776273772208E-02 
690	 0,016890679281732 
691	 1,74092195507059E-02 
692	 1,83531270330445E-02 
693	 2,02338072846868E-02 
694	 2,20815762241505E-02 
695	 2,40356030925757E-02 
696	 2,69148468565005E-02 
697	 3,02304067904531E-02 
698	 3,37668366599269E-02 
699	 3,74365907139135E-02 
700	 4,15243510790174E-02 
701	 0,046393960099223 
702	 5,21575383577562E-02 
703	 0,058580526302879 
704	 6,49868652547731E-02 
705	 7,12496650513908E-02 
706	 7,73870629678959E-02 
707	 8,44538418277103E-02 
708	 9,18639603238071E-02 
709	 9,82393454952151E-02 
710	 0,105072566534178 
711	 0,112572382545414 
712	 0,119654633632319 
713	 0,126207704551774 
714	 0,132222005402634 
715	 0,138619166707679 
716	 0,145207886367575 
717	 0,151077597305433 
718	 0,156450064905307 
719	 0,16143107589558 
720	 0,166290958287162 
721	 0,17100723317342 
722	 0,175485508035471 
723	 0,179610274607405 
724	 0,183392399899354 
725	 0,18686661646372 
726	 0,190293542185689 
727	 0,193755617879443 
728	 0,196455963432091 
729	 0,198577670763565 
730	 0,200610765425277 
731	 0,202768387712154 
732	 0,205008395170069 
733	 0,206749990148368 
734	 0,208201697793559 
735	 0,209565381658459 
736	 0,210790591461777 
737	 0,211957567661016 
738	 0,21329640667755 
739	 0,214280572886146 
740	 0,214877529938828 
741	 0,216141521987841 
742	 0,217394666987668 
743	 0,217778471702947 
744	 0,218123183144558 
745	 0,218656778487655 
746	 0,219499773927878 
747	 0,220022094281783 
748	 0,220001242809069 
749	 0,220562464247574 
750	 0,221236776836232 
751	 0,221097104831102 
752	 0,221028281416525 
753	 0,22125551768739 
754	 0,221623519601046 
755	 0,222000525351696 
756	 0,222269580522656 
757	 0,222304417224759 
758	 0,222289138946375 
759	 0,222619279395777 
760	 0,223058044814874 
761	 0,223460889644054 
762	 0,223537102446456 
763	 0,223643154764532 
764	 0,224086983882809 
765	 0,224066299082132 
766	 0,223730566395587 
767	 0,223849214413595 
768	 0,224056716008427 
769	 0,224196162512904 
770	 0,224163108912432 
771	 0,224167128623658 
772	 0,224455152839517 
773	 0,224485307477044 
774	 0,224366949684147 
775	 0,224870467813869 
776	 0,225180280042711 
777	 0,224923280571086 
778	 0,224697828941215 
779	 0,224616468095523 
780	 0,224725379039122 
781	 0,2251074994381 
782	 0,22557813178867 
783	 0,225489322196459 
784	 0,225211501930121 
785	 0,22503406625937 
786	 0,225135378762087 
787	 0,225368321700566 
788	 0,225415777057979 
789	 0,225494062515671 
790	 0,225610979718828 
791	 0,225565198551344 
792	 0,22544234389958 
793	 0,225335739892514 
794	 0,225386633334183 
795	 0,225603861163333 
796	 0,22598351324194 
797	 0,226121574902982 
798	 0,225957667706971 
799	 0,225994565892245 
800	 0,226021969271334 
801	 0,225848926149713 
802	 0,225974652370362 
803	 0,226285017953487 
804	 0,226238606942944 
805	 0,226291827839809 
806	 0,226511057581653 
807	 0,226325843516064 
808	 0,226140558629513 
809	 0,226384219320206 
810	 0,225902631032108 
811	 0,225155818807788 
812	 0,226141119171301 
813	 0,226835762676707 
814	 0,226508666401559 
815	 0,226401780526449 
816	 0,226532655638677 
817	 0,226789474070987 
818	 0,226987309373793 
819	 0,227075774369385 
820	 0,227109489700056 
821	 0,226952076359604 
822	 0,226646389675526 
823	 0,226840311242995 
824	 0,2272231689651 
825	 0,227315825876819 
826	 0,227460641360965 
827	 0,227613967824309 
828	 0,227379176046176 
829	 0,227302742028888 
830	 0,227568793859158 
831	 0,227367264573319 
832	 0,226877649441241 
833	 0,226465148211261 
834	 0,22616301969573 
835	 0,226052680435512 
836	 0,226292666128519 
837	 0,226586919551538 
838	 0,226745563529892 
839	 0,226771449713654 
840	 0,226760505843189 
841	 0,226847867875749 
842	 0,226938311842564 
843	 0,227092136093888 
844	 0,227649616713609 
845	 0,227852816633818 
846	 0,22738781316111 
847	 0,227253723932433 
848	 0,227329304312628 
849	 0,227273581539232 
850	 0,227302259562745 
851	 0,227344954907842 
852	 0,227024346401317 
853	 0,226706612251628 
854	 0,226612550173248 
855	 0,226680562380328 
856	 0,226970461893633 
857	 0,227561611836227 
858	 0,227240744052639 
859	 0,226366408792558 
860	 0,227153283468624 
861	 0,227670949617631 
862	 0,227070531475044 
863	 0,226817618034335 
864	 0,226936499996695 
865	 0,227248647056511 
866	 0,227778750610921 
867	 0,228143063373165 
868	 0,227183951661928 
869	 0,226581375127306 
870	 0,22702694250457 
871	 0,227272064418248 
872	 0,227202254169131 
873	 0,226842619136164 
874	 0,2266711742342 
875	 0,226746463514347 
876	 0,226811451603015 
877	 0,227248796197573 
878	 0,227944798549623 
879	 0,227333515751089 
880	 0,226769813409893 
881	 0,227741340918114 
882	 0,228106399764161 
883	 0,227639129461274 
884	 0,226854898923417 
885	 0,226363020105469 
886	 0,226545667133903 
887	 0,227867134434408 
888	 0,228555233086378 
889	 0,227135037523314 
890	 0,226654157722761 
891	 0,227291050040795 
892	 0,228201507592408 
893	 0,228614038094085 
894	 0,228310055969612 
895	 0,227970997658504 
896	 0,227345299091288 
897	 0,226347322828064 
898	 0,226081267345912 
899	 0,226465302988723 
900	 0,227047774903374 
901	 0,227092149577403 
902	 0,226643188861413 
903	 0,226883530261146 
904	 0,227021456616085 
905	 0,226637806986222 
906	 0,226518688256435 
907	 0,226645155583355 
908	 0,226847188639469 
909	 0,227089210451389 
910	 0,227200621566428 
911	 0,226791170655928 
912	 0,226075838352599 
913	 0,225341210672044 
914	 0,225529470788012 
915	 0,225769436569951 
916	 0,225070606891395 
917	 0,22496116605267 
918	 0,22525841671302 
919	 0,224673305070321 
920	 0,224391226571855 
921	 0,224605608180963 
922	 0,224164243736617 
923	 0,223768454334009 
924	 0,224001714565517 
925	 0,224288405336927 
926	 0,224247553547385 
927	 0,223417992763067 
928	 0,221999645168667 
929	 0,220454639424923 
930	 0,219953986912313 
931	 0,220101343674388 
932	 0,220385579006254 
933	 0,219159745606842 
934	 0,217639110182662 
935	 0,217583603664804 
936	 0,217473339114779 
937	 0,217008872621094 
938	 0,21635176306634 
939	 0,215561097305855 
940	 0,214708707309007 
941	 0,213934335548675 
942	 0,21323205530326 
943	 0,212496486961187 
944	 0,210750093640503 
945	 0,208626083206527 
946	 0,207554500287557 
947	 0,206788317224097 
948	 0,20604785750838 
949	 0,205052977696127 
950	 0,204332556374514 
951	 0,203960122865987 
952	 0,202398865201532 
953	 0,200317793505761 
954	 0,198739062875227 
955	 0,197862481721312 
956	 0,197176240924753 
957	 0,195211977788188 
958	 0,193247008920542 
959	 0,191920227476859 
960	 0,191861778636791 
961	 0,191874485837779 
962	 0,191042654130047 
963	 0,190065366605716 
964	 0,189120388232172 
965	 0,188314100164536 
966	 0,188589779234116 
967	 0,189658565062106 
968	 0,190155931037608 
969	 0,189223213353395 
970	 0,18690565982016 
971	 0,185570230593115 
972	 0,185546493025214 
973	 0,186809718338803 
974	 0,187607459481083 
975	 0,188457424441928 
976	 0,191020920102891 
977	 0,190099230672468 
978	 0,186029643898119 
979	 0,184900750714034 
980	 0,185385299862707 
981	 0,186621905624651 
982	 0,187154032521103 
983	 0,187932460765993 
984	 0,189774659274491 
985	 0,188587907962595 
986	 0,186467786682274 
987	 0,188802564383252 
988	 0,191252259838035 
989	 0,192423279599331 
990	 0,192344344142579 
991	 0,191462735309639 
992	 0,19038422660075 
993	 0,190809025355435 
994	 0,191053545537883 
995	 0,189464514824521 
996	 0,189540031544676 
997	 0,190751249716329 
998	 0,190751931889404 
999	 0,192198669355481 
1000	 0,194833770553544 
1001	 0,195182437234676 
1002	 0,195489221709458 
1003	 0,196625535026902 
1004	 0,19698170436095 
1005	 0,195685191541912 
1006	 0,192645338553821 
1007	 0,195350790626385 
1008	 0,199898752464255 
1009	 0,197172997401504 
1010	 0,196472519385786 
1011	 0,198694328953741 
1012	 0,198112367575092 
1013	 0,19946809006234 
1014	 0,202955538913331 
1015	 0,198397383550828 
1016	 0,19510446137475 
1017	 0,200412931044639 
1018	 0,202287964468516 
1019	 0,201116945302191 
1020	 0,20024471842535 
1021	 0,201841273393058 
1022	 0,205175573440871 
1023	 0,206360260426523 
1024	 0,207365793258402 
1025	 0,208131954718027 
1026	 0,205784856973245 
1027	 0,202506552177449 
1028	 0,200741352508724 
1029	 0,205755539255908 
1030	 0,211511011017555 
1031	 0,210639756279252 
1032	 0,210125632605728 
1033	 0,210109322926711 
1034	 0,208144002216081 
1035	 0,206471226109198 
1036	 0,206769675068729 
1037	 0,21226815083098 
1038	 0,216574334834808 
1039	 0,216707636651866 
1040	 0,215008329424254 
1041	 0,211967406785082 
1042	 0,208709065714854 
1043	 0,210286470542214 
1044	 0,216008427521639 
1045	 0,223586132621615 
1046	 0,224875481539541 
1047	 0,219943515260953 
1048	 0,21354073825076 
1049	 0,215493662418385 
1050	 0,224522489821804 
1051	 0,222224600469347 
1052	 0,218208195438589 
1053	 0,218296050144153 
1054	 0,225973926226397 
1055	 0,229815187067391 
1056	 0,221130058227599 
1057	 0,217096516394197 
1058	 0,215592464929975 
1059	 0,210380891088925 
1060	 0,211345013605767 
1061	 0,21657085833899 
1062	 0,216711430832613 
1063	 0,220751110373083 
1064	 0,226863017939401 
1065	 0,217567073878019 
1066	 0,216715580075838 
1067	 0,229529993558663 
1068	 0,226474600602327 
1069	 0,215093996710248 
1070	 0,205506450610875 
1071	 0,211301054350506 
1072	 0,221352623232694 
1073	 0,220936961740101 
1074	 0,225573481581056 
1075	 0,227360217600254 
