Wavelength	BELON00105.asd
325	-5,97338274457862E-02 
326	-5,92008236636336E-02 
327	-1,39351457249354E-02 
328	 2,95073029355218E-02 
329	 1,17947562166629E-02 
330	 2,62502929389115E-02 
331	 0,142810876188347 
332	 4,27115196810357E-02 
333	-0,130940236648482 
334	-0,028398888719979 
335	 5,83881167762336E-02 
336	 6,40753587070737E-02 
337	 2,75369471729632E-02 
338	-4,34320489566205E-02 
339	-0,153055920864015 
340	-5,10051669799253E-02 
341	 0,125065619846229 
342	 3,76445956124982E-02 
343	 4,49612794825473E-03 
344	 0,072387668476147 
345	 3,78339341903905E-02 
346	 4,91044917093422E-03 
347	 7,56641498736775E-02 
348	 7,83872894305215E-02 
349	 2,48981371923687E-02 
350	 1,69406496707684E-02 
351	 2,39583553759231E-02 
352	 3,40554438140002E-02 
353	 0,046300386232646 
354	 4,23823047923437E-02 
355	 3,63956089189672E-03 
356	-2,16332639203906E-02 
357	-1,59915540714809E-02 
358	 5,21212809314726E-02 
359	 8,69461109456132E-02 
360	 5,12247868115343E-02 
361	 1,69862375696036E-02 
362	-3,75500074324455E-03 
363	-9,16537193011148E-03 
364	 1,93924371724043E-03 
365	 2,09618110456129E-02 
366	 1,97142901878294E-02 
367	 1,53680914168084E-02 
368	 1,86523163172466E-02 
369	 0,025899920723669 
370	 3,05000410203859E-02 
371	 2,01977498533317E-02 
372	 1,47689941814185E-02 
373	 1,46307768373906E-02 
374	-1,08485981630096E-02 
375	-9,23275864487095E-03 
376	 5,00867860423357E-02 
377	 5,75051237948373E-02 
378	 2,63416563880914E-02 
379	 1,93229991145931E-02 
380	 1,02685650256621E-02 
381	-2,00278126821305E-04 
382	 2,82854468265812E-02 
383	 5,05878095770101E-02 
384	 0,028643033037249 
385	 7,74416127561078E-03 
386	-1,37233592507768E-03 
387	 2,55486543467892E-03 
388	 0,013413749245846 
389	 2,39894063384585E-02 
390	 1,48188479000256E-02 
391	 2,82839745697925E-03 
392	 9,39645403603597E-03 
393	 1,37309968305097E-02 
394	 1,35920270768882E-02 
395	 1,55413309819058E-02 
396	 2,10825468090776E-02 
397	 2,96359186960287E-02 
398	 3,30352321222129E-02 
399	 3,16561947563355E-02 
400	 2,74258277622193E-02 
401	 2,33365637190819E-02 
402	 1,97910836451528E-02 
403	 1,38617417931218E-02 
404	 8,61958228735466E-03 
405	 6,47551932959865E-03 
406	 1,22628727156904E-02 
407	 1,94534352222791E-02 
408	 1,34037142235839E-02 
409	 1,35849813471551E-02 
410	 2,26778644784266E-02 
411	 2,61831239256746E-02 
412	 2,16350666619842E-02 
413	 8,88328568017842E-03 
414	 7,35281601044623E-03 
415	 0,016056054708114 
416	 0,023592307916811 
417	 2,72980226772823E-02 
418	 2,55597106780267E-02 
419	 1,77947307865341E-02 
420	 0,010572532787884 
421	 0,011877604364463 
422	 1,46080113554313E-02 
423	 1,69193659915921E-02 
424	 1,91538626065071E-02 
425	 2,08615941422856E-02 
426	 2,14301078938182E-02 
427	 0,018739891906756 
428	 1,50887568118934E-02 
429	 1,48410605136026E-02 
430	 1,55879048453958E-02 
431	 1,64665510272507E-02 
432	 1,70341792297393E-02 
433	 1,73065555694924E-02 
434	 1,73114277050363E-02 
435	 1,62344658029938E-02 
436	 1,57487767898009E-02 
437	 0,020694520890668 
438	 0,023987569959761 
439	 2,30325589169359E-02 
440	 2,17157474992513E-02 
441	 2,00922633759769E-02 
442	 0,017745751323319 
443	 1,93402666447721E-02 
444	 0,023741767852205 
445	 2,38800125808583E-02 
446	 2,09655096374156E-02 
447	 1,65460266311028E-02 
448	 1,74069234682868E-02 
449	 2,06585099032453E-02 
450	 1,91757638247179E-02 
451	 1,77039277203818E-02 
452	 1,77540842686437E-02 
453	 1,96962266402956E-02 
454	 2,02828914801781E-02 
455	 1,69076386355207E-02 
456	 1,69697071515314E-02 
457	 1,94583687811302E-02 
458	 0,017291264133258 
459	 1,73996256929976E-02 
460	 2,16258930408688E-02 
461	 2,24444212795818E-02 
462	 2,10795710386782E-02 
463	 2,01204001013168E-02 
464	 1,92363330579149E-02 
465	 1,87780226392927E-02 
466	 1,94719851908798E-02 
467	 2,17653812436383E-02 
468	 2,51870887092631E-02 
469	 2,26676143328842E-02 
470	 1,82319634535506E-02 
471	 2,21214842349302E-02 
472	 2,38059404758401E-02 
473	 2,10796703905525E-02 
474	 2,03868994723076E-02 
475	 2,03028075945977E-02 
476	 1,92285622651348E-02 
477	 2,08295760891714E-02 
478	 2,38345816837337E-02 
479	 2,30401884331128E-02 
480	 2,18054121497338E-02 
481	 2,15500619901664E-02 
482	 2,05389309696756E-02 
483	 1,93564896396039E-02 
484	 0,019021328207074 
485	 2,03068242096063E-02 
486	 2,25187285714162E-02 
487	 2,27408775577973E-02 
488	 2,10826096624566E-02 
489	 1,81999804884069E-02 
490	 1,99574410060138E-02 
491	 2,37229200333808E-02 
492	 2,11240537573685E-02 
493	 2,02022211138206E-02 
494	 2,26283651069901E-02 
495	 2,15496428600035E-02 
496	 1,97511717606392E-02 
497	 2,08531530655463E-02 
498	 2,14573941011931E-02 
499	 2,09590703291097E-02 
500	 1,97738183973477E-02 
501	 1,92960095650301E-02 
502	 2,02072099274965E-02 
503	 2,10264081101053E-02 
504	 2,12302712586803E-02 
505	 2,02226042151558E-02 
506	 1,99168024741107E-02 
507	 2,07984343343009E-02 
508	 2,22270744145704E-02 
509	 2,30542350144945E-02 
510	 2,23338696488964E-02 
511	 2,12805351259367E-02 
512	 2,05464657602847E-02 
513	 2,09871661167345E-02 
514	 2,18658315207789E-02 
515	 2,27856078871926E-02 
516	 2,36344275677274E-02 
517	 2,40104385390896E-02 
518	 2,34036907625217E-02 
519	 2,33270034151981E-02 
520	 0,023892535334105 
521	 2,40650324724859E-02 
522	 2,33951388704755E-02 
523	 2,18001352125447E-02 
524	 2,18743696977066E-02 
525	 2,31482382997101E-02 
526	 2,36642426009851E-02 
527	 2,41189593572303E-02 
528	 2,43747426644747E-02 
529	 2,27384292406994E-02 
530	 2,12492907768083E-02 
531	 2,22882822137933E-02 
532	 2,25300651106265E-02 
533	 2,18588472012964E-02 
534	 2,24158851251249E-02 
535	 2,31259518561938E-02 
536	 2,33362204369359E-02 
537	 2,32782320464665E-02 
538	 2,29529692106112E-02 
539	 2,22203294825632E-02 
540	 2,21481611344972E-02 
541	 2,29621555978631E-02 
542	 2,40068641635444E-02 
543	 2,45267141020407E-02 
544	 0,023910006714331 
545	 2,40297174180762E-02 
546	 2,46013892929545E-02 
547	 2,35780615206036E-02 
548	 2,30247764584044E-02 
549	 2,37319544298612E-02 
550	 2,34622811490252E-02 
551	 2,31890832551642E-02 
552	 0,024887003343831 
553	 2,50003644848402E-02 
554	 2,33434720684265E-02 
555	 2,34849750487101E-02 
556	 2,41337762121418E-02 
557	 2,41505894211194E-02 
558	 2,40856195825457E-02 
559	 2,39938771742384E-02 
560	 2,37219972820952E-02 
561	 2,39543215292704E-02 
562	 2,47317327559729E-02 
563	 2,44758110211695E-02 
564	 2,38820909388815E-02 
565	 2,40380219451864E-02 
566	 2,47797774955306E-02 
567	 2,55393709172032E-02 
568	 2,43975906356642E-02 
569	 0,023576466946759 
570	 2,45202221536857E-02 
571	 2,51384601119771E-02 
572	 2,51269525200984E-02 
573	 2,44895049062895E-02 
574	 2,42571320078105E-02 
575	 2,48877419872853E-02 
576	 2,63805074471543E-02 
577	 2,78047194002841E-02 
578	 2,81435227683996E-02 
579	 2,79110873434345E-02 
580	 2,75192499109323E-02 
581	 2,77698366344581E-02 
582	 2,81957085197761E-02 
583	 2,85192389918409E-02 
584	 2,87707908707339E-02 
585	 2,90792961636013E-02 
586	 2,97172887575959E-02 
587	 2,98620877606283E-02 
588	 2,95320864843244E-02 
589	 2,99968540507022E-02 
590	 3,06174232018173E-02 
591	 3,07614837972993E-02 
592	 3,09809890557615E-02 
593	 3,11323147843671E-02 
594	 3,04743799633373E-02 
595	 3,00894395570322E-02 
596	 3,04309016960795E-02 
597	 3,07406716695164E-02 
598	 3,09131855018249E-02 
599	 3,09330180906113E-02 
600	 3,07958571678677E-02 
601	 3,05730894436422E-02 
602	 3,04276878828103E-02 
603	 0,030647020371778 
604	 3,13328914005181E-02 
605	 3,09854145300814E-02 
606	 2,99648935404852E-02 
607	 2,96952106994809E-02 
608	 2,98947848272328E-02 
609	 0,030334449773815 
610	 3,01692760948908E-02 
611	 2,95633280718361E-02 
612	 0,028826388789681 
613	 2,86473145878161E-02 
614	 2,89613787278911E-02 
615	 2,88671708486932E-02 
616	 2,88060932371463E-02 
617	 2,90247481582396E-02 
618	 2,91239890051565E-02 
619	 2,90999325174751E-02 
620	 2,90714029156932E-02 
621	 2,89329789977761E-02 
622	 2,87274598514845E-02 
623	 2,87072470791918E-02 
624	 2,90344296204021E-02 
625	 2,98055408836349E-02 
626	 2,97276577082198E-02 
627	 2,90188686019242E-02 
628	 2,91149107510729E-02 
629	 2,94921942531295E-02 
630	 2,98725234147681E-02 
631	 3,02086951116399E-02 
632	 3,03780777030871E-02 
633	 3,02025798815695E-02 
634	 3,01535825720307E-02 
635	 3,04176680204108E-02 
636	 3,11521528437453E-02 
637	 3,15240703090632E-02 
638	 3,09465630063701E-02 
639	 3,14297642693168E-02 
640	 3,25809924539096E-02 
641	 3,24138727070383E-02 
642	 3,24719522160571E-02 
643	 3,31723904398796E-02 
644	 3,31589931850825E-02 
645	 3,29172318904365E-02 
646	 3,32232933984703E-02 
647	 3,36195936938423E-02 
648	 3,39128030666793E-02 
649	 3,38981667895812E-02 
650	 3,36288389463274E-02 
651	 3,31981167669771E-02 
652	 3,31075787535961E-02 
653	 3,30665659456534E-02 
654	 3,22938474243114E-02 
655	 3,16705170890219E-02 
656	 3,14455657992554E-02 
657	 3,12639711853772E-02 
658	 3,09470418923096E-02 
659	 3,03545663885254E-02 
660	 3,00997421097252E-02 
661	 3,01371947547062E-02 
662	 3,00102761635667E-02 
663	 2,95053404002723E-02 
664	 2,85969125869222E-02 
665	 2,80092893229137E-02 
666	 2,76832504904393E-02 
667	 2,73541625246116E-02 
668	 2,74115915388759E-02 
669	 2,77886592722225E-02 
670	 2,78556944609161E-02 
671	 2,78038351952108E-02 
672	 2,78081298118437E-02 
673	 2,79165921320219E-02 
674	 2,80642685385895E-02 
675	 0,028111780481498 
676	 2,79162456267733E-02 
677	 2,74968403997545E-02 
678	 2,72476707515955E-02 
679	 2,72640334961091E-02 
680	 2,76033732176672E-02 
681	 0,027817912732169 
682	 2,79122039770602E-02 
683	 2,82780982755194E-02 
684	 2,87754308468416E-02 
685	 2,92988357134471E-02 
686	 2,96309828769588E-02 
687	 3,01163679192763E-02 
688	 3,14556445849061E-02 
689	 0,032330940375367 
690	 3,26802395474528E-02 
691	 3,40549246829777E-02 
692	 3,59047174583458E-02 
693	 3,77031226301011E-02 
694	 3,99530527687668E-02 
695	 4,27192925063697E-02 
696	 4,59407929620747E-02 
697	 4,94557041359298E-02 
698	 5,31824572987538E-02 
699	 5,70485486417946E-02 
700	 6,14706926190502E-02 
701	 6,69737956774424E-02 
702	 7,27478210375054E-02 
703	 7,84704425061545E-02 
704	 8,40562078028909E-02 
705	 8,93524862979106E-02 
706	 9,43754100686112E-02 
707	 0,100224516484255 
708	 0,106217898926978 
709	 0,110781000540808 
710	 0,115686958247386 
711	 0,121199449831809 
712	 0,125989352996608 
713	 0,130177289362198 
714	 0,133961890028282 
715	 0,137889569860946 
716	 0,141841547740214 
717	 0,14522428370298 
718	 0,148295469135314 
719	 0,151107349976444 
720	 0,153336642580553 
721	 0,1555653522175 
722	 0,15853415360488 
723	 0,16090219005784 
724	 0,162571442701632 
725	 0,164355219905002 
726	 0,166100422137263 
727	 0,167666284028422 
728	 0,168575132559362 
729	 0,169257580773704 
730	 0,170573222785016 
731	 0,171953086552268 
732	 0,173120829810269 
733	 0,173651223799188 
734	 0,174271715177581 
735	 0,175549049626649 
736	 0,176108967662889 
737	 0,176220451384095 
738	 0,177226679525117 
739	 0,17794354411674 
740	 0,178075478422605 
741	 0,178604674131299 
742	 0,179185138655749 
743	 0,179342837979999 
744	 0,179808401067676 
745	 0,18053986311615 
746	 0,180895435880177 
747	 0,181214252813113 
748	 0,181592316429079 
749	 0,181354546019064 
750	 0,181069400120395 
751	 0,181714151836064 
752	 0,182220632157679 
753	 0,182346604775487 
754	 0,182399176621589 
755	 0,182460450338078 
756	 0,182591257477574 
757	 0,182764490935299 
758	 0,182875492259386 
759	 0,182677436333892 
760	 0,182811889952112 
761	 0,183413976515804 
762	 0,18406585055976 
763	 0,18440177313079 
764	 0,184154701362687 
765	 0,184251394167212 
766	 0,184653443905954 
767	 0,184765222038954 
768	 0,184818586610404 
769	 0,184861887531338 
770	 0,184630781225206 
771	 0,184645758697455 
772	 0,185499141028634 
773	 0,185693267983061 
774	 0,185273577586995 
775	 0,185541085492212 
776	 0,185647112796257 
777	 0,18529945297591 
778	 0,185631864669976 
779	 0,186175346564517 
780	 0,186068368614921 
781	 0,186105278653237 
782	 0,186368714357521 
783	 0,186372464321517 
784	 0,186429190111797 
785	 0,186701396397022 
786	 0,186733627432341 
787	 0,186588813805831 
788	 0,186465412548424 
789	 0,186723665309971 
790	 0,187274620030548 
791	 0,187264313165646 
792	 0,187074048826668 
793	 0,187046771836897 
794	 0,187210293101628 
795	 0,187496389670382 
796	 0,187763210309707 
797	 0,187850733134252 
798	 0,18771709857728 
799	 0,18743315827922 
800	 0,187467058755975 
801	 0,188173722516767 
802	 0,188273578897634 
803	 0,187959046111042 
804	 0,188390881238724 
805	 0,188737151855522 
806	 0,188737503339564 
807	 0,188693584104931 
808	 0,188686520620851 
809	 0,188772318488329 
810	 0,188687113806675 
811	 0,18853470614755 
812	 0,188792232135975 
813	 0,188857873367777 
814	 0,188577106477087 
815	 0,188630322793223 
816	 0,188976113457956 
817	 0,189479447173293 
818	 0,189829383571817 
819	 0,189904064153765 
820	 0,189591525675846 
821	 0,189425825875213 
822	 0,189635401596655 
823	 0,189773668859811 
824	 0,189840324171371 
825	 0,189894252696198 
826	 0,189835281310166 
827	 0,189731677808557 
828	 0,189861040546396 
829	 0,189977882340405 
830	 0,1899813022509 
831	 0,190159693745139 
832	 0,190241217275201 
833	 0,189829182819356 
834	 0,190066683215615 
835	 0,190809367357627 
836	 0,190600121453592 
837	 0,190397598739514 
838	 0,190671848024193 
839	 0,190846419867173 
840	 0,190879485815822 
841	 0,190803019943413 
842	 0,190710023905527 
843	 0,190739852872018 
844	 0,191307127471929 
845	 0,191512619277576 
846	 0,190925241055665 
847	 0,190268198641695 
848	 0,190039315013045 
849	 0,190775859065063 
850	 0,191199446160231 
851	 0,191099675715488 
852	 0,191001275106529 
853	 0,190954860252288 
854	 0,191026606227992 
855	 0,191349305371357 
856	 0,191621753680651 
857	 0,191431187263431 
858	 0,191048699408125 
859	 0,190794804822881 
860	 0,191476016109397 
861	 0,191895556808954 
862	 0,19154509492206 
863	 0,191598793112654 
864	 0,19181729839074 
865	 0,191740963448584 
866	 0,192367133305273 
867	 0,193209788610794 
868	 0,192061187738934 
869	 0,191168994039329 
870	 0,191501411916758 
871	 0,191679363361938 
872	 0,191822900223223 
873	 0,192208319954346 
874	 0,192371510335544 
875	 0,192353872326623 
876	 0,192592272664043 
877	 0,192798719263986 
878	 0,192827148593136 
879	 0,19258774825805 
880	 0,19230764708332 
881	 0,192236124078053 
882	 0,192285485982725 
883	 0,192282088191247 
884	 0,191730299116706 
885	 0,191663006669931 
886	 0,192304251080047 
887	 0,192695435009334 
888	 0,192769567106118 
889	 0,192555877588613 
890	 0,192526693602277 
891	 0,19266775830277 
892	 0,192708189031306 
893	 0,192977069417768 
894	 0,193311771174427 
895	 0,192572908715981 
896	 0,191798416945633 
897	 0,191819185439305 
898	 0,192073796432859 
899	 0,19237619880462 
900	 0,192547254955941 
901	 0,192795405427944 
902	 0,193123176956486 
903	 0,193456793087316 
904	 0,193151808226831 
905	 0,192050942365247 
906	 0,192128302927927 
907	 0,192575322829389 
908	 0,191910879226205 
909	 0,191733071407284 
910	 0,19224620219386 
911	 0,192907621777251 
912	 0,193196396474791 
913	 0,192861026920678 
914	 0,192248210708824 
915	 0,191681917322192 
916	 0,191495574921522 
917	 0,192095998905611 
918	 0,192842276597024 
919	 0,191885436573928 
920	 0,191339662596165 
921	 0,19177536299057 
922	 0,192042130135027 
923	 0,192239599823944 
924	 0,192440767475669 
925	 0,192161732005342 
926	 0,191855823005271 
927	 0,192494046732011 
928	 0,192319351421628 
929	 0,191290963029906 
930	 0,191043853183165 
931	 0,191701968967339 
932	 0,192941205693288 
933	 0,192172659285059 
934	 0,190419580261645 
935	 0,189420811910753 
936	 0,189912740278093 
937	 0,191199346497223 
938	 0,190740208621913 
939	 0,190549992247335 
940	 0,190914207446414 
941	 0,189239685240856 
942	 0,187793161746721 
943	 0,18847975815618 
944	 0,188206972857453 
945	 0,187032024151363 
946	 0,185967249767668 
947	 0,186145513600792 
948	 0,187292058074808 
949	 0,187176061439047 
950	 0,186074733032906 
951	 0,184490403326606 
952	 0,184510417139657 
953	 0,185037598334215 
954	 0,184472466346227 
955	 0,183198160582659 
956	 0,181751729656386 
957	 0,181211346120339 
958	 0,181401156227899 
959	 0,181848769937849 
960	 0,180710538914786 
961	 0,179418594049785 
962	 0,179230398980319 
963	 0,180741782570759 
964	 0,182025906948488 
965	 0,180138661732814 
966	 0,178886146439105 
967	 0,179081323439745 
968	 0,180023143925707 
969	 0,180807944238188 
970	 0,180818374142503 
971	 0,179503101302807 
972	 0,178218035211505 
973	 0,178241594689351 
974	 0,179171637667339 
975	 0,18049835818941 
976	 0,181526074326443 
977	 0,180779311949732 
978	 0,178786598507193 
979	 0,178709493628606 
980	 0,17956508255719 
981	 0,180660673538904 
982	 0,181015058314988 
983	 0,1808614438529 
984	 0,18054146861852 
985	 0,179613443195236 
986	 0,179092484510604 
987	 0,180957798975574 
988	 0,183323594876049 
989	 0,184725258958039 
990	 0,182346591736214 
991	 0,180133213967088 
992	 0,180240885720321 
993	 0,181433647093213 
994	 0,181827486215273 
995	 0,179852570243879 
996	 0,17924578348613 
997	 0,180239469129195 
998	 0,181834640318411 
999	 0,183583967330976 
1000	 0,184709422448972 
1001	 0,183160932787798 
1002	 0,183159559482849 
1003	 0,186195733483381 
1004	 0,187691732965408 
1005	 0,186653657711929 
1006	 0,18306409487838 
1007	 0,183308937652075 
1008	 0,186367808856892 
1009	 0,188291878489328 
1010	 0,189062960463686 
1011	 0,188395813900265 
1012	 0,18576888555226 
1013	 0,184072528932762 
1014	 0,184454912624034 
1015	 0,18528050703785 
1016	 0,184653808098427 
1017	 0,18200735932266 
1018	 0,186660518192413 
1019	 0,192443241331465 
1020	 0,188609821191207 
1021	 0,188266243445753 
1022	 0,191826307514395 
1023	 0,191758946907144 
1024	 0,190849178270934 
1025	 0,189515692424229 
1026	 0,185677261085291 
1027	 0,183794330994349 
1028	 0,186070032032997 
1029	 0,186183676030792 
1030	 0,185738959996626 
1031	 0,187256946627229 
1032	 0,18783076216287 
1033	 0,188850189112589 
1034	 0,194349915719518 
1035	 0,195184976702868 
1036	 0,190935315673043 
1037	 0,190265579707906 
1038	 0,189116968862774 
1039	 0,18619197914329 
1040	 0,183740994987891 
1041	 0,182913233288107 
1042	 0,185119957318999 
1043	 0,195407226293632 
1044	 0,204956353023267 
1045	 0,201829511354646 
1046	 0,197557091202918 
1047	 0,193778017853612 
1048	 0,187353011892639 
1049	 0,188623710011219 
1050	 0,195694399832228 
1051	 0,187244747195303 
1052	 0,186878712502017 
1053	 0,201381195197885 
1054	 0,199703358001446 
1055	 0,191254642876133 
1056	 0,186921961586454 
1057	 0,193154322374406 
1058	 0,199442723878717 
1059	 0,190785503252143 
1060	 0,190222179787082 
1061	 0,195423898681199 
1062	 0,189086717012936 
1063	 0,189013538743254 
1064	 0,196839031652199 
1065	 0,19877825753724 
1066	 0,198155209228654 
1067	 0,195680282295489 
1068	 0,186975574583272 
1069	 0,181899452304156 
1070	 0,187022206909038 
1071	 0,185723097991813 
1072	 0,191042739172563 
1073	 0,217145452098145 
1074	 0,215514082382628 
1075	 0,196027130385765 
