Wavelength	BELON00372.asd
325	 8,53189420732996E-02 
326	 3,93688955672427E-02 
327	 2,99922398768558E-02 
328	 5,16600189388505E-02 
329	 0,134595447374352 
330	 0,200456243084417 
331	 0,178771542149959 
332	 4,43526148564849E-02 
333	-8,04540772828299E-02 
334	 1,44660281873842E-02 
335	 0,119634239268479 
336	 0,165426496433852 
337	 9,61506602516757E-02 
338	-1,87655744096557E-03 
339	-6,99302122118456E-02 
340	-6,15231513574935E-02 
341	-7,01338722290617E-03 
342	 6,52541082235818E-03 
343	 2,07612719026744E-02 
344	 3,23435548436817E-02 
345	-3,86615694118861E-02 
346	-7,92902376188393E-02 
347	 1,09458768806113E-02 
348	 5,75214665012383E-02 
349	 0,05365879624917 
350	 7,18034306743377E-02 
351	 6,91385403220687E-02 
352	 3,77843749846571E-02 
353	 2,33599863634389E-02 
354	 7,46512508798996E-03 
355	-3,20977490715715E-02 
356	-3,02271339122111E-02 
357	 1,05072027676235E-02 
358	 5,94881311495092E-02 
359	 7,74574240898767E-02 
360	 4,94337927757244E-02 
361	 6,86726719879295E-03 
362	-2,19218952794864E-02 
363	-8,11879321467186E-03 
364	 3,25625768313872E-02 
365	 7,08641168282368E-02 
366	 1,80060135225971E-02 
367	-1,85183834751347E-02 
368	 0,018148077860026 
369	 3,02927152864971E-02 
370	 2,55534354698998E-02 
371	 0,039931758010788 
372	 3,66045705807984E-02 
373	 1,61765989006195E-02 
374	 2,02529793846517E-02 
375	 3,78973676656628E-02 
376	 5,63597974076358E-02 
377	 5,12085126386939E-02 
378	 3,75345066456604E-02 
379	 6,02642637707601E-02 
380	 4,57514928354696E-02 
381	-1,04484009383743E-02 
382	 2,66986264376145E-03 
383	 2,93526726297621E-02 
384	 1,52839488372269E-02 
385	 4,13892764079632E-03 
386	 2,92701784073172E-03 
387	 7,90608164750282E-03 
388	 1,59425429799816E-02 
389	 2,36901925786541E-02 
390	 2,53840907646529E-02 
391	 2,20671928480094E-02 
392	 1,56294042602011E-02 
393	 1,33127821687113E-02 
394	 1,56031928784075E-02 
395	 1,83841419295681E-02 
396	 2,17400788092311E-02 
397	 2,54368287728329E-02 
398	 3,03087976979809E-02 
399	 3,24741483790952E-02 
400	 2,59129338946256E-02 
401	 2,49554501512623E-02 
402	 2,93721820849952E-02 
403	 2,39491082217396E-02 
404	 1,62563688842067E-02 
405	 1,19782227229103E-02 
406	 1,38917489524527E-02 
407	 0,019663801775409 
408	 2,48373904216724E-02 
409	 2,40624202140931E-02 
410	 1,81796197184383E-02 
411	 2,01414342415718E-02 
412	 2,18696225038338E-02 
413	 1,58890065544232E-02 
414	 1,20722255976969E-02 
415	 1,26427766665921E-02 
416	 0,018614944089937 
417	 2,46856652238917E-02 
418	 2,73554338497853E-02 
419	 2,14612831356042E-02 
420	 1,33849242524454E-02 
421	 1,15460266990736E-02 
422	 1,28784423753394E-02 
423	 1,56761911525353E-02 
424	 1,72324405150219E-02 
425	 1,80015000317519E-02 
426	 1,78112273715296E-02 
427	 1,28842566107938E-02 
428	 7,41182798202159E-03 
429	 9,64271126224799E-03 
430	 1,16299689513108E-02 
431	 1,18846028578725E-02 
432	 1,54349662754829E-02 
433	 1,75081481123864E-02 
434	 1,41338415823319E-02 
435	 1,12426949944058E-02 
436	 1,12573722659151E-02 
437	 0,017555023410415 
438	 2,19386328643378E-02 
439	 2,09911668353068E-02 
440	 1,71100609051412E-02 
441	 1,42410849329175E-02 
442	 1,68728293082817E-02 
443	 1,87776781463145E-02 
444	 1,94257253698228E-02 
445	 2,33026585645664E-02 
446	 2,39268288527729E-02 
447	 1,84110845352062E-02 
448	 1,84621328228557E-02 
449	 2,13774986009972E-02 
450	 1,89764964363584E-02 
451	 1,77425166923586E-02 
452	 1,87629887681496E-02 
453	 1,78621472719625E-02 
454	 1,59169694130874E-02 
455	 1,40144070581921E-02 
456	 1,41336226137962E-02 
457	 1,58008232068378E-02 
458	 1,67439273901369E-02 
459	 0,017559353555328 
460	 1,79831987739281E-02 
461	 1,53808781095746E-02 
462	 1,27451273191755E-02 
463	 1,42594983363218E-02 
464	 1,68747257696455E-02 
465	 1,88954972146381E-02 
466	 1,74632777633052E-02 
467	 1,60371992504367E-02 
468	 1,67836438416251E-02 
469	 1,65503520569944E-02 
470	 1,67720740613899E-02 
471	 2,16416046481739E-02 
472	 2,27836948679287E-02 
473	 0,018956154671355 
474	 1,80514401585579E-02 
475	 1,88044611046364E-02 
476	 1,95007635796424E-02 
477	 1,99750714169163E-02 
478	 2,00326877113796E-02 
479	 1,93938137668138E-02 
480	 1,93626836521476E-02 
481	 2,00287407277421E-02 
482	 1,72567603258031E-02 
483	 1,40984539499749E-02 
484	 1,56423693540428E-02 
485	 1,71448295916987E-02 
486	 1,71958964127267E-02 
487	 1,56338893877327E-02 
488	 1,42864255644675E-02 
489	 1,45820391616019E-02 
490	 1,60086561110457E-02 
491	 1,76326855109603E-02 
492	 1,78354045445028E-02 
493	 1,70898044438845E-02 
494	 1,59771926866461E-02 
495	 1,67687969831067E-02 
496	 1,75957388251363E-02 
497	 1,62089284866961E-02 
498	 1,43491525946781E-02 
499	 1,29768311482252E-02 
500	 0,013471280261482 
501	 1,47051113198282E-02 
502	 1,59845899466094E-02 
503	 1,78592241400271E-02 
504	 1,87547251168923E-02 
505	 1,57100896269969E-02 
506	 1,47862550212062E-02 
507	 1,66452516620639E-02 
508	 1,53217003526809E-02 
509	 1,38017773184112E-02 
510	 1,48988359124688E-02 
511	 1,59710000695595E-02 
512	 1,68380834718235E-02 
513	 1,87677721554088E-02 
514	 1,87430607170302E-02 
515	 1,63000050342799E-02 
516	 1,75525241583904E-02 
517	 1,98696920618843E-02 
518	 1,87755349774894E-02 
519	 1,83213234179534E-02 
520	 1,89390030300001E-02 
521	 1,83933785146119E-02 
522	 1,74058189069289E-02 
523	 1,66054748086324E-02 
524	 1,66394709873959E-02 
525	 1,71819523888094E-02 
526	 1,72507869875617E-02 
527	 1,74869164835533E-02 
528	 1,78779993083876E-02 
529	 1,72971888031832E-02 
530	 1,66222716715584E-02 
531	 1,69189775403333E-02 
532	 1,65173121964164E-02 
533	 1,57359736428093E-02 
534	 1,67449139280125E-02 
535	 0,017948114567359 
536	 0,018303685241057 
537	 1,75942640583598E-02 
538	 1,67331822842284E-02 
539	 1,74509728334556E-02 
540	 1,80271779167551E-02 
541	 1,79419853436543E-02 
542	 1,75042201571728E-02 
543	 0,017061950413048 
544	 0,016955932095335 
545	 1,76090464986433E-02 
546	 1,84811905542548E-02 
547	 1,79053103776563E-02 
548	 1,71608821061646E-02 
549	 1,69443344591388E-02 
550	 0,017291113624049 
551	 1,78814728038847E-02 
552	 1,82541472839988E-02 
553	 1,78707069001233E-02 
554	 1,70684790398519E-02 
555	 1,79618732019803E-02 
556	 1,86154384130953E-02 
557	 1,75271014671135E-02 
558	 1,73826490770589E-02 
559	 1,78988096513659E-02 
560	 1,69732310554781E-02 
561	 1,67589734817242E-02 
562	 1,78289302234673E-02 
563	 1,82293640149774E-02 
564	 1,77616410178958E-02 
565	 1,64088015832241E-02 
566	 1,65573165466225E-02 
567	 1,80626204798284E-02 
568	 1,80972601699931E-02 
569	 1,75921418038209E-02 
570	 0,017246181016185 
571	 0,017190248585628 
572	 1,73409953782236E-02 
573	 1,73851105853675E-02 
574	 1,76904702742861E-02 
575	 1,83121043625715E-02 
576	 1,88877200471892E-02 
577	 1,93284473148879E-02 
578	 1,95723241756179E-02 
579	 1,96836566242082E-02 
580	 1,96805520645685E-02 
581	 1,94840790038448E-02 
582	 1,95607352163439E-02 
583	 2,00799011008554E-02 
584	 2,00079445280236E-02 
585	 0,019841682927408 
586	 2,07463294931067E-02 
587	 2,10282654441209E-02 
588	 2,05647318948213E-02 
589	 2,12422805619116E-02 
590	 2,21760176457973E-02 
591	 2,24562773872686E-02 
592	 2,21943816590869E-02 
593	 2,16597209391807E-02 
594	 2,14415562664415E-02 
595	 2,16405482137621E-02 
596	 2,22045569868992E-02 
597	 2,22936795434266E-02 
598	 2,22253972437495E-02 
599	 2,26389082615281E-02 
600	 0,022555470654522 
601	 2,19114131375106E-02 
602	 2,15336048370666E-02 
603	 2,13074076568684E-02 
604	 0,021149753568928 
605	 2,13464905880636E-02 
606	 2,15657149919765E-02 
607	 2,08557877584624E-02 
608	 2,04052561985193E-02 
609	 2,05987288616825E-02 
610	 2,08423096771681E-02 
611	 2,07110560772921E-02 
612	 1,97668383461226E-02 
613	 1,90886362149916E-02 
614	 1,90569594896428E-02 
615	 0,019951513628143 
616	 2,06666480352091E-02 
617	 2,04386288992715E-02 
618	 1,93702125544772E-02 
619	 1,83697545013525E-02 
620	 1,91831162057025E-02 
621	 1,97708908188619E-02 
622	 1,95356477750152E-02 
623	 1,91212495466003E-02 
624	 1,91104379815354E-02 
625	 1,99970141722879E-02 
626	 1,98799191009782E-02 
627	 1,89967195147627E-02 
628	 1,92551774921167E-02 
629	 1,96998987602865E-02 
630	 1,98880852670233E-02 
631	 2,02506183948294E-02 
632	 2,07257516465757E-02 
633	 2,11795966469283E-02 
634	 2,11267414485197E-02 
635	 2,07291138877536E-02 
636	 2,13146797554383E-02 
637	 2,18102964968936E-02 
638	 2,13778254612546E-02 
639	 2,19203370896441E-02 
640	 2,29723952148054E-02 
641	 2,24246944421972E-02 
642	 2,21744876905782E-02 
643	 2,28262127454163E-02 
644	 2,30907654139566E-02 
645	 2,31605991875111E-02 
646	 2,34385753501792E-02 
647	 2,33577777514596E-02 
648	 2,30481560605348E-02 
649	 0,023366496231456 
650	 2,40481549080805E-02 
651	 2,47283820465786E-02 
652	 2,39069254252857E-02 
653	 2,22971353893942E-02 
654	 2,17223446115957E-02 
655	 2,16437853681297E-02 
656	 2,18197459393631E-02 
657	 2,17883194439122E-02 
658	 2,15271414110158E-02 
659	 2,10684575905375E-02 
660	 0,020821636046427 
661	 2,07458620708826E-02 
662	 2,04915820615004E-02 
663	 1,99504975967448E-02 
664	 1,91021858041407E-02 
665	 1,82073916123876E-02 
666	 1,76136636090227E-02 
667	 1,77675698223985E-02 
668	 1,82512853439157E-02 
669	 1,87541196148697E-02 
670	 0,01870761988634 
671	 1,85528181594739E-02 
672	 1,86348666994879E-02 
673	 1,84756169205986E-02 
674	 1,82166478123684E-02 
675	 1,83893877985744E-02 
676	 1,85032870016025E-02 
677	 1,84188574683347E-02 
678	 1,83913060425971E-02 
679	 1,85707204198744E-02 
680	 1,90971490265422E-02 
681	 1,92337196424904E-02 
682	 1,90037941550801E-02 
683	 1,90361803237622E-02 
684	 1,93676043792963E-02 
685	 1,99458166837021E-02 
686	 2,00111176705512E-02 
687	 2,00884988767162E-02 
688	 2,13176361814477E-02 
689	 2,22384320063363E-02 
690	 2,26694091708345E-02 
691	 2,38444810984937E-02 
692	 2,54138750596231E-02 
693	 2,70394346997431E-02 
694	 2,90495398927094E-02 
695	 3,15931798796274E-02 
696	 3,48755752451697E-02 
697	 3,85481974588567E-02 
698	 0,042485818547878 
699	 4,68647058344981E-02 
700	 5,17995710397707E-02 
701	 5,74101144009408E-02 
702	 6,35869802789648E-02 
703	 7,01459952731936E-02 
704	 7,68329618630428E-02 
705	 8,32797188584692E-02 
706	 8,93109437833711E-02 
707	 9,57319257912181E-02 
708	 0,102258346757273 
709	 0,10815799523094 
710	 0,114060777568216 
711	 0,12013228675839 
712	 0,126320566901965 
713	 0,132087608036549 
714	 0,136973872046491 
715	 0,141839530299056 
716	 0,14660129067846 
717	 0,150529300818514 
718	 0,154547676323565 
719	 0,158869601409038 
720	 0,162353284941074 
721	 0,165263779783839 
722	 0,168061448124056 
723	 0,17074345818133 
724	 0,173310642107413 
725	 0,175600814024912 
726	 0,177912727959172 
727	 0,180302191328526 
728	 0,181582138429338 
729	 0,182309610680817 
730	 0,183732471639481 
731	 0,185244411567345 
732	 0,186654251626174 
733	 0,187923832502324 
734	 0,1889373522488 
735	 0,189626550224161 
736	 0,190449688459855 
737	 0,191318158261556 
738	 0,191726135695882 
739	 0,19231002939111 
740	 0,193218691963503 
741	 0,193848721537412 
742	 0,194182697892475 
743	 0,19427654186273 
744	 0,194779649338951 
745	 0,195579706294972 
746	 0,195814982553453 
747	 0,196048402823866 
748	 0,196517618219603 
749	 0,196713086216366 
750	 0,196629907989812 
751	 0,196334982877857 
752	 0,196397542782401 
753	 0,196811477247547 
754	 0,196821138253844 
755	 0,196923509618738 
756	 0,197444126846468 
757	 0,197848774512699 
758	 0,198017879941722 
759	 0,19787414976098 
760	 0,197807325930123 
761	 0,1979694156928 
762	 0,198356209743161 
763	 0,19860044583899 
764	 0,198384784812782 
765	 0,198225350000081 
766	 0,198195333570625 
767	 0,198149073876357 
768	 0,198361440616563 
769	 0,198830248967736 
770	 0,198914413720948 
771	 0,198816571513199 
772	 0,198842669609501 
773	 0,198888452288675 
774	 0,198962813203083 
775	 0,19916126886404 
776	 0,199240088358709 
777	 0,19911435352784 
778	 0,199178058345256 
779	 0,199291014630886 
780	 0,199178458608306 
781	 0,199289213137576 
782	 0,199598102556388 
783	 0,199600706493545 
784	 0,199468806225604 
785	 0,199350988715042 
786	 0,199513725234446 
787	 0,199651549150268 
788	 0,199109337730478 
789	 0,199171155757982 
790	 0,199924526001778 
791	 0,200033786629548 
792	 0,199848010887909 
793	 0,199705442439804 
794	 0,199814399273424 
795	 0,200055827397362 
796	 0,200094471500515 
797	 0,200017960344756 
798	 0,199860945907773 
799	 0,199634374988747 
800	 0,199603295805019 
801	 0,199989981995746 
802	 0,200436268165017 
803	 0,200734281156401 
804	 0,200569395047492 
805	 0,200361639263486 
806	 0,200323358424438 
807	 0,200577069423714 
808	 0,200934667201645 
809	 0,201154542535234 
810	 0,200608028073222 
811	 0,199766650380976 
812	 0,200298894820914 
813	 0,200807554519598 
814	 0,200782743720897 
815	 0,200996799523674 
816	 0,201297489369459 
817	 0,201439818875366 
818	 0,201692722939959 
819	 0,201911856523797 
820	 0,201427396013174 
821	 0,201326028914049 
822	 0,201969774697604 
823	 0,202059008593493 
824	 0,201734792721894 
825	 0,201359474311472 
826	 0,201347633425903 
827	 0,201622865422359 
828	 0,201594062141361 
829	 0,201293598769615 
830	 0,200871260414757 
831	 0,201276528122087 
832	 0,201808428915029 
833	 0,201392637632502 
834	 0,201029230784722 
835	 0,20100675545863 
836	 0,201437003354785 
837	 0,20164895693793 
838	 0,201367381252943 
839	 0,201513028588322 
840	 0,201926018535836 
841	 0,202234646088631 
842	 0,202214882455799 
843	 0,20195981334837 
844	 0,201974554309337 
845	 0,202228075727923 
846	 0,202564416412911 
847	 0,202006792559168 
848	 0,201235116602478 
849	 0,201341095387002 
850	 0,201630343916552 
851	 0,201852165502446 
852	 0,201801678299937 
853	 0,201652320883832 
854	 0,201539751805657 
855	 0,201634173616261 
856	 0,201887938369021 
857	 0,20220346893261 
858	 0,201758716877054 
859	 0,200963158005222 
860	 0,201818366982413 
861	 0,202539129757509 
862	 0,202337100034154 
863	 0,20272359321209 
864	 0,203011650224433 
865	 0,202158213430369 
866	 0,202042003543612 
867	 0,202623004627578 
868	 0,202380723367733 
869	 0,201874826463043 
870	 0,201491096754041 
871	 0,201916947972071 
872	 0,202489518810188 
873	 0,202347145054113 
874	 0,201879113774717 
875	 0,201433673658372 
876	 0,201704531640653 
877	 0,202189968581774 
878	 0,202570251430238 
879	 0,202372575393719 
880	 0,202271588183851 
881	 0,202944396810333 
882	 0,202400030912122 
883	 0,20115996091953 
884	 0,201615083448684 
885	 0,202295988473937 
886	 0,202643564487411 
887	 0,202646378473375 
888	 0,202532201182745 
889	 0,202504889643364 
890	 0,202137004262806 
891	 0,201794398608425 
892	 0,202450629645451 
893	 0,202792086282884 
894	 0,202496278081975 
895	 0,202279633803997 
896	 0,202015154261603 
897	 0,201638962735824 
898	 0,201585579376758 
899	 0,201818555832108 
900	 0,202156659124937 
901	 0,202280183634321 
902	 0,202205155874032 
903	 0,202459133502009 
904	 0,202541320796905 
905	 0,202239391626153 
906	 0,202526744508534 
907	 0,202756028497009 
908	 0,201875648211934 
909	 0,201054446840325 
910	 0,200795565540266 
911	 0,201738049694506 
912	 0,202204482234512 
913	 0,201510061607988 
914	 0,200893184206315 
915	 0,200821860833539 
916	 0,201614733242438 
917	 0,201961853680361 
918	 0,201858686209924 
919	 0,202114340332436 
920	 0,20199534389331 
921	 0,201373130779087 
922	 0,200786547388421 
923	 0,20056745901617 
924	 0,200862961852114 
925	 0,200454276402942 
926	 0,199752547263236 
927	 0,199894621606354 
928	 0,199283410580783 
929	 0,198092022102907 
930	 0,198547703763856 
931	 0,199422977247323 
932	 0,199836853071607 
933	 0,199331377308499 
934	 0,198267741898052 
935	 0,197227089908902 
936	 0,196829444930464 
937	 0,196799000096802 
938	 0,195724892513347 
939	 0,195709362321588 
940	 0,196882504823307 
941	 0,195611975312995 
942	 0,1940735090402 
943	 0,194239222116369 
944	 0,193917145709798 
945	 0,193037708754991 
946	 0,192118071551785 
947	 0,191533050651439 
948	 0,191129099703925 
949	 0,189766518827247 
950	 0,188761787532955 
951	 0,188719799160721 
952	 0,188258156245743 
953	 0,187480355184019 
954	 0,186693858580212 
955	 0,18586638823325 
956	 0,184999890407242 
957	 0,184043708603286 
958	 0,183280168986528 
959	 0,182769674012016 
960	 0,182238926154896 
961	 0,181791227873527 
962	 0,181520929891016 
963	 0,181651529030195 
964	 0,181407667446699 
965	 0,179620041494091 
966	 0,179130596154437 
967	 0,180122224780011 
968	 0,180810699650634 
969	 0,181215410947172 
970	 0,181088999879782 
971	 0,179386606801571 
972	 0,17851261838291 
973	 0,180338142891838 
974	 0,179978341421627 
975	 0,179166289400641 
976	 0,182497567135964 
977	 0,18346308451569 
978	 0,181177286048866 
979	 0,178875586494281 
980	 0,178563037176842 
981	 0,180799245120136 
982	 0,181824872445053 
983	 0,182267089784289 
984	 0,182982842232305 
985	 0,18228878306616 
986	 0,180967030464433 
987	 0,180949750949839 
988	 0,182523751516878 
989	 0,184648769321384 
990	 0,183361968156157 
991	 0,181898265243499 
992	 0,182092919337435 
993	 0,183758845371678 
994	 0,184231482766031 
995	 0,18126978136447 
996	 0,181710695137109 
997	 0,184387366728369 
998	 0,184493298522481 
999	 0,185796179595129 
1000	 0,187941590999013 
1001	 0,186083001978524 
1002	 0,18452717361312 
1003	 0,185314483422404 
1004	 0,186509124540828 
1005	 0,186521403441497 
1006	 0,184455959040615 
1007	 0,186592092747573 
1008	 0,190413994780807 
1009	 0,18959168170354 
1010	 0,190226758126362 
1011	 0,192104885979178 
1012	 0,188723559094709 
1013	 0,188265870092142 
1014	 0,192577004294258 
1015	 0,191501938314603 
1016	 0,187851764112216 
1017	 0,185211060190149 
1018	 0,188538122766792 
1019	 0,193644321412539 
1020	 0,193307116790211 
1021	 0,19342336653773 
1022	 0,194795642485004 
1023	 0,19599749314176 
1024	 0,196216836644402 
1025	 0,194944778593174 
1026	 0,191641727717569 
1027	 0,188791612565717 
1028	 0,188383471316387 
1029	 0,191451839715837 
1030	 0,195751904253542 
1031	 0,198395841061504 
1032	 0,198380850451258 
1033	 0,196807592059717 
1034	 0,196345407624469 
1035	 0,196872697307694 
1036	 0,198126480304336 
1037	 0,199568904244207 
1038	 0,19743940235048 
1039	 0,192092980958181 
1040	 0,195018378324529 
1041	 0,198433144681654 
1042	 0,196257790813999 
1043	 0,197331243844858 
1044	 0,201820485523939 
1045	 0,208108560652202 
1046	 0,209671218125397 
1047	 0,206422860596538 
1048	 0,201956144172466 
1049	 0,202566389564418 
1050	 0,208081892308649 
1051	 0,209148849136488 
1052	 0,207670398324255 
1053	 0,205549945334607 
1054	 0,208274839385312 
1055	 0,207893848332137 
1056	 0,198533393305675 
1057	 0,194221646762628 
1058	 0,192681944426447 
1059	 0,188390583531009 
1060	 0,202086599513057 
1061	 0,222023965051506 
1062	 0,212346949653264 
1063	 0,204052557865282 
1064	 0,20495403251427 
1065	 0,208642608349694 
1066	 0,208486222058018 
1067	 0,202472107571009 
1068	 0,197222195586226 
1069	 0,195343159408927 
1070	 0,198349055510318 
1071	 0,202239309516704 
1072	 0,20598718518766 
1073	 0,208558054165853 
1074	 0,207075707679175 
1075	 0,199366874235356 
