Wavelength	BELON00124.asd
325	 8,63863095154222E-02 
326	 0,133016111528508 
327	 0,180078110091977 
328	 0,165881373927516 
329	 0,043912553527158 
330	-1,43191506403125E-02 
331	 0,116786898589604 
332	 4,22111201685216E-02 
333	-0,089733733496947 
334	 0,120654518375557 
335	 0,252766505533011 
336	 0,229762225797153 
337	 0,160567478204447 
338	 0,0798240409554 
339	-3,37008613880982E-03 
340	-3,90685857625762E-02 
341	-7,12333433989145E-03 
342	 7,78795982125094E-02 
343	 0,134429046072994 
344	 0,137886507654657 
345	 7,27436336854413E-02 
346	 2,78027178462203E-02 
347	 7,90627515327331E-02 
348	 8,89102288481046E-02 
349	 6,19413654986024E-02 
350	 7,42293480158797E-02 
351	 8,43955392851853E-02 
352	 7,88083458667535E-02 
353	 7,75202438190894E-02 
354	 5,28102326836572E-02 
355	-2,25539275477683E-02 
356	-9,8904513746263E-03 
357	 6,30810444614861E-02 
358	 5,27542166897982E-02 
359	 3,19295758183662E-02 
360	 3,34364380124991E-02 
361	 4,61314920356923E-02 
362	 0,050609372401949 
363	 2,19900782293455E-02 
364	 2,15746436082416E-02 
365	 4,75347487795827E-02 
366	 3,68931609003331E-02 
367	 2,95621156544721E-02 
368	 4,53183687510359E-02 
369	 3,92370561359034E-02 
370	 1,96756923259666E-02 
371	 1,06060924065296E-02 
372	 2,42517294322632E-02 
373	 5,37130752600607E-02 
374	 5,71065656176932E-02 
375	 5,23596385998409E-02 
376	 5,41240375939206E-02 
377	 5,50325220932761E-02 
378	 5,10836555105256E-02 
379	 3,50142369402485E-02 
380	 2,00208984506407E-02 
381	 1,34014558292457E-02 
382	 3,05476044098348E-02 
383	 4,25184961148322E-02 
384	 2,56883866879655E-02 
385	 1,86173369191599E-02 
386	 2,36863794838879E-02 
387	 2,53577288922187E-02 
388	 0,034311966996592 
389	 4,84450143547882E-02 
390	 3,82350179228129E-02 
391	 2,06464970350091E-02 
392	 1,82405455089539E-02 
393	 2,14497973677858E-02 
394	 2,67581667518534E-02 
395	 2,96417814768281E-02 
396	 3,58036948988447E-02 
397	 4,64563049829639E-02 
398	 5,16304506756138E-02 
399	 4,95065664742172E-02 
400	 3,85664565247489E-02 
401	 3,64423413818176E-02 
402	 4,23414722333427E-02 
403	 3,47201211989549E-02 
404	 2,52217605338701E-02 
405	 2,21218950499933E-02 
406	 0,026246856807971 
407	 3,17807034572825E-02 
408	 2,70099400273542E-02 
409	 2,38369808697921E-02 
410	 2,59702563628433E-02 
411	 3,39750204077438E-02 
412	 0,039283840171944 
413	 3,45897849493673E-02 
414	 2,11861413686341E-02 
415	 9,24366645852516E-03 
416	 2,34470043645944E-02 
417	 3,72219659132459E-02 
418	 3,91074238867156E-02 
419	 3,19770478901245E-02 
420	 2,39376912368636E-02 
421	 2,46805880396322E-02 
422	 2,54574565947914E-02 
423	 2,51350408328499E-02 
424	 2,73222261291978E-02 
425	 2,79728972256313E-02 
426	 2,50497087346821E-02 
427	 2,29699897266172E-02 
428	 2,34957008734669E-02 
429	 2,93266123506031E-02 
430	 2,95135781806191E-02 
431	 2,34090710779684E-02 
432	 2,31412219418473E-02 
433	 2,63047330629034E-02 
434	 2,99033860692912E-02 
435	 2,62229734712808E-02 
436	 2,03058999645817E-02 
437	 2,94473712427178E-02 
438	 3,36599341032353E-02 
439	 2,71745619910615E-02 
440	 2,71267642770317E-02 
441	 3,06876187113505E-02 
442	 3,24139980008108E-02 
443	 3,26370629659555E-02 
444	 3,19255331159365E-02 
445	 3,26952604571931E-02 
446	 3,24441548767844E-02 
447	 2,99308401631206E-02 
448	 2,83203478046619E-02 
449	 2,81309702185149E-02 
450	 2,94542883899139E-02 
451	 3,01553026782293E-02 
452	 2,97829371642975E-02 
453	 3,03619665902609E-02 
454	 0,029957775748382 
455	 2,70248429787452E-02 
456	 2,74541839266943E-02 
457	 2,97202826357771E-02 
458	 2,62400894520882E-02 
459	 2,51262403333451E-02 
460	 2,85687533228616E-02 
461	 2,70360334831396E-02 
462	 2,44323820769888E-02 
463	 2,70675698474291E-02 
464	 0,028525592222041 
465	 2,80010920266385E-02 
466	 2,85343272564246E-02 
467	 2,88720238604265E-02 
468	 2,85715930617308E-02 
469	 3,16957401125221E-02 
470	 3,53987681202432E-02 
471	 3,29262870583492E-02 
472	 3,07970145872685E-02 
473	 3,07760243148321E-02 
474	 3,03858837249834E-02 
475	 2,99268004325565E-02 
476	 2,98094105608763E-02 
477	 0,030094257057178 
478	 3,05992552014014E-02 
479	 3,10909143937626E-02 
480	 3,04206512609087E-02 
481	 2,82788429387062E-02 
482	 2,63582301458293E-02 
483	 2,56300699392839E-02 
484	 2,71938569421652E-02 
485	 0,028514300997267 
486	 2,87816353423525E-02 
487	 2,80027551876057E-02 
488	 2,73615735511357E-02 
489	 0,027810815926463 
490	 2,95924154729953E-02 
491	 3,11364959602648E-02 
492	 2,86321281496475E-02 
493	 2,76728730034899E-02 
494	 2,95502077982242E-02 
495	 2,98463488720427E-02 
496	 2,84744935108035E-02 
497	 2,57821520480032E-02 
498	 2,45899464433088E-02 
499	 2,49173118616088E-02 
500	 2,44052677968128E-02 
501	 2,40576141388098E-02 
502	 2,46037484044576E-02 
503	 2,75499415390763E-02 
504	 3,02356565298586E-02 
505	 2,76772872372156E-02 
506	 2,66493638695305E-02 
507	 2,84401273865827E-02 
508	 2,90468428000449E-02 
509	 2,90496076920103E-02 
510	 2,91540467952712E-02 
511	 2,98848245351223E-02 
512	 3,08791610743829E-02 
513	 3,09815919491319E-02 
514	 3,06132269863627E-02 
515	 3,01441958589212E-02 
516	 3,06919424183263E-02 
517	 0,031555603429286 
518	 3,16486694538693E-02 
519	 3,09698736370877E-02 
520	 3,00624837378802E-02 
521	 3,09918916008292E-02 
522	 3,13956702758253E-02 
523	 2,97862389291571E-02 
524	 2,97303732949271E-02 
525	 3,07125491882216E-02 
526	 3,02656626190256E-02 
527	 2,99854487813879E-02 
528	 3,01741046866465E-02 
529	 2,96739242469129E-02 
530	 2,86835272049333E-02 
531	 2,75424892732076E-02 
532	 2,76619400889935E-02 
533	 2,88250561290366E-02 
534	 2,94014550042867E-02 
535	 2,94010690864396E-02 
536	 2,88924014593434E-02 
537	 2,84664765668945E-02 
538	 2,85917466482156E-02 
539	 3,00611337545287E-02 
540	 3,05476131115834E-02 
541	 2,95565916640473E-02 
542	 2,86172727900215E-02 
543	 2,81040353179306E-02 
544	 2,82830451566796E-02 
545	 2,89741485049554E-02 
546	 2,96493711200083E-02 
547	 2,89863947266599E-02 
548	 2,87118065493104E-02 
549	 2,94715011765999E-02 
550	 2,92839491706675E-02 
551	 2,88527683922556E-02 
552	 2,96378852480892E-02 
553	 0,029755858941937 
554	 2,90809672893587E-02 
555	 2,93978835840989E-02 
556	 2,97138398176102E-02 
557	 2,92269984146506E-02 
558	 2,90651503255233E-02 
559	 2,91168323369411E-02 
560	 2,84505278176783E-02 
561	 0,028517985549262 
562	 2,95241284913861E-02 
563	 0,029008492538742 
564	 0,027729897300996 
565	 2,69636097454266E-02 
566	 2,73017210081647E-02 
567	 2,84302736699409E-02 
568	 2,86026948901352E-02 
569	 2,85921466916636E-02 
570	 2,89188178576599E-02 
571	 2,91061387193004E-02 
572	 2,92179747492915E-02 
573	 2,95557987812017E-02 
574	 2,96595209018832E-02 
575	 2,96445009911643E-02 
576	 3,09135163366004E-02 
577	 3,25341791789057E-02 
578	 3,33608851176195E-02 
579	 3,38107358805962E-02 
580	 3,39766430536555E-02 
581	 3,37856227165655E-02 
582	 3,40458788318226E-02 
583	 3,51217847015343E-02 
584	 3,58304320297196E-02 
585	 3,62746672298748E-02 
586	 3,69741841706022E-02 
587	 3,70918729811338E-02 
588	 0,036796122968338 
589	 0,037949313383566 
590	 3,91828725232541E-02 
591	 3,91977701154807E-02 
592	 3,93729021646316E-02 
593	 3,97415305842251E-02 
594	 0,039638215541354 
595	 3,94689850390961E-02 
596	 3,94490722672344E-02 
597	 0,039629157119663 
598	 3,99327498765727E-02 
599	 4,02779224925529E-02 
600	 3,96593895196278E-02 
601	 3,83508477544053E-02 
602	 3,85477736680038E-02 
603	 3,88663994629024E-02 
604	 3,82434701668543E-02 
605	 3,80110078242694E-02 
606	 3,80941160157522E-02 
607	 3,78103648892911E-02 
608	 0,03726739435205 
609	 0,036671556351682 
610	 3,70669877662069E-02 
611	 3,74569888267468E-02 
612	 3,65301707009025E-02 
613	 3,57720344061441E-02 
614	 0,035490745218668 
615	 3,54047577637063E-02 
616	 3,52630783203603E-02 
617	 3,49231505128339E-02 
618	 3,46980811748454E-02 
619	 3,46824188060499E-02 
620	 3,50219278845247E-02 
621	 3,49776983235109E-02 
622	 3,44625318919161E-02 
623	 0,034391781026253 
624	 3,44742460286753E-02 
625	 3,43701368094919E-02 
626	 3,45399623068281E-02 
627	 3,49965021343402E-02 
628	 3,55614104665501E-02 
629	 0,035897821887629 
630	 3,58767900356586E-02 
631	 3,60830406914498E-02 
632	 3,63490779333115E-02 
633	 3,62761970252273E-02 
634	 3,63141696285618E-02 
635	 3,66239627148543E-02 
636	 3,72569580709405E-02 
637	 3,78851628999791E-02 
638	 3,82801527887395E-02 
639	 3,93548860479561E-02 
640	 4,06591736939456E-02 
641	 0,040659309135577 
642	 4,06749414213285E-02 
643	 4,11646854442632E-02 
644	 4,14226870194998E-02 
645	 4,16353317030045E-02 
646	 4,21233018036474E-02 
647	 4,19285112523011E-02 
648	 4,12167244612764E-02 
649	 4,14232257009977E-02 
650	 4,16453789012235E-02 
651	 4,12837940486719E-02 
652	 4,07819275573014E-02 
653	 4,02108814969261E-02 
654	 0,039577031275008 
655	 3,89227792301832E-02 
656	 3,82813491192942E-02 
657	 3,77127381547281E-02 
658	 3,70637650731806E-02 
659	 3,61888096290128E-02 
660	 3,55558601503683E-02 
661	 3,50482979514498E-02 
662	 3,40199328489317E-02 
663	 3,29958896647518E-02 
664	 3,22384429485865E-02 
665	 3,15489193996489E-02 
666	 3,08928652364964E-02 
667	 3,02241170117917E-02 
668	 3,00210039554036E-02 
669	 3,02413091496067E-02 
670	 3,01591252568249E-02 
671	 3,00881434954235E-02 
672	 3,02574601145175E-02 
673	 0,03014947367195 
674	 2,98274165086396E-02 
675	 2,96493521807623E-02 
676	 2,94720410241232E-02 
677	 2,93028130703611E-02 
678	 2,93029951737457E-02 
679	 2,97009208402786E-02 
680	 3,07242992322316E-02 
681	 3,05650039451753E-02 
682	 2,95816723589401E-02 
683	 3,03101194360061E-02 
684	 3,14088630595058E-02 
685	 3,20873775709829E-02 
686	 3,26513456575345E-02 
687	 3,34960242181626E-02 
688	 3,52477297443883E-02 
689	 0,037190447115762 
690	 0,039186274181684 
691	 4,15634802314844E-02 
692	 0,044560386382396 
693	 4,83660622858238E-02 
694	 5,26308601788065E-02 
695	 5,74906943132113E-02 
696	 6,33689203572554E-02 
697	 7,02580728360252E-02 
698	 7,80947156605578E-02 
699	 8,64081851959601E-02 
700	 9,53177968367358E-02 
701	 0,105039660082636 
702	 0,115881386812874 
703	 0,127427564781738 
704	 0,138299080323324 
705	 0,149205322265308 
706	 0,160593528090833 
707	 0,172384745040407 
708	 0,184004625998186 
709	 0,194446488794663 
710	 0,20504973223531 
711	 0,216031796820908 
712	 0,226473332648802 
713	 0,236418696806195 
714	 0,245917800402717 
715	 0,254676489044603 
716	 0,262865688162516 
717	 0,271080698068952 
718	 0,278943522263109 
719	 0,286211454427291 
720	 0,292558510685686 
721	 0,298477708614058 
722	 0,304593797334898 
723	 0,310083493007039 
724	 0,314845725719794 
725	 0,319074716774433 
726	 0,323267012238509 
727	 0,327644846188907 
728	 0,331191687817347 
729	 0,334004623427085 
730	 0,336464307048301 
731	 0,33913974388907 
732	 0,342081122120711 
733	 0,344590219661955 
734	 0,346589817032999 
735	 0,348083098240652 
736	 0,349751119487696 
737	 0,351598515087389 
738	 0,353261414904624 
739	 0,354856747774463 
740	 0,356364962731345 
741	 0,357546386582592 
742	 0,358439997570321 
743	 0,359129358747454 
744	 0,360097002178153 
745	 0,361340181759961 
746	 0,362462607648992 
747	 0,363522868784665 
748	 0,364478181723081 
749	 0,364908051397041 
750	 0,365174405621898 
751	 0,365890750213637 
752	 0,366624081112512 
753	 0,367252662261345 
754	 0,36782449087246 
755	 0,368196337051569 
756	 0,368302098004946 
757	 0,368511924455421 
758	 0,368886456012915 
759	 0,369409091651067 
760	 0,369944187636478 
761	 0,370421911617152 
762	 0,370805654693671 
763	 0,371162950695947 
764	 0,371552607445696 
765	 0,371801183933301 
766	 0,371957259396437 
767	 0,372179937288856 
768	 0,372665859074397 
769	 0,37335823874298 
770	 0,373402262671489 
771	 0,373349341155112 
772	 0,373915458647509 
773	 0,374322809775019 
774	 0,374463733700313 
775	 0,374558233106889 
776	 0,374709131374103 
777	 0,374975185126789 
778	 0,375293948827517 
779	 0,375540967316751 
780	 0,37555052499403 
781	 0,37566847542803 
782	 0,375944152554973 
783	 0,376190998839781 
784	 0,376396751539532 
785	 0,376550615451997 
786	 0,376644994274244 
787	 0,376767241795077 
788	 0,377077299352804 
789	 0,377260531256886 
790	 0,377324752647865 
791	 0,377755605116651 
792	 0,378096607724743 
793	 0,378021497466588 
794	 0,378252329374883 
795	 0,378627510791603 
796	 0,378533756700732 
797	 0,378495246522276 
798	 0,378650068746558 
799	 0,378749713815506 
800	 0,37890285174888 
801	 0,379188792692065 
802	 0,379049282301785 
803	 0,378800743553648 
804	 0,379563407169169 
805	 0,380069978066666 
806	 0,379952687721788 
807	 0,379997331365746 
808	 0,380203537686089 
809	 0,380498961755443 
810	 0,380619315200347 
811	 0,380564194915885 
812	 0,380464383039712 
813	 0,380572026992481 
814	 0,380987271025207 
815	 0,381522161139856 
816	 0,381955903097402 
817	 0,382067381024794 
818	 0,382291497878988 
819	 0,382631738645122 
820	 0,382800812163941 
821	 0,382835760073469 
822	 0,382805384029946 
823	 0,382996388827781 
824	 0,383401832302356 
825	 0,38396272671991 
826	 0,384269616534736 
827	 0,384187544954182 
828	 0,383593765362789 
829	 0,383389354381812 
830	 0,383958582417031 
831	 0,384316940214354 
832	 0,384390654564243 
833	 0,384245705309766 
834	 0,384115001184257 
835	 0,384171269699011 
836	 0,384779458050374 
837	 0,385008130168632 
838	 0,384504964956561 
839	 0,384692238946741 
840	 0,385234421884243 
841	 0,385431731276144 
842	 0,385610564319542 
843	 0,385863629186424 
844	 0,386253963704647 
845	 0,386729321736813 
846	 0,387163771002617 
847	 0,386958194005373 
848	 0,386557471655919 
849	 0,386671230967382 
850	 0,386696764208673 
851	 0,386603535824073 
852	 0,386812896154576 
853	 0,386822986231346 
854	 0,386507842407288 
855	 0,386987731753079 
856	 0,387708857541743 
857	 0,387762033511406 
858	 0,387409487467887 
859	 0,386981746513545 
860	 0,387316660588291 
861	 0,387668427373353 
862	 0,387706877986485 
863	 0,388041460274167 
864	 0,388409007273953 
865	 0,388402895260462 
866	 0,388460217550481 
867	 0,388568400152462 
868	 0,388335392968556 
869	 0,388234926173037 
870	 0,388438138696761 
871	 0,388398348693574 
872	 0,388524986993468 
873	 0,389322405933856 
874	 0,389475002286084 
875	 0,389038242065637 
876	 0,388995045313165 
877	 0,389377983599271 
878	 0,389970004356154 
879	 0,389220097949191 
880	 0,388736566712639 
881	 0,390213990240524 
882	 0,390172724965259 
883	 0,388926226190851 
884	 0,389158327454674 
885	 0,389618451065632 
886	 0,389941977076115 
887	 0,390534406191588 
888	 0,390662203395369 
889	 0,389749435438858 
890	 0,38948698372031 
891	 0,389869961984968 
892	 0,390132329388559 
893	 0,39073592613405 
894	 0,391372590743178 
895	 0,390228893950929 
896	 0,389008614835744 
897	 0,389091900351791 
898	 0,389786929966117 
899	 0,390414364402016 
900	 0,389969797567056 
901	 0,389674652551218 
902	 0,389897203840849 
903	 0,390667969694645 
904	 0,390919453398868 
905	 0,390101584758873 
906	 0,389449759108258 
907	 0,389369348869393 
908	 0,390166969940653 
909	 0,389930803416733 
910	 0,388859983892121 
911	 0,389211689693894 
912	 0,389580096754907 
913	 0,389316885297899 
914	 0,388669695954085 
915	 0,388389963047936 
916	 0,389213262389181 
917	 0,389841812587915 
918	 0,38992198479178 
919	 0,389233942472252 
920	 0,389121869924371 
921	 0,389707012665102 
922	 0,388997443494696 
923	 0,388147194042385 
924	 0,388086176410523 
925	 0,387294612720095 
926	 0,386172207804293 
927	 0,385884003887055 
928	 0,384793163573217 
929	 0,383193824239954 
930	 0,383768912214217 
931	 0,384754742248298 
932	 0,384920803031552 
933	 0,383837113236516 
934	 0,382142689982332 
935	 0,380770304409556 
936	 0,380295791713064 
937	 0,380370150889335 
938	 0,379632979007021 
939	 0,378584993688987 
940	 0,377469223582546 
941	 0,376655344018602 
942	 0,375688443304845 
943	 0,374245795146367 
944	 0,373700268956573 
945	 0,373072096139122 
946	 0,370073855418474 
947	 0,36896030903299 
948	 0,369800198731923 
949	 0,368187904587592 
950	 0,365757956492279 
951	 0,363543910082244 
952	 0,36169809214609 
953	 0,360036635845974 
954	 0,358304646084207 
955	 0,357031226410248 
956	 0,355883415322932 
957	 0,353652400915266 
958	 0,352148995269126 
959	 0,351717567774387 
960	 0,350746044477915 
961	 0,349907787544446 
962	 0,349578384514823 
963	 0,348067995957117 
964	 0,346501996165627 
965	 0,346872133528863 
966	 0,347888186998701 
967	 0,348551123688693 
968	 0,346804058552273 
969	 0,34600833898499 
970	 0,347060679885741 
971	 0,346325618721126 
972	 0,344928407427629 
973	 0,344170055360779 
974	 0,344184162821191 
975	 0,345105216297483 
976	 0,347127891711851 
977	 0,347116857996316 
978	 0,345046457502782 
979	 0,34397433154559 
980	 0,344127377208478 
981	 0,345460733046459 
982	 0,346753671084088 
983	 0,347029585606324 
984	 0,345663894843914 
985	 0,345491804946894 
986	 0,346586849681199 
987	 0,347981604730561 
988	 0,349414106032839 
989	 0,35045322366339 
990	 0,350205842783625 
991	 0,350154885193304 
992	 0,350762949520589 
993	 0,349569498876535 
994	 0,348226295981959 
995	 0,348662401016931 
996	 0,35080708305357 
997	 0,353433485298028 
998	 0,354296307531956 
999	 0,354787051289226 
1000	 0,354990766444485 
1001	 0,353686586373154 
1002	 0,35306587444134 
1003	 0,354460387650473 
1004	 0,358574323515998 
1005	 0,360923037910486 
1006	 0,357844129549323 
1007	 0,358697266322613 
1008	 0,361831318217781 
1009	 0,361407413641416 
1010	 0,361247998352866 
1011	 0,361753062189288 
1012	 0,360791354137811 
1013	 0,361188956485009 
1014	 0,363532107421513 
1015	 0,36436106257114 
1016	 0,363014510711 
1017	 0,359871598014999 
1018	 0,361343066695806 
1019	 0,365418837484527 
1020	 0,367584475847521 
1021	 0,367827963464041 
1022	 0,3673503753006 
1023	 0,370072366430814 
1024	 0,370650526988964 
1025	 0,368277995932011 
1026	 0,368112227216143 
1027	 0,368587616762799 
1028	 0,368740474025045 
1029	 0,369770467378513 
1030	 0,371584511606493 
1031	 0,373642965914962 
1032	 0,370975708013024 
1033	 0,367739832456272 
1034	 0,374138440290616 
1035	 0,376264656365332 
1036	 0,373702181348473 
1037	 0,380858112325939 
1038	 0,381532725307836 
1039	 0,372488788780229 
1040	 0,378185436343864 
1041	 0,383183271568208 
1042	 0,375646696886573 
1043	 0,37534025356946 
1044	 0,379383358456871 
1045	 0,38043273715457 
1046	 0,384790891560252 
1047	 0,389130045478796 
1048	 0,383091651611763 
1049	 0,381202851389111 
1050	 0,384703433607814 
1051	 0,379677937774353 
1052	 0,375997941854341 
1053	 0,379479757979774 
1054	 0,39344965515527 
1055	 0,399936029015105 
1056	 0,385952529925523 
1057	 0,383017230992954 
1058	 0,384726775602234 
1059	 0,376417097720069 
1060	 0,380695278560176 
1061	 0,391090266557343 
1062	 0,382152508036649 
1063	 0,37642028656464 
1064	 0,37926343062233 
1065	 0,385148945257916 
1066	 0,387160707841206 
1067	 0,383281145843607 
1068	 0,382110183684691 
1069	 0,376175351608551 
1070	 0,364012787267587 
1071	 0,376359611079115 
1072	 0,394988961167469 
1073	 0,394029360097798 
1074	 0,382937325293523 
1075	 0,370681369229685 
