Wavelength	BELON00333.asd
325	 0,289341120771041 
326	 0,28878036563987 
327	 0,253035989161271 
328	 0,143154753364515 
329	 4,51746675681767E-02 
330	 0,070693946324692 
331	 0,266866145613899 
332	 0,348982924539215 
333	 0,312649999753594 
334	 0,247347931551848 
335	 0,230386460772922 
336	 0,254813602506997 
337	 0,202959225231071 
338	 0,132201522266108 
339	 8,47127195781288E-02 
340	 0,112946393476599 
341	 0,170342152330956 
342	 0,151674640491848 
343	 0,143838194979598 
344	 0,15385052098055 
345	 0,090255798891519 
346	 6,38314965741936E-02 
347	 0,1722030594657 
348	 0,19741801798788 
349	 0,147064399333958 
350	 0,136430152282374 
351	 0,149003110650274 
352	 0,174578132441292 
353	 0,185556390539964 
354	 0,172565990437747 
355	 0,131652224445137 
356	 0,11546289384106 
357	 0,125306491603935 
358	 0,14089280482545 
359	 0,144577094166638 
360	 0,131841851566484 
361	 0,138508485841568 
362	 0,145454427945525 
363	 0,121403130990996 
364	 0,110855641137378 
365	 0,115248759396812 
366	 9,74813717396833E-02 
367	 9,45884566381675E-02 
368	 0,123279542890563 
369	 0,137290879439761 
370	 0,135621952097249 
371	 0,125681995128713 
372	 0,11617989545776 
373	 0,114121319644398 
374	 0,132173338540992 
375	 0,147256165691295 
376	 0,141355610144394 
377	 0,124753036383886 
378	 0,107862419110204 
379	 0,107797030533122 
380	 0,115919951292323 
381	 0,129106068217747 
382	 0,14598787945332 
383	 0,149393210157066 
384	 0,127706971326233 
385	 0,118544635106317 
386	 0,122274292132865 
387	 0,115079610611071 
388	 0,127712916007631 
389	 0,160457196025947 
390	 0,15305642690221 
391	 0,136092263550211 
392	 0,150213561219835 
393	 0,149362626434224 
394	 0,132851604893096 
395	 0,124556774396849 
396	 0,127019309155148 
397	 0,139621320643245 
398	 0,147838884004203 
399	 0,146831978241915 
400	 0,131415234306639 
401	 0,132953015062403 
402	 0,1500241937194 
403	 0,145251980621423 
404	 0,137679905068868 
405	 0,139507529940344 
406	 0,135005289309361 
407	 0,126499832342093 
408	 0,121981322252849 
409	 0,122090261973114 
410	 0,126353538012275 
411	 0,130859244228058 
412	 0,135278600457463 
413	 0,139364611660756 
414	 0,135313421204692 
415	 0,127317870551235 
416	 0,128967691225087 
417	 0,133049923139213 
418	 0,135380393179665 
419	 0,129522284436946 
420	 0,1228720537821 
421	 0,125364329471912 
422	 0,125923939993506 
423	 0,123927872969815 
424	 0,125851281719678 
425	 0,128516148187769 
426	 0,129719200910987 
427	 0,128936390959563 
428	 0,127933837838172 
429	 0,130069596950011 
430	 0,131434727598883 
431	 0,130668864390891 
432	 0,127335898810543 
433	 0,124314535700825 
434	 0,124120958519189 
435	 0,126244357139125 
436	 0,129387665016334 
437	 0,13123664176704 
438	 0,130850419294465 
439	 0,128566054198309 
440	 0,129134776794023 
441	 0,130752745562547 
442	 0,130627814544132 
443	 0,129504321516555 
444	 0,128546806049371 
445	 0,13129986671879 
446	 0,132932101622935 
447	 0,130876980079128 
448	 0,130340084263071 
449	 0,131277528702691 
450	 0,132309637450606 
451	 0,13231032979162 
452	 0,131522780291591 
453	 0,13303149984963 
454	 0,135197003170235 
455	 0,136334311292565 
456	 0,135505776809243 
457	 0,133931564290729 
458	 0,135042772540438 
459	 0,13773397130313 
460	 0,140487270006769 
461	 0,137366993368275 
462	 0,133008909125996 
463	 0,134209119603391 
464	 0,136883169782247 
465	 0,139290762502339 
466	 0,139303494439544 
467	 0,13859361932691 
468	 0,138294112043252 
469	 0,137778897607667 
470	 0,137109555651304 
471	 0,136396507585767 
472	 0,13664896896049 
473	 0,137731706626416 
474	 0,137267262970096 
475	 0,136906838424359 
476	 0,138354214808128 
477	 0,140529763619571 
478	 0,142274626087292 
479	 0,141337476250792 
480	 0,139842876449396 
481	 0,13894534506016 
482	 0,138799945500071 
483	 0,138721967837207 
484	 0,137640694126394 
485	 0,137400427836044 
486	 0,137932379523141 
487	 0,137107740701796 
488	 0,135996425281764 
489	 0,135526817183877 
490	 0,136381716392486 
491	 0,13741519540907 
492	 0,135520584148175 
493	 0,135466481889071 
494	 0,137893015615723 
495	 0,136456374483839 
496	 0,13466341033457 
497	 0,136869285839397 
498	 0,136767269145194 
499	 0,134605145518923 
500	 0,135668058868982 
501	 0,136681319758416 
502	 0,136103703596056 
503	 0,137189214911024 
504	 0,139131764149147 
505	 0,139868036113883 
506	 0,140551620160865 
507	 0,141442294429749 
508	 0,142400286845237 
509	 0,142840442737032 
510	 0,142369821796754 
511	 0,143286977786891 
512	 0,145451022073816 
513	 0,147645001386457 
514	 0,148253928459344 
515	 0,147021834586175 
516	 0,147522591967291 
517	 0,148834920239715 
518	 0,149189079132199 
519	 0,148780342695113 
520	 0,148167702609798 
521	 0,149344875823778 
522	 0,150123249892356 
523	 0,149085591778673 
524	 0,149171040602722 
525	 0,149913737512021 
526	 0,149118925657186 
527	 0,148781765268296 
528	 0,149281265380382 
529	 0,148879631172222 
530	 0,147992792810592 
531	 0,147249603311368 
532	 0,14698093216265 
533	 0,147189999437045 
534	 0,1475577990658 
535	 0,148023219972985 
536	 0,14845743976682 
537	 0,148276717870286 
538	 0,147863996308658 
539	 0,148072583266653 
540	 0,148124650432551 
541	 0,147862386669555 
542	 0,14762181829635 
543	 0,147762531087454 
544	 0,148552621248703 
545	 0,148596465185997 
546	 0,148040621804354 
547	 0,148048827906243 
548	 0,14854021508335 
549	 0,149344033064706 
550	 0,149391645120932 
551	 0,149246242453982 
552	 0,150025148385249 
553	 0,149864973553587 
554	 0,148693901782618 
555	 0,148454637240859 
556	 0,148349169479946 
557	 0,147727380732872 
558	 0,147633237351595 
559	 0,14775040816091 
560	 0,146760771206078 
561	 0,14612320438578 
562	 0,146298298865445 
563	 0,146282795016388 
564	 0,145771226312154 
565	 0,14449340934778 
566	 0,143973364858999 
567	 0,14446250782381 
568	 0,145196455178424 
569	 0,146171179414862 
570	 0,147305256428118 
571	 0,147997031207939 
572	 0,148524162746993 
573	 0,149738585528139 
574	 0,150684368102644 
575	 0,151367859223075 
576	 0,153663846235547 
577	 0,156079074871046 
578	 0,156849517381535 
579	 0,157977518202588 
580	 0,159563352215835 
581	 0,160381607515111 
582	 0,161376037180685 
583	 0,163000144704068 
584	 0,164355217601412 
585	 0,165473664616905 
586	 0,166582248922959 
587	 0,168102533494689 
588	 0,169879996898671 
589	 0,170694371892373 
590	 0,170938940014684 
591	 0,171083026593787 
592	 0,171793832761503 
593	 0,172903855085336 
594	 0,173579931530089 
595	 0,173949975546853 
596	 0,174104881322299 
597	 0,174486811268321 
598	 0,174686925937776 
599	 0,17401428531457 
600	 0,173601843163438 
601	 0,173555832299098 
602	 0,172858277354145 
603	 0,17232497227448 
604	 0,172491723683354 
605	 0,171562803789026 
606	 0,170012705985464 
607	 0,169731325756339 
608	 0,16945055212165 
609	 0,168776741551491 
610	 0,168271175448675 
611	 0,167683959366607 
612	 0,166668733265579 
613	 0,165657366623308 
614	 0,164832955453159 
615	 0,16432588536123 
616	 0,164128282819205 
617	 0,16414361823495 
618	 0,163610688337663 
619	 0,162907448693319 
620	 0,16300869574045 
621	 0,163130960071715 
622	 0,163004208695709 
623	 0,162583319331285 
624	 0,162462893079372 
625	 0,163193201005733 
626	 0,162908011087821 
627	 0,162026264879404 
628	 0,16296683842097 
629	 0,163979747770243 
630	 0,164235620729617 
631	 0,164691841542329 
632	 0,165392630546053 
633	 0,166251258231507 
634	 0,166844312135368 
635	 0,167248481185058 
636	 0,168328307066543 
637	 0,169575514838563 
638	 0,170560621202381 
639	 0,1718292619111 
640	 0,1731783840182 
641	 0,173890334381074 
642	 0,174576529253218 
643	 0,175416759164739 
644	 0,17592891089767 
645	 0,176303703947233 
646	 0,176841218345152 
647	 0,177085230206704 
648	 0,176961052320468 
649	 0,176674092987078 
650	 0,176160338156925 
651	 0,175365762929312 
652	 0,174199278342229 
653	 0,172750700406637 
654	 0,171201035103033 
655	 0,169595125017436 
656	 0,1679997020688 
657	 0,166568078052691 
658	 0,165000753541689 
659	 0,162998848631103 
660	 0,161147556726553 
661	 0,159347481931123 
662	 0,156838841123999 
663	 0,154661850538176 
664	 0,153263902778273 
665	 0,151708537245182 
666	 0,15000410341644 
667	 0,148310649562387 
668	 0,147167355914934 
669	 0,14669622509233 
670	 0,146670862274547 
671	 0,146685402918824 
672	 0,146392658167033 
673	 0,145708518135312 
674	 0,144929877571262 
675	 0,144789837286948 
676	 0,14468497351977 
677	 0,144412176897181 
678	 0,144093978537241 
679	 0,144017054559834 
680	 0,144496510919286 
681	 0,145017496839489 
682	 0,145674870261293 
683	 0,147131149055219 
684	 0,148966526699585 
685	 0,150899594541847 
686	 0,152687367795355 
687	 0,154992044683988 
688	 0,1590523190342 
689	 0,163029088197237 
690	 0,166822491304287 
691	 0,172432912516653 
692	 0,179280173611624 
693	 0,186757132954064 
694	 0,194803817497002 
695	 0,203658250819837 
696	 0,21402888657621 
697	 0,225021987184535 
698	 0,236336334955407 
699	 0,248579394655416 
700	 0,261625069510539 
701	 0,275255151338426 
702	 0,289075294764296 
703	 0,302813705141153 
704	 0,316279148920411 
705	 0,32961922990224 
706	 0,342877577114509 
707	 0,355762510653998 
708	 0,368056666245774 
709	 0,379478988041566 
710	 0,390682154762754 
711	 0,401781792712272 
712	 0,412414118002853 
713	 0,422260748834993 
714	 0,431073217465274 
715	 0,439607489844432 
716	 0,44782600736624 
717	 0,455194726248613 
718	 0,462259369278115 
719	 0,46912287063447 
720	 0,475065816729847 
721	 0,480382154705252 
722	 0,485498724414843 
723	 0,490202372820467 
724	 0,494472445257977 
725	 0,498174136104573 
726	 0,502003761747916 
727	 0,506228778666361 
728	 0,509184190363951 
729	 0,511253208083481 
730	 0,513490914388327 
731	 0,515935916548078 
732	 0,518446152018781 
733	 0,520195166494848 
734	 0,521592030407245 
735	 0,52304088400477 
736	 0,524666698045161 
737	 0,526386402738527 
738	 0,527963382724117 
739	 0,52914855505708 
740	 0,529906083547497 
741	 0,530681680068951 
742	 0,531514554575112 
743	 0,532398641594428 
744	 0,533135959540216 
745	 0,533744730828932 
746	 0,534450159397667 
747	 0,535069999269929 
748	 0,535530823423094 
749	 0,536081891734796 
750	 0,53653124636365 
751	 0,536523537052611 
752	 0,536942408539345 
753	 0,537743603057632 
754	 0,537744596878404 
755	 0,537773232309955 
756	 0,538369279847009 
757	 0,538487472036691 
758	 0,538369834234363 
759	 0,538814118651267 
760	 0,539407096077036 
761	 0,539915177731073 
762	 0,53991700962149 
763	 0,539825857800374 
764	 0,540036090888799 
765	 0,540078040031805 
766	 0,54008262855217 
767	 0,54061423065207 
768	 0,541160565305995 
769	 0,541461476184645 
770	 0,541378996721906 
771	 0,541156337637934 
772	 0,541095863912628 
773	 0,541150943862769 
774	 0,541331509195827 
775	 0,541679899346556 
776	 0,542023338078827 
777	 0,542230780644302 
778	 0,542127378655239 
779	 0,54202731606352 
780	 0,542410051196758 
781	 0,542641543697272 
782	 0,542623273366625 
783	 0,542698726913923 
784	 0,542602398234025 
785	 0,542236595957412 
786	 0,54227243987956 
787	 0,542597183677619 
788	 0,542847512760951 
789	 0,542939636925578 
790	 0,542883091045664 
791	 0,542891109828786 
792	 0,54300088459182 
793	 0,543224923845707 
794	 0,543425683019321 
795	 0,543556158120679 
796	 0,543568053402326 
797	 0,543696638325269 
798	 0,543877717500962 
799	 0,543368958632271 
800	 0,542930348029933 
801	 0,54325947851009 
802	 0,543384032601668 
803	 0,543302801578522 
804	 0,543516104277565 
805	 0,543629891915837 
806	 0,543565246303909 
807	 0,543698946532076 
808	 0,543903747815472 
809	 0,544001899653175 
810	 0,543675663276726 
811	 0,543230316409124 
812	 0,543705359636452 
813	 0,544117543656109 
814	 0,544083722884472 
815	 0,54399036716014 
816	 0,544165779815181 
817	 0,544924744344271 
818	 0,545110130065188 
819	 0,544785840498423 
820	 0,545048485603331 
821	 0,545014511712025 
822	 0,544495694479167 
823	 0,545048220457321 
824	 0,545859710506232 
825	 0,545712780802671 
826	 0,545439042846698 
827	 0,545299561347517 
828	 0,545486824942063 
829	 0,545578987921145 
830	 0,545402402595581 
831	 0,545409363199481 
832	 0,545572185888283 
833	 0,545783740684065 
834	 0,545719061309769 
835	 0,54539399345254 
836	 0,545106753264065 
837	 0,545117624495865 
838	 0,545485280103452 
839	 0,545441654536688 
840	 0,545383433228568 
841	 0,545983806767823 
842	 0,546146551814043 
843	 0,545871742581775 
844	 0,546154313774916 
845	 0,546343076266933 
846	 0,54610309759279 
847	 0,545752085847396 
848	 0,545413529013357 
849	 0,545198192175558 
850	 0,545511486099126 
851	 0,546084126090873 
852	 0,545727023895457 
853	 0,545305425014428 
854	 0,545294887282755 
855	 0,545405329773602 
856	 0,545706907092412 
857	 0,546322382580196 
858	 0,546059997847109 
859	 0,545193903933205 
860	 0,545563482573545 
861	 0,546093819888444 
862	 0,546274716284785 
863	 0,546662896967289 
864	 0,547004149304446 
865	 0,546921520536227 
866	 0,546954907309529 
867	 0,547066663162217 
868	 0,546706304145579 
869	 0,546430898242747 
870	 0,546470857344971 
871	 0,546336497386597 
872	 0,546488532759415 
873	 0,547475243933285 
874	 0,547841240799689 
875	 0,547529345941398 
876	 0,547359844202 
877	 0,547397153860266 
878	 0,547570164500341 
879	 0,547052011043894 
880	 0,54667388497897 
881	 0,54732025054731 
882	 0,547393415837271 
883	 0,546826305390142 
884	 0,546237071999237 
885	 0,546123389134924 
886	 0,546624201431079 
887	 0,547231917464222 
888	 0,547512160589511 
889	 0,547140592838547 
890	 0,546824824478611 
891	 0,546805114920266 
892	 0,54733820615103 
893	 0,547321375315324 
894	 0,546631407616514 
895	 0,546602829088403 
896	 0,546394224772877 
897	 0,545441686733748 
898	 0,545142354308447 
899	 0,545443984939651 
900	 0,545866386397987 
901	 0,545920460576027 
902	 0,545716114203188 
903	 0,546391094596201 
904	 0,546809380221692 
905	 0,546435654422226 
906	 0,547124484424076 
907	 0,547652394879394 
908	 0,546032599895158 
909	 0,54561382193534 
910	 0,546460401713505 
911	 0,54599051077568 
912	 0,545554855838375 
913	 0,545651240663928 
914	 0,545349182006131 
915	 0,544991272791281 
916	 0,545044913732604 
917	 0,545711645095556 
918	 0,546470054425898 
919	 0,545944977143667 
920	 0,545303960167844 
921	 0,54506828334982 
922	 0,545632400116884 
923	 0,545837874375597 
924	 0,544776240192304 
925	 0,54359026425518 
926	 0,542650898564411 
927	 0,542297187312135 
928	 0,541070189166983 
929	 0,539307342335159 
930	 0,539666070483803 
931	 0,540814338475949 
932	 0,541729558593535 
933	 0,541608228125981 
934	 0,540522220161905 
935	 0,53879114483223 
936	 0,537853878096999 
937	 0,53766146191853 
938	 0,537057430423573 
939	 0,536125414382823 
940	 0,534948085095966 
941	 0,5340004482044 
942	 0,533065077802294 
943	 0,531976587931937 
944	 0,531456997917394 
945	 0,53090100059984 
946	 0,528976279778296 
947	 0,527512991727625 
948	 0,526964600176189 
949	 0,526965316003903 
950	 0,526311682048035 
951	 0,524472566463838 
952	 0,523059840848204 
953	 0,521715841675377 
954	 0,519840864507478 
955	 0,518284275799272 
956	 0,517037607573227 
957	 0,515434738618555 
958	 0,514989171808125 
959	 0,515684020296889 
960	 0,515068533872662 
961	 0,513698966609868 
962	 0,512192170044075 
963	 0,511382178029381 
964	 0,510896656971576 
965	 0,5099362986537 
966	 0,510453486550558 
967	 0,511963846497752 
968	 0,511634295765893 
969	 0,5106405170651 
970	 0,509497337352408 
971	 0,508007816272429 
972	 0,507714755179522 
973	 0,509690191365213 
974	 0,51012786668054 
975	 0,509916181719965 
976	 0,511961154806376 
977	 0,510707637060365 
978	 0,506460933448401 
979	 0,505268913757396 
980	 0,506516025855938 
981	 0,509311709927215 
982	 0,51006862280949 
983	 0,510086744774341 
984	 0,510942947540165 
985	 0,511136931561047 
986	 0,510703246539034 
987	 0,510099204313437 
988	 0,510753307721836 
989	 0,512719728156852 
990	 0,514687784448572 
991	 0,515574453582721 
992	 0,515045224374265 
993	 0,515156145807854 
994	 0,515595970126518 
995	 0,515835171251968 
996	 0,515795431511737 
997	 0,515470185370938 
998	 0,514758937640187 
999	 0,516854602013053 
1000	 0,520947079860972 
1001	 0,520888030888031 
1002	 0,520290532630762 
1003	 0,521040542082279 
1004	 0,522686406192214 
1005	 0,524072235777512 
1006	 0,524173609302881 
1007	 0,524438573386694 
1008	 0,524308751983425 
1009	 0,522367729173726 
1010	 0,522126183382836 
1011	 0,52374752788248 
1012	 0,524234997877852 
1013	 0,525621909582404 
1014	 0,528201891012549 
1015	 0,529551657662279 
1016	 0,528020483418778 
1017	 0,523530589884662 
1018	 0,526892940137336 
1019	 0,53214356644403 
1020	 0,528374148509006 
1021	 0,528380225558707 
1022	 0,532170184535163 
1023	 0,531328426896306 
1024	 0,530193257587152 
1025	 0,529888441774983 
1026	 0,528617776560725 
1027	 0,529244362587336 
1028	 0,53292895823839 
1029	 0,53407799628602 
1030	 0,535088599624323 
1031	 0,539095920256144 
1032	 0,540345822640142 
1033	 0,539045275937848 
1034	 0,538029735049694 
1035	 0,5354408506885 
1036	 0,533425999537139 
1037	 0,540852323178633 
1038	 0,545032416478877 
1039	 0,541350312255965 
1040	 0,53939957209341 
1041	 0,538261991348934 
1042	 0,536925284635471 
1043	 0,535941849472024 
1044	 0,537470914547733 
1045	 0,543961818321621 
1046	 0,548341112725251 
1047	 0,547637479686973 
1048	 0,539223415406601 
1049	 0,537280309945718 
1050	 0,543160931534819 
1051	 0,542344095496135 
1052	 0,54501676049091 
1053	 0,553642753782943 
1054	 0,55498871976414 
1055	 0,547225847043498 
1056	 0,532304020231973 
1057	 0,533718839818741 
1058	 0,543762121349557 
1059	 0,546524834796349 
1060	 0,544675036998138 
1061	 0,54027213393865 
1062	 0,537268793199554 
1063	 0,538701225067339 
1064	 0,544004165285965 
1065	 0,547166739118416 
1066	 0,546844739152524 
1067	 0,543792220023685 
1068	 0,545864106679739 
1069	 0,544190755342705 
1070	 0,53408193328728 
1071	 0,533197867143651 
1072	 0,54031140045389 
1073	 0,55019272322006 
1074	 0,546484938471467 
1075	 0,536758538641701 
