Wavelength	BELON00375.asd
325	-3,8220913356536E-03 
326	-0,103795531068258 
327	-7,00064879718091E-02 
328	 5,43430227553158E-02 
329	-3,71452182405529E-02 
330	-0,106959041948852 
331	 6,80521282053487E-02 
332	 0,101473488241957 
333	 3,02734615631022E-02 
334	 4,33892718736437E-02 
335	 7,42741485482971E-02 
336	 9,22214266452171E-02 
337	 2,85171430740876E-02 
338	-4,43660897425031E-02 
339	-7,07570116103352E-02 
340	 1,71017744967019E-02 
341	 0,107156628185176 
342	-9,66463284959861E-03 
343	-4,95850019581338E-02 
344	 2,81810253399721E-02 
345	 3,27878812194437E-02 
346	 3,38075143008825E-02 
347	 0,1028436519087 
348	 8,19067428476973E-02 
349	 6,18601180609318E-03 
350	 2,64174155515749E-02 
351	 5,10679899274182E-02 
352	 4,83198125142177E-02 
353	 4,69527121103971E-02 
354	 3,52016738006948E-02 
355	 1,97489686649697E-04 
356	 3,94189315169288E-03 
357	 3,70857419933904E-02 
358	 4,47178900923368E-02 
359	 0,045028212157435 
360	 4,46687684636162E-02 
361	 2,89481631697617E-02 
362	 0,01510284683228 
363	 2,72559080873334E-02 
364	 3,66762254292806E-02 
365	 3,65790598680561E-02 
366	 2,96459429239066E-02 
367	 2,24463517971979E-02 
368	 1,90964667755929E-02 
369	 1,65266018621229E-02 
370	 1,42172127578937E-02 
371	 1,18573954307451E-02 
372	 1,67415450662816E-02 
373	 2,52096481788481E-02 
374	 1,12066645281484E-02 
375	 1,13458817941351E-02 
376	 4,79149951775521E-02 
377	 4,91664634722305E-02 
378	 2,83956439570615E-02 
379	 3,74725825708996E-02 
380	 3,68908321753078E-02 
381	 0,021166632658491 
382	 2,82244929016934E-02 
383	 3,43592964339475E-02 
384	 1,78473995545454E-02 
385	 8,70742297451928E-03 
386	 8,91854239908973E-03 
387	 7,72576316263066E-03 
388	 6,10185290872427E-03 
389	 5,75458558894267E-03 
390	 1,57945875223581E-02 
391	 2,74504914425662E-02 
392	 2,95124561652079E-02 
393	 2,74014246410348E-02 
394	 2,40473684517383E-02 
395	 2,28541984206305E-02 
396	 2,61551617838827E-02 
397	 3,33656048429521E-02 
398	 0,032692600123601 
399	 2,65894984458175E-02 
400	 2,04629062275391E-02 
401	 1,51898307781669E-02 
402	 1,23266946795451E-02 
403	 1,53225197714387E-02 
404	 1,73308060138715E-02 
405	 1,42051599051978E-02 
406	 1,24843837473249E-02 
407	 1,30729047173641E-02 
408	 1,58684447161018E-02 
409	 1,80380543551054E-02 
410	 1,81953434487235E-02 
411	 1,42442348596154E-02 
412	 1,17091490218675E-02 
413	 0,015189252487406 
414	 1,69980507136147E-02 
415	 1,70020500465069E-02 
416	 1,84662729875832E-02 
417	 2,15521284599319E-02 
418	 2,45233706325814E-02 
419	 1,63690046740461E-02 
420	 7,0523735146053E-03 
421	 1,00169979387708E-02 
422	 1,68397263046776E-02 
423	 2,24669444515363E-02 
424	 1,75825378344242E-02 
425	 1,45553248842548E-02 
426	 1,98009273561418E-02 
427	 1,86190595277471E-02 
428	 1,40361707170428E-02 
429	 1,45027565770154E-02 
430	 1,81290042034128E-02 
431	 2,26394201280983E-02 
432	 2,07041589360848E-02 
433	 1,80322581680119E-02 
434	 1,96202962803094E-02 
435	 1,95127266177745E-02 
436	 0,018175859620309 
437	 1,96987025983774E-02 
438	 2,01615466444348E-02 
439	 1,84703506271463E-02 
440	 1,77053968784862E-02 
441	 1,86085377806124E-02 
442	 2,17222184593403E-02 
443	 2,18884150197665E-02 
444	 1,94774293937376E-02 
445	 0,020694724596262 
446	 2,04262178745103E-02 
447	 1,64366686994152E-02 
448	 0,018261722403479 
449	 2,24038597960201E-02 
450	 1,99033503535724E-02 
451	 1,95275658527919E-02 
452	 0,022675848920676 
453	 0,023086394762408 
454	 2,16471703172207E-02 
455	 1,95946846458391E-02 
456	 1,95968713549942E-02 
457	 2,07154304468364E-02 
458	 0,018520933911104 
459	 1,82900173028709E-02 
460	 2,12822591082487E-02 
461	 2,03663443412144E-02 
462	 0,018541285689343 
463	 2,06573950577592E-02 
464	 2,07503832885191E-02 
465	 0,018547159074119 
466	 1,84549994908423E-02 
467	 1,84339095393027E-02 
468	 1,72517118591099E-02 
469	 1,63199347290943E-02 
470	 1,64730502816866E-02 
471	 0,019024065252237 
472	 2,12904476590175E-02 
473	 2,19065051861081E-02 
474	 1,93279094654182E-02 
475	 1,70989129845221E-02 
476	 1,86710397109933E-02 
477	 2,13925771689155E-02 
478	 2,35002886269655E-02 
479	 0,022034776871074 
480	 2,04950365850763E-02 
481	 2,01946376939289E-02 
482	 1,72611834291034E-02 
483	 1,47827034153091E-02 
484	 1,78428704660811E-02 
485	 2,02273054941181E-02 
486	 2,01021581976387E-02 
487	 1,75768205210113E-02 
488	 1,50281205260642E-02 
489	 1,44648445284573E-02 
490	 1,67820795673781E-02 
491	 2,01049099433551E-02 
492	 2,01763041174642E-02 
493	 1,98914014800235E-02 
494	 0,020065720155836 
495	 1,98001382223899E-02 
496	 1,87854161800283E-02 
497	 1,67757313334735E-02 
498	 1,62932666870574E-02 
499	 1,73074424006217E-02 
500	 1,78645253057897E-02 
501	 1,79103040229061E-02 
502	 1,76117202631666E-02 
503	 1,90654431982882E-02 
504	 2,05418051879384E-02 
505	 1,85315504466054E-02 
506	 1,72439856383198E-02 
507	 1,75683752693478E-02 
508	 1,72443665204026E-02 
509	 1,71294757651995E-02 
510	 1,80246297243978E-02 
511	 1,89264815596959E-02 
512	 1,97004464573879E-02 
513	 2,07603408765896E-02 
514	 2,08240177543097E-02 
515	 1,96620421708698E-02 
516	 1,96051933063099E-02 
517	 0,020130089677018 
518	 2,01745909147348E-02 
519	 1,99725408423714E-02 
520	 1,96983629529644E-02 
521	 1,99822736274354E-02 
522	 1,96071325387514E-02 
523	 1,79771367714955E-02 
524	 1,86943450829066E-02 
525	 2,07437898919454E-02 
526	 2,06564279600541E-02 
527	 2,02258164617475E-02 
528	 2,00331894836675E-02 
529	 2,00974828813633E-02 
530	 1,99130194815903E-02 
531	 1,89181505122284E-02 
532	 1,84095200735331E-02 
533	 1,87323849559049E-02 
534	 2,00792304730067E-02 
535	 2,08143744534231E-02 
536	 2,00865307295156E-02 
537	 1,97037964992817E-02 
538	 1,96627388132553E-02 
539	 1,94562523615834E-02 
540	 1,93619180774525E-02 
541	 1,93603123715778E-02 
542	 1,90305801400978E-02 
543	 1,86079045491404E-02 
544	 1,83634525001914E-02 
545	 1,88770780763601E-02 
546	 1,96653592899939E-02 
547	 1,90214818095733E-02 
548	 0,018683539822227 
549	 1,93383311766499E-02 
550	 1,93684471359125E-02 
551	 1,91189069229937E-02 
552	 1,94286550819534E-02 
553	 1,92070298191122E-02 
554	 1,85482222593172E-02 
555	 1,91553504067082E-02 
556	 1,95292756298403E-02 
557	 1,85189249895926E-02 
558	 1,83111612126534E-02 
559	 1,88002753805675E-02 
560	 1,86691192678512E-02 
561	 1,87038154120158E-02 
562	 0,019113550324358 
563	 1,93863827608798E-02 
564	 1,93372079569962E-02 
565	 1,87859926255911E-02 
566	 1,90104575268195E-02 
567	 1,98396819075872E-02 
568	 1,94196378021592E-02 
569	 1,89256987654332E-02 
570	 0,019151184212829 
571	 1,93018498050519E-02 
572	 1,93193719657694E-02 
573	 1,93329685517546E-02 
574	 1,93796157777156E-02 
575	 1,95153331369367E-02 
576	 1,98826646959243E-02 
577	 2,03324287869362E-02 
578	 2,06853380794535E-02 
579	 2,08559935975647E-02 
580	 2,08976346541505E-02 
581	 2,09598935260612E-02 
582	 2,14638375121115E-02 
583	 2,24880151447908E-02 
584	 2,26166247862328E-02 
585	 2,23319239762584E-02 
586	 2,28425599177607E-02 
587	 2,30276124057753E-02 
588	 2,27408963079903E-02 
589	 0,022820319712514 
590	 2,31373904549089E-02 
591	 2,35173578181889E-02 
592	 2,36749438760409E-02 
593	 2,35973092924787E-02 
594	 2,34044376502776E-02 
595	 2,33417660278666E-02 
596	 2,35152349883347E-02 
597	 2,36779035083368E-02 
598	 2,38167687360962E-02 
599	 2,39819802786069E-02 
600	 2,35775111621166E-02 
601	 2,28006860060424E-02 
602	 2,30574678637479E-02 
603	 2,33973490481344E-02 
604	 2,30771050929569E-02 
605	 2,29011453809681E-02 
606	 2,27736060464011E-02 
607	 2,19920400928611E-02 
608	 2,19194787145591E-02 
609	 2,28167180720479E-02 
610	 2,29507995944518E-02 
611	 2,25891786384426E-02 
612	 2,22584775492407E-02 
613	 2,16536900949075E-02 
614	 2,10182653110787E-02 
615	 2,12791137125638E-02 
616	 2,16398742356864E-02 
617	 2,15978780925257E-02 
618	 2,16418265297076E-02 
619	 2,16799267998683E-02 
620	 2,13864673626933E-02 
621	 2,12539188886925E-02 
622	 2,13246613068714E-02 
623	 2,08339524715235E-02 
624	 2,06970689033917E-02 
625	 2,18062509625987E-02 
626	 2,16438820279355E-02 
627	 2,04974552710956E-02 
628	 2,07761686184456E-02 
629	 2,14176211342073E-02 
630	 2,18534739166896E-02 
631	 2,19987805803319E-02 
632	 2,20903579420805E-02 
633	 2,25645730861976E-02 
634	 2,26975449662289E-02 
635	 0,022465814888343 
636	 2,27088613282181E-02 
637	 2,28872229858945E-02 
638	 2,26181455293668E-02 
639	 2,34406077442341E-02 
640	 2,47787765324408E-02 
641	 2,44688879525768E-02 
642	 2,42890310026772E-02 
643	 2,48086246778703E-02 
644	 2,48761893769205E-02 
645	 2,48076611780203E-02 
646	 2,51367940332354E-02 
647	 2,53640037851834E-02 
648	 2,53591268590945E-02 
649	 2,50925551819669E-02 
650	 2,50190135947092E-02 
651	 2,53326844904073E-02 
652	 2,47976815565472E-02 
653	 2,38323990944875E-02 
654	 2,36600782044636E-02 
655	 2,34024352760414E-02 
656	 2,29592961726392E-02 
657	 2,33010545638255E-02 
658	 2,34998546680073E-02 
659	 2,25960288394541E-02 
660	 0,022052643290707 
661	 0,021991143002942 
662	 2,18733805330295E-02 
663	 2,13204668809787E-02 
664	 2,03011704982003E-02 
665	 2,02121561171656E-02 
666	 2,04308570840199E-02 
667	 1,96947986887763E-02 
668	 1,96887593855659E-02 
669	 2,04806590254992E-02 
670	 2,04373816041259E-02 
671	 2,01569123784228E-02 
672	 2,01421765768802E-02 
673	 2,00479273833582E-02 
674	 1,99774499099537E-02 
675	 2,03982170289348E-02 
676	 2,02820697511837E-02 
677	 1,94654271885209E-02 
678	 1,93264580037915E-02 
679	 1,96327044929513E-02 
680	 1,99615469509125E-02 
681	 2,01605425985171E-02 
682	 2,02341586367806E-02 
683	 2,03810916020889E-02 
684	 2,06118836846608E-02 
685	 2,09100230688562E-02 
686	 2,09510803630099E-02 
687	 2,12080664573584E-02 
688	 0,022621652945044 
689	 2,36443254125262E-02 
690	 2,41076745350575E-02 
691	 2,54682907230011E-02 
692	 2,73208432232364E-02 
693	 2,92360557977606E-02 
694	 3,10461974759623E-02 
695	 3,31505288060059E-02 
696	 0,036638635137417 
697	 4,05096110549674E-02 
698	 4,44030018294569E-02 
699	 4,88455306122408E-02 
700	 5,36748851739368E-02 
701	 5,86240029324578E-02 
702	 6,47598436463914E-02 
703	 7,18997566548682E-02 
704	 7,86958990084178E-02 
705	 0,08537011594345 
706	 9,20350153357839E-02 
707	 0,098658535975234 
708	 0,105059964517433 
709	 0,11087713610982 
710	 0,117161699016966 
711	 0,123933621017243 
712	 0,129775294181203 
713	 0,135117871393407 
714	 0,140411290507721 
715	 0,145491779386654 
716	 0,150254999304381 
717	 0,154479449455976 
718	 0,158580475480839 
719	 0,162627932546607 
720	 0,165919863800281 
721	 0,1689199204007 
722	 0,172273075369188 
723	 0,175305936544656 
724	 0,177854209835428 
725	 0,179763786039335 
726	 0,182094918134209 
727	 0,185291047490694 
728	 0,187182480648798 
729	 0,188081808495562 
730	 0,189063304722012 
731	 0,190225286370889 
732	 0,191590516239936 
733	 0,192832606388568 
734	 0,194010242276397 
735	 0,195153578311559 
736	 0,195841360030815 
737	 0,19631509151619 
738	 0,197352751928068 
739	 0,198336479046182 
740	 0,199035191522182 
741	 0,199604924986685 
742	 0,199926472283481 
743	 0,199872259213932 
744	 0,200238579351066 
745	 0,200980071617538 
746	 0,201331826222623 
747	 0,201670417227296 
748	 0,202140615000387 
749	 0,202362518138151 
750	 0,202368382501344 
751	 0,202260012386627 
752	 0,202444511279575 
753	 0,202911111103845 
754	 0,203137247797382 
755	 0,203245627337929 
756	 0,203329303283267 
757	 0,203350893834304 
758	 0,203343156410015 
759	 0,203352807263012 
760	 0,203484982240588 
761	 0,203778482585239 
762	 0,204220583627352 
763	 0,204643764184734 
764	 0,204874932430434 
765	 0,204633841933991 
766	 0,204224447330343 
767	 0,204540516056519 
768	 0,204931479802727 
769	 0,205118836236307 
770	 0,205094649951816 
771	 0,205054817940941 
772	 0,205227648905206 
773	 0,205320066181664 
774	 0,205306873655703 
775	 0,205333782302143 
776	 0,205280805706498 
777	 0,205166048649795 
778	 0,205560788650008 
779	 0,20600658504305 
780	 0,205749555600306 
781	 0,205710457679628 
782	 0,206045116341925 
783	 0,206468502226674 
784	 0,206421156960546 
785	 0,205670797820553 
786	 0,205604857607739 
787	 0,205952679380094 
788	 0,205856748813385 
789	 0,205805193373535 
790	 0,205933398006124 
791	 0,206286885681925 
792	 0,206390337488604 
793	 0,205944300760902 
794	 0,206006494873373 
795	 0,206427987823172 
796	 0,206507039035003 
797	 0,206515076216084 
798	 0,206523887044046 
799	 0,206514999436052 
800	 0,206506485077646 
801	 0,206515702928401 
802	 0,206527856534171 
803	 0,206590945567719 
804	 0,206836984671046 
805	 0,207094435622756 
806	 0,207249101157718 
807	 0,207084699553431 
808	 0,207019851921592 
809	 0,207470497053644 
810	 0,207338590382418 
811	 0,206787775354785 
812	 0,206933901135198 
813	 0,207055159454224 
814	 0,206904886110171 
815	 0,206830957445632 
816	 0,207001565844988 
817	 0,207563385821848 
818	 0,208100844535642 
819	 0,208369519225718 
820	 0,207981116583377 
821	 0,207678548480546 
822	 0,207826611386959 
823	 0,208187723625597 
824	 0,208331750421302 
825	 0,207764958841894 
826	 0,207739556912549 
827	 0,208238218155487 
828	 0,208187030190665 
829	 0,208027335591326 
830	 0,208021243680866 
831	 0,208426029665157 
832	 0,208689879826124 
833	 0,208048837187408 
834	 0,207466428910517 
835	 0,207234280810526 
836	 0,20736664173412 
837	 0,207701042830823 
838	 0,208080586017319 
839	 0,208231134384129 
840	 0,208242084710732 
841	 0,208293199410346 
842	 0,208238426445408 
843	 0,208155898160873 
844	 0,208387996813878 
845	 0,208665984758745 
846	 0,208794803170116 
847	 0,208615603292625 
848	 0,208203732722034 
849	 0,207695901421429 
850	 0,207370331104059 
851	 0,207399239353969 
852	 0,208044571827558 
853	 0,208671819605903 
854	 0,208839612261633 
855	 0,208258805151515 
856	 0,207644421617659 
857	 0,207987326321029 
858	 0,207918336781632 
859	 0,207504873859914 
860	 0,208087920175037 
861	 0,208637007169356 
862	 0,208669279564898 
863	 0,208855715339846 
864	 0,208962233176366 
865	 0,208621906995158 
866	 0,209116017760185 
867	 0,209935568951206 
868	 0,208505530307977 
869	 0,207514857127375 
870	 0,208110522435262 
871	 0,208678651242942 
872	 0,208886527826568 
873	 0,208544413210469 
874	 0,208299481106036 
875	 0,208312061636874 
876	 0,208476979398201 
877	 0,209080696405365 
878	 0,209969168863256 
879	 0,209671903865518 
880	 0,209168587603284 
881	 0,209571587159598 
882	 0,209224617944865 
883	 0,208344224655776 
884	 0,208283119782437 
885	 0,20862697703439 
886	 0,209124894902541 
887	 0,209196760417826 
888	 0,209162477839929 
889	 0,209330519942227 
890	 0,209227684192947 
891	 0,20891502166181 
892	 0,208650596441219 
893	 0,208858391481782 
894	 0,209351529207176 
895	 0,208636552480383 
896	 0,207843153558713 
897	 0,207824368582129 
898	 0,207375903878316 
899	 0,206944123974363 
900	 0,207614045030644 
901	 0,208344973303426 
902	 0,208826458048552 
903	 0,209212462459385 
904	 0,209369348885343 
905	 0,209250901163752 
906	 0,20913772406144 
907	 0,209070533650654 
908	 0,209045478290065 
909	 0,208839262490695 
910	 0,208569057376184 
911	 0,208854592034274 
912	 0,208726154825306 
913	 0,20787056793555 
914	 0,207331568044438 
915	 0,207243589726947 
916	 0,207638813053495 
917	 0,208734375139401 
918	 0,209623484113239 
919	 0,20789449056945 
920	 0,207015219522339 
921	 0,207752783645463 
922	 0,207179883545963 
923	 0,207019990169924 
924	 0,208528190049637 
925	 0,208549978113196 
926	 0,207402055732477 
927	 0,206605696970207 
928	 0,2054407153798 
929	 0,204220122387019 
930	 0,204361064598408 
931	 0,20552015632173 
932	 0,207009466209644 
933	 0,205999959007621 
934	 0,203997259301666 
935	 0,203362418427063 
936	 0,203778130582787 
937	 0,204512649044933 
938	 0,203677178795654 
939	 0,202607228693146 
940	 0,201801207214108 
941	 0,200930934910594 
942	 0,200453907575112 
943	 0,200640930148588 
944	 0,199992175777415 
945	 0,198603112325722 
946	 0,197062072560397 
947	 0,197194621840034 
948	 0,198507216541028 
949	 0,197188560382235 
950	 0,195222137852368 
951	 0,193869128785028 
952	 0,193165525813922 
953	 0,192841606231024 
954	 0,192515491695994 
955	 0,191976440344912 
956	 0,191087247439521 
957	 0,189610168546858 
958	 0,188583327839888 
959	 0,188165498896471 
960	 0,186947220417159 
961	 0,18662845971023 
962	 0,188157755800697 
963	 0,188152286418972 
964	 0,186577697344328 
965	 0,184186269919109 
966	 0,184618634055827 
967	 0,187371890391245 
968	 0,187941282745111 
969	 0,187277615000378 
970	 0,185902784324559 
971	 0,184790855738695 
972	 0,184113807533639 
973	 0,183978503328497 
974	 0,184660531584753 
975	 0,185887923087862 
976	 0,187232820842816 
977	 0,186106943082835 
978	 0,18308727976821 
979	 0,182613522003278 
980	 0,183182283977826 
981	 0,183975390972313 
982	 0,18444020463271 
983	 0,185857656694921 
984	 0,189154902959449 
985	 0,188841976256123 
986	 0,186548305705494 
987	 0,187388591103461 
988	 0,187834370898239 
989	 0,187486891976068 
990	 0,188460366365761 
991	 0,189436461817755 
992	 0,189609484657509 
993	 0,188858594427393 
994	 0,187824301514892 
995	 0,187310146271242 
996	 0,188822279324513 
997	 0,190933970377346 
998	 0,190381332152416 
999	 0,190467584303124 
1000	 0,191622619487222 
1001	 0,191900151750898 
1002	 0,19193496117608 
1003	 0,192191807878726 
1004	 0,193680430854274 
1005	 0,193965473698099 
1006	 0,191295993768461 
1007	 0,193950393991506 
1008	 0,199360495867046 
1009	 0,200557792890397 
1010	 0,199359472917028 
1011	 0,196958385203011 
1012	 0,195663023459668 
1013	 0,19609069518876 
1014	 0,19792996711874 
1015	 0,198040744184555 
1016	 0,196520437331983 
1017	 0,194125501191865 
1018	 0,194869319095661 
1019	 0,197317005155551 
1020	 0,198372594850832 
1021	 0,19840356756155 
1022	 0,198051949462232 
1023	 0,199180034930229 
1024	 0,199265666600532 
1025	 0,198261729257349 
1026	 0,200255877468452 
1027	 0,200745741701472 
1028	 0,19806806138042 
1029	 0,20256290959049 
1030	 0,207708348721 
1031	 0,205075206414499 
1032	 0,202560454465342 
1033	 0,20191145696132 
1034	 0,203409550852364 
1035	 0,202717492493322 
1036	 0,201061961946699 
1037	 0,208099758751192 
1038	 0,210732566795352 
1039	 0,204346320015592 
1040	 0,198041720836925 
1041	 0,198649102408612 
1042	 0,209127552741639 
1043	 0,210334129035071 
1044	 0,206004046746042 
1045	 0,204975991647157 
1046	 0,204142418746186 
1047	 0,202588368663388 
1048	 0,198403924506949 
1049	 0,205730790403389 
1050	 0,220791602380602 
1051	 0,21066081974611 
1052	 0,206020837202505 
1053	 0,218147576237162 
1054	 0,217747273637584 
1055	 0,212031714200159 
1056	 0,209065084251312 
1057	 0,209436368192891 
1058	 0,210074416267481 
1059	 0,206722022022208 
1060	 0,20932047548575 
1061	 0,214793208275158 
1062	 0,211021925007805 
1063	 0,213912308236848 
1064	 0,22158120630493 
1065	 0,207902191222751 
1066	 0,204046344475897 
1067	 0,217447374587699 
1068	 0,212308668114677 
1069	 0,199825603511904 
1070	 0,192244089329327 
1071	 0,19455826177398 
1072	 0,202613337582663 
1073	 0,209972033862812 
1074	 0,213963991092931 
1075	 0,210847039677278 
