Wavelength	BELON00305.asd
325	 1,79479772858572E-02 
326	 0,205640426301583 
327	 0,226468380678566 
328	 2,05429137134495E-02 
329	-0,150801592667718 
330	-9,22275519799704E-02 
331	 0,262999807972853 
332	 0,306938604208198 
333	 0,130812105442127 
334	 9,78230456210852E-02 
335	 0,11749623499247 
336	 0,148790671291345 
337	 0,104000855945716 
338	 3,41628383990778E-02 
339	-2,38680524342491E-02 
340	 2,26975494364919E-02 
341	 0,119133121181854 
342	 0,141857711468725 
343	 0,138634612226335 
344	 0,131352810009398 
345	 0,162576444492844 
346	 0,203498654321966 
347	 0,223625920001986 
348	 0,180733821288118 
349	 0,112764906336646 
350	 0,125199316098714 
351	 0,136939712635165 
352	 0,124620110534128 
353	 0,147543657073269 
354	 0,161683684832563 
355	 0,1099767855035 
356	 0,109021420381688 
357	 0,149215759772483 
358	 0,148722285407046 
359	 0,120390935406792 
360	 7,97231186497878E-02 
361	 0,101418329611845 
362	 0,143297549878173 
363	 0,137330094220478 
364	 0,116366325367202 
365	 9,99113479589845E-02 
366	 0,131022768563606 
367	 0,155459204030374 
368	 0,14165194927972 
369	 0,114057888144232 
370	 9,35586921191031E-02 
371	 0,115509661118757 
372	 0,125879995761135 
373	 0,114633200515759 
374	 0,110105168250557 
375	 0,119502724152343 
376	 0,143449016522459 
377	 0,141577975041133 
378	 0,123762684107422 
379	 0,121786627002227 
380	 0,13307686493338 
381	 0,151833445692994 
382	 0,14811924848251 
383	 0,131138206426595 
384	 0,111525662964663 
385	 0,103887830209171 
386	 0,107304780382489 
387	 0,109012777509264 
388	 0,115389292916116 
389	 0,12652486121972 
390	 0,134299524239984 
391	 0,137293296029755 
392	 0,134535930076411 
393	 0,131637246947682 
394	 0,129470603080437 
395	 0,123937631270379 
396	 0,127276330056886 
397	 0,141677744191128 
398	 0,135548727826397 
399	 0,121733308023011 
400	 0,123907424237647 
401	 0,126088759299178 
402	 0,124991458835227 
403	 0,124419171478479 
404	 0,121193453511551 
405	 0,114281608982966 
406	 0,116343901744454 
407	 0,123006371000476 
408	 0,121628858068097 
409	 0,123918646110776 
410	 0,130011821100428 
411	 0,12381806252712 
412	 0,118414425632286 
413	 0,125406965152608 
414	 0,125865889686448 
415	 0,120371212834133 
416	 0,118255514238626 
417	 0,122402239395987 
418	 0,131109353130334 
419	 0,126645328873381 
420	 0,118219922148799 
421	 0,119350987792389 
422	 0,12010969802625 
423	 0,119737330039199 
424	 0,123462967547318 
425	 0,12599390158669 
426	 0,12420120046493 
427	 0,121263447205721 
428	 0,119037926172592 
429	 0,119787624689255 
430	 0,12269158970976 
431	 0,126504982435146 
432	 0,128078783166652 
433	 0,127248589501513 
434	 0,124238138930905 
435	 0,1224730489812 
436	 0,122597561663578 
437	 0,123948389863826 
438	 0,127184299986105 
439	 0,131090813721796 
440	 0,127741408259777 
441	 0,123405447956412 
442	 0,12664568643525 
443	 0,129669520837489 
444	 0,130440809527939 
445	 0,128858808517349 
446	 0,127296719642363 
447	 0,127340480550905 
448	 0,128793422205046 
449	 0,130498286770627 
450	 0,130652901583189 
451	 0,128842826189519 
452	 0,126196296443821 
453	 0,128500582176264 
454	 0,130534291043652 
455	 0,127588702309411 
456	 0,126092541748067 
457	 0,126792590423746 
458	 0,128233671051329 
459	 0,1296065656744 
460	 0,13024715339586 
461	 0,129322108801713 
462	 0,128464979186003 
463	 0,129899176596365 
464	 0,130828997586829 
465	 0,13061935909364 
466	 0,1295333179164 
467	 0,129246608173363 
468	 0,130723445884374 
469	 0,131745550758815 
470	 0,132637383331618 
471	 0,135146754167857 
472	 0,134586796333125 
473	 0,130516318778414 
474	 0,127875752329003 
475	 0,127957889583597 
476	 0,131553192186703 
477	 0,135367163754949 
478	 0,137390512907914 
479	 0,134384204238647 
480	 0,132998983555738 
481	 0,135415841022043 
482	 0,132525705070025 
483	 0,128281342587337 
484	 0,129896029508017 
485	 0,131120547662312 
486	 0,130523062398655 
487	 0,12905654704313 
488	 0,128873149401872 
489	 0,131197995142114 
490	 0,130636448993779 
491	 0,128357157206185 
492	 0,128996824178125 
493	 0,12979111232476 
494	 0,129749583120135 
495	 0,128662965119627 
496	 0,127751684134101 
497	 0,1283701721622 
498	 0,129180047187109 
499	 0,129659640101952 
500	 0,129067146870667 
501	 0,129417642273184 
502	 0,131565002727526 
503	 0,132512869596197 
504	 0,132584250423282 
505	 0,133051879801219 
506	 0,133612384613186 
507	 0,133979022286522 
508	 0,133162760110018 
509	 0,132270064765726 
510	 0,132375266071852 
511	 0,133697291090888 
512	 0,135974184468607 
513	 0,138785818986264 
514	 0,140235631718567 
515	 0,139701634312222 
516	 0,139305779616741 
517	 0,139240121967535 
518	 0,139410712521823 
519	 0,139451594222865 
520	 0,139377025373104 
521	 0,139746463886886 
522	 0,139681712784033 
523	 0,138737261559752 
524	 0,139364378797101 
525	 0,140835573422565 
526	 0,140651841005377 
527	 0,14060142241307 
528	 0,141007588286895 
529	 0,140330806350507 
530	 0,139380461177907 
531	 0,139187370542085 
532	 0,13931368476919 
533	 0,139672242140876 
534	 0,140326835942941 
535	 0,140892504966414 
536	 0,141097276651488 
537	 0,140927690498683 
538	 0,140394210876731 
539	 0,139407968399235 
540	 0,139132512594038 
541	 0,139764054033807 
542	 0,140281458850871 
543	 0,140446901088669 
544	 0,140142588856336 
545	 0,140624637091244 
546	 0,14166308779999 
547	 0,141956078621539 
548	 0,141850075904903 
549	 0,141593587155826 
550	 0,141802986388331 
551	 0,142213329120844 
552	 0,142324677384587 
553	 0,141847765009334 
554	 0,141106651990915 
555	 0,141871475509112 
556	 0,14224981273473 
557	 0,140791180115841 
558	 0,140223947073152 
559	 0,140451934151688 
560	 0,139850484131197 
561	 0,139751283446008 
562	 0,14037288957866 
563	 0,139778571284556 
564	 0,138849649221623 
565	 0,1389529128386 
566	 0,13948940389463 
567	 0,140022456487525 
568	 0,139497120104169 
569	 0,139299440842155 
570	 0,140306333491442 
571	 0,140962498475947 
572	 0,141231780409646 
573	 0,141505769090075 
574	 0,142300390310671 
575	 0,143809354524553 
576	 0,145925695246272 
577	 0,147522400985425 
578	 0,147431834728556 
579	 0,148315970958035 
580	 0,150197160622457 
581	 0,151090811385607 
582	 0,151777249558838 
583	 0,152657607410651 
584	 0,153329769005327 
585	 0,154007962221388 
586	 0,155173293798066 
587	 0,155857625569694 
588	 0,156037264143896 
589	 0,157048410569783 
590	 0,158013073906195 
591	 0,158106342861743 
592	 0,15840368613889 
593	 0,158935823723941 
594	 0,159159331673348 
595	 0,159488821305666 
596	 0,159993751153355 
597	 0,159788899500741 
598	 0,159494326103682 
599	 0,160190486173434 
600	 0,160074903149042 
601	 0,15907674916152 
602	 0,158946269833728 
603	 0,15909672536231 
604	 0,159019001942559 
605	 0,158757319196075 
606	 0,158256313075154 
607	 0,157352551506711 
608	 0,156546947115181 
609	 0,156084414053961 
610	 0,155951219606201 
611	 0,155945418586163 
612	 0,155824421052166 
613	 0,155332673887915 
614	 0,154453135760497 
615	 0,153290004135667 
616	 0,15251654784504 
617	 0,15248009300404 
618	 0,151980268880008 
619	 0,151375703202005 
620	 0,151752792590541 
621	 0,152036521513523 
622	 0,151935040723285 
623	 0,151937023835106 
624	 0,151906511211239 
625	 0,151693984785507 
626	 0,151649377302554 
627	 0,151894429605582 
628	 0,152629917271542 
629	 0,152971245330489 
630	 0,152598066700181 
631	 0,152888863371729 
632	 0,153575238687974 
633	 0,153952529183597 
634	 0,154276894880655 
635	 0,154725282971562 
636	 0,155810243681483 
637	 0,156690649176286 
638	 0,15675121026816 
639	 0,15785059848428 
640	 0,159523531173402 
641	 0,159709458785645 
642	 0,16005448155054 
643	 0,161048209920266 
644	 0,161497400055511 
645	 0,161641717988821 
646	 0,161933529251669 
647	 0,161697548544301 
648	 0,161087800470582 
649	 0,161211670430759 
650	 0,161220776759206 
651	 0,160553419660248 
652	 0,159726303422517 
653	 0,15863424433647 
654	 0,15681270498434 
655	 0,155521426047142 
656	 0,155036874046248 
657	 0,154412723486457 
658	 0,153270038107192 
659	 0,151320059310368 
660	 0,149494224543912 
661	 0,147938073294418 
662	 0,146342767405506 
663	 0,144857815324459 
664	 0,143575486511137 
665	 0,142652192554819 
666	 0,141695454900764 
667	 0,140049392068736 
668	 0,13898141057673 
669	 0,138747016239799 
670	 0,138846697977133 
671	 0,13867627138029 
672	 0,137824371652523 
673	 0,137369006263586 
674	 0,137241378312675 
675	 0,136791180737224 
676	 0,136390179307113 
677	 0,136139802049436 
678	 0,135762726787626 
679	 0,135717818363451 
680	 0,13654778886607 
681	 0,137355410501077 
682	 0,138010318653565 
683	 0,13880929403219 
684	 0,13990868218089 
685	 0,141424966525603 
686	 0,143299060258616 
687	 0,145630883006523 
688	 0,14861503882384 
689	 0,151768357694891 
690	 0,15507108241226 
691	 0,158986815115566 
692	 0,163858019439609 
693	 0,169901428912204 
694	 0,175908510898574 
695	 0,182101509728316 
696	 0,189735705752961 
697	 0,197667508891091 
698	 0,205489871850107 
699	 0,213827384474565 
700	 0,222551090246067 
701	 0,231436478344682 
702	 0,240364767638744 
703	 0,249277546594145 
704	 0,258388498567792 
705	 0,266926901956878 
706	 0,274508435342352 
707	 0,282534653394219 
708	 0,290438710944624 
709	 0,296735749349241 
710	 0,303536658238615 
711	 0,311053909432134 
712	 0,317220858634699 
713	 0,322453229535267 
714	 0,327265367674594 
715	 0,332313061633705 
716	 0,337331434415326 
717	 0,341213975030655 
718	 0,344933564577684 
719	 0,348793885695068 
720	 0,3520442125314 
721	 0,354955421750264 
722	 0,357934828990479 
723	 0,360816237395443 
724	 0,363455651059249 
725	 0,365405131011727 
726	 0,367387153657569 
727	 0,369750643042686 
728	 0,371354329596777 
729	 0,372449182752746 
730	 0,373743232902502 
731	 0,375056417307012 
732	 0,376339247085083 
733	 0,377554460275501 
734	 0,378537361644347 
735	 0,37915684557352 
736	 0,379536069335838 
737	 0,380001265053492 
738	 0,381289511238299 
739	 0,382460419872037 
740	 0,383147523729706 
741	 0,383588852910978 
742	 0,383985461607969 
743	 0,384544964690268 
744	 0,384933281280327 
745	 0,385211129691058 
746	 0,385827787424036 
747	 0,386273443619196 
748	 0,386344616120343 
749	 0,386727673535448 
750	 0,387135546016161 
751	 0,386990272854787 
752	 0,387173563080187 
753	 0,387759265502196 
754	 0,388039218630514 
755	 0,388274635746381 
756	 0,38863379458914 
757	 0,388794893688222 
758	 0,388802688933222 
759	 0,388802557097805 
760	 0,389117317931478 
761	 0,389719177478935 
762	 0,389906489501815 
763	 0,389984800013949 
764	 0,390254438076694 
765	 0,390240802636028 
766	 0,390064509292622 
767	 0,390216104467589 
768	 0,390588515410586 
769	 0,39106311039118 
770	 0,391196391258933 
771	 0,39118051380508 
772	 0,391290204437979 
773	 0,391420304095931 
774	 0,391541674153664 
775	 0,391590832507065 
776	 0,391778915148053 
777	 0,392144807982862 
778	 0,392133635995164 
779	 0,392004090110408 
780	 0,392215459150676 
781	 0,392698616582049 
782	 0,393203631060594 
783	 0,392935086455584 
784	 0,392591648181373 
785	 0,392642542112223 
786	 0,392799391831844 
787	 0,392994262537817 
788	 0,393186385781812 
789	 0,393193245315089 
790	 0,393097344874939 
791	 0,393503598977533 
792	 0,39387286358203 
793	 0,393785864116954 
794	 0,393749237650854 
795	 0,393757788608323 
796	 0,393564878949043 
797	 0,393762978233743 
798	 0,394355254876808 
799	 0,394355988768442 
800	 0,39418671365545 
801	 0,394281930804917 
802	 0,39436158859201 
803	 0,394398265389195 
804	 0,394432484397862 
805	 0,394501051109645 
806	 0,394604764627985 
807	 0,394637172741447 
808	 0,394735667480923 
809	 0,395033833894478 
810	 0,39508169832879 
811	 0,394930948423019 
812	 0,394979278477233 
813	 0,395133051374811 
814	 0,395328002859728 
815	 0,395335636713191 
816	 0,395449663295021 
817	 0,396019455865439 
818	 0,396308016220236 
819	 0,396268941566895 
820	 0,396280324134324 
821	 0,396434336927942 
822	 0,396756890630482 
823	 0,397020502647945 
824	 0,397161337379279 
825	 0,397136564867484 
826	 0,396831106465678 
827	 0,3964803319076 
828	 0,396881370436419 
829	 0,397198640649921 
830	 0,397060184194649 
831	 0,397220797649542 
832	 0,397325964182824 
833	 0,39680377714032 
834	 0,396492345235588 
835	 0,396593430225713 
836	 0,397002688271582 
837	 0,397431645489737 
838	 0,397664221298211 
839	 0,397535189798805 
840	 0,39739619225919 
841	 0,397755646566708 
842	 0,397909685852246 
843	 0,397767603467365 
844	 0,397632771115366 
845	 0,397639756813762 
846	 0,39782001936579 
847	 0,397747659955322 
848	 0,39765688934487 
849	 0,397940128075741 
850	 0,397968780965993 
851	 0,397763287392144 
852	 0,397952122504679 
853	 0,398043325913101 
854	 0,397856262193519 
855	 0,398090850016931 
856	 0,398464582878502 
857	 0,398496441425816 
858	 0,397986029942135 
859	 0,397307434532921 
860	 0,397804798057026 
861	 0,398274978335122 
862	 0,398202109042994 
863	 0,398697352953276 
864	 0,399189618585711 
865	 0,398826734576897 
866	 0,398935533114348 
867	 0,399399258916456 
868	 0,398748630484823 
869	 0,398715603770418 
870	 0,399832916401598 
871	 0,399893274155693 
872	 0,399595824792007 
873	 0,399993959031402 
874	 0,399735755064287 
875	 0,399126260232558 
876	 0,399834394071271 
877	 0,400703139212756 
878	 0,401108138859885 
879	 0,400584600919494 
880	 0,399934030831339 
881	 0,400028251426243 
882	 0,39992013871069 
883	 0,39959983911579 
884	 0,399484465793474 
885	 0,399626960239967 
886	 0,400054918837946 
887	 0,400781457046664 
888	 0,401192569327693 
889	 0,400799220974922 
890	 0,400847745712482 
891	 0,401148685655492 
892	 0,400756717145261 
893	 0,400393788198738 
894	 0,400332925512727 
895	 0,400677903030811 
896	 0,400943607499192 
897	 0,400770141749187 
898	 0,400579848064341 
899	 0,400504507136736 
900	 0,400640835068687 
901	 0,400936684060684 
902	 0,40128036043768 
903	 0,401440435362805 
904	 0,401156419194033 
905	 0,400490332278635 
906	 0,401183088989837 
907	 0,401968329378906 
908	 0,400794763865598 
909	 0,401166369817965 
910	 0,402756381871459 
911	 0,401737059824014 
912	 0,400778157457614 
913	 0,400924758269603 
914	 0,400291027387321 
915	 0,399756363800634 
916	 0,400400048397812 
917	 0,401227089953664 
918	 0,401730969097164 
919	 0,401220045003557 
920	 0,400678456218915 
921	 0,400450412946947 
922	 0,400214448224566 
923	 0,400168379997813 
924	 0,400355903942107 
925	 0,39942496783766 
926	 0,398162676174458 
927	 0,398352964256595 
928	 0,39852750122225 
929	 0,398390938517062 
930	 0,398501526623349 
931	 0,398489420539808 
932	 0,398153975590135 
933	 0,397787428623561 
934	 0,397200838314763 
935	 0,396152360225964 
936	 0,395779555522825 
937	 0,395893368146608 
938	 0,395196360761007 
939	 0,39459203707133 
940	 0,394251247973111 
941	 0,393230968818376 
942	 0,392376061630214 
943	 0,392330116951131 
944	 0,391303605198182 
945	 0,389576330184509 
946	 0,388172194051201 
947	 0,387621087188134 
948	 0,387861782145954 
949	 0,388063166505574 
950	 0,387554305131035 
951	 0,386074996524892 
952	 0,384720661354039 
953	 0,383741045267977 
954	 0,383219185184568 
955	 0,381691769267178 
956	 0,379657208728979 
957	 0,379072261697278 
958	 0,37945874503657 
959	 0,380169128714779 
960	 0,379048119216917 
961	 0,37782855910128 
962	 0,377710900202125 
963	 0,376492562120654 
964	 0,375053290340747 
965	 0,375119187059282 
966	 0,376177995237825 
967	 0,377140616506744 
968	 0,375035988107368 
969	 0,373732026583134 
970	 0,374536754436406 
971	 0,374636446636769 
972	 0,374468841122008 
973	 0,374600113337028 
974	 0,374943776340832 
975	 0,375704048742259 
976	 0,377362295747339 
977	 0,375769651381139 
978	 0,37167050113766 
979	 0,3714139017292 
980	 0,373203765555388 
981	 0,375641819003444 
982	 0,376101772128121 
983	 0,375867764419485 
984	 0,376402523827801 
985	 0,375818663473483 
986	 0,37473185362603 
987	 0,374787785766895 
988	 0,376898225253226 
989	 0,379814255376331 
990	 0,37808536216652 
991	 0,377061872498808 
992	 0,378944239300409 
993	 0,378456636563063 
994	 0,377097801516252 
995	 0,376979109806262 
996	 0,3793458825823 
997	 0,382486830431829 
998	 0,382718635180545 
999	 0,382594211981731 
1000	 0,382619992396006 
1001	 0,381723045006627 
1002	 0,38203860904729 
1003	 0,384197499965654 
1004	 0,38528531282217 
1005	 0,384992696636742 
1006	 0,383558605242202 
1007	 0,38414424348602 
1008	 0,386328413566405 
1009	 0,388258947624603 
1010	 0,390595836121451 
1011	 0,392305429469375 
1012	 0,389510280947831 
1013	 0,388562890409469 
1014	 0,391044596136234 
1015	 0,38939758444619 
1016	 0,385771395274371 
1017	 0,383128667716502 
1018	 0,387488331346478 
1019	 0,392962945329398 
1020	 0,38983078936193 
1021	 0,389187352780981 
1022	 0,391638675312893 
1023	 0,391165905901958 
1024	 0,392842936014418 
1025	 0,396493165309091 
1026	 0,393232649132904 
1027	 0,391723098699628 
1028	 0,396410648910568 
1029	 0,395430434395345 
1030	 0,393325477361145 
1031	 0,396379146966696 
1032	 0,396538288770717 
1033	 0,395004940880263 
1034	 0,397323382241996 
1035	 0,397814503391614 
1036	 0,396400399373748 
1037	 0,39914378305325 
1038	 0,398468782926617 
1039	 0,392758839077162 
1040	 0,392328613048294 
1041	 0,394904673343436 
1042	 0,397902491587593 
1043	 0,400842086151983 
1044	 0,401679464408307 
1045	 0,398355534061914 
1046	 0,400008700207268 
1047	 0,403138505931217 
1048	 0,394127630376915 
1049	 0,39454459302204 
1050	 0,406060373538753 
1051	 0,408680810102318 
1052	 0,406604790364468 
1053	 0,402954615234602 
1054	 0,4029416891958 
1055	 0,40249453917268 
1056	 0,398759772420983 
1057	 0,4024072496685 
1058	 0,405156513889069 
1059	 0,394643748041018 
1060	 0,394936172244235 
1061	 0,403389942801184 
1062	 0,401507668042626 
1063	 0,401720599269764 
1064	 0,404829860160822 
1065	 0,400540948969758 
1066	 0,397616704114108 
1067	 0,399670496495234 
1068	 0,406347797147215 
1069	 0,398867921245098 
1070	 0,371697494887313 
1071	 0,388789128900663 
1072	 0,420193995594748 
1073	 0,421466308535743 
1074	 0,408929125414993 
1075	 0,39353831931662 
