Wavelength	BELON00196.asd
325	-9,80568980822613E-02 
326	 0,063555666861452 
327	 9,74238935463763E-02 
328	-3,00582513128067E-02 
329	-0,174790774547367 
330	-0,155926562068935 
331	 0,107684238583699 
332	 3,35778834176749E-02 
333	-0,201745048468093 
334	-9,77106838425966E-02 
335	 7,16401432802866E-03 
336	 3,65225639070477E-02 
337	 2,48189743837536E-02 
338	-2,43969419063925E-02 
339	-0,117338926714499 
340	-7,56519470866952E-02 
341	 3,67796334579917E-02 
342	 3,02438248017749E-02 
343	 1,69991283146153E-02 
344	 1,99368976955096E-02 
345	 1,46383681142641E-03 
346	-3,27435655528137E-03 
347	 3,64917740390286E-02 
348	 3,78402736849769E-02 
349	 1,57302510359048E-02 
350	 4,43879943238675E-02 
351	 7,38201747889202E-02 
352	 8,34398469477099E-02 
353	 7,35112259874829E-02 
354	 5,01302982961242E-02 
355	 0,025151560092858 
356	 3,31610511238825E-03 
357	-8,32212826394214E-03 
358	 1,30175962665925E-02 
359	 2,05743238572159E-02 
360	-7,10318036370765E-04 
361	 9,36759770573602E-03 
362	 2,83660899519799E-02 
363	 1,67884173322067E-02 
364	 1,84155710125416E-02 
365	 3,11487767069113E-02 
366	 8,30220299661098E-03 
367	-6,04014330495223E-03 
368	 1,07697723315796E-02 
369	 1,56163921356685E-02 
370	 1,25280788316186E-02 
371	 1,76926451966255E-02 
372	 3,03842826830044E-02 
373	 4,15452403804206E-02 
374	 1,33875707467907E-02 
375	-2,17296380481848E-03 
376	 2,92446213150845E-02 
377	 2,32946495060728E-02 
378	-1,46966351917688E-03 
379	 2,36213309275308E-02 
380	 3,09406711592244E-02 
381	 9,94142074286425E-03 
382	 2,38253149319758E-02 
383	 3,46752484215903E-02 
384	 8,10583150889202E-03 
385	-6,11770080143672E-03 
386	-3,18047876763286E-03 
387	 3,00460094988949E-03 
388	 7,58298411248988E-03 
389	 9,50661567795633E-03 
390	 2,01161718250283E-02 
391	 2,88711872555665E-02 
392	 2,24988894337295E-02 
393	 2,07073942371173E-02 
394	 2,37006061538231E-02 
395	 1,66624966696375E-02 
396	 1,89456992098578E-02 
397	 3,62020075104604E-02 
398	 3,32431020331773E-02 
399	 0,022419183214546 
400	 2,75843823294362E-02 
401	 2,89329687939418E-02 
402	 2,35297040826446E-02 
403	 1,88166450546805E-02 
404	 1,73141617353912E-02 
405	 2,01664061180493E-02 
406	 2,30105586313846E-02 
407	 2,53737006512186E-02 
408	 2,78303973911941E-02 
409	 3,13677208001546E-02 
410	 3,49194174546614E-02 
411	 3,23838133983318E-02 
412	 2,70505173741134E-02 
413	 2,24223553053615E-02 
414	 2,15168083226741E-02 
415	 2,42839265019593E-02 
416	 2,95255570863358E-02 
417	 3,25814839204936E-02 
418	 3,15431100970629E-02 
419	 2,80767149373278E-02 
420	 2,49013284574789E-02 
421	 2,50862337648732E-02 
422	 2,67239881768827E-02 
423	 2,82805891292973E-02 
424	 2,65974481540306E-02 
425	 2,49145519958321E-02 
426	 2,53890688234686E-02 
427	 2,81735861471728E-02 
428	 3,05490499708226E-02 
429	 2,74371122691533E-02 
430	 2,59856568439602E-02 
431	 2,81051244753796E-02 
432	 0,032707495366329 
433	 3,37527334161296E-02 
434	 2,67580528187503E-02 
435	 2,47857834557119E-02 
436	 2,81662577183066E-02 
437	 3,14005504128096E-02 
438	 3,33926539227252E-02 
439	 3,34597915355976E-02 
440	 3,24570297897828E-02 
441	 3,15275523491839E-02 
442	 3,19396750748098E-02 
443	 3,11454510390265E-02 
444	 2,97728786215315E-02 
445	 3,20922233182362E-02 
446	 3,40908068556413E-02 
447	 3,34049402207353E-02 
448	 0,03212027295622 
449	 3,17993142346989E-02 
450	 3,50448181018168E-02 
451	 3,47113987061439E-02 
452	 3,05167138746716E-02 
453	 3,27214104065463E-02 
454	 3,44293400799253E-02 
455	 2,94946071528722E-02 
456	 2,98364877383804E-02 
457	 3,40475741795031E-02 
458	 3,18948155376759E-02 
459	 3,17549466200549E-02 
460	 3,55654427983639E-02 
461	 3,22629779987223E-02 
462	 2,80794263055844E-02 
463	 3,25181226560827E-02 
464	 3,54367325142611E-02 
465	 3,49431174562182E-02 
466	 0,033750672736373 
467	 3,32641197652374E-02 
468	 3,42675430730659E-02 
469	 3,41705450172334E-02 
470	 3,42462828600552E-02 
471	 3,82520384734484E-02 
472	 3,83574301503638E-02 
473	 3,41205551602125E-02 
474	 3,63842615673923E-02 
475	 3,90294117234993E-02 
476	 3,58224455282988E-02 
477	 3,64448780076496E-02 
478	 3,97401004596446E-02 
479	 3,68984859595589E-02 
480	 3,54401042878917E-02 
481	 3,79076411036646E-02 
482	 0,035830009470001 
483	 3,29086360007631E-02 
484	 3,58818027708475E-02 
485	 3,82004586817869E-02 
486	 3,82116792415543E-02 
487	 0,036627775621999 
488	 3,56470969971439E-02 
489	 3,68239212131875E-02 
490	 3,80051635906429E-02 
491	 3,83879225406417E-02 
492	 3,68156595620475E-02 
493	 3,65938341575225E-02 
494	 3,82716004789988E-02 
495	 0,037800974871363 
496	 3,65205485399512E-02 
497	 3,62739909071364E-02 
498	 3,74265576526483E-02 
499	 3,90723620873644E-02 
500	 3,81637729674535E-02 
501	 0,037098236084799 
502	 3,73047100492731E-02 
503	 3,86548741398686E-02 
504	 3,96802149853596E-02 
505	 3,77620451413337E-02 
506	 3,71952807119072E-02 
507	 3,87330307033542E-02 
508	 3,97001441450293E-02 
509	 3,96238281688286E-02 
510	 3,83693341528717E-02 
511	 3,90829551132342E-02 
512	 4,15263509302004E-02 
513	 4,38274377663916E-02 
514	 4,43043241306629E-02 
515	 4,26358837793926E-02 
516	 4,23845074872758E-02 
517	 4,29182408074691E-02 
518	 4,28034554013854E-02 
519	 4,28157520976002E-02 
520	 4,30976219344235E-02 
521	 4,36081198415714E-02 
522	 4,37716714891029E-02 
523	 4,32776697529249E-02 
524	 4,34957544432656E-02 
525	 4,41563227891358E-02 
526	 4,42027739593469E-02 
527	 4,40278150527534E-02 
528	 4,37210585098159E-02 
529	 4,31187512843434E-02 
530	 4,25530728384367E-02 
531	 4,24009984439225E-02 
532	 4,29067298928155E-02 
533	 0,043980633742071 
534	 4,53707676276071E-02 
535	 4,60329612001373E-02 
536	 4,55132155445165E-02 
537	 4,57643896259621E-02 
538	 0,046317353480153 
539	 4,57569638927786E-02 
540	 4,54350163550202E-02 
541	 4,56889779915953E-02 
542	 0,0460191470156 
543	 4,61532017553009E-02 
544	 4,58979812603462E-02 
545	 4,63675420507039E-02 
546	 4,72261923270125E-02 
547	 4,69195310352201E-02 
548	 4,64891891917477E-02 
549	 4,64862661314095E-02 
550	 4,68442206100692E-02 
551	 4,75612374950181E-02 
552	 4,87060098775232E-02 
553	 0,048670420050554 
554	 0,047607930780605 
555	 4,82321919994391E-02 
556	 4,87726780075918E-02 
557	 4,78481412538707E-02 
558	 0,048026624878495 
559	 4,88786525191293E-02 
560	 4,80227054678996E-02 
561	 4,78627054782267E-02 
562	 4,90766761212922E-02 
563	 4,95477515415329E-02 
564	 4,96122085516533E-02 
565	 4,99760887799792E-02 
566	 4,98437125995389E-02 
567	 4,93669144696024E-02 
568	 4,97210348074044E-02 
569	 5,01544671984261E-02 
570	 5,01399369807726E-02 
571	 4,99106220532378E-02 
572	 4,98864587577633E-02 
573	 5,09498230763831E-02 
574	 0,051707918217388 
575	 5,17881217900926E-02 
576	 5,21739875693096E-02 
577	 5,26838143732065E-02 
578	 5,30456306168575E-02 
579	 5,36811007176033E-02 
580	 5,43269704486868E-02 
581	 5,38289688354242E-02 
582	 5,35974840113775E-02 
583	 0,054340843106305 
584	 5,45729859604655E-02 
585	 5,48691549193324E-02 
586	 5,66819529611381E-02 
587	 5,74125064689314E-02 
588	 5,67208923015621E-02 
589	 5,69395969068298E-02 
590	 5,75130088578709E-02 
591	 5,78162218261718E-02 
592	 5,77535585764609E-02 
593	 5,75949088160065E-02 
594	 0,058216320693219 
595	 5,85335955707428E-02 
596	 5,81797486563353E-02 
597	 5,84069151179538E-02 
598	 5,88179090288632E-02 
599	 5,86439109614012E-02 
600	 0,058033556681676 
601	 5,73229034267861E-02 
602	 0,057604911445066 
603	 5,79420178384844E-02 
604	 5,76553235411139E-02 
605	 0,058190807254148 
606	 5,90283108377198E-02 
607	 0,058347573161724 
608	 5,74625046379934E-02 
609	 5,70474431911853E-02 
610	 5,79274149509171E-02 
611	 5,86536545171156E-02 
612	 5,73913423372323E-02 
613	 5,68135540271993E-02 
614	 5,73035512624635E-02 
615	 5,78521401925438E-02 
616	 5,80033112971909E-02 
617	 0,057517482929427 
618	 5,71810974964391E-02 
619	 5,72279398829493E-02 
620	 5,79367364095216E-02 
621	 5,80767716569507E-02 
622	 5,74307220447382E-02 
623	 5,71468240496896E-02 
624	 5,73033635853938E-02 
625	 5,78725221645739E-02 
626	 5,79859891428463E-02 
627	 5,76937390126336E-02 
628	 5,77455766241166E-02 
629	 5,78153391539723E-02 
630	 0,057864931148116 
631	 5,88618149148282E-02 
632	 5,98448582465663E-02 
633	 5,90900889150265E-02 
634	 5,86877915755724E-02 
635	 5,91346392006314E-02 
636	 0,059727029700973 
637	 6,01021148691102E-02 
638	 6,00249789088999E-02 
639	 6,04376636702637E-02 
640	 6,12333733786499E-02 
641	 6,17388542507696E-02 
642	 6,20605583822806E-02 
643	 6,21756582297918E-02 
644	 6,18206864679828E-02 
645	 6,15824865092064E-02 
646	 6,22269043196983E-02 
647	 6,26658544449681E-02 
648	 6,26571859542678E-02 
649	 6,23820201702501E-02 
650	 6,23310949090092E-02 
651	 6,27578575773541E-02 
652	 6,27920150744657E-02 
653	 6,23028369161058E-02 
654	 6,12568649606223E-02 
655	 6,04477766601582E-02 
656	 6,02180625548716E-02 
657	 6,06982448569106E-02 
658	 6,06679997726574E-02 
659	 5,89698222388389E-02 
660	 0,058464404288695 
661	 5,90427862721516E-02 
662	 5,85740380381911E-02 
663	 5,76597254027858E-02 
664	 5,66948862075576E-02 
665	 5,63679324537778E-02 
666	 5,64491439932552E-02 
667	 5,64521506529511E-02 
668	 5,61651993439027E-02 
669	 5,57495915156192E-02 
670	 0,05618413102637 
671	 5,66385346115512E-02 
672	 5,64509268146072E-02 
673	 5,62768900208624E-02 
674	 5,61301596389671E-02 
675	 5,56949937031105E-02 
676	 5,56010156599863E-02 
677	 5,59757432909802E-02 
678	 5,60447573363169E-02 
679	 5,60997296320612E-02 
680	 5,65544143354837E-02 
681	 5,68223011747067E-02 
682	 5,69694422345205E-02 
683	 5,76590564976719E-02 
684	 5,83791422102405E-02 
685	 5,88439816175958E-02 
686	 0,059296322998442 
687	 6,00190510497561E-02 
688	 0,061450280446399 
689	 6,29276897496639E-02 
690	 6,42292244885919E-02 
691	 6,53471737613398E-02 
692	 6,68299798088711E-02 
693	 6,91211994696229E-02 
694	 7,12548077468623E-02 
695	 7,33760128345001E-02 
696	 7,63390836250152E-02 
697	 7,95726051036379E-02 
698	 8,28064986056757E-02 
699	 8,59254950427316E-02 
700	 0,089194854081338 
701	 0,092970899769061 
702	 9,65838158854115E-02 
703	 0,099926128073444 
704	 0,10327341363125 
705	 0,106775650448799 
706	 0,110466258856369 
707	 0,113839536555591 
708	 0,116745934873802 
709	 0,119033083642037 
710	 0,121518467465975 
711	 0,124400641097617 
712	 0,127282846382248 
713	 0,129672385078548 
714	 0,131195635162492 
715	 0,133016866852978 
716	 0,135169432057544 
717	 0,137103908735287 
718	 0,138977441592021 
719	 0,140694381715479 
720	 0,141415460143711 
721	 0,142085889486592 
722	 0,143975873663804 
723	 0,145157219735446 
724	 0,145558677854283 
725	 0,14652060572001 
726	 0,147791578128829 
727	 0,149129811142127 
728	 0,149912153075483 
729	 0,150137919618467 
730	 0,149915722878781 
731	 0,150317868296909 
732	 0,151431215815487 
733	 0,15198448390583 
734	 0,152202891773453 
735	 0,152351470003322 
736	 0,15269994157534 
737	 0,153249861298324 
738	 0,15389278090321 
739	 0,154280615292729 
740	 0,154352093420836 
741	 0,154687757257309 
742	 0,155038596647575 
743	 0,155072379249086 
744	 0,155305397605525 
745	 0,155782435798209 
746	 0,156322281445507 
747	 0,156545328432278 
748	 0,15634705668528 
749	 0,156645258364285 
750	 0,157110458902649 
751	 0,157070787023427 
752	 0,156890363411654 
753	 0,156772268818994 
754	 0,157050357175966 
755	 0,157461460629801 
756	 0,157780662961494 
757	 0,157867243869746 
758	 0,157849876847837 
759	 0,158034058098779 
760	 0,158262483199389 
761	 0,158490783487235 
762	 0,158744968046753 
763	 0,158971799300771 
764	 0,159117978479934 
765	 0,159099289758294 
766	 0,159072133782467 
767	 0,159506274336766 
768	 0,159749710849097 
769	 0,159648600336547 
770	 0,159972485816644 
771	 0,16036851271057 
772	 0,160357866944014 
773	 0,160317502125962 
774	 0,16034550656399 
775	 0,160461401336223 
776	 0,16057439092161 
777	 0,160670049666489 
778	 0,161059166288484 
779	 0,16135546293614 
780	 0,160953452095083 
781	 0,160888977215972 
782	 0,161261349249294 
783	 0,161356586892857 
784	 0,161352289058094 
785	 0,161382208441423 
786	 0,16157243855313 
787	 0,161765495022836 
788	 0,161627690083185 
789	 0,161784427340272 
790	 0,162235090299888 
791	 0,162143390377078 
792	 0,162004765775127 
793	 0,162206050438309 
794	 0,162246444949744 
795	 0,162216133909494 
796	 0,162478317452663 
797	 0,162762675077395 
798	 0,162951138084784 
799	 0,1629778438898 
800	 0,162908471425907 
801	 0,162828626318118 
802	 0,162933967377815 
803	 0,163257709829161 
804	 0,163875742971035 
805	 0,163982950264261 
806	 0,16345685789074 
807	 0,163502573971092 
808	 0,163778414114646 
809	 0,16381390251663 
810	 0,163414554813631 
811	 0,162923254178918 
812	 0,163451483926895 
813	 0,163766565816522 
814	 0,163506106247287 
815	 0,163879311254748 
816	 0,164551638110081 
817	 0,164996734321099 
818	 0,164874871851201 
819	 0,164388975453355 
820	 0,164340900658667 
821	 0,164642270094287 
822	 0,165165108593444 
823	 0,165306488449358 
824	 0,165207514697423 
825	 0,165140313924018 
826	 0,164971546266888 
827	 0,164845665526011 
828	 0,165311940358664 
829	 0,16552249992321 
830	 0,16514341269911 
831	 0,16523072832647 
832	 0,165410181471679 
833	 0,165028537122157 
834	 0,164703923399674 
835	 0,164608133568075 
836	 0,164722989535736 
837	 0,165044176228697 
838	 0,16545733696897 
839	 0,165249630200175 
840	 0,165016036435733 
841	 0,165687836351819 
842	 0,166061490006918 
843	 0,165956621478309 
844	 0,165850829684196 
845	 0,165805101832037 
846	 0,165843868499354 
847	 0,165770508081546 
848	 0,165647986357971 
849	 0,165593171423262 
850	 0,165815647336329 
851	 0,166174712429596 
852	 0,166049563043162 
853	 0,16585482108995 
854	 0,165838868524324 
855	 0,166064989964284 
856	 0,16619505725756 
857	 0,165772950673879 
858	 0,165355578741983 
859	 0,165257067416879 
860	 0,166041555316808 
861	 0,166433928252555 
862	 0,165955091322349 
863	 0,166307717321564 
864	 0,166901981221257 
865	 0,16675890995632 
866	 0,166925326488158 
867	 0,167266280465505 
868	 0,166615695097761 
869	 0,165984065238804 
870	 0,165919090553879 
871	 0,166537261580444 
872	 0,166953141559242 
873	 0,166156409453677 
874	 0,165885395989212 
875	 0,16633465215483 
876	 0,166925236734149 
877	 0,167235356807577 
878	 0,167071244845782 
879	 0,166716097144556 
880	 0,16642419179807 
881	 0,166414424139787 
882	 0,166044246903914 
883	 0,165546338801779 
884	 0,165846772939095 
885	 0,16629136644515 
886	 0,166649960114495 
887	 0,167137891748426 
888	 0,167287956973088 
889	 0,166752036808924 
890	 0,166850267645115 
891	 0,16734520829598 
892	 0,167127345854293 
893	 0,167279918598847 
894	 0,167852607242335 
895	 0,167519387161009 
896	 0,167029364499959 
897	 0,166949852270694 
898	 0,166410820632047 
899	 0,165881439116222 
900	 0,166367698324403 
901	 0,167384379917551 
902	 0,168339427134659 
903	 0,167720751110921 
904	 0,166959441480099 
905	 0,166974379426276 
906	 0,167235127550733 
907	 0,167491136677996 
908	 0,167475626011485 
909	 0,16728432184628 
910	 0,167094312299629 
911	 0,167514123196525 
912	 0,167110338513166 
913	 0,165616143085599 
914	 0,1657288985187 
915	 0,166549782475329 
916	 0,166824842829941 
917	 0,167166868174733 
918	 0,1674600749894 
919	 0,167106804530819 
920	 0,167285611146749 
921	 0,168162786810901 
922	 0,168480187688491 
923	 0,168206893293433 
924	 0,167435091900684 
925	 0,16677229361554 
926	 0,166381503290275 
927	 0,166315375124445 
928	 0,166448881552747 
929	 0,166609851505325 
930	 0,166268111524599 
931	 0,166641788553093 
932	 0,168018287511945 
933	 0,167136794805865 
934	 0,165734487606151 
935	 0,166432760983495 
936	 0,166875588037741 
937	 0,166817783770332 
938	 0,167109959465511 
939	 0,167080251300966 
940	 0,166673703111537 
941	 0,166931572958468 
942	 0,167212157011046 
943	 0,166891654726174 
944	 0,166117734622728 
945	 0,165309297098377 
946	 0,165139857540586 
947	 0,165624076245522 
948	 0,166324548630887 
949	 0,165690720848557 
950	 0,165002576095608 
951	 0,165029798058595 
952	 0,165535794018375 
953	 0,166006476348743 
954	 0,165844587437592 
955	 0,164945550195855 
956	 0,163784368859272 
957	 0,16359966317743 
958	 0,163214951612916 
959	 0,16263144822227 
960	 0,163824222429211 
961	 0,16457216156835 
962	 0,163401058380291 
963	 0,163370318138049 
964	 0,163711999570265 
965	 0,162621769818259 
966	 0,16266373168201 
967	 0,163661303121406 
968	 0,163000856278777 
969	 0,162674366026535 
970	 0,163140840341037 
971	 0,161863599591688 
972	 0,161673573390459 
973	 0,164715879015836 
974	 0,164019629854492 
975	 0,161786283016532 
976	 0,16404150471879 
977	 0,165035475128154 
978	 0,163857858262734 
979	 0,162988269200664 
980	 0,162250764784832 
981	 0,16186648376708 
982	 0,163163217981165 
983	 0,164451685450836 
984	 0,164038992803866 
985	 0,163823317075084 
986	 0,164369521025981 
987	 0,166116858096524 
988	 0,167065491963644 
989	 0,166489682179869 
990	 0,164000148773102 
991	 0,163122709878637 
992	 0,165102172241025 
993	 0,164761062166177 
994	 0,164080840249499 
995	 0,165431019498247 
996	 0,16683936356048 
997	 0,167461049248471 
998	 0,16635334957338 
999	 0,16700284571573 
1000	 0,168502397783871 
1001	 0,163306920993488 
1002	 0,161205913353323 
1003	 0,165941168494574 
1004	 0,168072953008002 
1005	 0,167743100976084 
1006	 0,166175419458658 
1007	 0,167301434341411 
1008	 0,169653933409392 
1009	 0,169352578755395 
1010	 0,168737425187466 
1011	 0,168011926269348 
1012	 0,165595686691981 
1013	 0,164773722177563 
1014	 0,166592953133266 
1015	 0,168488272420123 
1016	 0,168332420885242 
1017	 0,165094661938479 
1018	 0,165024216296627 
1019	 0,166466815393196 
1020	 0,165585642817438 
1021	 0,16556709977537 
1022	 0,166937856660813 
1023	 0,169454604936045 
1024	 0,169709471764306 
1025	 0,167477540695038 
1026	 0,16823887973497 
1027	 0,167314044475774 
1028	 0,162902580644736 
1029	 0,164423675140084 
1030	 0,169603102534638 
1031	 0,174337731037051 
1032	 0,176729304775017 
1033	 0,176073257581259 
1034	 0,172332030398836 
1035	 0,16715376580426 
1036	 0,163924916607466 
1037	 0,171578789058718 
1038	 0,175974944719194 
1039	 0,171503881332749 
1040	 0,166420262176453 
1041	 0,163980597519493 
1042	 0,166492375002718 
1043	 0,17261679167565 
1044	 0,179144500427135 
1045	 0,182270367642447 
1046	 0,182100808311772 
1047	 0,178483221133116 
1048	 0,170847171467877 
1049	 0,170006062337554 
1050	 0,175574694697386 
1051	 0,17130900505437 
1052	 0,169568976803237 
1053	 0,175045461407101 
1054	 0,178641871712853 
1055	 0,173984287764734 
1056	 0,159286733641842 
1057	 0,1648419909195 
1058	 0,176324691629988 
1059	 0,168629389279707 
1060	 0,166568386881176 
1061	 0,170871393515743 
1062	 0,170983580294593 
1063	 0,170292024309331 
1064	 0,170803857888886 
1065	 0,177359930533046 
1066	 0,179533554759772 
1067	 0,173875894502261 
1068	 0,168619500995264 
1069	 0,160993383277368 
1070	 0,152555586816357 
1071	 0,167272962292721 
1072	 0,186566550409812 
1073	 0,185267427339276 
1074	 0,176672397534308 
1075	 0,165608691169185 
