Wavelength	BELON00348.asd
325	 0,073384153644549 
326	 0,143242340763002 
327	 0,153630083834773 
328	 6,76059571293294E-02 
329	-2,09871534820825E-02 
330	-2,83297884016956E-03 
331	 0,166828600007452 
332	 0,106289160969914 
333	-4,99514579852846E-02 
334	 6,81441138951863E-02 
335	 0,13245826491653 
336	 0,087423167409033 
337	 2,84274068296185E-02 
338	-9,10138834737502E-03 
339	-2,72640338562331E-03 
340	 2,99477584740615E-02 
341	 5,67543920776134E-02 
342	 3,67239583833555E-02 
343	 6,84917316219665E-02 
344	 0,149829319379317 
345	 0,127368704613321 
346	 7,30064260333059E-02 
347	 6,21628556116759E-02 
348	 3,76307004174739E-02 
349	 1,54230049785068E-02 
350	 6,13242122859374E-02 
351	 8,16886387201896E-02 
352	 5,08728661136142E-02 
353	 0,048240154263597 
354	 4,39340168778155E-02 
355	-2,43646280081236E-03 
356	 2,56673107902003E-03 
357	 4,99527151803185E-02 
358	 7,48658600324559E-02 
359	 6,89422420652129E-02 
360	 3,56629283465905E-02 
361	 3,36395424571038E-02 
362	 4,93390998926555E-02 
363	 5,45004588364634E-02 
364	 4,18659313886657E-02 
365	 1,98291885877227E-02 
366	 2,84840556345325E-02 
367	 3,20368242472479E-02 
368	 1,37947023415792E-02 
369	 2,50827723525164E-02 
370	 0,044195313408331 
371	 1,79385082509042E-02 
372	 1,55319898760132E-02 
373	 4,37580587305742E-02 
374	 4,47616420569741E-02 
375	 3,95888011953171E-02 
376	 4,45480661330815E-02 
377	 0,038977745266668 
378	 3,21676219695478E-02 
379	 5,25278534249148E-02 
380	 5,33400558344138E-02 
381	 2,82781821282358E-02 
382	 2,95824333210484E-02 
383	 3,76758278597898E-02 
384	 3,22480278959291E-02 
385	 2,80555101480236E-02 
386	 2,54850403349331E-02 
387	 1,65178803456034E-02 
388	 1,92142802789418E-02 
389	 3,51503069946171E-02 
390	 3,51006994276146E-02 
391	 2,70619039118327E-02 
392	 2,31746648905594E-02 
393	 3,31549046917628E-02 
394	 4,80603105424345E-02 
395	 3,67850540093507E-02 
396	 2,20859269755788E-02 
397	 0,017808005762336 
398	 2,71417667918922E-02 
399	 4,01880657434051E-02 
400	 4,28986059535184E-02 
401	 3,69649059549978E-02 
402	 2,65394070600251E-02 
403	 2,40575261363885E-02 
404	 2,58248708599805E-02 
405	 2,82812302444153E-02 
406	 2,42855306536978E-02 
407	 1,80925824612181E-02 
408	 2,01660225533419E-02 
409	 2,26947656246341E-02 
410	 2,31632560323305E-02 
411	 2,06445809108663E-02 
412	 1,94664006343847E-02 
413	 2,33543439795223E-02 
414	 3,04413311442564E-02 
415	 3,55727002226819E-02 
416	 2,61295698590793E-02 
417	 2,03614084188884E-02 
418	 2,39526226102233E-02 
419	 2,23894704321228E-02 
420	 1,92071480095945E-02 
421	 2,04416321164136E-02 
422	 2,26721583050285E-02 
423	 0,02396894694219 
424	 2,03416108073321E-02 
425	 1,92488222195677E-02 
426	 2,40770085385664E-02 
427	 2,20132393003718E-02 
428	 1,73653940995561E-02 
429	 0,021121965576924 
430	 2,15144883371452E-02 
431	 1,76643362991104E-02 
432	 2,12819838692424E-02 
433	 2,55188353435805E-02 
434	 2,41580794650484E-02 
435	 2,08901757796793E-02 
436	 1,84737017803939E-02 
437	 2,20555416562422E-02 
438	 2,49223825668911E-02 
439	 2,43705880700737E-02 
440	 2,23504360738817E-02 
441	 2,07100557838524E-02 
442	 2,14673414812715E-02 
443	 2,33699288659512E-02 
444	 2,55233968889231E-02 
445	 2,65205989613952E-02 
446	 0,025930988137304 
447	 2,38984888970563E-02 
448	 2,37558147048846E-02 
449	 2,54155245604832E-02 
450	 2,80965776818664E-02 
451	 2,79557312755517E-02 
452	 2,45660365487167E-02 
453	 2,22985920488951E-02 
454	 2,17525706989841E-02 
455	 2,30483381226198E-02 
456	 2,23358757374012E-02 
457	 2,07497962471355E-02 
458	 2,34644542373243E-02 
459	 2,63818755370364E-02 
460	 2,73863150710569E-02 
461	 2,56862051239854E-02 
462	 2,30748775512079E-02 
463	 2,19643840525174E-02 
464	 2,45125448024634E-02 
465	 2,86055348154569E-02 
466	 2,48293324471736E-02 
467	 2,17437828388943E-02 
468	 2,45168140047167E-02 
469	 2,48943355040032E-02 
470	 0,024155431300968 
471	 0,027524307379771 
472	 2,87760812521185E-02 
473	 2,63985912105789E-02 
474	 2,30462738225914E-02 
475	 0,021290080080603 
476	 2,33520309594586E-02 
477	 2,58653567644838E-02 
478	 2,79680824721933E-02 
479	 3,00680318231817E-02 
480	 3,04873454839271E-02 
481	 2,85720658264415E-02 
482	 2,56050714116868E-02 
483	 2,35396887251535E-02 
484	 2,49070459989666E-02 
485	 2,67658510002003E-02 
486	 2,75642889874015E-02 
487	 2,50494947457586E-02 
488	 2,23910189845724E-02 
489	 2,21215188691281E-02 
490	 0,023796433798355 
491	 2,58680299815791E-02 
492	 2,49537189794222E-02 
493	 2,53178105355429E-02 
494	 2,74733783261818E-02 
495	 2,59344557466949E-02 
496	 2,30850190534235E-02 
497	 2,20399205531404E-02 
498	 2,28764178520766E-02 
499	 2,46760287675559E-02 
500	 2,45414940698369E-02 
501	 2,39989210045855E-02 
502	 2,40551146032061E-02 
503	 2,55275292278189E-02 
504	 2,71241492195158E-02 
505	 2,64933775239618E-02 
506	 2,53310773567999E-02 
507	 2,45529975387049E-02 
508	 2,57193886863731E-02 
509	 2,64808927570899E-02 
510	 2,48887272680076E-02 
511	 2,55275835088611E-02 
512	 2,80697526819829E-02 
513	 2,97362603417486E-02 
514	 2,96760966497243E-02 
515	 2,79873642728193E-02 
516	 2,84308637127302E-02 
517	 2,96584244135547E-02 
518	 2,92821901875074E-02 
519	 2,82737964934238E-02 
520	 2,74804549349477E-02 
521	 2,91929153217483E-02 
522	 3,01716121830915E-02 
523	 2,83396794675817E-02 
524	 2,81100422287028E-02 
525	 2,92016299376646E-02 
526	 2,95287661732197E-02 
527	 2,89437576530184E-02 
528	 2,76988830690449E-02 
529	 2,78991601609473E-02 
530	 2,82388536244591E-02 
531	 2,70828813947162E-02 
532	 2,71792253643003E-02 
533	 2,85025676499413E-02 
534	 2,90366238895108E-02 
535	 2,92937892726641E-02 
536	 2,95162564696075E-02 
537	 2,93371100568803E-02 
538	 2,88614169120564E-02 
539	 2,82250026394168E-02 
540	 2,86145411547114E-02 
541	 2,98581547433891E-02 
542	 2,92282155118168E-02 
543	 2,84853129473142E-02 
544	 2,94063854553306E-02 
545	 3,03685453170287E-02 
546	 3,07245383518536E-02 
547	 2,95699597041065E-02 
548	 2,88257664565016E-02 
549	 2,93718118139623E-02 
550	 2,98230079890821E-02 
551	 3,02765904008022E-02 
552	 3,12123782356245E-02 
553	 3,08070635947074E-02 
554	 2,92521101933662E-02 
555	 2,95357881679938E-02 
556	 2,99622791046796E-02 
557	 2,91520762802077E-02 
558	 2,89017292326137E-02 
559	 2,91718042466632E-02 
560	 2,89600616117894E-02 
561	 2,93432688685213E-02 
562	 3,04018758783727E-02 
563	 2,99982468227863E-02 
564	 2,91670332756227E-02 
565	 2,95075841352333E-02 
566	 2,97351918511231E-02 
567	 2,96634755066127E-02 
568	 2,96972436461406E-02 
569	 3,01907980790096E-02 
570	 3,12290124358881E-02 
571	 3,10787429284241E-02 
572	 3,02589825727263E-02 
573	 3,04963828481659E-02 
574	 3,06254569280286E-02 
575	 3,05760876718228E-02 
576	 3,20573960851117E-02 
577	 0,033567851418614 
578	 3,33477740520857E-02 
579	 3,32033599546022E-02 
580	 3,34338262429675E-02 
581	 3,35885599718559E-02 
582	 3,37158365081477E-02 
583	 0,033828182176561 
584	 0,033834145974722 
585	 3,39108862363003E-02 
586	 3,43634610123497E-02 
587	 3,50232003641476E-02 
588	 3,57796717498724E-02 
589	 3,65033846037848E-02 
590	 0,03691854249571 
591	 3,68113380472389E-02 
592	 3,68091174938824E-02 
593	 3,69791128142369E-02 
594	 3,71872703497026E-02 
595	 0,036945586088502 
596	 3,62204796317831E-02 
597	 3,64650409602826E-02 
598	 3,71265932772014E-02 
599	 3,71607488357972E-02 
600	 3,70425914817037E-02 
601	 3,68604773760248E-02 
602	 3,64599650079067E-02 
603	 0,036226655236065 
604	 3,64368519797947E-02 
605	 3,66414267011672E-02 
606	 3,65737251534854E-02 
607	 3,57273422206374E-02 
608	 3,51857357432958E-02 
609	 3,53301155613594E-02 
610	 3,56086361759031E-02 
611	 3,56851498233063E-02 
612	 3,52212213232363E-02 
613	 3,46732174516261E-02 
614	 3,43156896387161E-02 
615	 3,45418493517447E-02 
616	 3,50785454190661E-02 
617	 3,56102393591432E-02 
618	 3,51313507309001E-02 
619	 3,42159933292645E-02 
620	 3,42535817720109E-02 
621	 3,44766883219665E-02 
622	 3,46053757469727E-02 
623	 3,44202494764949E-02 
624	 3,44833254447252E-02 
625	 3,53242788422925E-02 
626	 3,51579749167501E-02 
627	 3,43407050512311E-02 
628	 3,50725154543354E-02 
629	 3,57732410287103E-02 
630	 3,57117013833542E-02 
631	 3,58819425189488E-02 
632	 3,61696512502589E-02 
633	 3,62126978142721E-02 
634	 3,61852053900128E-02 
635	 3,61730490914774E-02 
636	 3,63099828168611E-02 
637	 3,64625032353181E-02 
638	 3,65234053937174E-02 
639	 3,65969553633793E-02 
640	 3,69058662367917E-02 
641	 0,03803716383936 
642	 3,89168476322478E-02 
643	 3,90391923150875E-02 
644	 3,83978880672024E-02 
645	 3,79281684832809E-02 
646	 3,88128924518741E-02 
647	 3,90846481995757E-02 
648	 3,86468983066342E-02 
649	 3,90500632498369E-02 
650	 3,94253748460474E-02 
651	 3,92079881665373E-02 
652	 3,89700313386618E-02 
653	 3,85422573511414E-02 
654	 3,73091591777635E-02 
655	 0,036715975811652 
656	 0,037059370392736 
657	 3,71492613612447E-02 
658	 3,68317821866841E-02 
659	 3,60582184796832E-02 
660	 3,56313002475679E-02 
661	 3,54591973831822E-02 
662	 3,46784584606382E-02 
663	 3,40212218323449E-02 
664	 3,37767758517524E-02 
665	 3,31829663628737E-02 
666	 3,24687393155165E-02 
667	 3,21011515158044E-02 
668	 3,20920442524969E-02 
669	 0,032368874800394 
670	 3,26687571918983E-02 
671	 3,27543628718518E-02 
672	 3,24607202165885E-02 
673	 3,20835247362024E-02 
674	 3,18284652700228E-02 
675	 0,032071663438458 
676	 3,20924507258073E-02 
677	 3,17590078855229E-02 
678	 3,19676539019969E-02 
679	 3,24331600884703E-02 
680	 3,27309724988158E-02 
681	 3,31038163491562E-02 
682	 3,34608509645863E-02 
683	 3,33442635912677E-02 
684	 3,33221674654769E-02 
685	 3,37430457939381E-02 
686	 3,43461428170067E-02 
687	 3,52226315877965E-02 
688	 3,66219092101448E-02 
689	 3,78360616181982E-02 
690	 3,87234978755472E-02 
691	 3,96832420506531E-02 
692	 4,10596969642414E-02 
693	 4,31277744022278E-02 
694	 4,54549165706985E-02 
695	 4,80424914060338E-02 
696	 5,11561189179807E-02 
697	 5,44118304040433E-02 
698	 5,76698776780228E-02 
699	 6,10660865128938E-02 
700	 6,49995388243094E-02 
701	 6,99451453363501E-02 
702	 7,51075135758836E-02 
703	 8,01831293126664E-02 
704	 8,50861812595493E-02 
705	 0,089876066420601 
706	 9,46216205685739E-02 
707	 9,96088007280381E-02 
708	 0,104566562973903 
709	 0,108919910458306 
710	 0,113363097059731 
711	 0,118004484245862 
712	 0,122435626476801 
713	 0,126293114333511 
714	 0,129313917818053 
715	 0,132491277299821 
716	 0,135856783018108 
717	 0,138925592120733 
718	 0,141928767596709 
719	 0,144830288159947 
720	 0,146956705324311 
721	 0,148848655536077 
722	 0,151250247260273 
723	 0,153363216989243 
724	 0,155048153690539 
725	 0,156476104260695 
726	 0,157826654843433 
727	 0,159195787911422 
728	 0,160294750792085 
729	 0,161184456265352 
730	 0,161998373746863 
731	 0,163204771949879 
732	 0,164698179271232 
733	 0,165345476923174 
734	 0,165850080257402 
735	 0,166812568792684 
736	 0,16728348529998 
737	 0,167520180575171 
738	 0,168627376239556 
739	 0,169420267422605 
740	 0,169566224603159 
741	 0,169953274018292 
742	 0,170337205523352 
743	 0,170367658309229 
744	 0,170665467456825 
745	 0,171194750815967 
746	 0,17135545707437 
747	 0,171673062220435 
748	 0,172325532023377 
749	 0,172500204613042 
750	 0,172390782962063 
751	 0,172439552834237 
752	 0,172545482562201 
753	 0,172683219810584 
754	 0,172750170068249 
755	 0,173053140692791 
756	 0,17373351690723 
757	 0,173940856660429 
758	 0,173753389622079 
759	 0,173589347241934 
760	 0,173577870399483 
761	 0,1737860672197 
762	 0,174154383402959 
763	 0,174551381377574 
764	 0,174840993010416 
765	 0,174758530722752 
766	 0,174589893236078 
767	 0,175248319331883 
768	 0,175662168190812 
769	 0,175491505761746 
770	 0,175505077110238 
771	 0,175535309456014 
772	 0,175323774603678 
773	 0,175522728714306 
774	 0,176023763999789 
775	 0,176052971319519 
776	 0,175962078614576 
777	 0,175954957911706 
778	 0,176125796132834 
779	 0,176358897210272 
780	 0,176465116309414 
781	 0,176640946263198 
782	 0,176841320755521 
783	 0,176727186561266 
784	 0,176620467441073 
785	 0,176727179188083 
786	 0,17684440091789 
787	 0,176922943451478 
788	 0,176910197230475 
789	 0,177119321873292 
790	 0,17757050813183 
791	 0,178001260370333 
792	 0,178037950163402 
793	 0,177487759813776 
794	 0,177556193665812 
795	 0,178018889130402 
796	 0,177909168692052 
797	 0,17806519380714 
798	 0,178514795686109 
799	 0,178041399207825 
800	 0,177600324615682 
801	 0,178099997513095 
802	 0,178658381356555 
803	 0,178976701598484 
804	 0,17872702716332 
805	 0,178564796248974 
806	 0,178728031120612 
807	 0,178958191740219 
808	 0,179162006949026 
809	 0,179243129310836 
810	 0,178855967501953 
811	 0,178308452968613 
812	 0,17859811978822 
813	 0,179093540266982 
814	 0,179479293516745 
815	 0,179625907211748 
816	 0,179655599199476 
817	 0,17973348102161 
818	 0,179668284171974 
819	 0,179561846448808 
820	 0,179872704165812 
821	 0,179869636580545 
822	 0,179414811797216 
823	 0,180061859105544 
824	 0,18086049801905 
825	 0,180427435111251 
826	 0,180064004756806 
827	 0,180078797609917 
828	 0,180447752118487 
829	 0,180530801337982 
830	 0,180112593152226 
831	 0,18031321863666 
832	 0,180630576896405 
833	 0,180231135843364 
834	 0,17987601860312 
835	 0,179812435588539 
836	 0,180204619679925 
837	 0,180496308042608 
838	 0,180378715456886 
839	 0,180061764173239 
840	 0,179940492712838 
841	 0,180513426447104 
842	 0,180835986606107 
843	 0,180800515973383 
844	 0,180952522901622 
845	 0,181040699499868 
846	 0,18096538099953 
847	 0,181005190753893 
848	 0,181074089362504 
849	 0,181007547066931 
850	 0,181065984177374 
851	 0,181221258555311 
852	 0,181184114986536 
853	 0,18103367961085 
854	 0,18085477554804 
855	 0,180848346743889 
856	 0,181116709374666 
857	 0,181751514971255 
858	 0,181404532428554 
859	 0,180433361795116 
860	 0,181117872046148 
861	 0,181796433731378 
862	 0,181666404577101 
863	 0,181549768784963 
864	 0,181500018730264 
865	 0,181482922441357 
866	 0,18159404377999 
867	 0,1817394275122 
868	 0,181558775378197 
869	 0,181474585461462 
870	 0,181640626607386 
871	 0,181605547719793 
872	 0,181652584131141 
873	 0,182137362382394 
874	 0,182021101681617 
875	 0,18154384012564 
876	 0,182084169133427 
877	 0,182580047680018 
878	 0,18261711147407 
879	 0,182630603461022 
880	 0,182501733129849 
881	 0,182098062260142 
882	 0,181849287887341 
883	 0,181813514433976 
884	 0,181895690457663 
885	 0,181871858043358 
886	 0,181788121677297 
887	 0,18246082954687 
888	 0,182839451077577 
889	 0,18202461263987 
890	 0,181972946877594 
891	 0,182392229805141 
892	 0,181772243130579 
893	 0,181788145586345 
894	 0,182590430925831 
895	 0,182424877604126 
896	 0,181785839207841 
897	 0,181178820329764 
898	 0,180983447265322 
899	 0,181303966972088 
900	 0,182202036667951 
901	 0,182478518343882 
902	 0,182110277745606 
903	 0,182557733059221 
904	 0,182835450874393 
905	 0,182385451162313 
906	 0,181916591698865 
907	 0,18173396161068 
908	 0,18212112174476 
909	 0,181809443321594 
910	 0,181044229363674 
911	 0,181733487519237 
912	 0,181901483474905 
913	 0,180967095884646 
914	 0,181424973891484 
915	 0,182335184527956 
916	 0,182438148507257 
917	 0,18238234082212 
918	 0,182196362444944 
919	 0,181553025710801 
920	 0,181606196641001 
921	 0,182427094885749 
922	 0,182274426703737 
923	 0,181727888069731 
924	 0,181357879028128 
925	 0,181094242140023 
926	 0,180942032169789 
927	 0,180915990686043 
928	 0,180475153276372 
929	 0,179880160249027 
930	 0,180622323189276 
931	 0,181638523936614 
932	 0,182060413432542 
933	 0,180818656340697 
934	 0,179098857577686 
935	 0,178568127852862 
936	 0,178743752991771 
937	 0,179214920080165 
938	 0,179040495755393 
939	 0,179343420475911 
940	 0,180132609625675 
941	 0,179289656187786 
942	 0,178168274536554 
943	 0,17802195139473 
944	 0,177765690154229 
945	 0,177372630898854 
946	 0,177104988021847 
947	 0,176763293803712 
948	 0,176459569650192 
949	 0,176827987578747 
950	 0,176997833342703 
951	 0,176494710123637 
952	 0,175905019752077 
953	 0,175066220148738 
954	 0,173765505021246 
955	 0,173043758855041 
956	 0,172818134636042 
957	 0,172150226481545 
958	 0,172309503579692 
959	 0,173211307059234 
960	 0,17242279573975 
961	 0,171823176053265 
962	 0,172623588920078 
963	 0,171837684589072 
964	 0,170379827901232 
965	 0,170233082257855 
966	 0,170911924483981 
967	 0,171895870580175 
968	 0,172020887625319 
969	 0,171700791059312 
970	 0,171142891285989 
971	 0,170456855226095 
972	 0,170137527136332 
973	 0,170513441646999 
974	 0,170136075776739 
975	 0,170132014974008 
976	 0,172994943453979 
977	 0,172958765551418 
978	 0,170080513879183 
979	 0,170268030162302 
980	 0,171519658789997 
981	 0,172645278403857 
982	 0,172615081071503 
983	 0,172571979752307 
984	 0,173626335137596 
985	 0,173483684826543 
986	 0,172493417269408 
987	 0,172009500484598 
988	 0,173519303041185 
989	 0,176366028774232 
990	 0,176755122673821 
991	 0,175849690693683 
992	 0,174640867691164 
993	 0,175133294793488 
994	 0,175357479727543 
995	 0,173425976372374 
996	 0,174237441601529 
997	 0,176468726288116 
998	 0,175781996855661 
999	 0,176914992859766 
1000	 0,17925849563449 
1001	 0,175510526517989 
1002	 0,174144822870634 
1003	 0,178364982475548 
1004	 0,179955665215088 
1005	 0,179224276647483 
1006	 0,177478566177063 
1007	 0,178819824265132 
1008	 0,181505140511691 
1009	 0,181143904548012 
1010	 0,180095355047375 
1011	 0,17913515475369 
1012	 0,178690971537983 
1013	 0,178792682018567 
1014	 0,179245822930411 
1015	 0,179224213251679 
1016	 0,177953768058321 
1017	 0,175454263419768 
1018	 0,177316979139894 
1019	 0,180312053650375 
1020	 0,178603019620976 
1021	 0,179652579517405 
1022	 0,183862906725266 
1023	 0,188241292037923 
1024	 0,185768977342029 
1025	 0,177534496582072 
1026	 0,180825053189374 
1027	 0,185476917382015 
1028	 0,184513229687208 
1029	 0,180932466153115 
1030	 0,178866615099763 
1031	 0,182392451025141 
1032	 0,184294847818844 
1033	 0,18383155042825 
1034	 0,182653301615896 
1035	 0,181420300614262 
1036	 0,181218255094442 
1037	 0,184933692631301 
1038	 0,185119936324623 
1039	 0,180443556701143 
1040	 0,183099123984506 
1041	 0,187934136538134 
1042	 0,190310482305129 
1043	 0,192787681414323 
1044	 0,197136124501569 
1045	 0,204964609684684 
1046	 0,203799620160412 
1047	 0,194037177170103 
1048	 0,182708992091441 
1049	 0,185933704506338 
1050	 0,200608434514322 
1051	 0,192545562755699 
1052	 0,187214226779641 
1053	 0,194599490472304 
1054	 0,19404093136919 
1055	 0,19049558417477 
1056	 0,189495784068208 
1057	 0,191589638149674 
1058	 0,193415884493167 
1059	 0,19040752397609 
1060	 0,188423545137729 
1061	 0,188481674366419 
1062	 0,189591726406111 
1063	 0,192357122519508 
1064	 0,195361226819434 
1065	 0,192606669391286 
1066	 0,193680845880917 
1067	 0,19930311334305 
1068	 0,190174077021791 
1069	 0,180637881256679 
1070	 0,182418653930479 
1071	 0,183004624449393 
1072	 0,191120614987625 
1073	 0,214877763720516 
1074	 0,202075050543255 
1075	 0,173176709612319 
