Wavelength	BELON00156.asd
325	 0,459950823599036 
326	 0,345999944347052 
327	 0,314259544315392 
328	 0,31536629458521 
329	 0,226101720381639 
330	 0,222061044019448 
331	 0,428928459856295 
332	 0,397424825734525 
333	 0,221689163549629 
334	 0,19705391823147 
335	 0,274682549365099 
336	 0,382484493997526 
337	 0,271698914191442 
338	 0,146307063789392 
339	 0,173124765323996 
340	 0,234552659601078 
341	 0,278017545082189 
342	 0,298400341362955 
343	 0,280093990424094 
344	 0,233697162087401 
345	 0,230514750133258 
346	 0,241787781308592 
347	 0,235830883098449 
348	 0,227816964808418 
349	 0,22507594767665 
350	 0,241825048549369 
351	 0,245195420784222 
352	 0,229294489822972 
353	 0,244677930487958 
354	 0,247156278297002 
355	 0,182180074274282 
356	 0,163125654094947 
357	 0,191316099879295 
358	 0,215416096535101 
359	 0,231593594099392 
360	 0,237640776349697 
361	 0,237005619224467 
362	 0,226847050846741 
363	 0,202129387339748 
364	 0,20552584153704 
365	 0,23276884713081 
366	 0,230420822402396 
367	 0,221327289717484 
368	 0,220577535801181 
369	 0,227993353329083 
370	 0,237180877755727 
371	 0,23549532910169 
372	 0,234945498547203 
373	 0,235984837468129 
374	 0,222541353318759 
375	 0,222327670599631 
376	 0,251252011981114 
377	 0,246032656091769 
378	 0,221225171626295 
379	 0,227446020364358 
380	 0,234625808922044 
381	 0,236118693700583 
382	 0,24508402559096 
383	 0,249959300446036 
384	 0,241223520305368 
385	 0,228937187574409 
386	 0,223776458403233 
387	 0,24876596746701 
388	 0,260837056543882 
389	 0,248137223783628 
390	 0,246590207381031 
391	 0,250973093097962 
392	 0,251810530055383 
393	 0,246373429928422 
394	 0,239493088491573 
395	 0,246304278146466 
396	 0,25601200271843 
397	 0,261481677066388 
398	 0,258710066069977 
399	 0,251881670160967 
400	 0,247044465189048 
401	 0,251362867465613 
402	 0,261610254281453 
403	 0,259356926298934 
404	 0,254801188988929 
405	 0,254268154096926 
406	 0,245385079875081 
407	 0,236781144662302 
408	 0,249049614497545 
409	 0,256739723978914 
410	 0,25382739180737 
411	 0,249865296044155 
412	 0,247744296846243 
413	 0,249200904980136 
414	 0,248540514878069 
415	 0,246714232459572 
416	 0,248963231092017 
417	 0,251911469390646 
418	 0,253103917994924 
419	 0,246746143123394 
420	 0,239695445893719 
421	 0,241017676284863 
422	 0,244439989009178 
423	 0,247699921128974 
424	 0,249289092000601 
425	 0,248919759864369 
426	 0,246952669757254 
427	 0,247534686258465 
428	 0,249818548520456 
429	 0,251348830635784 
430	 0,252335245246312 
431	 0,252362889144374 
432	 0,249427320991224 
433	 0,248358804476011 
434	 0,25290547135312 
435	 0,253161577143713 
436	 0,25034996635554 
437	 0,252892312091211 
438	 0,252652972020596 
439	 0,248055565048722 
440	 0,249729084279973 
441	 0,253362513000617 
442	 0,252440295550735 
443	 0,253880666029806 
444	 0,257587680043719 
445	 0,258319299034018 
446	 0,256129833790049 
447	 0,251916130790561 
448	 0,252914737144289 
449	 0,257236136163835 
450	 0,259687034808824 
451	 0,260571600384232 
452	 0,260246447764105 
453	 0,261141016685719 
454	 0,261427233644528 
455	 0,259628214676625 
456	 0,261493318389309 
457	 0,265284978845676 
458	 0,263438534000746 
459	 0,261900902809657 
460	 0,26285813580832 
461	 0,262963032731489 
462	 0,262995251376113 
463	 0,264387224351684 
464	 0,263987988132849 
465	 0,261811371762761 
466	 0,260128055098508 
467	 0,26141980018954 
468	 0,266583365260229 
469	 0,268145768529582 
470	 0,267088872728391 
471	 0,267942029828974 
472	 0,266754047509121 
473	 0,263501240611285 
474	 0,263053391142825 
475	 0,265132073651498 
476	 0,268971585014689 
477	 0,270344745206147 
478	 0,269394153915258 
479	 0,269350017878192 
480	 0,269077398762656 
481	 0,268125902525579 
482	 0,266254722232761 
483	 0,265465869921848 
484	 0,268777782641832 
485	 0,26973054302933 
486	 0,267471614812335 
487	 0,26567974945642 
488	 0,265371942428133 
489	 0,267119838704163 
490	 0,268899882311722 
491	 0,269560516943863 
492	 0,26708023471259 
493	 0,266656868723135 
494	 0,269279838784422 
495	 0,269296425970394 
496	 0,267987304557254 
497	 0,267285601267213 
498	 0,267238212992649 
499	 0,267719464406151 
500	 0,268011917952344 
501	 0,268715238435125 
502	 0,27009559260255 
503	 0,271673455833459 
504	 0,272667037584559 
505	 0,271731130735906 
506	 0,272393843318039 
507	 0,274758820662619 
508	 0,274037435807783 
509	 0,273884836917563 
510	 0,277501469421206 
511	 0,279446611294911 
512	 0,279780158170353 
513	 0,28148254764529 
514	 0,282986015789252 
515	 0,283775235904358 
516	 0,284831929705446 
517	 0,28575591699773 
518	 0,285895300592231 
519	 0,285680827158598 
520	 0,285475838209744 
521	 0,28611760095488 
522	 0,286528589965632 
523	 0,286010897856776 
524	 0,285938441022493 
525	 0,286300225101367 
526	 0,286575051644858 
527	 0,28675616854253 
528	 0,286934302755472 
529	 0,287898300420649 
530	 0,288405401775237 
531	 0,287035821867788 
532	 0,286375053361485 
533	 0,286611446630956 
534	 0,286191462594383 
535	 0,286190230839752 
536	 0,287135857855648 
537	 0,288036711326195 
538	 0,288415300926908 
539	 0,287598787118535 
540	 0,287425785989625 
541	 0,28824653148172 
542	 0,288606949404353 
543	 0,288787325225679 
544	 0,28914708451314 
545	 0,2899962267221 
546	 0,29099742501184 
547	 0,291107793424362 
548	 0,290976199213845 
549	 0,29094670701913 
550	 0,290994837880104 
551	 0,291254575653522 
552	 0,291984850358554 
553	 0,29156983013184 
554	 0,290130057123987 
555	 0,290142720213765 
556	 0,290360549696418 
557	 0,289768490753079 
558	 0,289894854576075 
559	 0,290253037393026 
560	 0,288857963533877 
561	 0,28796949288653 
562	 0,288316188583714 
563	 0,288273347558055 
564	 0,287849055026445 
565	 0,287248999759968 
566	 0,287269040521055 
567	 0,287954988696185 
568	 0,288653780565286 
569	 0,289233605578597 
570	 0,289656737486781 
571	 0,290491365936375 
572	 0,291863445914192 
573	 0,293893970533704 
574	 0,295710547365742 
575	 0,297118312777266 
576	 0,299119862580418 
577	 0,301155025052619 
578	 0,302551975459509 
579	 0,304543565116497 
580	 0,306927253709025 
581	 0,308247716992453 
582	 0,309236529311218 
583	 0,310304800410941 
584	 0,311157823783074 
585	 0,312150480392258 
586	 0,313983546622968 
587	 0,315236676196132 
588	 0,315725105157835 
589	 0,316770498882126 
590	 0,317868833954171 
591	 0,318526288196517 
592	 0,31941448159265 
593	 0,320424305589692 
594	 0,320918757479887 
595	 0,321281739737443 
596	 0,321674549191849 
597	 0,321903537011816 
598	 0,322152364207004 
599	 0,322755524299484 
600	 0,322334107835134 
601	 0,321036863570725 
602	 0,32098710234513 
603	 0,321166333153411 
604	 0,320709757367234 
605	 0,319669857757372 
606	 0,318453214856185 
607	 0,317983956550988 
608	 0,317687869501137 
609	 0,317358459825036 
610	 0,317176421568866 
611	 0,316646524208042 
612	 0,31517457722165 
613	 0,314052592575009 
614	 0,313533063775595 
615	 0,313257034951445 
616	 0,31289403187342 
617	 0,312274234872706 
618	 0,312004071122796 
619	 0,311990037997897 
620	 0,31188693410371 
621	 0,311743568656737 
622	 0,311575452289483 
623	 0,311353308445883 
624	 0,311542726901135 
625	 0,312542011824256 
626	 0,312210666712323 
627	 0,311079305515014 
628	 0,312085834279873 
629	 0,313090897009211 
630	 0,313135483326812 
631	 0,313753586439883 
632	 0,314709411260514 
633	 0,315346161149498 
634	 0,315946351612848 
635	 0,316699763535152 
636	 0,318060198752251 
637	 0,319453475897681 
638	 0,320400873746114 
639	 0,32139019900939 
640	 0,322465259342552 
641	 0,323511037473058 
642	 0,324675684095044 
643	 0,325814977437975 
644	 0,325785170660374 
645	 0,325527661378683 
646	 0,326382269774742 
647	 0,326518688207935 
648	 0,325897539786863 
649	 0,326141623735025 
650	 0,325955532817275 
651	 0,324571452543674 
652	 0,323479929707773 
653	 0,32240531267012 
654	 0,320232524555545 
655	 0,318547151910454 
656	 0,317636217822418 
657	 0,316122354642448 
658	 0,314080400081994 
659	 0,311706383936917 
660	 0,309769053674683 
661	 0,308054412249554 
662	 0,305326188254489 
663	 0,302836838504388 
664	 0,30111655436667 
665	 0,299013957391592 
666	 0,296827720390617 
667	 0,295179884352189 
668	 0,294340329379011 
669	 0,294107766504563 
670	 0,29338032841533 
671	 0,29264676671122 
672	 0,292272451523092 
673	 0,29152766758805 
674	 0,290539139357258 
675	 0,289844176535856 
676	 0,289427100555503 
677	 0,289329977898114 
678	 0,289591893616391 
679	 0,29015387700813 
680	 0,290938257704457 
681	 0,291384351225425 
682	 0,291759031823574 
683	 0,293253746276631 
684	 0,295320886446924 
685	 0,297622615462314 
686	 0,300078350480755 
687	 0,303063299982992 
688	 0,307266087448726 
689	 0,311773193475504 
690	 0,316413842063697 
691	 0,321686297729564 
692	 0,327735408296457 
693	 0,334666944351964 
694	 0,342330258201988 
695	 0,350583803536766 
696	 0,359198201809366 
697	 0,368280377095684 
698	 0,377730263008853 
699	 0,386841742376145 
700	 0,395857272139107 
701	 0,405185216393694 
702	 0,414417820127582 
703	 0,423469556410329 
704	 0,432622235546743 
705	 0,441232018155836 
706	 0,448908716751584 
707	 0,456277173787548 
708	 0,46314943491908 
709	 0,468976396806516 
710	 0,474814344135837 
711	 0,480847738751529 
712	 0,48626839361599 
713	 0,491221903423843 
714	 0,495837495899148 
715	 0,49949328012432 
716	 0,502556949234453 
717	 0,506232528600384 
718	 0,509762622095839 
719	 0,512796588857918 
720	 0,515234425705795 
721	 0,517518438755082 
722	 0,520205110451593 
723	 0,522148484841712 
724	 0,52341622477832 
725	 0,525106955370934 
726	 0,526966700949864 
727	 0,528745621031352 
728	 0,529679060988133 
729	 0,530222398432923 
730	 0,53136952194424 
731	 0,532502749791793 
732	 0,533402624998098 
733	 0,533896975028038 
734	 0,534493404935237 
735	 0,535570960838676 
736	 0,53600592357075 
737	 0,536044323526664 
738	 0,536777745498657 
739	 0,537688459595399 
740	 0,538498339129442 
741	 0,538806150556337 
742	 0,538808967377569 
743	 0,538788171942774 
744	 0,538936736243325 
745	 0,539322875274387 
746	 0,540012007909822 
747	 0,540427817179219 
748	 0,540303056409247 
749	 0,540221328775747 
750	 0,540268016625691 
751	 0,540446187698861 
752	 0,540730770075029 
753	 0,541052989308883 
754	 0,541254389893485 
755	 0,541286060081723 
756	 0,541165350781386 
757	 0,541415010885141 
758	 0,541796250884938 
759	 0,54164575335331 
760	 0,541533787799215 
761	 0,541616674495595 
762	 0,541692064240421 
763	 0,541787207083826 
764	 0,541911902732096 
765	 0,541615078134114 
766	 0,541242271910118 
767	 0,541917078733077 
768	 0,542568427009418 
769	 0,542737205643998 
770	 0,54252501787836 
771	 0,542276963976382 
772	 0,542382708980544 
773	 0,542457537194934 
774	 0,54249802827449 
775	 0,542795482915008 
776	 0,542959315760305 
777	 0,542824014161958 
778	 0,54277130007171 
779	 0,542853049400079 
780	 0,543078988538903 
781	 0,54311204619372 
782	 0,542944186093767 
783	 0,542909257565083 
784	 0,542921933524135 
785	 0,542932524119154 
786	 0,543015074876974 
787	 0,543080747443343 
788	 0,542941389107272 
789	 0,543065064543846 
790	 0,543435420431403 
791	 0,543394212058236 
792	 0,543143329394035 
793	 0,542904966403902 
794	 0,543089623586127 
795	 0,543470366414493 
796	 0,543433282389279 
797	 0,543165711889138 
798	 0,542844177667793 
799	 0,543013747193766 
800	 0,543269622419233 
801	 0,54321279038722 
802	 0,54310251411631 
803	 0,543059980247134 
804	 0,543279638698239 
805	 0,543475477405189 
806	 0,543528603756837 
807	 0,543485795281804 
808	 0,543379948803067 
809	 0,543247113605353 
810	 0,543063981763012 
811	 0,542968653024422 
812	 0,543345568720845 
813	 0,543721777152319 
814	 0,543860749045472 
815	 0,543713900535854 
816	 0,543661213412458 
817	 0,544130951016493 
818	 0,544235095788306 
819	 0,543950766365584 
820	 0,543828240583708 
821	 0,543791193952704 
822	 0,543882596794781 
823	 0,544542791951086 
824	 0,545035018971285 
825	 0,54440177650454 
826	 0,543873064009977 
827	 0,543738001406705 
828	 0,543839550458563 
829	 0,544000450408246 
830	 0,54414126804065 
831	 0,544564490708508 
832	 0,544852134320518 
833	 0,544420722853524 
834	 0,543951067356119 
835	 0,543653055743669 
836	 0,543535262273108 
837	 0,543582448145279 
838	 0,543731944161792 
839	 0,543621212114335 
840	 0,543586203101561 
841	 0,544147698975626 
842	 0,5443188160719 
843	 0,544045217951875 
844	 0,544015854974862 
845	 0,544145628251543 
846	 0,544348062969992 
847	 0,544299342209277 
848	 0,544127555375657 
849	 0,544066608031965 
850	 0,544246380170537 
851	 0,544513792183102 
852	 0,544239235631356 
853	 0,544001277928931 
854	 0,544115686389939 
855	 0,54438203779026 
856	 0,544675006715569 
857	 0,544858113287099 
858	 0,544410408803459 
859	 0,543732129962543 
860	 0,544537955199011 
861	 0,545139451354448 
862	 0,544802407503463 
863	 0,54500478360846 
864	 0,545288060448072 
865	 0,544886769494602 
866	 0,545191267921104 
867	 0,545858210966877 
868	 0,544732739186599 
869	 0,54412261805468 
870	 0,544920496755486 
871	 0,54520621549236 
872	 0,545191677746305 
873	 0,54534246456393 
874	 0,545451107348847 
875	 0,545435443665616 
876	 0,54509106347714 
877	 0,545128342264461 
878	 0,545716915688625 
879	 0,545917331100483 
880	 0,545924193022897 
881	 0,545999284139262 
882	 0,545389598170257 
883	 0,544517077760635 
884	 0,544836142969002 
885	 0,545240816758595 
886	 0,545255204163639 
887	 0,54463614939346 
888	 0,544167881389995 
889	 0,544558121973765 
890	 0,544978381166691 
891	 0,545334486867428 
892	 0,545832578935759 
893	 0,545920757174914 
894	 0,545457731501336 
895	 0,544673710183598 
896	 0,544143314147987 
897	 0,544275597097091 
898	 0,544451255340297 
899	 0,544703471498794 
900	 0,545315220351282 
901	 0,545208509638991 
902	 0,544466317642908 
903	 0,544623750671179 
904	 0,544901503705608 
905	 0,54482613183384 
906	 0,544811389161154 
907	 0,544724701073605 
908	 0,544325178022898 
909	 0,544489760597031 
910	 0,54507312743428 
911	 0,544943252854774 
912	 0,54462870377034 
913	 0,544396300966922 
914	 0,544245613569759 
915	 0,544254496725771 
916	 0,544481080536828 
917	 0,544624856303656 
918	 0,544629043203347 
919	 0,54454606701932 
920	 0,544380964351458 
921	 0,544185696176977 
922	 0,544175636384918 
923	 0,544037950261046 
924	 0,54355308868802 
925	 0,543309476563287 
926	 0,543170389192182 
927	 0,542728147178744 
928	 0,542104076584405 
929	 0,541504416741977 
930	 0,541405030381464 
931	 0,541931385245773 
932	 0,542841688505182 
933	 0,542191907210513 
934	 0,54072602805976 
935	 0,539732949863185 
936	 0,54023078854512 
937	 0,541588301110122 
938	 0,541358193060598 
939	 0,540950486584123 
940	 0,540633256882119 
941	 0,538977572567083 
942	 0,537774493958129 
943	 0,538485628151817 
944	 0,538704884989104 
945	 0,537958324658024 
946	 0,536150546322794 
947	 0,534918030883652 
948	 0,534707323800632 
949	 0,535230704899266 
950	 0,534654727366605 
951	 0,532312428996321 
952	 0,531364558264844 
953	 0,531084156332608 
954	 0,530206796285676 
955	 0,529595886594296 
956	 0,529240091748479 
957	 0,528790446450584 
958	 0,527755430983197 
959	 0,526290778128129 
960	 0,52586518733774 
961	 0,526050216778769 
962	 0,526385271651477 
963	 0,526363256345901 
964	 0,526056376089514 
965	 0,525722658197901 
966	 0,525975192721093 
967	 0,526360713007367 
968	 0,524659260300615 
969	 0,524942730988154 
970	 0,527804478016038 
971	 0,526408134852194 
972	 0,524171673026969 
973	 0,524517352397203 
974	 0,525188230876001 
975	 0,525756175397242 
976	 0,526134183907799 
977	 0,525452999227957 
978	 0,523841465815808 
979	 0,522360911945942 
980	 0,522197069085105 
981	 0,523688651169093 
982	 0,524917603398495 
983	 0,525556586991926 
984	 0,525466121544768 
985	 0,524598628712085 
986	 0,524055433742158 
987	 0,525869520524563 
988	 0,527584380185245 
989	 0,528167966061678 
990	 0,526759361907367 
991	 0,526209214203519 
992	 0,527573012101742 
993	 0,526910045288504 
994	 0,526428320779507 
995	 0,528441255517541 
996	 0,528768812788473 
997	 0,52751723082211 
998	 0,526354917372783 
999	 0,526343255286793 
1000	 0,527795669342767 
1001	 0,530700455252694 
1002	 0,531193872243294 
1003	 0,528304184982073 
1004	 0,528683808289605 
1005	 0,530939665045186 
1006	 0,533147568792611 
1007	 0,535806258819302 
1008	 0,536954476310372 
1009	 0,53330264153055 
1010	 0,532579829732018 
1011	 0,53488121699268 
1012	 0,532546576101256 
1013	 0,533244341048235 
1014	 0,538453770707651 
1015	 0,538020198751142 
1016	 0,535033619020222 
1017	 0,533022309664903 
1018	 0,534600930713713 
1019	 0,536101913947193 
1020	 0,531725078459738 
1021	 0,531532937309132 
1022	 0,535753280522955 
1023	 0,538251638949285 
1024	 0,540015713937807 
1025	 0,540484539046932 
1026	 0,536579767466547 
1027	 0,534262352914244 
1028	 0,536816512327461 
1029	 0,53760472560811 
1030	 0,537939643862787 
1031	 0,539895435293598 
1032	 0,538553964292739 
1033	 0,537284649778122 
1034	 0,54484483827346 
1035	 0,544801714031453 
1036	 0,537034724447623 
1037	 0,538770599372465 
1038	 0,539940752156944 
1039	 0,537057905065679 
1040	 0,536065022766796 
1041	 0,538101503776527 
1042	 0,54265329659064 
1043	 0,539854026455839 
1044	 0,535102874867174 
1045	 0,537373179644802 
1046	 0,542757350958807 
1047	 0,546699576124618 
1048	 0,540726846729969 
1049	 0,539907044157509 
1050	 0,545585640576224 
1051	 0,543155077765708 
1052	 0,543102928595133 
1053	 0,549294966145001 
1054	 0,553848745087703 
1055	 0,550486951548811 
1056	 0,537335254311762 
1057	 0,543723909872645 
1058	 0,555853594974508 
1059	 0,549501746160394 
1060	 0,548332649066692 
1061	 0,5503211785767 
1062	 0,538552817082398 
1063	 0,544417395618337 
1064	 0,565423468959369 
1065	 0,556637573946857 
1066	 0,54300605609582 
1067	 0,537207991392378 
1068	 0,544368930744564 
1069	 0,543758631006903 
1070	 0,524481966082654 
1071	 0,530674532788873 
1072	 0,547036735281342 
1073	 0,549119594813687 
1074	 0,541567795147045 
1075	 0,53028091555122 
