Wavelength	BELON00097.asd
325	 0,387708013357945 
326	 0,216501099145727 
327	 0,139091938376989 
328	 0,145754541019828 
329	 0,048810758019683 
330	-9,24352048792498E-03 
331	 8,80544783883477E-02 
332	 5,04865443647213E-02 
333	-3,99670801362133E-02 
334	 5,45086815997673E-02 
335	 0,150148300296601 
336	 0,188867294655892 
337	 0,112933063664414 
338	 0,039561967079724 
339	 6,06689491509122E-02 
340	 8,69489090740172E-02 
341	 9,48812648564106E-02 
342	 9,34714334911634E-02 
343	 0,104465808456612 
344	 0,125297452957135 
345	 0,103126558264029 
346	 9,14290243047149E-02 
347	 0,139122302068957 
348	 0,156697833720831 
349	 0,145479607360084 
350	 0,150186176082423 
351	 0,158106523901221 
352	 0,161398811520818 
353	 0,146012002468349 
354	 0,103599744443017 
355	 3,54066471547865E-02 
356	 3,89810227633971E-02 
357	 0,094577204934128 
358	 0,107002683778118 
359	 9,13498219535709E-02 
360	 6,25687829801595E-02 
361	 0,081310772343179 
362	 0,11721348510015 
363	 0,119974945711923 
364	 0,113987965543874 
365	 0,105201159389512 
366	 9,37840649749832E-02 
367	 9,05500614119434E-02 
368	 9,84727132886112E-02 
369	 8,76827075579257E-02 
370	 7,24394848644842E-02 
371	 8,56972666224913E-02 
372	 0,110359835275736 
373	 0,131294535090015 
374	 0,11309877516444 
375	 9,17502176236341E-02 
376	 9,53912174237001E-02 
377	 0,103267586203867 
378	 0,105923741608709 
379	 8,80321664296638E-02 
380	 8,19786579971875E-02 
381	 9,59235859337716E-02 
382	 0,113856280333156 
383	 0,118061883382469 
384	 9,67808887084473E-02 
385	 7,45492151712411E-02 
386	 6,70059517731324E-02 
387	 0,100377997043484 
388	 0,123120050439991 
389	 0,117243386839858 
390	 0,108746908129024 
391	 0,105441184523697 
392	 0,113700718340923 
393	 0,103021557667908 
394	 7,97725417010121E-02 
395	 7,82016448271525E-02 
396	 9,01565199475026E-02 
397	 0,108142182808491 
398	 0,115025899664874 
399	 0,111505472729148 
400	 0,101565852006903 
401	 9,58496006857607E-02 
402	 9,52855555034339E-02 
403	 9,04041758489481E-02 
404	 8,40465569841351E-02 
405	 7,88824445203943E-02 
406	 8,23463592699891E-02 
407	 8,97665143038667E-02 
408	 9,01636632766407E-02 
409	 0,089994707989031 
410	 9,07822146999897E-02 
411	 9,13065354203013E-02 
412	 9,00272434514769E-02 
413	 8,59060075141414E-02 
414	 8,31902833508854E-02 
415	 8,38704545300933E-02 
416	 9,20792975739421E-02 
417	 9,41867688414217E-02 
418	 8,63919950456766E-02 
419	 8,13198559374569E-02 
420	 8,08441996380903E-02 
421	 8,56898308325323E-02 
422	 8,65310990448313E-02 
423	 8,36777276849432E-02 
424	 8,63334250345984E-02 
425	 8,73459369197763E-02 
426	 8,33363571706859E-02 
427	 8,50605582420836E-02 
428	 8,86070805979596E-02 
429	 8,40437282386266E-02 
430	 8,40633410624013E-02 
431	 8,97591037274055E-02 
432	 8,91550111479435E-02 
433	 8,70536031439575E-02 
434	 8,78049780348898E-02 
435	 8,50081217171715E-02 
436	 8,15754563520566E-02 
437	 8,82001501125844E-02 
438	 9,12302285797543E-02 
439	 8,64799490717367E-02 
440	 8,45424141586431E-02 
441	 0,085313009319222 
442	 8,73974289992459E-02 
443	 8,90142517579571E-02 
444	 0,090324442750065 
445	 9,46407582896796E-02 
446	 9,53672910612901E-02 
447	 8,95343442683004E-02 
448	 8,85218238884937E-02 
449	 9,12617170576657E-02 
450	 9,30421126065471E-02 
451	 0,091099595848544 
452	 8,66137863955619E-02 
453	 9,00156542016318E-02 
454	 0,094085956158037 
455	 9,21452284534876E-02 
456	 9,24047678476285E-02 
457	 9,41254255224614E-02 
458	 0,090761261696566 
459	 8,95657803359347E-02 
460	 9,25667761329387E-02 
461	 9,14111161138996E-02 
462	 8,94584340338721E-02 
463	 9,21560537924906E-02 
464	 9,39298346734014E-02 
465	 9,35651692305488E-02 
466	 9,16251704071566E-02 
467	 9,13552220557208E-02 
468	 9,44250372613209E-02 
469	 9,51835776539789E-02 
470	 9,40334774255729E-02 
471	 9,35510572796885E-02 
472	 0,092632655050118 
473	 9,13523688986179E-02 
474	 9,11418529114832E-02 
475	 9,12866535730848E-02 
476	 9,10990170156022E-02 
477	 9,35421560843153E-02 
478	 9,63402945021576E-02 
479	 0,091241608234271 
480	 8,92377584085665E-02 
481	 9,41591088309904E-02 
482	 9,38441163423909E-02 
483	 9,05013774333407E-02 
484	 8,92517798960783E-02 
485	 9,02543978133796E-02 
486	 9,24277112956521E-02 
487	 9,10573633950136E-02 
488	 8,97240352965451E-02 
489	 9,10824931813653E-02 
490	 9,25735605037711E-02 
491	 0,093090860995733 
492	 9,09017938158721E-02 
493	 9,00798596223803E-02 
494	 9,13714667423703E-02 
495	 9,00343712203635E-02 
496	 8,81569691637711E-02 
497	 8,84345711585991E-02 
498	 8,88926574741067E-02 
499	 8,90580759150457E-02 
500	 8,88313060936067E-02 
501	 8,88861829585802E-02 
502	 8,95879403232825E-02 
503	 9,06303551738975E-02 
504	 9,13137109206564E-02 
505	 9,04626135250651E-02 
506	 9,02417090016678E-02 
507	 9,12098660233992E-02 
508	 9,28049512589453E-02 
509	 9,34786415217835E-02 
510	 0,092091918090661 
511	 9,29127433387723E-02 
512	 9,56953322700051E-02 
513	 9,80802529717267E-02 
514	 0,098177835356038 
515	 9,57826923139579E-02 
516	 9,57857442500205E-02 
517	 9,71002699566428E-02 
518	 9,75026301101195E-02 
519	 9,74636642656565E-02 
520	 9,72258969632089E-02 
521	 9,76604217085523E-02 
522	 9,71026527054101E-02 
523	 9,46854629910704E-02 
524	 0,094647543819413 
525	 0,096325394483756 
526	 9,67234690387816E-02 
527	 9,71194038613147E-02 
528	 0,097581322146662 
529	 9,66526971698095E-02 
530	 9,53272846944975E-02 
531	 0,094838301449553 
532	 9,49867509681985E-02 
533	 9,55612548025208E-02 
534	 9,60339885843167E-02 
535	 9,65012366703456E-02 
536	 9,69264522762208E-02 
537	 9,67038949741749E-02 
538	 9,60973097182496E-02 
539	 0,095642774388211 
540	 9,58419046288016E-02 
541	 9,65953060118812E-02 
542	 0,096545787113761 
543	 9,64021331680413E-02 
544	 0,096891806528885 
545	 0,097242386523014 
546	 0,097281388969702 
547	 9,69260698903382E-02 
548	 9,68009183688603E-02 
549	 9,72068242794262E-02 
550	 9,77611563158476E-02 
551	 9,83152903089801E-02 
552	 9,87774927573139E-02 
553	 9,82999667711321E-02 
554	 9,69764713333898E-02 
555	 9,61663035934672E-02 
556	 9,56130802755223E-02 
557	 9,51178747193799E-02 
558	 9,55102623655934E-02 
559	 9,60856732871195E-02 
560	 9,45998807718211E-02 
561	 9,39410655484108E-02 
562	 9,49472918198487E-02 
563	 9,50281145662491E-02 
564	 9,44223882489301E-02 
565	 9,37530873824552E-02 
566	 9,40699689973441E-02 
567	 9,51208314506949E-02 
568	 9,48952647213358E-02 
569	 9,47260659674627E-02 
570	 9,54819534505913E-02 
571	 9,59712144094647E-02 
572	 9,62562361021371E-02 
573	 9,68324278080075E-02 
574	 9,76914261418031E-02 
575	 9,88698240448104E-02 
576	 0,100433808415957 
577	 0,102116603773197 
578	 0,103621986780394 
579	 0,104983030624541 
580	 0,10607261730819 
581	 0,10644943227941 
582	 0,10708713718453 
583	 0,108453501196063 
584	 0,109370635509581 
585	 0,110074385581248 
586	 0,111276380257053 
587	 0,112144027711388 
588	 0,1126484867446 
589	 0,113801140904946 
590	 0,115055085008852 
591	 0,115862825711322 
592	 0,116512278142992 
593	 0,116918003901953 
594	 0,116637640329895 
595	 0,116556938981896 
596	 0,117061482226844 
597	 0,117610451690225 
598	 0,117888180928123 
599	 0,117550239981759 
600	 0,116686726968877 
601	 0,115684444291019 
602	 0,115785283175372 
603	 0,115968784876759 
604	 0,115431715503181 
605	 0,11494087096635 
606	 0,114494656783641 
607	 0,113739656977067 
608	 0,113118987651524 
609	 0,112775465202756 
610	 0,112487509189342 
611	 0,111967397212316 
612	 0,110901725097844 
613	 0,110013078733717 
614	 0,109516628705775 
615	 0,109452410351039 
616	 0,109333701057737 
617	 0,108851288967189 
618	 0,108268130536819 
619	 0,107903702524363 
620	 0,108335774599137 
621	 0,108555729044559 
622	 0,108273789966525 
623	 0,107868386746861 
624	 0,107823465768584 
625	 0,108557656238632 
626	 0,108523183633705 
627	 0,10798252970069 
628	 0,108747699235116 
629	 0,109435069723808 
630	 0,109425119930206 
631	 0,109697408740153 
632	 0,110289865533616 
633	 0,111076562234988 
634	 0,111908329831566 
635	 0,112629664376891 
636	 0,112852740316375 
637	 0,113219841119589 
638	 0,114270704304465 
639	 0,115569100419314 
640	 0,116764529185163 
641	 0,117149321393906 
642	 0,117953211555913 
643	 0,119439027146927 
644	 0,119998980501988 
645	 0,119919895067474 
646	 0,119770803058841 
647	 0,119883150225782 
648	 0,12017682754189 
649	 0,120000279940895 
650	 0,119563557043295 
651	 0,119011082374089 
652	 0,118383677620693 
653	 0,117473053888038 
654	 0,115791811939484 
655	 0,114236246559022 
656	 0,113148126327997 
657	 0,112538109857378 
658	 0,11149383196686 
659	 0,109145905205377 
660	 0,10741360506575 
661	 0,106310077616022 
662	 0,104599441254298 
663	 0,102684535605837 
664	 0,100874668141685 
665	 9,99070357648303E-02 
666	 0,099242850900198 
667	 9,79007370980901E-02 
668	 9,67815499406203E-02 
669	 9,61870154980163E-02 
670	 9,61940734751573E-02 
671	 9,65030381647847E-02 
672	 9,67884963730106E-02 
673	 9,62999579195693E-02 
674	 9,53670074463466E-02 
675	 0,095087999253518 
676	 9,48594786581911E-02 
677	 9,45755709602872E-02 
678	 9,47723210550474E-02 
679	 9,51158381879104E-02 
680	 9,51709019393702E-02 
681	 9,54700956009259E-02 
682	 0,096113710234472 
683	 9,69803484430756E-02 
684	 9,79710555300654E-02 
685	 9,90813960726245E-02 
686	 0,100681419892402 
687	 0,102905308539909 
688	 0,105902485283763 
689	 0,108948909000976 
690	 0,11211520928352 
691	 0,116578256395074 
692	 0,122187599145672 
693	 0,128723223166193 
694	 0,135555836010339 
695	 0,143074340989369 
696	 0,152653888448413 
697	 0,162809304641944 
698	 0,17299603197279 
699	 0,183987999257467 
700	 0,195747993551561 
701	 0,208149761219469 
702	 0,220878674871736 
703	 0,23354101600495 
704	 0,245522094793811 
705	 0,257099548672151 
706	 0,268470625589159 
707	 0,279888279909832 
708	 0,290823955706737 
709	 0,300241136747827 
710	 0,309568888437374 
711	 0,319121010531028 
712	 0,328218850827795 
713	 0,336511934008177 
714	 0,34374449979721 
715	 0,350832775629532 
716	 0,357710754270735 
717	 0,363680998598887 
718	 0,369379649067264 
719	 0,374940720376439 
720	 0,379588344314697 
721	 0,383607742343322 
722	 0,387423712889824 
723	 0,39148373445556 
724	 0,395589382585284 
725	 0,398601887602788 
726	 0,401188406776347 
727	 0,403765826319391 
728	 0,406059623724452 
729	 0,408065349944316 
730	 0,409800181950077 
731	 0,411551165156261 
732	 0,413339145112099 
733	 0,414834451814422 
734	 0,416017636075651 
735	 0,416912735780819 
736	 0,417892683976737 
737	 0,419071230922842 
738	 0,420569497662424 
739	 0,421793585290183 
740	 0,422538500733679 
741	 0,423185564550157 
742	 0,423788247492066 
743	 0,424370989002424 
744	 0,424778300089637 
745	 0,425224687075055 
746	 0,426535440045331 
747	 0,427464091355112 
748	 0,427445196625361 
749	 0,42767968481034 
750	 0,42818211123137 
751	 0,428753620014128 
752	 0,428999850494618 
753	 0,428930349861082 
754	 0,42904410980642 
755	 0,429286287560311 
756	 0,429627071958032 
757	 0,430254877777461 
758	 0,43083654773672 
759	 0,430640138189481 
760	 0,430543456572364 
761	 0,430846040231483 
762	 0,431417308032877 
763	 0,432005033367424 
764	 0,432355723848225 
765	 0,43217404066834 
766	 0,431801460631556 
767	 0,432242581837914 
768	 0,432739396376878 
769	 0,432997865327389 
770	 0,433223814491642 
771	 0,433290893833578 
772	 0,433053912408778 
773	 0,433088090633187 
774	 0,433423383534774 
775	 0,433744039101748 
776	 0,433835630930811 
777	 0,433645542351816 
778	 0,433748519024045 
779	 0,433963458195291 
780	 0,433922484602045 
781	 0,434066974964885 
782	 0,434429582133939 
783	 0,434758336663267 
784	 0,434819250251668 
785	 0,434520290639967 
786	 0,434510641284692 
787	 0,434619939280401 
788	 0,434342148843479 
789	 0,434408364179257 
790	 0,434876953629206 
791	 0,435057920016698 
792	 0,435066906713164 
793	 0,435013151475359 
794	 0,434880135957574 
795	 0,434762342703789 
796	 0,434831596972328 
797	 0,435009160293746 
798	 0,435230723299816 
799	 0,435382735678666 
800	 0,435343194659935 
801	 0,435043917335277 
802	 0,435017810244867 
803	 0,435303613788316 
804	 0,435743056871075 
805	 0,436073951123252 
806	 0,436191885929822 
807	 0,436271262003929 
808	 0,436349974572271 
809	 0,436442252155544 
810	 0,43619008742976 
811	 0,435836116299692 
812	 0,436249574445047 
813	 0,436663547745361 
814	 0,43677042112983 
815	 0,436808237331972 
816	 0,437079014804347 
817	 0,437884415079263 
818	 0,438140808913651 
819	 0,437811707215338 
820	 0,437546517073764 
821	 0,437495559953064 
822	 0,437754980851867 
823	 0,438256795945777 
824	 0,438569707727968 
825	 0,438183301778808 
826	 0,438134528140084 
827	 0,438453413542492 
828	 0,438344181975471 
829	 0,438372406787529 
830	 0,438724453895653 
831	 0,438586867984178 
832	 0,438339907456845 
833	 0,438607709983756 
834	 0,438852692319872 
835	 0,438930254156179 
836	 0,438799942235487 
837	 0,438817888847563 
838	 0,439131802831561 
839	 0,439252520970453 
840	 0,439305470893195 
841	 0,439545420013398 
842	 0,439498737128424 
843	 0,439259892904114 
844	 0,439525716592324 
845	 0,439843416801838 
846	 0,439966010965297 
847	 0,44004341146372 
848	 0,44013850426614 
849	 0,440321015313853 
850	 0,440129784698359 
851	 0,439673433826984 
852	 0,439682508968872 
853	 0,439730109654547 
854	 0,439654464786899 
855	 0,439992914003199 
856	 0,44048035851244 
857	 0,440687045920432 
858	 0,440505878493892 
859	 0,440096536815968 
860	 0,439987636678689 
861	 0,440309331975702 
862	 0,440950351543386 
863	 0,440668856126739 
864	 0,44015499844649 
865	 0,440466359827014 
866	 0,441214013652508 
867	 0,441973348657229 
868	 0,441809637683928 
869	 0,441379374926926 
870	 0,441106689260261 
871	 0,441449281762669 
872	 0,441826385770039 
873	 0,441511752858466 
874	 0,441325450640724 
875	 0,441461349205169 
876	 0,44198205397879 
877	 0,442179103079877 
878	 0,441850370466244 
879	 0,441803029289042 
880	 0,441993626001602 
881	 0,442270698019498 
882	 0,442044842867356 
883	 0,44147400886126 
884	 0,441219110774957 
885	 0,441430314849629 
886	 0,442086852263045 
887	 0,44266670990709 
888	 0,443053534485827 
889	 0,443138917949327 
890	 0,442429841715892 
891	 0,441596446913163 
892	 0,442217602409605 
893	 0,443077649031302 
894	 0,443584637223809 
895	 0,443106034331893 
896	 0,442515885699461 
897	 0,442546935373646 
898	 0,443070694276759 
899	 0,443653224672358 
900	 0,443581493239538 
901	 0,443234816701902 
902	 0,442927389822798 
903	 0,443343168501075 
904	 0,44389197955204 
905	 0,444142090680874 
906	 0,444006902550967 
907	 0,443607876580311 
908	 0,443144559380559 
909	 0,44297008973903 
910	 0,443067738770243 
911	 0,443128118561926 
912	 0,442708530300066 
913	 0,441832817209376 
914	 0,442025446580837 
915	 0,442506056342745 
916	 0,442272671620127 
917	 0,44166997373401 
918	 0,441254426911195 
919	 0,442427377168317 
920	 0,442402346363953 
921	 0,440825646241465 
922	 0,441139123873008 
923	 0,441647237623829 
924	 0,440880001947922 
925	 0,440036871857435 
926	 0,43955882716177 
927	 0,439934134241532 
928	 0,439372497701394 
929	 0,438040869999232 
930	 0,438565238773288 
931	 0,439193531574905 
932	 0,438801767643481 
933	 0,437471172417492 
934	 0,43582442085887 
935	 0,434685656067326 
936	 0,435108606840982 
937	 0,43613426689498 
938	 0,434379943539221 
939	 0,432810098014319 
940	 0,432394430377528 
941	 0,431791211617485 
942	 0,431253778834071 
943	 0,43094602829099 
944	 0,429582126128538 
945	 0,427864592923077 
946	 0,427511161039457 
947	 0,426211720284242 
948	 0,424055756930735 
949	 0,423953550545315 
950	 0,423360739563207 
951	 0,421086722151858 
952	 0,419563165024444 
953	 0,418590446025671 
954	 0,41762721545644 
955	 0,417142007316573 
956	 0,416394759264382 
957	 0,413171881441267 
958	 0,4109791192094 
959	 0,410905300596261 
960	 0,411760122579723 
961	 0,411532774167117 
962	 0,409122861839725 
963	 0,408803471300049 
964	 0,409091687125131 
965	 0,4068279761769 
966	 0,40641398619897 
967	 0,407929252480864 
968	 0,408227595878243 
969	 0,407868937045466 
970	 0,407057335771815 
971	 0,405929449016733 
972	 0,40528444248226 
973	 0,405699607056787 
974	 0,405423187053746 
975	 0,405429734138713 
976	 0,408039781134923 
977	 0,408194021750959 
978	 0,405560149801335 
979	 0,403861097362162 
980	 0,404116406956766 
981	 0,406513318307443 
982	 0,40847724156991 
983	 0,409493653667498 
984	 0,409323270030895 
985	 0,408277756665037 
986	 0,407136704476557 
987	 0,407027871724387 
988	 0,409469920936625 
989	 0,413221663434924 
990	 0,412472744927717 
991	 0,411321835702177 
992	 0,411648503088773 
993	 0,410547336121529 
994	 0,409129100395248 
995	 0,408949073928671 
996	 0,412577761989018 
997	 0,416709466906324 
998	 0,414137535521309 
999	 0,413985202871215 
1000	 0,416870291211845 
1001	 0,415066270961793 
1002	 0,413553127459641 
1003	 0,414602817252511 
1004	 0,415678485969727 
1005	 0,416494365019725 
1006	 0,417065876371777 
1007	 0,419188813331883 
1008	 0,420780988411993 
1009	 0,417702649169267 
1010	 0,418955280191004 
1011	 0,423709037402806 
1012	 0,420275113840637 
1013	 0,420686312173451 
1014	 0,427326115411986 
1015	 0,423699966534139 
1016	 0,418731556874725 
1017	 0,420575995936795 
1018	 0,424667920941165 
1019	 0,427331560404282 
1020	 0,424385528191991 
1021	 0,425346258990629 
1022	 0,429585727964148 
1023	 0,428359401699253 
1024	 0,429922531388444 
1025	 0,434200050426536 
1026	 0,427629145355123 
1027	 0,422615546564324 
1028	 0,426457247457377 
1029	 0,427742198212107 
1030	 0,429337683356408 
1031	 0,435153444735337 
1032	 0,432443783888126 
1033	 0,426895881940126 
1034	 0,434719463788324 
1035	 0,440904730272386 
1036	 0,440670499940279 
1037	 0,433227542331852 
1038	 0,430881670768895 
1039	 0,437052652688978 
1040	 0,436350645912578 
1041	 0,432620733581973 
1042	 0,430275736192324 
1043	 0,432072015685497 
1044	 0,436958829634779 
1045	 0,442620744916563 
1046	 0,442567952135315 
1047	 0,438956988347558 
1048	 0,440680375306636 
1049	 0,442082099380527 
1050	 0,441218294055432 
1051	 0,437102795570039 
1052	 0,433242705913515 
1053	 0,432649706923057 
1054	 0,44037760346537 
1055	 0,445339954094316 
1056	 0,439236671848627 
1057	 0,440863722527928 
1058	 0,443653992072439 
1059	 0,435563435790817 
1060	 0,434178259416623 
1061	 0,439715630873679 
1062	 0,443685452549417 
1063	 0,444610729712591 
1064	 0,442698154997948 
1065	 0,441398965584154 
1066	 0,442729357249029 
1067	 0,446739440823611 
1068	 0,450843372310502 
1069	 0,442530605181915 
1070	 0,418915756639782 
1071	 0,42477384316399 
1072	 0,442257267766866 
1073	 0,443792331478144 
1074	 0,437430354968496 
1075	 0,426305407006117 
