Wavelength	BELON00274.asd
325	 0,130169510631402 
326	 0,213314967860422 
327	 0,28110219191675 
328	 0,261950127693765 
329	 0,188568852828488 
330	 0,103019569802522 
331	 5,19333121243648E-02 
332	 0,156493221738861 
333	 0,292614714390613 
334	 0,208785809808963 
335	 0,145412290824582 
336	 0,148152763183589 
337	 0,162519241521651 
338	 0,139892525978539 
339	 3,63162849886893E-02 
340	 7,10531205557183E-02 
341	 0,188563951282587 
342	 0,187497170172451 
343	 0,208042245158356 
344	 0,266051588308196 
345	 0,247897382403008 
346	 0,217485237711121 
347	 0,238327329309499 
348	 0,227452917348436 
349	 0,199139337487848 
350	 0,227659534865582 
351	 0,231502634530334 
352	 0,193622112062687 
353	 0,209183535491527 
354	 0,224751961790004 
355	 0,168134849892705 
356	 0,166047427018184 
357	 0,212910991055432 
358	 0,231068532587383 
359	 0,238744989498215 
360	 0,242011248459944 
361	 0,222154638437533 
362	 0,203731851466248 
363	 0,220857638037089 
364	 0,238636198993154 
365	 0,244606079107706 
366	 0,224912116076428 
367	 0,214773036250236 
368	 0,231195085202279 
369	 0,228460153068512 
370	 0,222108025047098 
371	 0,252033617275178 
372	 0,263501154597813 
373	 0,248125527150045 
374	 0,239485684755313 
375	 0,243017577257559 
376	 0,258812961550607 
377	 0,252003277471339 
378	 0,235511959424676 
379	 0,24824260148641 
380	 0,259745896104133 
381	 0,262174961798414 
382	 0,265993240169363 
383	 0,264669392315153 
384	 0,253364244491578 
385	 0,256637026122642 
386	 0,26981152718414 
387	 0,269192869712116 
388	 0,263023423614395 
389	 0,257216298410658 
390	 0,265156135729618 
391	 0,277016811051479 
392	 0,279893553383715 
393	 0,272510115747397 
394	 0,261410187037864 
395	 0,264553988388023 
396	 0,271112374899412 
397	 0,275638146340674 
398	 0,285961494596844 
399	 0,290967041155809 
400	 0,272945061984783 
401	 0,265277091083803 
402	 0,27210619447038 
403	 0,273956523597977 
404	 0,271171326411924 
405	 0,265280953678076 
406	 0,266768962710415 
407	 0,272827241762702 
408	 0,274200679572442 
409	 0,279945926855268 
410	 0,28898706786079 
411	 0,284693504480786 
412	 0,275443275133713 
413	 0,269968779349948 
414	 0,272868595472342 
415	 0,279935722229357 
416	 0,277950229604557 
417	 0,27727696492736 
418	 0,280679464566867 
419	 0,27879433190537 
420	 0,275031163721453 
421	 0,274711100518319 
422	 0,271971412543988 
423	 0,268172053676121 
424	 0,271313465661192 
425	 0,276596958924811 
426	 0,280262001475393 
427	 0,279396904376166 
428	 0,27558813774214 
429	 0,271728222848549 
430	 0,273057360092307 
431	 0,27899047876572 
432	 0,279634832730948 
433	 0,278353697057513 
434	 0,278478080405506 
435	 0,279081102656059 
436	 0,280312582330058 
437	 0,283258014939776 
438	 0,283986141090183 
439	 0,281640712503118 
440	 0,281816117775174 
441	 0,282385082832477 
442	 0,28004752819614 
443	 0,282015238993851 
444	 0,28721879801234 
445	 0,286339456800665 
446	 0,284441630440047 
447	 0,284630991326156 
448	 0,285383114559307 
449	 0,28558313323174 
450	 0,2833373813399 
451	 0,282711837532018 
452	 0,284683877924033 
453	 0,287372096414561 
454	 0,288541073676137 
455	 0,286508685544396 
456	 0,286069597711356 
457	 0,287280043988224 
458	 0,287276199329702 
459	 0,288929281872006 
460	 0,29244917825808 
461	 0,291860049610815 
462	 0,289597998088604 
463	 0,289600351152751 
464	 0,291007983153451 
465	 0,292629950722242 
466	 0,290684497417036 
467	 0,289747094740471 
468	 0,292555328757223 
469	 0,294875417368834 
470	 0,295674948233977 
471	 0,294093437716501 
472	 0,293766875997245 
473	 0,295114205594283 
474	 0,293515126786634 
475	 0,292176915066446 
476	 0,294386464277216 
477	 0,297982984465894 
478	 0,30051142184733 
479	 0,296489122711061 
480	 0,294193872955497 
481	 0,296807875092119 
482	 0,296486131701594 
483	 0,294842932168695 
484	 0,295484193269023 
485	 0,296328788336742 
486	 0,296734786514566 
487	 0,296266154262521 
488	 0,296179498788385 
489	 0,297278091065775 
490	 0,297232804437142 
491	 0,296591388232519 
492	 0,297571614624644 
493	 0,298016514315288 
494	 0,297294519226735 
495	 0,296283115906864 
496	 0,295554810801713 
497	 0,295650420637203 
498	 0,296345053969842 
499	 0,297044351258815 
500	 0,295985617292807 
501	 0,295780884258782 
502	 0,297824727025333 
503	 0,300672135441169 
504	 0,302726240023744 
505	 0,301558402855991 
506	 0,301361372554035 
507	 0,303023377706122 
508	 0,304510227169291 
509	 0,304805597005352 
510	 0,303282105230954 
511	 0,303715645923247 
512	 0,305727741595855 
513	 0,306355281354856 
514	 0,306975398753071 
515	 0,308032372206277 
516	 0,308701269184301 
517	 0,309081460296083 
518	 0,309434984510913 
519	 0,309623552782819 
520	 0,309639965251522 
521	 0,309572044869168 
522	 0,309281858700308 
523	 0,308799770290274 
524	 0,30962562214935 
525	 0,310958317736308 
526	 0,310450095247819 
527	 0,310299285438717 
528	 0,31090973238424 
529	 0,310288214767502 
530	 0,309078311783517 
531	 0,308182988420041 
532	 0,307919940465889 
533	 0,308374727678077 
534	 0,309614096871674 
535	 0,31036721311764 
536	 0,309933907825038 
537	 0,309437293653414 
538	 0,30911927147606 
539	 0,309114670156253 
540	 0,308922347907098 
541	 0,308596339225078 
542	 0,309188717923287 
543	 0,309771998295426 
544	 0,309461461071736 
545	 0,309933906651856 
546	 0,310773774064992 
547	 0,309771626905336 
548	 0,30925553872286 
549	 0,310180992790515 
550	 0,310505559013099 
551	 0,310692433469827 
552	 0,311870496080616 
553	 0,312150284389297 
554	 0,311302883565289 
555	 0,310655700653436 
556	 0,310438601896615 
557	 0,310764539022596 
558	 0,311008451707788 
559	 0,31081679986304 
560	 0,309535273019384 
561	 0,30872737438973 
562	 0,308992267993262 
563	 0,30960298473496 
564	 0,309656081540298 
565	 0,308084511153566 
566	 0,307537184290003 
567	 0,308362199822073 
568	 0,309035474731308 
569	 0,309966982053774 
570	 0,311325136757951 
571	 0,311982638810374 
572	 0,312266915116272 
573	 0,313286275826985 
574	 0,314312253321526 
575	 0,315106967164923 
576	 0,315808864758601 
577	 0,316375579255183 
578	 0,316787168629589 
579	 0,318644650458029 
580	 0,321240750531555 
581	 0,321213526243344 
582	 0,321166623625065 
583	 0,322516967228135 
584	 0,323804306795812 
585	 0,324962992123441 
586	 0,326218127454259 
587	 0,327257064468086 
588	 0,328096015348742 
589	 0,329244068683093 
590	 0,330360049202144 
591	 0,331121986284624 
592	 0,331951641880379 
593	 0,332745776839486 
594	 0,333027449741334 
595	 0,333060575893988 
596	 0,333007761040241 
597	 0,333038446299321 
598	 0,33310862499906 
599	 0,33312471784969 
600	 0,332857346486552 
601	 0,332420959992547 
602	 0,332550717373182 
603	 0,332533563683547 
604	 0,331868157133974 
605	 0,33175976183968 
606	 0,331882072303391 
607	 0,330880809463625 
608	 0,33010211704932 
609	 0,329959223395425 
610	 0,329733718027988 
611	 0,329051519618633 
612	 0,327548616969968 
613	 0,326985795581736 
614	 0,327387384709811 
615	 0,327243748005876 
616	 0,327041628370957 
617	 0,327014159729588 
618	 0,326385886513937 
619	 0,325678441251785 
620	 0,326120045499394 
621	 0,326583273343556 
622	 0,326634354049906 
623	 0,326062936444798 
624	 0,325900262674034 
625	 0,327132079411679 
626	 0,32729748386695 
627	 0,326611038276015 
628	 0,327292847972112 
629	 0,328151084918246 
630	 0,328573606177107 
631	 0,328720033639419 
632	 0,328964145532496 
633	 0,329901549145693 
634	 0,33046206852704 
635	 0,330591211749773 
636	 0,331471574466993 
637	 0,332378102818637 
638	 0,332735755965908 
639	 0,333710852803127 
640	 0,335136763251278 
641	 0,336159486232501 
642	 0,33677426782304 
643	 0,337040828686665 
644	 0,337580403361918 
645	 0,338155379256602 
646	 0,338383272679396 
647	 0,338165731872628 
648	 0,337692876751478 
649	 0,337705968835193 
650	 0,337696862631305 
651	 0,337272028427974 
652	 0,336187180214055 
653	 0,334803833386191 
654	 0,333897712760125 
655	 0,333051741092397 
656	 0,332151815196868 
657	 0,331360210818463 
658	 0,330227185565316 
659	 0,328334105161192 
660	 0,326990928997257 
661	 0,326182927911999 
662	 0,325021295348952 
663	 0,323617932296554 
664	 0,322079875049483 
665	 0,320862224600833 
666	 0,31985993617145 
667	 0,318789027136949 
668	 0,318138660581597 
669	 0,317988047624058 
670	 0,318135202879644 
671	 0,318163615519633 
672	 0,317759397955698 
673	 0,317303603735974 
674	 0,316959840774688 
675	 0,316948864196088 
676	 0,316890424801312 
677	 0,31670516488197 
678	 0,316830352360798 
679	 0,317031325975945 
680	 0,316997673344968 
681	 0,317560240223485 
682	 0,318660181645713 
683	 0,319418049667585 
684	 0,320371308150713 
685	 0,32183039293531 
686	 0,323488513433501 
687	 0,325535940211988 
688	 0,328367112200722 
689	 0,331410120614294 
690	 0,334666224583466 
691	 0,338799650376761 
692	 0,343824528911605 
693	 0,349713041897881 
694	 0,356275387961681 
695	 0,363362439231994 
696	 0,370698796571614 
697	 0,378727230667359 
698	 0,387597854099108 
699	 0,397028577099284 
700	 0,406605305792901 
701	 0,415860231917219 
702	 0,425769476154926 
703	 0,436106063374675 
704	 0,445484629358544 
705	 0,454535444112673 
706	 0,463631675671861 
707	 0,472513584007381 
708	 0,480856919291828 
709	 0,488130548454611 
710	 0,495345809878551 
711	 0,502685040064524 
712	 0,509467901851142 
713	 0,515585563320789 
714	 0,52098951440723 
715	 0,526176507515409 
716	 0,531186067116256 
717	 0,535883352021314 
718	 0,539957470937618 
719	 0,543422481957187 
720	 0,547328463494234 
721	 0,551059140275677 
722	 0,553694053705227 
723	 0,556318226469679 
724	 0,559014024210094 
725	 0,56101051859037 
726	 0,562997667976348 
727	 0,565325575119388 
728	 0,567129470725447 
729	 0,568385065263305 
730	 0,569216956027359 
731	 0,570412901192429 
732	 0,572054474013582 
733	 0,573250848372737 
734	 0,574191401312079 
735	 0,575071541013527 
736	 0,575874771948929 
737	 0,576635886315205 
738	 0,577418843148865 
739	 0,578164984594693 
740	 0,578798047606982 
741	 0,579049664700337 
742	 0,579189079125067 
743	 0,579549915780537 
744	 0,580025138063042 
745	 0,580521350670673 
746	 0,58080801562727 
747	 0,581155205708781 
748	 0,581664313644132 
749	 0,582014612333438 
750	 0,582086884948806 
751	 0,5817455560159 
752	 0,581845296111844 
753	 0,582334375643406 
754	 0,581986442851193 
755	 0,581666279569229 
756	 0,581970773658983 
757	 0,582126868433438 
758	 0,582173947840405 
759	 0,582432903262282 
760	 0,582742306702278 
761	 0,583013646081765 
762	 0,583100268489407 
763	 0,58315550504919 
764	 0,583308367331022 
765	 0,583117526158948 
766	 0,582706628338952 
767	 0,582522179405602 
768	 0,582780194932879 
769	 0,583393328559516 
770	 0,583256286882853 
771	 0,582881425116001 
772	 0,582978428674534 
773	 0,583128836004717 
774	 0,583239795177262 
775	 0,583313975659192 
776	 0,583337224702693 
777	 0,583313674154157 
778	 0,583342246614541 
779	 0,583339090564298 
780	 0,58316129653801 
781	 0,583197409178794 
782	 0,583416279031404 
783	 0,58329620019559 
784	 0,583234630967776 
785	 0,583459194440422 
786	 0,583559397535493 
787	 0,583479359649151 
788	 0,583207441461671 
789	 0,583204862168674 
790	 0,583499385093079 
791	 0,583525541589803 
792	 0,583539557424056 
793	 0,5837358784198 
794	 0,583798499059694 
795	 0,583767295904785 
796	 0,583860689862561 
797	 0,583794532274872 
798	 0,583494547509358 
799	 0,583056925478894 
800	 0,582770871560543 
801	 0,582887665091783 
802	 0,583100070948554 
803	 0,58335848275607 
804	 0,58378320606792 
805	 0,583841204816822 
806	 0,58347337958129 
807	 0,583592361207224 
808	 0,583755157194584 
809	 0,583446305039113 
810	 0,583353753547845 
811	 0,583488742516278 
812	 0,583438196938875 
813	 0,583612077507957 
814	 0,584029536702328 
815	 0,583731427044667 
816	 0,583411461360841 
817	 0,583955473312648 
818	 0,584288022410849 
819	 0,584202469901134 
820	 0,583842788040231 
821	 0,583551305292695 
822	 0,583533092437646 
823	 0,583728907724624 
824	 0,584132664476953 
825	 0,584731703839392 
826	 0,584658339508773 
827	 0,584067632539372 
828	 0,584117827787261 
829	 0,584410321911862 
830	 0,584702744613062 
831	 0,584797190285194 
832	 0,584686148780476 
833	 0,584406369198882 
834	 0,584615147191516 
835	 0,585107540956906 
836	 0,584641971102932 
837	 0,584146089112138 
838	 0,584074891505392 
839	 0,583720267178766 
840	 0,583510381193264 
841	 0,584129911129835 
842	 0,584263295301052 
843	 0,583770845871222 
844	 0,583310582386219 
845	 0,583352911078432 
846	 0,583992033409549 
847	 0,583821185294486 
848	 0,583280338886596 
849	 0,583219225815444 
850	 0,583172501148087 
851	 0,58308062865872 
852	 0,583098418677687 
853	 0,583031412317586 
854	 0,582907681222747 
855	 0,583705359283302 
856	 0,584592104235017 
857	 0,584322650013561 
858	 0,583452067241392 
859	 0,582599274762135 
860	 0,58325908102001 
861	 0,583731386251705 
862	 0,583314795820927 
863	 0,583791707770103 
864	 0,584377505172858 
865	 0,58385684894556 
866	 0,583902083719343 
867	 0,584444403977814 
868	 0,583976083123825 
869	 0,583801417170754 
870	 0,584354493750505 
871	 0,58421423557154 
872	 0,583881617953313 
873	 0,584100740200723 
874	 0,58449638234308 
875	 0,584819999528225 
876	 0,584617102255213 
877	 0,584321773529319 
878	 0,58420647975451 
879	 0,584663173687643 
880	 0,584930123634012 
881	 0,584224984013562 
882	 0,584006776000894 
883	 0,584235592534379 
884	 0,583902563338012 
885	 0,584084943138155 
886	 0,584859013278043 
887	 0,584567940379443 
888	 0,584230750737524 
889	 0,584789376800936 
890	 0,584607670087311 
891	 0,583877179319192 
892	 0,583604272134669 
893	 0,583786593361318 
894	 0,584221578695912 
895	 0,58392728702282 
896	 0,583465125187017 
897	 0,583304490225627 
898	 0,583215337384876 
899	 0,583204424717141 
900	 0,583331471672918 
901	 0,583422022023708 
902	 0,583448736849895 
903	 0,583510118472881 
904	 0,583732652206896 
905	 0,584100053024325 
906	 0,583946079753276 
907	 0,583455527017513 
908	 0,583011167618572 
909	 0,583185278273962 
910	 0,58380449167921 
911	 0,583886011024902 
912	 0,583660211153818 
913	 0,583207558445101 
914	 0,582314733185839 
915	 0,581881676029085 
916	 0,582813745790822 
917	 0,583416177986199 
918	 0,583385618505259 
919	 0,582858227761917 
920	 0,582815663890531 
921	 0,583375481015482 
922	 0,583126636596285 
923	 0,582870447684367 
924	 0,583170361408511 
925	 0,582095265892516 
926	 0,580793717057042 
927	 0,581915095682522 
928	 0,58134442414338 
929	 0,579080908629112 
930	 0,579515693702944 
931	 0,580631655617669 
932	 0,581028599781506 
933	 0,579961068027162 
934	 0,578610777769722 
935	 0,578587672822088 
936	 0,578746149582834 
937	 0,578648622919578 
938	 0,577898225710545 
939	 0,576552984923481 
940	 0,574995366697467 
941	 0,574690873492219 
942	 0,575412166788206 
943	 0,576523029238551 
944	 0,574443121524928 
945	 0,571265490989924 
946	 0,571952660559077 
947	 0,572523534250025 
948	 0,571996473691502 
949	 0,571305716838384 
950	 0,569871507753807 
951	 0,567727589665968 
952	 0,56708521583496 
953	 0,56704242973788 
954	 0,566221125147474 
955	 0,564886841736857 
956	 0,563347440880162 
957	 0,562255837529807 
958	 0,561411076983927 
959	 0,560614410131336 
960	 0,559042549307777 
961	 0,558431383569269 
962	 0,559754963469103 
963	 0,55959542707515 
964	 0,558180723630266 
965	 0,556646277405756 
966	 0,557271732458805 
967	 0,559370087839368 
968	 0,558930395108173 
969	 0,557890762781211 
970	 0,557296705342374 
971	 0,558305467594336 
972	 0,558774632129797 
973	 0,556941270246539 
974	 0,556024524501267 
975	 0,556822274195413 
976	 0,559805287912785 
977	 0,559140611494298 
978	 0,555028630049304 
979	 0,554057102510635 
980	 0,554664150085794 
981	 0,556007678709496 
982	 0,557660028735065 
983	 0,558480534929227 
984	 0,557547513313068 
985	 0,556794846698685 
986	 0,556719642976248 
987	 0,557421061645207 
988	 0,559263362453255 
989	 0,561649469776507 
990	 0,562651192664366 
991	 0,561812210496012 
992	 0,559552725007225 
993	 0,559708341097388 
994	 0,560570852272882 
995	 0,560156156246574 
996	 0,561002604441592 
997	 0,562117022054701 
998	 0,560754912711266 
999	 0,560565414583867 
1000	 0,56169036741389 
1001	 0,560504715803223 
1002	 0,560411910464083 
1003	 0,562466661927907 
1004	 0,562184485092423 
1005	 0,561260322378804 
1006	 0,561895093369285 
1007	 0,566348928230492 
1008	 0,570893437105228 
1009	 0,568497253392678 
1010	 0,567366830720186 
1011	 0,568330252939089 
1012	 0,565888058387543 
1013	 0,566852503733041 
1014	 0,572041038891456 
1015	 0,569810136348334 
1016	 0,565055691360542 
1017	 0,562996168492098 
1018	 0,566030018162222 
1019	 0,569755417409166 
1020	 0,56729445965495 
1021	 0,568510354984818 
1022	 0,572162093719961 
1023	 0,567678608855924 
1024	 0,567276550891024 
1025	 0,572717907960542 
1026	 0,571911310525664 
1027	 0,569433423818191 
1028	 0,568339039300273 
1029	 0,565552866188744 
1030	 0,565422442652024 
1031	 0,572511713131262 
1032	 0,575024512388654 
1033	 0,573966461756579 
1034	 0,576451196281105 
1035	 0,577823899559619 
1036	 0,577251366779508 
1037	 0,576532939424093 
1038	 0,574602789346542 
1039	 0,572081924922267 
1040	 0,57443741224029 
1041	 0,576104254731707 
1042	 0,573063159044007 
1043	 0,573033773626937 
1044	 0,576265292825444 
1045	 0,581430479984945 
1046	 0,584514568809653 
1047	 0,583006264060559 
1048	 0,573467410336151 
1049	 0,573988251607913 
1050	 0,583400053337541 
1051	 0,572756525166908 
1052	 0,568320084274367 
1053	 0,57886314910209 
1054	 0,575259681259639 
1055	 0,566966311852131 
1056	 0,56462619238066 
1057	 0,573486055773399 
1058	 0,581935283691773 
1059	 0,573862306489633 
1060	 0,571125029837208 
1061	 0,573096621720026 
1062	 0,566849343397787 
1063	 0,56563140352229 
1064	 0,570349342636432 
1065	 0,570016900590057 
1066	 0,566312942288181 
1067	 0,561487362554283 
1068	 0,56414183145838 
1069	 0,561632579274756 
1070	 0,548142705750098 
1071	 0,556263468846104 
1072	 0,569722499942171 
1073	 0,565811825327147 
1074	 0,568424177355498 
1075	 0,570903583532092 
