Wavelength	BELON00051.asd
325	 0,126981498964337 
326	 3,18696607952806E-02 
327	 5,87708473800043E-02 
328	 0,166842664064966 
329	 5,78979791150177E-02 
330	-4,72795986959398E-02 
331	 6,38934507278402E-02 
332	 7,67252349321905E-02 
333	 2,03654696255119E-02 
334	 5,32264354217202E-02 
335	 5,24561049122098E-02 
336	 1,26763313774538E-02 
337	 3,69920410853944E-02 
338	 3,93314234374735E-02 
339	-0,057587410453186 
340	-2,59385250880816E-02 
341	 9,34612436412627E-02 
342	 0,137527560805276 
343	 0,129826799903988 
344	 9,32462173647299E-02 
345	 0,119216153788838 
346	 0,145004272079922 
347	 0,108573166669081 
348	 5,88704099272791E-02 
349	 2,01559016924682E-02 
350	 2,29562510580705E-02 
351	 3,55849926994943E-02 
352	 4,09077742118674E-02 
353	 1,77488365079586E-02 
354	 1,17048999637473E-04 
355	 3,16475331192475E-02 
356	 2,55830151410702E-02 
357	-4,40866464230323E-03 
358	 2,93055781215641E-02 
359	 4,52425214843529E-02 
360	 1,49706505272483E-02 
361	 1,82300352581168E-02 
362	 0,036335551707788 
363	 3,17460317460317E-02 
364	 2,47487620603684E-02 
365	 2,06250107151172E-02 
366	 2,42317209267671E-02 
367	 1,69911585553244E-02 
368	-6,03784242022442E-03 
369	 7,40808200546723E-03 
370	 3,21172005272755E-02 
371	 8,58671719852042E-03 
372	 1,30172585880144E-03 
373	 0,017881899000475 
374	 7,54568692570147E-03 
375	 1,02430372124727E-03 
376	 2,08547783228152E-02 
377	 4,01644007741159E-02 
378	 4,94321734954411E-02 
379	 3,66873708781626E-02 
380	 2,13710745840452E-02 
381	 1,47187663537775E-02 
382	 3,95841246915469E-02 
383	 5,60484938078811E-02 
384	 3,14185869148666E-02 
385	 1,46881547548404E-02 
386	 1,47434027220609E-02 
387	 2,85483053774861E-02 
388	 3,79203559063164E-02 
389	 0,034153577553705 
390	 1,44621938838263E-02 
391	 1,81918366298818E-03 
392	 2,26744233068245E-02 
393	 3,39743170049831E-02 
394	 2,90802803305264E-02 
395	 1,58383249324799E-02 
396	 1,60036245728801E-02 
397	 3,67098538373759E-02 
398	 4,09396499792374E-02 
399	 3,19757925294668E-02 
400	 2,05156815950133E-02 
401	 1,49462775695473E-02 
402	 1,62692320791369E-02 
403	 1,68640997804844E-02 
404	 1,70366918223723E-02 
405	 1,70132844726483E-02 
406	 1,59095530849904E-02 
407	 1,52249263187618E-02 
408	 1,77793748840302E-02 
409	 2,30219433549735E-02 
410	 2,79951583489706E-02 
411	 2,00456111750855E-02 
412	 1,09028723480051E-02 
413	 1,13179362482035E-02 
414	 1,27804721259285E-02 
415	 1,42659684481049E-02 
416	 1,77165565477772E-02 
417	 0,019283036259531 
418	 1,75722362334136E-02 
419	 1,36926082599945E-02 
420	 1,21959351516569E-02 
421	 1,85057004643659E-02 
422	 2,01333349636993E-02 
423	 1,60818443162436E-02 
424	 1,26484613509777E-02 
425	 1,13533734815163E-02 
426	 1,28946929358447E-02 
427	 1,38044416509386E-02 
428	 1,41137423520424E-02 
429	 1,47646882530483E-02 
430	 0,015828221552346 
431	 1,70842214843204E-02 
432	 1,74705692109676E-02 
433	 1,78716105296239E-02 
434	 1,88708691455762E-02 
435	 1,57078420247257E-02 
436	 1,16533562166063E-02 
437	 1,75731084027306E-02 
438	 0,020081454004182 
439	 1,52604919514167E-02 
440	 1,44780743605935E-02 
441	 1,61241663052437E-02 
442	 1,68924096144098E-02 
443	 1,85930086696973E-02 
444	 2,02965127599313E-02 
445	 1,77898859862945E-02 
446	 1,58839672808395E-02 
447	 1,71193773676612E-02 
448	 1,56589692354261E-02 
449	 0,013935943770959 
450	 0,018064841930772 
451	 0,019996322916228 
452	 0,018203437084234 
453	 1,86856898933578E-02 
454	 1,84977972348213E-02 
455	 1,50177751377234E-02 
456	 1,43441629506607E-02 
457	 1,58210138590066E-02 
458	 1,42292731484254E-02 
459	 1,38872017608908E-02 
460	 1,58270049599674E-02 
461	 1,45659539079842E-02 
462	 1,28267407026217E-02 
463	 1,48283821644233E-02 
464	 0,01768463867076 
465	 1,96250820475119E-02 
466	 0,017557463625697 
467	 1,41769407098573E-02 
468	 1,18753385726391E-02 
469	 1,44477804746575E-02 
470	 1,93434010010304E-02 
471	 2,08465322624264E-02 
472	 0,019200556818852 
473	 1,56322972608058E-02 
474	 1,59023699724432E-02 
475	 1,70934589932913E-02 
476	 0,016173600076759 
477	 0,018155003790425 
478	 2,16607414273666E-02 
479	 2,05911696882831E-02 
480	 0,018627878764765 
481	 1,74575220818078E-02 
482	 1,58264107966766E-02 
483	 1,46432273471643E-02 
484	 1,53773573261641E-02 
485	 1,59505188126243E-02 
486	 1,57660872409261E-02 
487	 1,51371928484572E-02 
488	 0,013919502172384 
489	 1,22994329130558E-02 
490	 1,33392894934042E-02 
491	 1,59867751137801E-02 
492	 1,68629082406391E-02 
493	 1,77565778172162E-02 
494	 1,88435539667489E-02 
495	 1,84784791849564E-02 
496	 1,69056478989194E-02 
497	 1,45706152650211E-02 
498	 1,36486716241828E-02 
499	 1,40363061718251E-02 
500	 1,35136114435086E-02 
501	 1,33339849469051E-02 
502	 1,42692557041903E-02 
503	 1,70138268541786E-02 
504	 0,019027886816165 
505	 1,57056602821219E-02 
506	 0,013951021259262 
507	 1,51492255962434E-02 
508	 1,53885835499362E-02 
509	 1,48761714173631E-02 
510	 1,40661156105376E-02 
511	 1,48741314728375E-02 
512	 1,70157879381477E-02 
513	 0,019262596703197 
514	 1,91009071353294E-02 
515	 1,62392048065917E-02 
516	 1,68171869721443E-02 
517	 1,86326770814934E-02 
518	 1,77626153053367E-02 
519	 1,72179659538747E-02 
520	 1,74168018505052E-02 
521	 0,017006408118271 
522	 1,67485350800471E-02 
523	 1,71633934955764E-02 
524	 1,76297877717899E-02 
525	 1,78028632226233E-02 
526	 1,70789789420108E-02 
527	 1,68186926547797E-02 
528	 1,72559437295182E-02 
529	 0,016851679645693 
530	 1,59913996182105E-02 
531	 1,52547478205994E-02 
532	 0,014925659278745 
533	 1,51832902844255E-02 
534	 1,63741239546859E-02 
535	 1,72660166744739E-02 
536	 1,71682160098831E-02 
537	 1,71062361684459E-02 
538	 1,70650570984324E-02 
539	 1,67261750961303E-02 
540	 1,64252082852256E-02 
541	 1,63430869039108E-02 
542	 1,68469713042715E-02 
543	 1,68992079424948E-02 
544	 1,56184441890997E-02 
545	 1,64457921528536E-02 
546	 1,83816172475206E-02 
547	 1,65271551811915E-02 
548	 0,015285474064063 
549	 1,65101822106089E-02 
550	 1,69085422676552E-02 
551	 1,69010294455342E-02 
552	 1,77805987906291E-02 
553	 1,74274629607468E-02 
554	 1,59467201785265E-02 
555	 1,61774878368127E-02 
556	 1,68881597584966E-02 
557	 1,69678957243089E-02 
558	 1,65347459886502E-02 
559	 1,58057118743093E-02 
560	 1,51403824362972E-02 
561	 0,015278535203007 
562	 1,63016669303724E-02 
563	 1,66384252181275E-02 
564	 1,63716446043129E-02 
565	 1,58138532798799E-02 
566	 1,61480803434916E-02 
567	 1,71383215371136E-02 
568	 1,67273849967743E-02 
569	 1,63553897048618E-02 
570	 1,68905643207262E-02 
571	 1,62532331789755E-02 
572	 1,52612670361587E-02 
573	 1,64488217475359E-02 
574	 1,70172900369781E-02 
575	 1,64893622481187E-02 
576	 1,79316491136964E-02 
577	 1,96200500128289E-02 
578	 1,94377752539096E-02 
579	 1,93091987300132E-02 
580	 1,94905276912697E-02 
581	 1,93006784411906E-02 
582	 1,92929586094035E-02 
583	 1,97002078824949E-02 
584	 1,96360542300732E-02 
585	 1,95575446442148E-02 
586	 2,05055116325984E-02 
587	 2,10896489636322E-02 
588	 2,10014151175381E-02 
589	 0,020890663312143 
590	 2,10961562735155E-02 
591	 2,18502015228308E-02 
592	 2,20566042391203E-02 
593	 2,18103002783235E-02 
594	 2,20622027779324E-02 
595	 2,20149393198709E-02 
596	 2,14750962519726E-02 
597	 2,17021394497786E-02 
598	 2,21870350591992E-02 
599	 2,19824846516496E-02 
600	 0,021693136602994 
601	 2,15146196355608E-02 
602	 2,15358481194603E-02 
603	 2,15422041961937E-02 
604	 2,13862068709538E-02 
605	 2,14808514005381E-02 
606	 2,16703128820737E-02 
607	 2,13931971420316E-02 
608	 2,12279415091451E-02 
609	 2,12681453804154E-02 
610	 2,07254650658955E-02 
611	 2,00485051223293E-02 
612	 1,98622498224821E-02 
613	 1,95934740343867E-02 
614	 1,91404752802735E-02 
615	 1,85556020809769E-02 
616	 1,83177141808665E-02 
617	 1,87137396366001E-02 
618	 1,93746428882476E-02 
619	 1,98929682665054E-02 
620	 0,019588052106764 
621	 1,95800189902985E-02 
622	 1,99409017904403E-02 
623	 0,018989920811273 
624	 1,81795307947682E-02 
625	 0,019024942999982 
626	 1,92741595000283E-02 
627	 1,88768860962207E-02 
628	 1,91475934831197E-02 
629	 1,94984771172432E-02 
630	 1,96862934757448E-02 
631	 2,01611745226425E-02 
632	 2,07138984641141E-02 
633	 2,09587493639709E-02 
634	 2,07990920034305E-02 
635	 2,04777281066903E-02 
636	 2,11198106737184E-02 
637	 2,17040454508456E-02 
638	 2,14262462277667E-02 
639	 2,19522350162789E-02 
640	 2,29709327414632E-02 
641	 2,29815384827002E-02 
642	 2,27432764326379E-02 
643	 2,25944122008297E-02 
644	 2,26902306939862E-02 
645	 0,022923353014154 
646	 2,31260831937458E-02 
647	 2,32363852762526E-02 
648	 2,31854164096456E-02 
649	 2,27650987205153E-02 
650	 2,26606317210116E-02 
651	 2,32084655176363E-02 
652	 2,30422673520488E-02 
653	 2,22541679306933E-02 
654	 2,14230411912409E-02 
655	 2,07774619714186E-02 
656	 2,04964650062622E-02 
657	 2,08306489368332E-02 
658	 2,09626998570916E-02 
659	 2,00895391125537E-02 
660	 0,019685507971077 
661	 1,97097477340303E-02 
662	 1,91079710861001E-02 
663	 1,83024502228127E-02 
664	 1,75472029292332E-02 
665	 1,70728328690557E-02 
666	 1,67313367013508E-02 
667	 1,62045765505651E-02 
668	 1,63312090750391E-02 
669	 1,70572716670073E-02 
670	 0,017283233381306 
671	 1,71940127780372E-02 
672	 1,69837725694167E-02 
673	 1,68969908517758E-02 
674	 1,68552402763782E-02 
675	 0,016472985789128 
676	 1,64043501417854E-02 
677	 0,016741430216101 
678	 0,016419184697775 
679	 1,63163077842884E-02 
680	 1,75373154238237E-02 
681	 1,78466698140407E-02 
682	 1,72427970046739E-02 
683	 1,74871995903278E-02 
684	 1,79707787237408E-02 
685	 1,83093676427567E-02 
686	 1,82612745456572E-02 
687	 1,83987473976278E-02 
688	 1,98310672914285E-02 
689	 2,08411038927749E-02 
690	 2,11976135306957E-02 
691	 2,22942174712935E-02 
692	 2,40160808894885E-02 
693	 2,61557049537103E-02 
694	 0,027853536318018 
695	 2,95672700846593E-02 
696	 0,032853458829889 
697	 0,036742287009902 
698	 4,07611549497145E-02 
699	 4,45715620214405E-02 
700	 4,87272219311097E-02 
701	 5,39713477982112E-02 
702	 5,97604161452877E-02 
703	 0,06583536208394 
704	 7,19598145715245E-02 
705	 7,81525084246222E-02 
706	 8,44190844923735E-02 
707	 9,08273505887472E-02 
708	 9,71964850321473E-02 
709	 0,103186814012997 
710	 0,1093102180293 
711	 0,115701468833902 
712	 0,122292679558235 
713	 0,128524797782336 
714	 0,133925047155175 
715	 0,139454372383481 
716	 0,144987332410723 
717	 0,149661773257791 
718	 0,154408259060536 
719	 0,159398206838697 
720	 0,163181663023485 
721	 0,166727140459895 
722	 0,171397185779043 
723	 0,175136077991895 
724	 0,177876007850567 
725	 0,181103571337757 
726	 0,184149123665518 
727	 0,18662529024506 
728	 0,188840048568626 
729	 0,190836643499805 
730	 0,192600393859254 
731	 0,194297502119103 
732	 0,19598571651465 
733	 0,197675957510703 
734	 0,199042280868609 
735	 0,199850928780737 
736	 0,200869941607917 
737	 0,202166216253044 
738	 0,203589784735799 
739	 0,204574208338853 
740	 0,205004524584504 
741	 0,205697222437626 
742	 0,206456206810018 
743	 0,206982089054526 
744	 0,207681099394884 
745	 0,208473249019233 
746	 0,208817686925354 
747	 0,209242756192967 
748	 0,209937758451541 
749	 0,210059150174563 
750	 0,210061610580416 
751	 0,210787196284493 
752	 0,211397306347667 
753	 0,211697802451124 
754	 0,211901175875596 
755	 0,212093392887677 
756	 0,212346562902729 
757	 0,212710494914398 
758	 0,21305037125425 
759	 0,213056458541048 
760	 0,21320536652109 
761	 0,213640989903272 
762	 0,214267971592659 
763	 0,214638223218285 
764	 0,214384236188243 
765	 0,214325111783367 
766	 0,214559894362353 
767	 0,214907151330378 
768	 0,215178733231691 
769	 0,215285460457493 
770	 0,215328398490262 
771	 0,215300617392353 
772	 0,215195580139353 
773	 0,215609831352865 
774	 0,216340950882784 
775	 0,216384429623843 
776	 0,216218096927342 
777	 0,216133790341257 
778	 0,216352805496759 
779	 0,216611892533954 
780	 0,216478132968912 
781	 0,216727072254752 
782	 0,217309945104532 
783	 0,217326001674606 
784	 0,217136108520491 
785	 0,217033509913601 
786	 0,217351473000517 
787	 0,217750931233053 
788	 0,217524849686552 
789	 0,217516480664098 
790	 0,217896099553968 
791	 0,21830010320709 
792	 0,218376308228194 
793	 0,217928305609924 
794	 0,217894988453255 
795	 0,218271324518916 
796	 0,218711035591466 
797	 0,218933236086977 
798	 0,218907055185604 
799	 0,219132497699779 
800	 0,219340732207118 
801	 0,21927757285576 
802	 0,219297092854406 
803	 0,219487650546855 
804	 0,219930752005844 
805	 0,220205882017963 
806	 0,220185396824019 
807	 0,220195956685678 
808	 0,220262271470576 
809	 0,220370540861146 
810	 0,220152393173092 
811	 0,219811952406062 
812	 0,220134139914043 
813	 0,220434220643844 
814	 0,220433261300817 
815	 0,220282285903369 
816	 0,220447755015416 
817	 0,221417993104299 
818	 0,221624243182016 
819	 0,221141396913525 
820	 0,221337624225822 
821	 0,221581283033039 
822	 0,221627744344 
823	 0,221803882998638 
824	 0,222056611693991 
825	 0,222279040738803 
826	 0,222087802799185 
827	 0,221617447567726 
828	 0,221543146764953 
829	 0,221730521477578 
830	 0,222033149255817 
831	 0,221979097397885 
832	 0,221597918030537 
833	 0,22101669789178 
834	 0,221184945593507 
835	 0,221908885610242 
836	 0,221693092697232 
837	 0,221498272441735 
838	 0,221790970184728 
839	 0,221995105041003 
840	 0,222011271310336 
841	 0,221792528337389 
842	 0,221933022034878 
843	 0,22238263895103 
844	 0,222458611117579 
845	 0,22235188931657 
846	 0,222208200125613 
847	 0,222287657656675 
848	 0,222470593893148 
849	 0,222542871786169 
850	 0,222408339850853 
851	 0,22217389028147 
852	 0,22227569784042 
853	 0,222390840135213 
854	 0,222366324204794 
855	 0,222474825658046 
856	 0,222525107507788 
857	 0,22222912197683 
858	 0,222165261495717 
859	 0,222419192401028 
860	 0,222834339476856 
861	 0,222885744492942 
862	 0,222416225004457 
863	 0,22242160002731 
864	 0,222599584408487 
865	 0,222426296849837 
866	 0,222829261178745 
867	 0,223486375837379 
868	 0,222782491772974 
869	 0,222005886300858 
870	 0,221885912224599 
871	 0,222750315807294 
872	 0,22350595336028 
873	 0,22286841808694 
874	 0,222675278648204 
875	 0,22305226968567 
876	 0,223099274030212 
877	 0,223267017694149 
878	 0,2236149894187 
879	 0,223456684505087 
880	 0,223301349024181 
881	 0,223712995517875 
882	 0,223819854136157 
883	 0,223636317896454 
884	 0,223674766287927 
885	 0,223681052531937 
886	 0,223647904977848 
887	 0,223943065995283 
888	 0,224260024823859 
889	 0,224304252152304 
890	 0,224356753189273 
891	 0,224357095908273 
892	 0,224012681503761 
893	 0,224170226983818 
894	 0,224774779741935 
895	 0,224278579597384 
896	 0,223642488474103 
897	 0,223639735540875 
898	 0,223721489486479 
899	 0,223723406482431 
900	 0,223475534975329 
901	 0,223610971899248 
902	 0,224214197019795 
903	 0,224986342213481 
904	 0,22509905941369 
905	 0,224241037307097 
906	 0,22428008138471 
907	 0,224585939239024 
908	 0,223943504127362 
909	 0,223786514759898 
910	 0,224302519668574 
911	 0,22508530428243 
912	 0,225106461638712 
913	 0,224009816442724 
914	 0,222956795379407 
915	 0,22253720195018 
916	 0,223203806080424 
917	 0,223920868955212 
918	 0,224092780620749 
919	 0,222808999823328 
920	 0,221913627544584 
921	 0,222034639477062 
922	 0,22257104875726 
923	 0,22286276981328 
924	 0,222393728816875 
925	 0,221621028838217 
926	 0,220879947475082 
927	 0,220624371607551 
928	 0,220057225522111 
929	 0,219381574905936 
930	 0,220195778398941 
931	 0,220983653100941 
932	 0,220719995160147 
933	 0,2192439263857 
934	 0,217420077048264 
935	 0,216382692226383 
936	 0,216057604526288 
937	 0,216018842059228 
938	 0,215087481145571 
939	 0,214243758203949 
940	 0,213787008839953 
941	 0,213195266212858 
942	 0,212678354002569 
943	 0,212433904958286 
944	 0,212609662043618 
945	 0,211974592586245 
946	 0,208196846073802 
947	 0,206219128181176 
948	 0,206750698731833 
949	 0,206720021387588 
950	 0,205538540831393 
951	 0,203171060664684 
952	 0,201955105647126 
953	 0,201551023464984 
954	 0,201179425345347 
955	 0,200082932989713 
956	 0,198396588521245 
957	 0,196943340197323 
958	 0,19568472545386 
959	 0,194595028426878 
960	 0,193161580560808 
961	 0,192965854082148 
962	 0,194700353383027 
963	 0,193752802729554 
964	 0,191318597588662 
965	 0,190233615580812 
966	 0,189330444856511 
967	 0,18897376306023 
968	 0,191153896649359 
969	 0,192093638998799 
970	 0,190519981020928 
971	 0,189434045614863 
972	 0,1886439858578 
973	 0,1878534465043 
974	 0,187511364692476 
975	 0,188007550691765 
976	 0,189984741045654 
977	 0,188937351921201 
978	 0,185426140212821 
979	 0,18585273897897 
980	 0,187116199203503 
981	 0,187832311624018 
982	 0,189402728029429 
983	 0,191015734194769 
984	 0,191681831913127 
985	 0,190395434023467 
986	 0,188692800697992 
987	 0,189709359472507 
988	 0,192723360224374 
989	 0,195744122895809 
990	 0,192692001286167 
991	 0,18970826807188 
992	 0,190116307050746 
993	 0,192084297457291 
994	 0,193059369534053 
995	 0,191029936119079 
996	 0,192952312783547 
997	 0,19659030817782 
998	 0,195195395877543 
999	 0,194187668243955 
1000	 0,194398812314247 
1001	 0,192667118077566 
1002	 0,193348318999983 
1003	 0,197516939573444 
1004	 0,198097158804641 
1005	 0,196822289637883 
1006	 0,196106320992738 
1007	 0,197055766141875 
1008	 0,199043475790201 
1009	 0,200504166431658 
1010	 0,20138959986289 
1011	 0,201395193197935 
1012	 0,199450989354826 
1013	 0,19967889922871 
1014	 0,202801555447467 
1015	 0,202409717323693 
1016	 0,200167923756875 
1017	 0,198355868150051 
1018	 0,201089239083564 
1019	 0,204887774951369 
1020	 0,203823103932827 
1021	 0,204998429358115 
1022	 0,208439554240677 
1023	 0,209712054970345 
1024	 0,209352034393464 
1025	 0,207696198606606 
1026	 0,205664968994666 
1027	 0,205291718010494 
1028	 0,207451002440892 
1029	 0,208768762213489 
1030	 0,209167987083625 
1031	 0,209117926286477 
1032	 0,210139316484768 
1033	 0,21189608637103 
1034	 0,21323091583188 
1035	 0,210617452888986 
1036	 0,206890022967817 
1037	 0,215871328475394 
1038	 0,220492998327845 
1039	 0,214550689558926 
1040	 0,20992061502205 
1041	 0,20875970556852 
1042	 0,212163921602183 
1043	 0,218265386138306 
1044	 0,223580823720304 
1045	 0,224272464958732 
1046	 0,225029819048713 
1047	 0,22494415749638 
1048	 0,219142289307486 
1049	 0,219245622225784 
1050	 0,225277119392004 
1051	 0,222250017985494 
1052	 0,22057445402815 
1053	 0,224008494507164 
1054	 0,22324652804889 
1055	 0,21853828439564 
1056	 0,211886386386301 
1057	 0,214449250268629 
1058	 0,218630811228743 
1059	 0,212371680857891 
1060	 0,215863464935313 
1061	 0,224297334269757 
1062	 0,216688830412246 
1063	 0,215102104053464 
1064	 0,222284322642162 
1065	 0,222770374208767 
1066	 0,225002267933312 
1067	 0,22856053520392 
1068	 0,211074732836407 
1069	 0,199992362903237 
1070	 0,215038582146677 
1071	 0,225319384458137 
1072	 0,230123033507162 
1073	 0,232469272677608 
1074	 0,233053053487117 
1075	 0,22694288564642 
