Wavelength	BELON00234.asd
325	 4,36528625174372E-02 
326	 8,79567020062888E-02 
327	 9,73780960983119E-02 
328	 3,70082355304313E-02 
329	-5,77266922094508E-03 
330	-3,93353920635062E-03 
331	 4,32863583341215E-02 
332	 5,06049184429504E-02 
333	 1,97346698403781E-02 
334	-3,05293561670093E-02 
335	 1,31580263160526E-02 
336	 0,122448600042775 
337	 7,84674430002278E-02 
338	-2,93248122594972E-02 
339	-0,134032136046419 
340	-8,22017909338441E-02 
341	 4,30156481072836E-02 
342	 2,30612079693432E-02 
343	 1,74678171229329E-02 
344	 4,99261954287067E-02 
345	 1,74158752357098E-02 
346	 7,93618913100358E-04 
347	 7,49906370334811E-02 
348	 0,105733157147482 
349	 8,52136200589651E-02 
350	 5,16435878050013E-02 
351	 4,78396851260131E-02 
352	 8,02247996425725E-02 
353	 8,06245282725083E-02 
354	 0,050432674878521 
355	 5,16348514060358E-03 
356	-7,51017084156347E-03 
357	 1,20216925558219E-02 
358	 4,77416264882962E-02 
359	 4,62210541002214E-02 
360	-5,54048068369197E-03 
361	-5,91455819408581E-03 
362	 1,62303458819258E-02 
363	 4,59574690398961E-03 
364	 8,63186355748687E-03 
365	 2,78626230717628E-02 
366	 1,83574952258418E-02 
367	 1,62254625689257E-02 
368	 3,78544378241935E-02 
369	 3,06992988548477E-02 
370	 1,32488296607086E-02 
371	 3,28197194162851E-02 
372	 2,96888130931638E-02 
373	-1,22153389756566E-04 
374	-3,8722797832097E-03 
375	 1,13641144938743E-02 
376	 3,52045452190644E-02 
377	 4,15382148325348E-02 
378	 3,34913124445043E-02 
379	 0,025856647930026 
380	 1,98659874393334E-02 
381	 1,82869013496148E-02 
382	 3,18332881897532E-02 
383	 0,03297551159918 
384	 3,28209720319786E-04 
385	-5,10181612711322E-03 
386	 1,43123368003384E-02 
387	 2,05980280229068E-02 
388	 2,50508204651567E-02 
389	 2,90506996761279E-02 
390	 1,85504353993023E-02 
391	 0,014619677688919 
392	 4,20984745028063E-02 
393	 4,48862585910665E-02 
394	 2,33530109600762E-02 
395	 1,22841350321676E-02 
396	 0,014510117635681 
397	 2,84520398831346E-02 
398	 2,90055289009847E-02 
399	 2,06605711497183E-02 
400	 1,40199705645959E-02 
401	 1,34800828213877E-02 
402	 0,017180218255409 
403	 1,24259203913846E-02 
404	 7,84395891017181E-03 
405	 0,009327242428878 
406	 1,58631604599875E-02 
407	 0,020825759313838 
408	 1,08195925755829E-02 
409	 8,18218858001151E-03 
410	 1,63577110902929E-02 
411	 1,84158633424023E-02 
412	 1,71701235110654E-02 
413	 1,61961108259594E-02 
414	 1,44457361052526E-02 
415	 0,012800962476818 
416	 1,37114169179233E-02 
417	 1,42048880780592E-02 
418	 1,33194139997456E-02 
419	 1,30452932581924E-02 
420	 1,35257827529681E-02 
421	 1,47037146651092E-02 
422	 0,01511632172469 
423	 1,48033570122485E-02 
424	 1,48467090278046E-02 
425	 1,62012940781197E-02 
426	 0,018835430345779 
427	 1,79317705678982E-02 
428	 1,50991512391747E-02 
429	 1,43885338884282E-02 
430	 1,25768200529958E-02 
431	 1,00119347036828E-02 
432	 1,17910280652478E-02 
433	 1,44286482330058E-02 
434	 1,45682003560476E-02 
435	 9,69854957953483E-03 
436	 4,79913356065395E-03 
437	 1,40863504771436E-02 
438	 1,91760344818857E-02 
439	 1,45769839614989E-02 
440	 1,61738509262081E-02 
441	 1,95114496021968E-02 
442	 1,73392934719592E-02 
443	 1,56191568907785E-02 
444	 1,55085238010311E-02 
445	 1,60590500161391E-02 
446	 1,57509309195454E-02 
447	 1,40584990588927E-02 
448	 1,51828842699739E-02 
449	 1,79965257499082E-02 
450	 1,97664936105086E-02 
451	 1,80866635337863E-02 
452	 1,37156343443946E-02 
453	 1,41669701407707E-02 
454	 1,53258081209936E-02 
455	 1,33103970233052E-02 
456	 1,31555610488977E-02 
457	 1,43665721895029E-02 
458	 1,28285013514451E-02 
459	 1,29713855244418E-02 
460	 1,56970583771493E-02 
461	 1,42422493502795E-02 
462	 1,18982664191654E-02 
463	 1,38326649365201E-02 
464	 1,43287860920395E-02 
465	 1,33160425384448E-02 
466	 1,58989059924259E-02 
467	 1,74250886192414E-02 
468	 1,52846638909911E-02 
469	 1,54482484189644E-02 
470	 1,70685890732163E-02 
471	 1,67784417614486E-02 
472	 1,58463930492499E-02 
473	 1,48314709800378E-02 
474	 1,42585404045145E-02 
475	 1,50009276788754E-02 
476	 1,77124435211978E-02 
477	 1,91303258204065E-02 
478	 1,87045815465436E-02 
479	 0,016678516019163 
480	 1,66228457111642E-02 
481	 1,92292555981931E-02 
482	 1,61469261894409E-02 
483	 0,01165155367586 
484	 1,32652083561058E-02 
485	 1,60681138344292E-02 
486	 1,77718846625492E-02 
487	 1,51524653178431E-02 
488	 1,21275016592988E-02 
489	 1,18514167167659E-02 
490	 1,41176736832758E-02 
491	 1,66368206209882E-02 
492	 1,40721666656091E-02 
493	 1,35871633757716E-02 
494	 1,68300499641028E-02 
495	 1,84890582001498E-02 
496	 1,77211930064442E-02 
497	 1,41598561966149E-02 
498	 1,25116067858184E-02 
499	 1,30069782347966E-02 
500	 1,22246530811561E-02 
501	 1,25005766643217E-02 
502	 1,47833412858154E-02 
503	 1,61458988552019E-02 
504	 1,58306982509868E-02 
505	 1,30877581320223E-02 
506	 1,18628586753453E-02 
507	 1,29095696258402E-02 
508	 1,34806967025801E-02 
509	 1,36349534637113E-02 
510	 1,35066230568411E-02 
511	 1,23175371222478E-02 
512	 1,12936818258387E-02 
513	 1,41962244333838E-02 
514	 1,55011858068924E-02 
515	 1,35655450101931E-02 
516	 1,46710635136635E-02 
517	 1,68196447921892E-02 
518	 1,64182045670295E-02 
519	 0,015911119037292 
520	 1,57228946229897E-02 
521	 1,51140416578169E-02 
522	 1,42701878754621E-02 
523	 1,34769025137766E-02 
524	 1,42388500521257E-02 
525	 1,57587691213153E-02 
526	 1,58735053980594E-02 
527	 1,54265561836389E-02 
528	 1,48201362720377E-02 
529	 1,48124502063701E-02 
530	 1,47935274232171E-02 
531	 0,014013442650046 
532	 1,34714963137309E-02 
533	 1,35676131675784E-02 
534	 1,49477221890761E-02 
535	 1,56064804783015E-02 
536	 1,44935503367693E-02 
537	 1,35051511204832E-02 
538	 1,33004862363378E-02 
539	 1,46032157820453E-02 
540	 1,56567090453847E-02 
541	 1,58361840680235E-02 
542	 1,53776898266569E-02 
543	 1,48612351408509E-02 
544	 1,48022728899033E-02 
545	 1,42232983820709E-02 
546	 1,33027051614184E-02 
547	 1,29022270926882E-02 
548	 1,32377298643746E-02 
549	 1,42586077900406E-02 
550	 1,47267134672611E-02 
551	 1,48456569868608E-02 
552	 1,52049055725791E-02 
553	 1,50370346971344E-02 
554	 1,43774242096966E-02 
555	 1,42178740548906E-02 
556	 1,40761682432821E-02 
557	 1,35929394449756E-02 
558	 1,37929738481304E-02 
559	 1,43407803909443E-02 
560	 1,38415987092652E-02 
561	 1,38940645196896E-02 
562	 1,49209784490381E-02 
563	 1,54482664402948E-02 
564	 1,52735786137771E-02 
565	 1,43205234061401E-02 
566	 1,43729864593867E-02 
567	 0,015280298577233 
568	 1,46384604958726E-02 
569	 1,41468094265344E-02 
570	 1,48793945899557E-02 
571	 1,50457800984916E-02 
572	 1,46566513971312E-02 
573	 1,43236646872203E-02 
574	 1,40603383679867E-02 
575	 1,40588113259042E-02 
576	 0,01495698279734 
577	 1,61619027007589E-02 
578	 1,69569733349175E-02 
579	 1,72769225624442E-02 
580	 1,70337392052471E-02 
581	 1,58493550880812E-02 
582	 1,56599695294946E-02 
583	 1,72805423066685E-02 
584	 1,75441100296683E-02 
585	 1,68735894036666E-02 
586	 1,67503889507587E-02 
587	 1,68629512724317E-02 
588	 1,71997656991953E-02 
589	 1,80025025680003E-02 
590	 1,83727755383004E-02 
591	 1,75612867057151E-02 
592	 0,017412518782875 
593	 1,79291909761832E-02 
594	 1,80476555354572E-02 
595	 0,018158133158836 
596	 1,83480224442028E-02 
597	 1,81000489359159E-02 
598	 1,78326073190923E-02 
599	 1,82490044087487E-02 
600	 1,83459744692814E-02 
601	 0,017947858196304 
602	 1,74706054798124E-02 
603	 1,73933215406109E-02 
604	 1,79986495599935E-02 
605	 1,80602255000894E-02 
606	 1,75801959005108E-02 
607	 1,70280876009406E-02 
608	 1,68805982100026E-02 
609	 1,72458710494961E-02 
610	 1,74325668651402E-02 
611	 1,72041787364766E-02 
612	 1,63682933793113E-02 
613	 1,54944884124803E-02 
614	 1,50558188177844E-02 
615	 1,60384766888778E-02 
616	 1,68913460796862E-02 
617	 1,66471468275459E-02 
618	 1,63831179824978E-02 
619	 1,62681624596861E-02 
620	 1,63389206898002E-02 
621	 1,62007257625113E-02 
622	 1,58134743650128E-02 
623	 1,56123910126281E-02 
624	 1,57716696583244E-02 
625	 1,63922650054378E-02 
626	 1,61581323008884E-02 
627	 1,54296394222161E-02 
628	 1,61390384513287E-02 
629	 1,68191731782513E-02 
630	 0,016766878660096 
631	 0,016757617482048 
632	 1,68683378991577E-02 
633	 1,70934091713555E-02 
634	 1,70041413012845E-02 
635	 1,67144776795803E-02 
636	 1,72928945795174E-02 
637	 1,77021284963156E-02 
638	 1,71676489404067E-02 
639	 1,79645846557777E-02 
640	 1,93930540633541E-02 
641	 1,86179928846311E-02 
642	 1,79233465916017E-02 
643	 1,81774359939606E-02 
644	 1,86903065949395E-02 
645	 1,90187067381541E-02 
646	 1,86761738955209E-02 
647	 1,84869074664765E-02 
648	 1,86413799346937E-02 
649	 1,89868585218519E-02 
650	 1,92939631715636E-02 
651	 1,93904136946317E-02 
652	 1,93961270175756E-02 
653	 1,90765161714167E-02 
654	 1,78434778551311E-02 
655	 1,70350253731555E-02 
656	 1,70798061130245E-02 
657	 1,74947960214436E-02 
658	 1,77738232247522E-02 
659	 1,74442903149058E-02 
660	 1,70232964265952E-02 
661	 1,66624647328168E-02 
662	 1,64636641377104E-02 
663	 1,61148629715903E-02 
664	 1,55184375873994E-02 
665	 0,015206179225666 
666	 1,50170672564529E-02 
667	 1,45709336934922E-02 
668	 1,46633445386877E-02 
669	 1,52924639318269E-02 
670	 1,55876882714763E-02 
671	 1,56274814612692E-02 
672	 1,55077076593776E-02 
673	 1,54068226174091E-02 
674	 1,53338149148851E-02 
675	 1,51950351182684E-02 
676	 1,50918714828235E-02 
677	 1,50459688907261E-02 
678	 1,48406577799474E-02 
679	 1,49953456603959E-02 
680	 1,61113571112232E-02 
681	 1,63199923076366E-02 
682	 1,57163510359953E-02 
683	 1,61465187836637E-02 
684	 1,65771561652441E-02 
685	 1,64549035713345E-02 
686	 0,016413674720266 
687	 1,66692085144287E-02 
688	 1,74582482612811E-02 
689	 1,81805867437577E-02 
690	 1,86946932147272E-02 
691	 1,92786377381632E-02 
692	 0,020107153857831 
693	 2,13316218842279E-02 
694	 2,28359067596706E-02 
695	 2,48418442597067E-02 
696	 2,80233964210584E-02 
697	 3,12134467731979E-02 
698	 3,40375561058571E-02 
699	 0,037506993183071 
700	 4,15006239239234E-02 
701	 4,57355227175101E-02 
702	 5,07030890640561E-02 
703	 5,62330446449314E-02 
704	 6,15670684431429E-02 
705	 6,65909611475177E-02 
706	 7,13571070506546E-02 
707	 7,71149307855761E-02 
708	 8,32076233950261E-02 
709	 8,80991287303646E-02 
710	 9,30370059194075E-02 
711	 9,83289679347065E-02 
712	 0,103670997264826 
713	 0,108548728033352 
714	 0,11256386406572 
715	 0,117033306545551 
716	 0,121737905076067 
717	 0,125426552349342 
718	 0,128939700749832 
719	 0,132545964161525 
720	 0,135721059637542 
721	 0,138678779315559 
722	 0,141730091217611 
723	 0,14417782755381 
724	 0,146153582017434 
725	 0,148600429571122 
726	 0,151009618683309 
727	 0,153032047725873 
728	 0,154555214907647 
729	 0,155700519776942 
730	 0,156661222953336 
731	 0,158062493227359 
732	 0,159810573258505 
733	 0,160519196301584 
734	 0,16114753517063 
735	 0,162506007486265 
736	 0,163312860738011 
737	 0,163757992238987 
738	 0,164920690311316 
739	 0,165859927933361 
740	 0,166306936675307 
741	 0,166888766633612 
742	 0,167417406432974 
743	 0,167629418643246 
744	 0,167887285702989 
745	 0,16828406640666 
746	 0,168804906873618 
747	 0,169391893283226 
748	 0,169945459252565 
749	 0,170111662767865 
750	 0,1700160481485 
751	 0,169892537642622 
752	 0,170291680740813 
753	 0,171083405187659 
754	 0,171129108459367 
755	 0,171086602423701 
756	 0,171430780934548 
757	 0,171791327150583 
758	 0,172043890536176 
759	 0,172050752571189 
760	 0,172003056069987 
761	 0,172024450327174 
762	 0,172303419006558 
763	 0,172661393025658 
764	 0,172916853799628 
765	 0,173071794033669 
766	 0,173184817737014 
767	 0,173411985063783 
768	 0,173673158019854 
769	 0,173880449841106 
770	 0,173707377366061 
771	 0,173572251972085 
772	 0,17397973104836 
773	 0,174297572371413 
774	 0,174444177841571 
775	 0,174707411043814 
776	 0,174666360461732 
777	 0,17424520369161 
778	 0,174504869033226 
779	 0,17502160181747 
780	 0,174999124683744 
781	 0,175171695533382 
782	 0,175539070564639 
783	 0,175420954503472 
784	 0,17525998428306 
785	 0,175357447748354 
786	 0,175621073214515 
787	 0,175834384482587 
788	 0,175606863000856 
789	 0,175833353716717 
790	 0,176522824609902 
791	 0,176561455677689 
792	 0,176283332817679 
793	 0,176021987380162 
794	 0,176061306639128 
795	 0,176331281220076 
796	 0,176553837581676 
797	 0,176815393206674 
798	 0,177052912359962 
799	 0,176954014290001 
800	 0,176677678009348 
801	 0,17643406440521 
802	 0,176815069062528 
803	 0,177519951414397 
804	 0,177475464386329 
805	 0,177553309272004 
806	 0,177960767523952 
807	 0,178009680801153 
808	 0,178107823325459 
809	 0,178682403083332 
810	 0,178404605739817 
811	 0,177614899147881 
812	 0,178036200021282 
813	 0,178438962308263 
814	 0,178390747622181 
815	 0,17855065678627 
816	 0,178889168208273 
817	 0,179300404683755 
818	 0,179490489073984 
819	 0,179493601794106 
820	 0,179679895457172 
821	 0,179652210833854 
822	 0,179381552881609 
823	 0,17995643003541 
824	 0,180561395242882 
825	 0,180046487319552 
826	 0,179968659815569 
827	 0,180385567195063 
828	 0,180238574129583 
829	 0,180054755388188 
830	 0,18008641545333 
831	 0,18007049618919 
832	 0,180222727328257 
833	 0,180857352047641 
834	 0,180743743906331 
835	 0,180045459737058 
836	 0,180349067991794 
837	 0,180758884366907 
838	 0,180812656339998 
839	 0,180892404855502 
840	 0,180991576241168 
841	 0,181051128929652 
842	 0,181010884373186 
843	 0,181022573135814 
844	 0,181703421362178 
845	 0,182006281745412 
846	 0,181447666396968 
847	 0,181038045643047 
848	 0,180933420967205 
849	 0,181165379219827 
850	 0,181277835676734 
851	 0,181195653069148 
852	 0,181085399177543 
853	 0,181217577706324 
854	 0,181679996451287 
855	 0,181943099062119 
856	 0,182110127278892 
857	 0,182410071739379 
858	 0,181942416102945 
859	 0,181044034298184 
860	 0,181489290972449 
861	 0,181864821867901 
862	 0,181615877359817 
863	 0,182333680980145 
864	 0,183003684353178 
865	 0,182161845773361 
866	 0,182416444789309 
867	 0,183540892761047 
868	 0,182893699882473 
869	 0,182179620547067 
870	 0,182218679895094 
871	 0,182740682879795 
872	 0,183096851140795 
873	 0,182574328889938 
874	 0,182227695913611 
875	 0,182350901473102 
876	 0,183059050748475 
877	 0,183692528652916 
878	 0,183925865218093 
879	 0,1838807454784 
880	 0,183778688504511 
881	 0,183832632707176 
882	 0,183590854785829 
883	 0,18319912618185 
884	 0,183205333600802 
885	 0,183503588917309 
886	 0,184052376502346 
887	 0,184882852707074 
888	 0,185283589589132 
889	 0,184685095207877 
890	 0,184385552370875 
891	 0,184550415913995 
892	 0,184997064561183 
893	 0,185170586705121 
894	 0,184957571881384 
895	 0,184871887607319 
896	 0,184808598316723 
897	 0,18470937337775 
898	 0,18495038017781 
899	 0,185240885034449 
900	 0,184944405664626 
901	 0,185228454069332 
902	 0,186060987075 
903	 0,186088673435151 
904	 0,185718987650806 
905	 0,185301075401828 
906	 0,185298562415998 
907	 0,185562458716581 
908	 0,185781146268937 
909	 0,185531223153288 
910	 0,18504279415815 
911	 0,185452988544316 
912	 0,18556217145949 
913	 0,18502391063624 
914	 0,185452496535496 
915	 0,185916708703869 
916	 0,185313815721336 
917	 0,185307451524891 
918	 0,18574888828195 
919	 0,185356146518966 
920	 0,185242426887194 
921	 0,185630261718806 
922	 0,185714988525472 
923	 0,185531337361343 
924	 0,185182259496718 
925	 0,18518339052701 
926	 0,18504751598035 
927	 0,18373308246729 
928	 0,182827906144403 
929	 0,182784636944105 
930	 0,183311148917829 
931	 0,184150126835042 
932	 0,184821194410458 
933	 0,183523228732391 
934	 0,181650428101721 
935	 0,181231375499018 
936	 0,181651960697176 
937	 0,182334825617238 
938	 0,182164695044861 
939	 0,181187482368212 
940	 0,179734530165756 
941	 0,179342966107091 
942	 0,179579039256477 
943	 0,179796985177067 
944	 0,178418758258782 
945	 0,176201049658604 
946	 0,174988615148219 
947	 0,174905871930456 
948	 0,175490972798365 
949	 0,174819473673387 
950	 0,174017431272062 
951	 0,173600952333856 
952	 0,172428824410843 
953	 0,171157272877196 
954	 0,1706540828476 
955	 0,169619237630196 
956	 0,16803131139488 
957	 0,166361628337283 
958	 0,165803992229419 
959	 0,166585961095397 
960	 0,167629388259174 
961	 0,167663024617139 
962	 0,166045320716671 
963	 0,165726158982987 
964	 0,165979088721689 
965	 0,165039863934443 
966	 0,164791408392214 
967	 0,165096038842856 
968	 0,16389350076275 
969	 0,163881491670138 
970	 0,165524492944392 
971	 0,164800151079563 
972	 0,163448370305305 
973	 0,163273665331947 
974	 0,16323619215119 
975	 0,163848393537318 
976	 0,166353033428531 
977	 0,165702801679965 
978	 0,162184573879811 
979	 0,161807446388519 
980	 0,162364156571214 
981	 0,162885236329501 
982	 0,164269973417156 
983	 0,165351801210336 
984	 0,164986778142781 
985	 0,164184289432113 
986	 0,16407016601941 
987	 0,166371801243515 
988	 0,168586703484485 
989	 0,169459669985482 
990	 0,167638091033141 
991	 0,165883393529375 
992	 0,165747680458944 
993	 0,166325717946928 
994	 0,166808288245647 
995	 0,166600261933147 
996	 0,168354706223493 
997	 0,170615003677661 
998	 0,169683147922693 
999	 0,169784349378876 
1000	 0,170981848245474 
1001	 0,168629967921013 
1002	 0,168437820083546 
1003	 0,172331724743355 
1004	 0,173698300796799 
1005	 0,172972247219619 
1006	 0,171404249050374 
1007	 0,171997826846611 
1008	 0,174335088363473 
1009	 0,176644777893197 
1010	 0,176123397056087 
1011	 0,17328096085183 
1012	 0,172166974050833 
1013	 0,174102463593942 
1014	 0,17828644405057 
1015	 0,177525369928018 
1016	 0,173822033997643 
1017	 0,170137866215316 
1018	 0,173093487622277 
1019	 0,177865547590222 
1020	 0,175994669226175 
1021	 0,176825283038274 
1022	 0,180572574308303 
1023	 0,181933658524786 
1024	 0,18137923274295 
1025	 0,179571209772371 
1026	 0,179355433001635 
1027	 0,179349714336469 
1028	 0,178662607526864 
1029	 0,177623858949721 
1030	 0,178594810815473 
1031	 0,183811881831695 
1032	 0,18663022984173 
1033	 0,186504087777963 
1034	 0,185327381876366 
1035	 0,185009739352982 
1036	 0,186141440907772 
1037	 0,188214758823299 
1038	 0,189258920340717 
1039	 0,188249847312107 
1040	 0,185429561578645 
1041	 0,183140353387028 
1042	 0,183337412997365 
1043	 0,185569271141588 
1044	 0,187882332098492 
1045	 0,188010670716285 
1046	 0,192423708429485 
1047	 0,197153218185762 
1048	 0,189815603618716 
1049	 0,187245538607335 
1050	 0,191072293714752 
1051	 0,185703197137066 
1052	 0,184262188271614 
1053	 0,191363938403032 
1054	 0,194220994464574 
1055	 0,194535995531579 
1056	 0,194214089330269 
1057	 0,190857452917859 
1058	 0,187887037301001 
1059	 0,190051615128815 
1060	 0,193036329784695 
1061	 0,19591648161321 
1062	 0,199383908540699 
1063	 0,19596297643854 
1064	 0,187044755672948 
1065	 0,185684473897315 
1066	 0,19154997701315 
1067	 0,200659905696304 
1068	 0,195467883887532 
1069	 0,183858995992458 
1070	 0,175353739831665 
1071	 0,178784677131983 
1072	 0,187667349472218 
1073	 0,192537516690255 
1074	 0,193450643471241 
1075	 0,190432868999391 
