Wavelength	BELON00037.asd
325	 0,256062506164663 
326	 8,76366975540529E-02 
327	 7,12150317401758E-02 
328	 0,168412293035668 
329	 3,60453760048081E-02 
330	-5,52386376783219E-02 
331	 0,136620150239747 
332	 0,12374664718875 
333	 4,80492023832404E-04 
334	 9,83099466612028E-02 
335	 0,150390300780602 
336	 0,109740652228494 
337	 4,65731108794842E-02 
338	-2,60785543557492E-02 
339	-0,108758339668429 
340	-2,00533135134749E-02 
341	 0,149904376979242 
342	 0,205831708612143 
343	 0,184574958626527 
344	 0,116060406202966 
345	 9,79567039026096E-02 
346	 0,117449085166926 
347	 0,15245392489349 
348	 0,1748578985016 
349	 0,175955801393907 
350	 0,150217198043312 
351	 0,128852868358127 
352	 0,129124777221525 
353	 0,17713024145072 
354	 0,208504910368103 
355	 0,143198182792217 
356	 0,104128700882604 
357	 0,108255757571589 
358	 0,141703876111634 
359	 0,155924804450595 
360	 0,136940011935824 
361	 0,162264961048696 
362	 0,194874021517077 
363	 0,174136955869927 
364	 0,153240933199741 
365	 0,148725274348479 
366	 0,174479620810092 
367	 0,1851338301155 
368	 0,158751992292713 
369	 0,147470398277718 
370	 0,150843283503211 
371	 0,157200439355279 
372	 0,162340642089465 
373	 0,162823682246071 
374	 0,151500317192301 
375	 0,152039210589552 
376	 0,178232808232353 
377	 0,179665179503063 
378	 0,166479233822904 
379	 0,176679338493735 
380	 0,181794924400935 
381	 0,177160248897947 
382	 0,186293763202479 
383	 0,189478991700377 
384	 0,169710226863112 
385	 0,15268798904845 
386	 0,147688217531473 
387	 0,165035609365106 
388	 0,174469102787788 
389	 0,166017178963291 
390	 0,155969101367838 
391	 0,156679668054671 
392	 0,180310431355023 
393	 0,185366294032596 
394	 0,175122734141594 
395	 0,188421563708313 
396	 0,196387883961107 
397	 0,186333572081806 
398	 0,182957201705459 
399	 0,183457364903407 
400	 0,179358114452637 
401	 0,179277322891497 
402	 0,181597479483533 
403	 0,171072013838217 
404	 0,167857744289054 
405	 0,183087674562361 
406	 0,187252736935663 
407	 0,18230714928613 
408	 0,181107483105144 
409	 0,179801765177147 
410	 0,178975359971219 
411	 0,185657795879034 
412	 0,189292923249369 
413	 0,181040671697354 
414	 0,177070880545859 
415	 0,179014345126343 
416	 0,183143091695397 
417	 0,186724093703158 
418	 0,188119239985015 
419	 0,186534326710743 
420	 0,18382859703413 
421	 0,18240983104206 
422	 0,179858398676817 
423	 0,177406302384843 
424	 0,180670591327764 
425	 0,183490362953412 
426	 0,182228084014717 
427	 0,180596617324733 
428	 0,180486258180565 
429	 0,184469558142831 
430	 0,187721012124854 
431	 0,188871080589294 
432	 0,189370095193364 
433	 0,189864348614695 
434	 0,190636629496487 
435	 0,186849748417627 
436	 0,181915477672815 
437	 0,186443118052825 
438	 0,190582230600423 
439	 0,190652931384515 
440	 0,190835222474168 
441	 0,190373956372352 
442	 0,1879102665206 
443	 0,187655076489992 
444	 0,189453426291496 
445	 0,188940214981933 
446	 0,188900530722562 
447	 0,190742600086813 
448	 0,19128343160078 
449	 0,190333487009197 
450	 0,188058411649077 
451	 0,188678552193718 
452	 0,192695649625715 
453	 0,195834568626936 
454	 0,196384192434127 
455	 0,193338740754365 
456	 0,192517148027437 
457	 0,194091548109619 
458	 0,194859232127813 
459	 0,19726602869687 
460	 0,200914584184901 
461	 0,197580028179978 
462	 0,193028517014179 
463	 0,195837746237795 
464	 0,196984319856312 
465	 0,194970912869796 
466	 0,192459391211395 
467	 0,191664956336139 
468	 0,193826107897662 
469	 0,195666430683703 
470	 0,19716006408781 
471	 0,199644405167032 
472	 0,199947018170355 
473	 0,197815479693455 
474	 0,197051031327855 
475	 0,197135663878827 
476	 0,197336595788375 
477	 0,19795445868749 
478	 0,198464496868563 
479	 0,197250053786086 
480	 0,196957995632487 
481	 0,198431987958092 
482	 0,198145862455897 
483	 0,197113346257845 
484	 0,197395156864122 
485	 0,197620663639855 
486	 0,197203809832834 
487	 0,195165777109316 
488	 0,193694875519889 
489	 0,194444157236758 
490	 0,196380927594855 
491	 0,198053781450678 
492	 0,196715435573012 
493	 0,195575849447316 
494	 0,195618215663493 
495	 0,195409939105677 
496	 0,194944460411716 
497	 0,194330448439504 
498	 0,1934868320393 
499	 0,192922591928752 
500	 0,194150659847316 
501	 0,195404023001959 
502	 0,195825834990437 
503	 0,197470567356393 
504	 0,199177784258103 
505	 0,198566001189996 
506	 0,197480795627627 
507	 0,196890308382197 
508	 0,198140478553791 
509	 0,199699415572646 
510	 0,200174858805773 
511	 0,20087937025501 
512	 0,202168847336813 
513	 0,204762534356231 
514	 0,205180430436899 
515	 0,202791644819048 
516	 0,204162890682845 
517	 0,206876002636917 
518	 0,206700572475402 
519	 0,206351463791136 
520	 0,206531019922003 
521	 0,207528735008959 
522	 0,207257215327705 
523	 0,204625561234932 
524	 0,204993181657862 
525	 0,207247692002495 
526	 0,207033347578817 
527	 0,206382659308586 
528	 0,205978606826261 
529	 0,2060282947744 
530	 0,206027723954799 
531	 0,205389765167216 
532	 0,204875855225964 
533	 0,204957469656422 
534	 0,206698576354206 
535	 0,207598469665376 
536	 0,206358223027958 
537	 0,205510119185973 
538	 0,205376797470634 
539	 0,205888868745971 
540	 0,206145296225893 
541	 0,206034271110366 
542	 0,206623401818605 
543	 0,207409583561388 
544	 0,207824481341381 
545	 0,207112083870573 
546	 0,206007967916935 
547	 0,206922706596002 
548	 0,207959317748873 
549	 0,208243474991631 
550	 0,208734440513738 
551	 0,209210363707977 
552	 0,209218312912388 
553	 0,208521184770122 
554	 0,20745624924378 
555	 0,207591256396152 
556	 0,207828508499907 
557	 0,207270533030964 
558	 0,206992219777995 
559	 0,206946132768097 
560	 0,206566795949857 
561	 0,205987515618485 
562	 0,205363338002476 
563	 0,205357103542669 
564	 0,205299225652604 
565	 0,204233045030037 
566	 0,204232615549888 
567	 0,205318801931305 
568	 0,20561921658048 
569	 0,20570786079924 
570	 0,20602265105762 
571	 0,206733025973721 
572	 0,207697675700526 
573	 0,208508584370987 
574	 0,209515307950551 
575	 0,210925794576647 
576	 0,213153693037173 
577	 0,215438933934306 
578	 0,216933807123586 
579	 0,218893187665451 
580	 0,221070635238508 
581	 0,221733486122069 
582	 0,222679924387417 
583	 0,224775257903445 
584	 0,226170295476387 
585	 0,226974912842538 
586	 0,227832998499465 
587	 0,228280247493961 
588	 0,228469128966094 
589	 0,229512005198183 
590	 0,230716776581656 
591	 0,231407766943585 
592	 0,232159791603543 
593	 0,232854586998124 
594	 0,232860398702749 
595	 0,232889114322279 
596	 0,233261766736737 
597	 0,23365630933192 
598	 0,233935995116373 
599	 0,233968851023383 
600	 0,233637810939463 
601	 0,233052242350538 
602	 0,232738914502362 
603	 0,23238031416152 
604	 0,231754058459886 
605	 0,231425041567074 
606	 0,231190519477831 
607	 0,230332610186131 
608	 0,229373580579959 
609	 0,22857930743783 
610	 0,228253234932319 
611	 0,227831622386609 
612	 0,226605815263462 
613	 0,225435307593127 
614	 0,224598807545609 
615	 0,224186308104576 
616	 0,223997784765781 
617	 0,223841165617645 
618	 0,22330471264489 
619	 0,222702386134289 
620	 0,222817085380008 
621	 0,222615043339769 
622	 0,221973041442738 
623	 0,222036385513157 
624	 0,222280459719912 
625	 0,22210979436529 
626	 0,221878827007457 
627	 0,221866272326019 
628	 0,222714040769386 
629	 0,223308218962963 
630	 0,223230813489255 
631	 0,224067090222696 
632	 0,225303004774822 
633	 0,225825570398283 
634	 0,22620472358063 
635	 0,226635275879179 
636	 0,227183950361451 
637	 0,22799178892282 
638	 0,229171722856509 
639	 0,230675840164541 
640	 0,232193242021788 
641	 0,233060796822137 
642	 0,233795897912839 
643	 0,234559568833651 
644	 0,235034847070807 
645	 0,235323255441668 
646	 0,235588470919651 
647	 0,235706831896377 
648	 0,235641404786228 
649	 0,235410170460566 
650	 0,234925155917645 
651	 0,234099113675122 
652	 0,232712720711725 
653	 0,231020394958799 
654	 0,229568406140481 
655	 0,228037925261251 
656	 0,226444593797639 
657	 0,225369713732099 
658	 0,224036477903478 
659	 0,221659925564638 
660	 0,219611760067282 
661	 0,21792994375277 
662	 0,215822525990886 
663	 0,213502782365388 
664	 0,211225213845805 
665	 0,209971401907602 
666	 0,209122705576442 
667	 0,207515960991064 
668	 0,206497151882305 
669	 0,206152683862317 
670	 0,205273845049249 
671	 0,204505461544429 
672	 0,204339156965056 
673	 0,204026342491264 
674	 0,203501171646003 
675	 0,202871316389527 
676	 0,202565626341643 
677	 0,202680965989193 
678	 0,202641775264938 
679	 0,20266061728652 
680	 0,203040313381096 
681	 0,203377691682811 
682	 0,203766476200587 
683	 0,204697929544358 
684	 0,206210249014823 
685	 0,208232786089245 
686	 0,209793171564769 
687	 0,211804506975703 
688	 0,216124701481281 
689	 0,220445818757481 
690	 0,224417915119175 
691	 0,22971690033623 
692	 0,236017750091926 
693	 0,242981549357274 
694	 0,250775096528569 
695	 0,259587932685884 
696	 0,269838020726437 
697	 0,280931144175412 
698	 0,292476849793362 
699	 0,303876453911419 
700	 0,315821099924073 
701	 0,329268464489404 
702	 0,342724912497473 
703	 0,355693818278078 
704	 0,368173503956463 
705	 0,380525063234925 
706	 0,392882869987116 
707	 0,404422287778268 
708	 0,415149315028308 
709	 0,425292146810513 
710	 0,43549063691209 
711	 0,445743937065998 
712	 0,455210890839707 
713	 0,463520281581128 
714	 0,47045109006768 
715	 0,477512591137474 
716	 0,48468082068405 
717	 0,491040973559584 
718	 0,49701254332433 
719	 0,50266044907972 
720	 0,507491277500768 
721	 0,511869028163334 
722	 0,516280278520593 
723	 0,520233929575279 
724	 0,523649322907944 
725	 0,526494418304853 
726	 0,529436820989815 
727	 0,532766039761232 
728	 0,535121320207856 
729	 0,536759860069323 
730	 0,538469771496684 
731	 0,540030336872141 
732	 0,541477113878387 
733	 0,543110912166018 
734	 0,544529024450784 
735	 0,545418453714408 
736	 0,546595042070585 
737	 0,54795085446625 
738	 0,548835563333369 
739	 0,549586184292535 
740	 0,550313379683641 
741	 0,550924865367981 
742	 0,551474888292406 
743	 0,552031120569455 
744	 0,552491825705743 
745	 0,552923116245455 
746	 0,553612184664136 
747	 0,554179634235549 
748	 0,554440641416947 
749	 0,554691365636814 
750	 0,554908137731058 
751	 0,554984774907902 
752	 0,555331406690568 
753	 0,555875416752363 
754	 0,555885971795873 
755	 0,555870109943639 
756	 0,556186985501581 
757	 0,556508397472528 
758	 0,556681672209588 
759	 0,55647999937733 
760	 0,556429807566062 
761	 0,556651617566044 
762	 0,556779273984552 
763	 0,556833815566758 
764	 0,556854337495529 
765	 0,556861055303803 
766	 0,556893507759686 
767	 0,557026389292876 
768	 0,557218846870387 
769	 0,557389496533536 
770	 0,557208709588778 
771	 0,556966336500864 
772	 0,557027241202771 
773	 0,556983692175706 
774	 0,556908302121071 
775	 0,557371784620325 
776	 0,557484440543848 
777	 0,556949499125901 
778	 0,557265377900028 
779	 0,557705946093447 
780	 0,556962265496795 
781	 0,556931456075788 
782	 0,557662035800423 
783	 0,557488943307009 
784	 0,556974674809534 
785	 0,556556217483585 
786	 0,556560854397779 
787	 0,556799811253249 
788	 0,556836368241905 
789	 0,556906945998328 
790	 0,556972728519491 
791	 0,556599366317241 
792	 0,556371613026196 
793	 0,556718408992913 
794	 0,556929275845684 
795	 0,556869912146553 
796	 0,556486817652986 
797	 0,55642989549738 
798	 0,556734439637793 
799	 0,556323141119186 
800	 0,555959966789157 
801	 0,556358840220105 
802	 0,556500376792595 
803	 0,556442298255005 
804	 0,556882459737965 
805	 0,55710105938185 
806	 0,55687818275627 
807	 0,556582411905819 
808	 0,556354310091454 
809	 0,5563142168065 
810	 0,556425954781198 
811	 0,556570308008091 
812	 0,556444454429969 
813	 0,556377955504394 
814	 0,55648164978394 
815	 0,556479816855486 
816	 0,556530599879291 
817	 0,556838348378706 
818	 0,557187018305933 
819	 0,557356479759727 
820	 0,556871664235076 
821	 0,556363089609267 
822	 0,556211968555037 
823	 0,556606213729597 
824	 0,557097619818554 
825	 0,557097559848522 
826	 0,557038428132858 
827	 0,55696593913113 
828	 0,556669714876402 
829	 0,556506026916391 
830	 0,556609362420358 
831	 0,556504950888575 
832	 0,55629671442338 
833	 0,55619680294431 
834	 0,55597948251408 
835	 0,55573290118703 
836	 0,555916197021425 
837	 0,556073547031672 
838	 0,555950926418916 
839	 0,555623347777351 
840	 0,555526835135746 
841	 0,556238906576975 
842	 0,556572977136211 
843	 0,556353618091534 
844	 0,556069142667738 
845	 0,556053624740277 
846	 0,556406780336903 
847	 0,55630081506409 
848	 0,556041767692758 
849	 0,55619066624164 
850	 0,556211426741768 
851	 0,556062192627137 
852	 0,556081525155969 
853	 0,555931239178828 
854	 0,555544947188018 
855	 0,555736601374824 
856	 0,55624812827625 
857	 0,556604454004115 
858	 0,555746735276642 
859	 0,554343516712437 
860	 0,555395258489462 
861	 0,556460364757452 
862	 0,556365816531567 
863	 0,556515686121758 
864	 0,556561520104184 
865	 0,555910260450441 
866	 0,556382106724615 
867	 0,557466088839065 
868	 0,5561803100679 
869	 0,555306080553151 
870	 0,55593871455543 
871	 0,555904285318664 
872	 0,555671570611018 
873	 0,556017985840231 
874	 0,556388888993419 
875	 0,556451143053892 
876	 0,555504801327708 
877	 0,555211075135848 
878	 0,55599705211061 
879	 0,555785690718055 
880	 0,555336447659479 
881	 0,555592133902679 
882	 0,55530027526509 
883	 0,554780211442664 
884	 0,555583585247029 
885	 0,555999273259512 
886	 0,555526682987302 
887	 0,555101485205268 
888	 0,55474992033094 
889	 0,554485872427031 
890	 0,554779194103404 
891	 0,555300347744479 
892	 0,555146301583344 
893	 0,555217761290762 
894	 0,555577985810201 
895	 0,555270004598954 
896	 0,554523911282879 
897	 0,553655062393433 
898	 0,553539229349016 
899	 0,55383982700532 
900	 0,553652193946751 
901	 0,554179495144027 
902	 0,555270201055946 
903	 0,555274013550632 
904	 0,554494955183023 
905	 0,55337472830683 
906	 0,553500043506494 
907	 0,55409822752895 
908	 0,553788363244474 
909	 0,553389312978979 
910	 0,553120423404256 
911	 0,553043839234006 
912	 0,553072971929339 
913	 0,553089771858399 
914	 0,552743064778605 
915	 0,552224224488265 
916	 0,551802985531819 
917	 0,551857800840419 
918	 0,552134448003879 
919	 0,551816793568552 
920	 0,551292506332701 
921	 0,550808007496347 
922	 0,550911795350227 
923	 0,550831351814052 
924	 0,549953434247144 
925	 0,548930701213973 
926	 0,548397534763868 
927	 0,549338229927391 
928	 0,548720736391439 
929	 0,546741969828528 
930	 0,547568271140536 
931	 0,548382686460927 
932	 0,547569383542032 
933	 0,546363960548071 
934	 0,545278334846641 
935	 0,544790358003795 
936	 0,544644801397197 
937	 0,544480879365604 
938	 0,543469678383599 
939	 0,542650669815542 
940	 0,542228551944304 
941	 0,540975274057271 
942	 0,539964307458394 
943	 0,539972068035297 
944	 0,538084899457446 
945	 0,535630258524506 
946	 0,535900335621369 
947	 0,536380945406613 
948	 0,536158977229642 
949	 0,534835308714757 
950	 0,533134683012637 
951	 0,531616098663717 
952	 0,530696222888193 
953	 0,530017135163804 
954	 0,529047935438717 
955	 0,527031870502384 
956	 0,524445879674292 
957	 0,522766203058618 
958	 0,521996417866476 
959	 0,522055990101995 
960	 0,522481519688169 
961	 0,522126024006192 
962	 0,520406757639704 
963	 0,520116537060341 
964	 0,520204317890793 
965	 0,518483274231758 
966	 0,517379410573318 
967	 0,517293447450536 
968	 0,517480751155163 
969	 0,517695150507519 
970	 0,51758998544886 
971	 0,516235391792381 
972	 0,515142531707937 
973	 0,515613234277601 
974	 0,515616508049233 
975	 0,516007109738119 
976	 0,519004696428995 
977	 0,518389733830178 
978	 0,514382169609765 
979	 0,513765504623493 
980	 0,514858652208945 
981	 0,516634142389284 
982	 0,518108525024576 
983	 0,51839913190451 
984	 0,516910806460322 
985	 0,51556843617746 
986	 0,514866876216423 
987	 0,514831214592024 
988	 0,516710457477897 
989	 0,519492808953769 
990	 0,518657626701092 
991	 0,516993854581496 
992	 0,516188061610517 
993	 0,516420577531806 
994	 0,516913492847175 
995	 0,516887524051708 
996	 0,517600611116507 
997	 0,518445576961835 
998	 0,517830167446803 
999	 0,518020796926419 
1000	 0,519329581853863 
1001	 0,520559941604718 
1002	 0,520697284576068 
1003	 0,519737781316583 
1004	 0,520940503900801 
1005	 0,52261568640791 
1006	 0,523037546348492 
1007	 0,525064064183673 
1008	 0,526397959094466 
1009	 0,522271023903411 
1010	 0,522507988205342 
1011	 0,526987085461579 
1012	 0,52612517758762 
1013	 0,524714955290363 
1014	 0,52491204927667 
1015	 0,527356337271751 
1016	 0,526550189737319 
1017	 0,519200344534636 
1018	 0,518804766528077 
1019	 0,522517785969828 
1020	 0,523055389640207 
1021	 0,525141169066884 
1022	 0,528325744212381 
1023	 0,528794134223114 
1024	 0,528313350802153 
1025	 0,527674086120011 
1026	 0,52781381254014 
1027	 0,526921422649441 
1028	 0,524391277422112 
1029	 0,523991914805178 
1030	 0,526721374458589 
1031	 0,532472384720332 
1032	 0,529581171128402 
1033	 0,523796784105843 
1034	 0,53131449773264 
1035	 0,535514911584505 
1036	 0,533549872270092 
1037	 0,533538219703291 
1038	 0,532749388890438 
1039	 0,530046090690748 
1040	 0,524692687440398 
1041	 0,523202129142721 
1042	 0,529364229365492 
1043	 0,52886557856395 
1044	 0,525616777869246 
1045	 0,527670056636645 
1046	 0,536764627353712 
1047	 0,544230034339609 
1048	 0,529366260389038 
1049	 0,522313304392059 
1050	 0,527782613605862 
1051	 0,524700325998225 
1052	 0,525615540826486 
1053	 0,533057164626224 
1054	 0,526051942944538 
1055	 0,518520061060519 
1056	 0,522719467325612 
1057	 0,525780022795075 
1058	 0,525644888192024 
1059	 0,522351780378832 
1060	 0,520979997135628 
1061	 0,522222977964705 
1062	 0,524932163738246 
1063	 0,521222042888688 
1064	 0,514565788807439 
1065	 0,528126636262227 
1066	 0,534195272462809 
1067	 0,524534935212547 
1068	 0,524862415982596 
1069	 0,522874796565627 
1070	 0,511725932185316 
1071	 0,518185125702576 
1072	 0,528875735386719 
1073	 0,524972625216094 
1074	 0,522882650514239 
1075	 0,517941601276045 
