Wavelength	BELON00362.asd
325	 0,157628682946075 
326	 0,124559646047249 
327	 0,106344218708258 
328	 0,074484203276995 
329	 0,125114566899557 
330	 0,188192856146971 
331	 0,190450805224285 
332	 0,168223016763384 
333	 0,141306544054958 
334	 0,131132805012657 
335	 0,13008626017252 
336	 0,119893248030947 
337	 2,01958320965838E-02 
338	-2,64311505144853E-02 
339	 0,103275938287841 
340	 0,171510859233743 
341	 0,13988989802792 
342	 0,096934456391843 
343	 8,23490026150561E-02 
344	 0,102407164479104 
345	 0,114813180262849 
346	 0,139615045972357 
347	 0,195369418171811 
348	 0,196826686843423 
349	 0,165013545909005 
350	 0,191890327618497 
351	 0,199731679962757 
352	 0,169730603748079 
353	 0,175169166293109 
354	 0,172916324596384 
355	 0,108188785007128 
356	 9,80658434744095E-02 
357	 0,137430663259867 
358	 0,16036438829369 
359	 0,152749758352093 
360	 0,117731027064048 
361	 0,134083331412957 
362	 0,169768219332937 
363	 0,168863743742107 
364	 0,175742290113089 
365	 0,191264981116507 
366	 0,183165700136975 
367	 0,164425139413966 
368	 0,147978714827865 
369	 0,162126815256289 
370	 0,190435253976587 
371	 0,195740472556786 
372	 0,19578331513743 
373	 0,19315116966718 
374	 0,175466382635741 
375	 0,171138664824073 
376	 0,197025263680458 
377	 0,194445872297239 
378	 0,17142504240992 
379	 0,161905788012127 
380	 0,164190720788892 
381	 0,177104103983733 
382	 0,191767910059456 
383	 0,194325517733046 
384	 0,175995917298739 
385	 0,165719826321788 
386	 0,168436638415195 
387	 0,181439995134937 
388	 0,186817864344688 
389	 0,179676075926872 
390	 0,177043938952721 
391	 0,178894746921542 
392	 0,183442782397607 
393	 0,174296007722838 
394	 0,160364930532323 
395	 0,178793874567391 
396	 0,190520291248307 
397	 0,178361801053731 
398	 0,178659923850891 
399	 0,185903924717178 
400	 0,186386148453682 
401	 0,182329162050643 
402	 0,176125564868192 
403	 0,17528947071806 
404	 0,172657954202778 
405	 0,164800175607304 
406	 0,169632341197403 
407	 0,18093641353264 
408	 0,181064159732268 
409	 0,184993491165636 
410	 0,194361659004493 
411	 0,196778259227391 
412	 0,193429083565902 
413	 0,186590870836796 
414	 0,181597010138085 
415	 0,179714937991682 
416	 0,180649358456754 
417	 0,184068065347941 
418	 0,188156021524234 
419	 0,183882538781294 
420	 0,179774000844065 
421	 0,187445725764842 
422	 0,18790930732455 
423	 0,181462540566539 
424	 0,183731551497403 
425	 0,185518940022322 
426	 0,181776444268006 
427	 0,179414599567809 
428	 0,180245124648512 
429	 0,186427205779853 
430	 0,18826160185419 
431	 0,184890821752612 
432	 0,187147835546237 
433	 0,18854135458272 
434	 0,183470463301959 
435	 0,180366086911083 
436	 0,180899092210246 
437	 0,185554523035134 
438	 0,187444975863918 
439	 0,18480271178336 
440	 0,18622087421565 
441	 0,189599829884812 
442	 0,191374848510701 
443	 0,190679088669993 
444	 0,188669946708859 
445	 0,190496625121527 
446	 0,190595547958906 
447	 0,186471095796341 
448	 0,187796844549914 
449	 0,192376676054 
450	 0,194074959155459 
451	 0,192797492063133 
452	 0,189772609252482 
453	 0,191518700296903 
454	 0,193764421499453 
455	 0,192517978669835 
456	 0,192324367718988 
457	 0,193152295647372 
458	 0,192239284335865 
459	 0,193383358640253 
460	 0,19696707119839 
461	 0,194961268709222 
462	 0,191544945369 
463	 0,193219505030143 
464	 0,193461548128336 
465	 0,191844096743083 
466	 0,192446759225145 
467	 0,194075974197691 
468	 0,195780826852092 
469	 0,196731370236588 
470	 0,196831415495944 
471	 0,196130261133992 
472	 0,19615664357717 
473	 0,196791452134894 
474	 0,194405784270864 
475	 0,193023854856984 
476	 0,19652093251873 
477	 0,198751872766636 
478	 0,198702564947303 
479	 0,197316339455351 
480	 0,196450895198184 
481	 0,196735461066378 
482	 0,194894197545096 
483	 0,19344757585991 
484	 0,196661834085688 
485	 0,197724051084676 
486	 0,195384499879616 
487	 0,191764794415498 
488	 0,19114717147044 
489	 0,196073542029556 
490	 0,197393040230237 
491	 0,195414862180296 
492	 0,194221653965494 
493	 0,194349686702875 
494	 0,19561518003723 
495	 0,194908796043086 
496	 0,193276979191184 
497	 0,192185340759777 
498	 0,192989753726321 
499	 0,194955711447125 
500	 0,194743819002875 
501	 0,194634372917078 
502	 0,19590825284641 
503	 0,198126270573646 
504	 0,199645301657689 
505	 0,197699889005079 
506	 0,196357956754724 
507	 0,196832929247726 
508	 0,198293750039131 
509	 0,199666370025241 
510	 0,20009043661742 
511	 0,201598094525398 
512	 0,203545666759086 
513	 0,203239502602005 
514	 0,203143376348253 
515	 0,204137289962014 
516	 0,204339899592173 
517	 0,204612958403881 
518	 0,206456652571974 
519	 0,206370873853663 
520	 0,204539554053569 
521	 0,205175377225285 
522	 0,205437941039145 
523	 0,203593554916831 
524	 0,20472395728283 
525	 0,207244562455415 
526	 0,20579534789059 
527	 0,204671863730144 
528	 0,205009756086305 
529	 0,204633708496665 
530	 0,203878146333955 
531	 0,203301926142822 
532	 0,203023567508528 
533	 0,203126693026682 
534	 0,203757469987836 
535	 0,204321759045651 
536	 0,204409897798556 
537	 0,203880723104989 
538	 0,203281147618747 
539	 0,203672661615656 
540	 0,20357548638784 
541	 0,202873898181881 
542	 0,20330430432577 
543	 0,203832792127701 
544	 0,203446261379584 
545	 0,204045744117521 
546	 0,205206795639273 
547	 0,204702645961247 
548	 0,20412440830937 
549	 0,204288032155401 
550	 0,205104494978869 
551	 0,205830929821515 
552	 0,205330516746772 
553	 0,205137520130194 
554	 0,205403803575873 
555	 0,204855345910439 
556	 0,204130925401522 
557	 0,203805016756421 
558	 0,204043040499925 
559	 0,204235539282235 
560	 0,202623069819261 
561	 0,201776984871789 
562	 0,202462730238359 
563	 0,202326470797491 
564	 0,20177316916642 
565	 0,201615059721119 
566	 0,201786389181253 
567	 0,202137204786991 
568	 0,202111226580825 
569	 0,202189040274347 
570	 0,20272586340637 
571	 0,203729747428257 
572	 0,204777057395155 
573	 0,204895244197145 
574	 0,205468422364019 
575	 0,206985230676516 
576	 0,209204574195634 
577	 0,211116574225037 
578	 0,211662930512323 
579	 0,212402156165277 
580	 0,213585642174611 
581	 0,214750403318999 
582	 0,215872149316138 
583	 0,216941093498437 
584	 0,218184310921297 
585	 0,219378648641333 
586	 0,220066612135264 
587	 0,220863719204265 
588	 0,221853451749421 
589	 0,222488949636428 
590	 0,223014374334654 
591	 0,223666582317969 
592	 0,224144665971913 
593	 0,224457713094594 
594	 0,224742519742995 
595	 0,225193322000831 
596	 0,225797580826149 
597	 0,225813167152154 
598	 0,225511769032656 
599	 0,225410587428071 
600	 0,225344884091146 
601	 0,225269376114645 
602	 0,22511367347269 
603	 0,225020674511031 
604	 0,225022788288475 
605	 0,22410975043314 
606	 0,222693788824841 
607	 0,222141988146827 
608	 0,221681762720409 
609	 0,221131183656223 
610	 0,221104337775051 
611	 0,220886415735899 
612	 0,219568832180632 
613	 0,218646570408068 
614	 0,218287462273901 
615	 0,217648981778249 
616	 0,217246119809687 
617	 0,217303647665415 
618	 0,216710325592186 
619	 0,216002606047472 
620	 0,216642471547168 
621	 0,21656931430098 
622	 0,215529366373624 
623	 0,215755466704463 
624	 0,216485560998722 
625	 0,216794076155615 
626	 0,216710362009858 
627	 0,216551161640108 
628	 0,217285347936593 
629	 0,217976242078386 
630	 0,218159417349686 
631	 0,218277232277723 
632	 0,218512794828852 
633	 0,219062691269625 
634	 0,219697049857646 
635	 0,220414207301432 
636	 0,22159145299302 
637	 0,222453656069457 
638	 0,222458441428169 
639	 0,223543286305506 
640	 0,225317236543023 
641	 0,22592913896869 
642	 0,226361666297963 
643	 0,226892938340672 
644	 0,226845605783922 
645	 0,226842592163761 
646	 0,227744681090522 
647	 0,228133526468991 
648	 0,227849539048417 
649	 0,227726124579624 
650	 0,227484321880178 
651	 0,226927481688157 
652	 0,226073142961904 
653	 0,224903537946217 
654	 0,223331203949393 
655	 0,221908004701848 
656	 0,220806812159417 
657	 0,219777531792042 
658	 0,218525382919506 
659	 0,216790229933892 
660	 0,215318898077499 
661	 0,214067211118241 
662	 0,212377637130271 
663	 0,210773309773905 
664	 0,209453449376202 
665	 0,207803488658479 
666	 0,206153260777103 
667	 0,205081554820569 
668	 0,204609797330184 
669	 0,204542068146442 
670	 0,204117932707872 
671	 0,203656836635364 
672	 0,203412694692667 
673	 0,203089783364088 
674	 0,20266005907376 
675	 0,202117673078292 
676	 0,201867355283675 
677	 0,20198414625013 
678	 0,201850456234173 
679	 0,20182071710886 
680	 0,202363149223292 
681	 0,202938346857603 
682	 0,203495672229133 
683	 0,2042611564373 
684	 0,205280010890163 
685	 0,206619651822489 
686	 0,208403208785238 
687	 0,21075749661081 
688	 0,213872609635812 
689	 0,217191791893443 
690	 0,220753391884776 
691	 0,22543193625015 
692	 0,230911299207339 
693	 0,236886591426666 
694	 0,243558736641611 
695	 0,251098058657336 
696	 0,259835462219483 
697	 0,269287082115997 
698	 0,279257260667476 
699	 0,289947001404452 
700	 0,301200059351306 
701	 0,312811799580652 
702	 0,32491511234647 
703	 0,337120534873938 
704	 0,348336612265281 
705	 0,35936509826413 
706	 0,370669899630234 
707	 0,381708747284866 
708	 0,392162874164431 
709	 0,401620146842997 
710	 0,410852120821284 
711	 0,420048658784695 
712	 0,428969822760792 
713	 0,43710157484717 
714	 0,444057645704615 
715	 0,451450222159003 
716	 0,458908744541831 
717	 0,464609849132612 
718	 0,470037009770084 
719	 0,475673156396198 
720	 0,480543533691272 
721	 0,484842240752181 
722	 0,488899831596984 
723	 0,492836180248156 
724	 0,496640410215206 
725	 0,500074651221329 
726	 0,503098258336953 
727	 0,50568129918788 
728	 0,507738292413352 
729	 0,5095320171465 
730	 0,511498920100223 
731	 0,513544369669554 
732	 0,515531518850126 
733	 0,516979344637723 
734	 0,518281454927683 
735	 0,519764278003442 
736	 0,520854716485381 
737	 0,52171237775215 
738	 0,522998556836168 
739	 0,524087441033926 
740	 0,524773729009408 
741	 0,525297621362125 
742	 0,525891266545537 
743	 0,526784711936667 
744	 0,52728994980682 
745	 0,527466902100202 
746	 0,528000402837467 
747	 0,528590536892864 
748	 0,529058216649202 
749	 0,529307280077185 
750	 0,529482617728972 
751	 0,529818544996922 
752	 0,530287890140519 
753	 0,530732887961858 
754	 0,530559349357832 
755	 0,530517871191499 
756	 0,531110959747728 
757	 0,531582026193478 
758	 0,531786502895535 
759	 0,53166763003937 
760	 0,531647286938886 
761	 0,53187980421346 
762	 0,532305013192726 
763	 0,532608716710879 
764	 0,532520526356837 
765	 0,532439406882856 
766	 0,532489465896673 
767	 0,532762287126471 
768	 0,533100863204203 
769	 0,53333742200307 
770	 0,532972512263286 
771	 0,532581133368398 
772	 0,532866266981154 
773	 0,532973165033806 
774	 0,532914796710527 
775	 0,533366707148167 
776	 0,533771657896976 
777	 0,533831439117836 
778	 0,53370600592044 
779	 0,533468473710531 
780	 0,533187316808812 
781	 0,533300709356225 
782	 0,533715118425263 
783	 0,533635612409785 
784	 0,533534671144519 
785	 0,533716173725359 
786	 0,533973409499892 
787	 0,534108125589764 
788	 0,533809507698417 
789	 0,53372065113799 
790	 0,533924419334251 
791	 0,533811764978439 
792	 0,533853703824567 
793	 0,534351263610805 
794	 0,534182654759152 
795	 0,533713628997163 
796	 0,534128467030151 
797	 0,534559593471251 
798	 0,534673159866071 
799	 0,534364964304038 
800	 0,533996997765948 
801	 0,533926018328959 
802	 0,534165555037129 
803	 0,534472212989572 
804	 0,534182598636904 
805	 0,534140352959442 
806	 0,534529604013998 
807	 0,534525501128229 
808	 0,534396460362623 
809	 0,534479177093193 
810	 0,534437484237794 
811	 0,534296274449638 
812	 0,534275030666481 
813	 0,534406699302336 
814	 0,534687410649301 
815	 0,534955669327096 
816	 0,535196961647771 
817	 0,535415114459274 
818	 0,535581416424651 
819	 0,535699794867479 
820	 0,535776306913586 
821	 0,535973599588507 
822	 0,536318769184726 
823	 0,536466542532692 
824	 0,536420304716762 
825	 0,536238312568779 
826	 0,536006625511723 
827	 0,535807244771822 
828	 0,53578462020362 
829	 0,535716326588995 
830	 0,535556116343187 
831	 0,53583276205729 
832	 0,536217192560617 
833	 0,536196991236449 
834	 0,536200132245656 
835	 0,536192387618123 
836	 0,535641075012405 
837	 0,535459515281122 
838	 0,536042212831914 
839	 0,536361228729418 
840	 0,536383678184152 
841	 0,536244117080553 
842	 0,536203490152924 
843	 0,536291856463183 
844	 0,536325826484478 
845	 0,536321418435526 
846	 0,53630290482105 
847	 0,536477290023607 
848	 0,536429828112038 
849	 0,535567587571336 
850	 0,535071502618919 
851	 0,535223811927867 
852	 0,535878031206658 
853	 0,536300436969247 
854	 0,536166071483354 
855	 0,536482001876647 
856	 0,53673219083148 
857	 0,536086147246586 
858	 0,535497864484845 
859	 0,535352401874689 
860	 0,536085165121666 
861	 0,536534591790177 
862	 0,53617718332561 
863	 0,536004859761056 
864	 0,536127815324001 
865	 0,536538060307543 
866	 0,537292755302655 
867	 0,537955616259488 
868	 0,537230491921813 
869	 0,536627367080464 
870	 0,536810239503255 
871	 0,536797323021409 
872	 0,537033182220404 
873	 0,538090968023669 
874	 0,538230939988703 
875	 0,537589586248965 
876	 0,537751563552795 
877	 0,537841144520003 
878	 0,537606549491605 
879	 0,537723901096763 
880	 0,537739900691047 
881	 0,537164346502657 
882	 0,536984743256324 
883	 0,537178665061967 
884	 0,537135957437696 
885	 0,537107990175771 
886	 0,537124693500996 
887	 0,536958478245557 
888	 0,536796125679581 
889	 0,536815539175314 
890	 0,53687758937573 
891	 0,536845330137663 
892	 0,536437886071684 
893	 0,536416558784556 
894	 0,536854303449975 
895	 0,536914775909047 
896	 0,536642348228723 
897	 0,536139155041859 
898	 0,535708435708436 
899	 0,535679811477122 
900	 0,536520679266614 
901	 0,537094806489486 
902	 0,537146669786173 
903	 0,537208026386902 
904	 0,537072256587847 
905	 0,536698352011582 
906	 0,536722297449704 
907	 0,536828253967257 
908	 0,536463779571501 
909	 0,536440440013112 
910	 0,536635676095049 
911	 0,535912564112909 
912	 0,535839397326383 
913	 0,536835953281716 
914	 0,536630463458829 
915	 0,536064057426409 
916	 0,536255745356761 
917	 0,536402996748225 
918	 0,536227159310953 
919	 0,535299791155831 
920	 0,535162543635306 
921	 0,535986002294686 
922	 0,535803891672829 
923	 0,534954935251373 
924	 0,533941979226762 
925	 0,533990053493892 
926	 0,534528391545005 
927	 0,534193835880906 
928	 0,533019706172418 
929	 0,531571472660795 
930	 0,531740977001659 
931	 0,532639193139655 
932	 0,53343041484823 
933	 0,53257148893722 
934	 0,530959058287579 
935	 0,529992607962182 
936	 0,529100845060229 
937	 0,528543989813941 
938	 0,529381629842693 
939	 0,529891354623937 
940	 0,529266304035452 
941	 0,527325511537085 
942	 0,525770709066103 
943	 0,525927164957628 
944	 0,525150087912516 
945	 0,523596201165717 
946	 0,522352317856939 
947	 0,521894778392696 
948	 0,522030080376062 
949	 0,521407924832681 
950	 0,520673167254995 
951	 0,520127162314142 
952	 0,519214760326326 
953	 0,518149703026887 
954	 0,517235123543017 
955	 0,51589191957495 
956	 0,514301854954133 
957	 0,513194527085144 
958	 0,512187870553259 
959	 0,511148396392237 
960	 0,509896289126265 
961	 0,509338828717464 
962	 0,510013769770931 
963	 0,510464447049704 
964	 0,510427404768936 
965	 0,509886656013624 
966	 0,508938975936052 
967	 0,507803170340923 
968	 0,506586956445967 
969	 0,5076078699318 
970	 0,510631729663121 
971	 0,508664641817857 
972	 0,506525812961549 
973	 0,508557443814102 
974	 0,508052168736893 
975	 0,506250370871687 
976	 0,507307633923542 
977	 0,507724936918456 
978	 0,506841710768089 
979	 0,505663502757758 
980	 0,505037638790722 
981	 0,505561476821039 
982	 0,507800419690287 
983	 0,50942726684652 
984	 0,508218675800353 
985	 0,506616839776749 
986	 0,505699950667076 
987	 0,506524126341036 
988	 0,508023779377894 
989	 0,509558653619133 
990	 0,510455589629395 
991	 0,510363035782355 
992	 0,509360508930748 
993	 0,508984329417571 
994	 0,509138842191738 
995	 0,509627042464681 
996	 0,511411851212169 
997	 0,513360067984425 
998	 0,513017697013752 
999	 0,513849699658017 
1000	 0,515846617231283 
1001	 0,515356710655218 
1002	 0,514458236154485 
1003	 0,514293682854709 
1004	 0,514651713241267 
1005	 0,515743515365926 
1006	 0,517565244587578 
1007	 0,517799839076616 
1008	 0,517382611869511 
1009	 0,518660730820936 
1010	 0,521328409276669 
1011	 0,52376948941743 
1012	 0,520690026448128 
1013	 0,519777079675706 
1014	 0,522920006906891 
1015	 0,521003835548359 
1016	 0,516875998080176 
1017	 0,514302114463517 
1018	 0,52050303318199 
1019	 0,527231374042686 
1020	 0,521262122849478 
1021	 0,520934966819705 
1022	 0,526860188888971 
1023	 0,528618317853282 
1024	 0,527973594064053 
1025	 0,52518398461913 
1026	 0,519653331603559 
1027	 0,5173674059234 
1028	 0,52140924742572 
1029	 0,524507276810296 
1030	 0,526099315848095 
1031	 0,526576506706078 
1032	 0,527302349138883 
1033	 0,528589708668225 
1034	 0,530541906627588 
1035	 0,529316872551356 
1036	 0,526099078447293 
1037	 0,528789985805258 
1038	 0,532447213906513 
1039	 0,533978102364047 
1040	 0,529863901777392 
1041	 0,527306920579496 
1042	 0,531305284415707 
1043	 0,530090724331452 
1044	 0,529185710039605 
1045	 0,537590322195535 
1046	 0,541493997508198 
1047	 0,536907084789467 
1048	 0,521553685083406 
1049	 0,524190120480249 
1050	 0,542667653031362 
1051	 0,530298719730117 
1052	 0,52294299606334 
1053	 0,534033337899772 
1054	 0,531018338071808 
1055	 0,524643397975415 
1056	 0,525643545101718 
1057	 0,528931663705482 
1058	 0,5306627849552 
1059	 0,527039242706094 
1060	 0,532341624098916 
1061	 0,542112116422848 
1062	 0,539115027539512 
1063	 0,538302360184055 
1064	 0,539946130734345 
1065	 0,528483510813017 
1066	 0,518896771802857 
1067	 0,518087306970507 
1068	 0,525643097551752 
1069	 0,527116768792696 
1070	 0,514545504679075 
1071	 0,514822842564099 
1072	 0,52729919990953 
1073	 0,545140801348233 
1074	 0,541673258101308 
1075	 0,522620398500325 
