Wavelength	BELON00193.asd
325	 5,69755808874297E-02 
326	 3,76130450510616E-02 
327	 1,4935056674342E-03 
328	-7,36549111882694E-02 
329	-4,65659980467283E-02 
330	 0,025740060100682 
331	 6,17295627226583E-02 
332	-0,013626470596148 
333	-0,110922199717126 
334	-0,052829864438819 
335	 5,00201000402001E-03 
336	 3,22115697560885E-02 
337	 7,62930647688601E-02 
338	 8,51451916394026E-02 
339	 1,36024223187746E-02 
340	 0,050369121041686 
341	 0,126168188117969 
342	 2,27497554342979E-02 
343	-2,85508546306707E-04 
344	 8,10461163817158E-02 
345	 3,14936981653322E-02 
346	-0,025958178128905 
347	 0,031626135195029 
348	 6,30904087269064E-02 
349	 5,76427223308116E-02 
350	 5,46615814286588E-02 
351	 5,23664219057494E-02 
352	 5,06862968121198E-02 
353	 4,71330031821374E-02 
354	 3,78929879520814E-02 
355	 2,09066668280886E-02 
356	 1,14256323066647E-02 
357	 0,015825111506202 
358	 5,20964855100125E-02 
359	 0,055697799967068 
360	 7,27378076545609E-03 
361	-2,25654373425544E-03 
362	 1,26069552414017E-02 
363	 1,64357719809924E-02 
364	 2,42996153833294E-02 
365	 3,16796934840473E-02 
366	 0,011314903310137 
367	 1,79547895586153E-03 
368	 2,12516230018863E-02 
369	 2,00738817583321E-02 
370	 5,8218748883264E-03 
371	 3,35862924351136E-03 
372	 5,62931125837607E-03 
373	 9,44846775053563E-03 
374	 4,52483063556541E-03 
375	 1,76445782963552E-02 
376	 6,23134145138337E-02 
377	 0,069032948252418 
378	 4,57124521052941E-02 
379	 3,00187310509511E-02 
380	 1,59010131097077E-02 
381	 5,78125019640245E-03 
382	 1,79785821632669E-02 
383	 2,32878604225192E-02 
384	-2,50274140488938E-03 
385	-1,30322104859303E-02 
386	-3,44560983793088E-03 
387	 1,57997884970242E-02 
388	 2,47002407857333E-02 
389	 1,77234608603386E-02 
390	 1,48574221819195E-02 
391	 1,71609658875219E-02 
392	 2,36788005704551E-02 
393	 0,035261841315513 
394	 4,40857316337446E-02 
395	 0,026094894706448 
396	 0,020193748557871 
397	 4,16800709770882E-02 
398	 4,16502580218778E-02 
399	 3,23321310930244E-02 
400	 0,040039369053347 
401	 3,96544070831212E-02 
402	 2,99509464038965E-02 
403	 3,02070720801163E-02 
404	 2,99452109515436E-02 
405	 2,30715848085276E-02 
406	 2,45756220875104E-02 
407	 0,031978363305861 
408	 3,72918526031386E-02 
409	 3,52466986297454E-02 
410	 2,73897947329906E-02 
411	 2,99078299989979E-02 
412	 3,36030508734712E-02 
413	 2,97068963557052E-02 
414	 2,70476722024899E-02 
415	 2,75561761095493E-02 
416	 3,23518047200082E-02 
417	 3,61127250068438E-02 
418	 3,56603364369342E-02 
419	 2,64035616978333E-02 
420	 1,81121007769264E-02 
421	 2,32999049267831E-02 
422	 2,52789921589841E-02 
423	 2,25988037388955E-02 
424	 2,36238210042322E-02 
425	 2,61274646525994E-02 
426	 2,84974235555159E-02 
427	 0,030147853936277 
428	 3,05666603641503E-02 
429	 2,86929743646856E-02 
430	 2,94782760331427E-02 
431	 3,30427325677096E-02 
432	 0,033149577051797 
433	 3,18691914191091E-02 
434	 0,031236605261619 
435	 3,03081805315231E-02 
436	 3,00405478260212E-02 
437	 3,37034204224597E-02 
438	 3,39580137362746E-02 
439	 2,95224949535941E-02 
440	 3,23393129963364E-02 
441	 3,61118252754824E-02 
442	 0,031749532986389 
443	 3,12239916670374E-02 
444	 3,50155357502238E-02 
445	 3,47237109040601E-02 
446	 3,38679948778768E-02 
447	 3,44303376313352E-02 
448	 3,40634730407677E-02 
449	 3,31670065750797E-02 
450	 3,29474854124422E-02 
451	 3,29534978769572E-02 
452	 3,33358348681655E-02 
453	 3,54386802288842E-02 
454	 3,68485902653586E-02 
455	 3,54253218068827E-02 
456	 3,32900332640532E-02 
457	 3,15031350901146E-02 
458	 3,10987702116483E-02 
459	 3,29328954647645E-02 
460	 3,63025244902463E-02 
461	 3,47603915981506E-02 
462	 3,21791634886649E-02 
463	 3,44748260948058E-02 
464	 3,55445368128857E-02 
465	 3,45000273118593E-02 
466	 3,34450119111874E-02 
467	 3,39141550024317E-02 
468	 0,036517017786476 
469	 3,68107031703442E-02 
470	 3,59182432048688E-02 
471	 3,76234452412741E-02 
472	 3,76778398973147E-02 
473	 3,55686189776181E-02 
474	 3,52114430468045E-02 
475	 3,61631141669474E-02 
476	 3,77382021424986E-02 
477	 4,00619330464946E-02 
478	 4,14325280143722E-02 
479	 3,71012254136983E-02 
480	 0,0345685926014 
481	 3,66899573718529E-02 
482	 0,036053854976201 
483	 3,42032229936699E-02 
484	 3,45367191058088E-02 
485	 3,62687965150606E-02 
486	 3,81597285446642E-02 
487	 3,65331545686526E-02 
488	 3,40731576719943E-02 
489	 3,30217037289656E-02 
490	 3,37098653082948E-02 
491	 3,52623138772085E-02 
492	 3,54767222726321E-02 
493	 3,65003225427781E-02 
494	 0,038608439717304 
495	 3,96894424299817E-02 
496	 3,92420307415156E-02 
497	 3,69664855162669E-02 
498	 3,59480488991237E-02 
499	 3,66062240043446E-02 
500	 3,77622016061043E-02 
501	 3,84390747470583E-02 
502	 3,82253006805226E-02 
503	 3,92481388705942E-02 
504	 0,040042917163285 
505	 3,74159826568523E-02 
506	 3,67277074141952E-02 
507	 3,86136747473571E-02 
508	 3,81789878639806E-02 
509	 3,75541955844764E-02 
510	 3,87967178600036E-02 
511	 4,07097883801147E-02 
512	 4,24894834965059E-02 
513	 4,28911432864089E-02 
514	 4,23524855584936E-02 
515	 4,13945239016363E-02 
516	 4,18881555310721E-02 
517	 4,29654549268603E-02 
518	 4,31719633831547E-02 
519	 4,30449756931533E-02 
520	 4,28635141744642E-02 
521	 4,32715085346847E-02 
522	 4,32760479222666E-02 
523	 4,23398718548916E-02 
524	 4,29451870515659E-02 
525	 4,42431459876338E-02 
526	 4,33675520892114E-02 
527	 4,29889754600198E-02 
528	 4,37234897021287E-02 
529	 0,043701182795211 
530	 4,32971696557473E-02 
531	 4,31001533539245E-02 
532	 4,36260042535353E-02 
533	 4,44402668406783E-02 
534	 4,37507588233936E-02 
535	 4,32219183259156E-02 
536	 4,37571972848026E-02 
537	 4,39861411195099E-02 
538	 4,42181169328803E-02 
539	 4,54338610777711E-02 
540	 4,61454946058499E-02 
541	 4,59704719258616E-02 
542	 4,55810481268801E-02 
543	 4,51693630925241E-02 
544	 4,49130662375931E-02 
545	 4,54408474460371E-02 
546	 4,63074241344402E-02 
547	 4,58767984238018E-02 
548	 4,58058241827246E-02 
549	 4,67352475356352E-02 
550	 4,71166763208815E-02 
551	 0,047090438910262 
552	 4,71587365343717E-02 
553	 4,69198297369817E-02 
554	 4,66160211394651E-02 
555	 4,76919193886851E-02 
556	 4,83045222899806E-02 
557	 0,047073302331262 
558	 4,69600778814689E-02 
559	 4,77904000412576E-02 
560	 4,77143501524332E-02 
561	 4,77215603261133E-02 
562	 4,80965052399877E-02 
563	 4,83550145619154E-02 
564	 4,82301072207069E-02 
565	 4,74268669182463E-02 
566	 4,76307792123012E-02 
567	 4,87500497632524E-02 
568	 4,87554363987014E-02 
569	 4,89049555564371E-02 
570	 4,99317375038268E-02 
571	 5,00218225022098E-02 
572	 4,93288394187007E-02 
573	 4,86543502251326E-02 
574	 4,87919384024845E-02 
575	 4,99362822938169E-02 
576	 5,11127322911261E-02 
577	 5,21253655444032E-02 
578	 5,28462397007516E-02 
579	 5,31539749403823E-02 
580	 5,31360037369654E-02 
581	 5,30555470166918E-02 
582	 5,32714112689152E-02 
583	 5,38998281582846E-02 
584	 5,39460819712155E-02 
585	 5,39128929994766E-02 
586	 5,49613674486212E-02 
587	 5,54581923775688E-02 
588	 5,52638457588403E-02 
589	 5,61610448711602E-02 
590	 5,70780217260328E-02 
591	 5,69996082970468E-02 
592	 5,72752327034567E-02 
593	 5,76981598148013E-02 
594	 5,68663373096176E-02 
595	 5,64536040359011E-02 
596	 0,057104071585981 
597	 5,73762756460933E-02 
598	 5,73867215204572E-02 
599	 0,0575565751828 
600	 5,75508008080289E-02 
601	 5,73835746596172E-02 
602	 5,74258119281834E-02 
603	 5,75481338725415E-02 
604	 5,76239674129279E-02 
605	 5,75176159099644E-02 
606	 5,72475717916874E-02 
607	 5,68192436645131E-02 
608	 5,69048475240188E-02 
609	 5,75587662830633E-02 
610	 5,74913649600862E-02 
611	 5,69199174048024E-02 
612	 5,62630799362807E-02 
613	 5,57168904864882E-02 
614	 5,54401355720968E-02 
615	 5,56407970102486E-02 
616	 5,60059762539769E-02 
617	 5,62640422080153E-02 
618	 5,59520643256148E-02 
619	 5,56415492829824E-02 
620	 5,66567154871485E-02 
621	 5,71917341235123E-02 
622	 5,67485034256236E-02 
623	 5,60298273156911E-02 
624	 5,57795527277889E-02 
625	 5,66412461862193E-02 
626	 5,64061388468644E-02 
627	 5,54149589789363E-02 
628	 5,60526123192009E-02 
629	 5,70695897913686E-02 
630	 5,77231346491751E-02 
631	 5,75581739517025E-02 
632	 5,72001197980125E-02 
633	 5,77454058418813E-02 
634	 5,83575773373684E-02 
635	 5,87268064966854E-02 
636	 5,86408655203905E-02 
637	 0,058518318073607 
638	 5,87559646306609E-02 
639	 5,96376900622715E-02 
640	 6,07659260852822E-02 
641	 6,10865389505546E-02 
642	 6,11603994636496E-02 
643	 0,061223318340015 
644	 6,13427462491905E-02 
645	 6,14273308487525E-02 
646	 6,13404417371616E-02 
647	 0,061430224638189 
648	 6,17392767848505E-02 
649	 6,21239261635325E-02 
650	 6,23490709179105E-02 
651	 6,22285169844926E-02 
652	 0,061693884889349 
653	 6,09248044620932E-02 
654	 6,02403607289931E-02 
655	 5,98172011337877E-02 
656	 5,96473076847214E-02 
657	 5,92940965223681E-02 
658	 5,87916340316836E-02 
659	 0,058225989072617 
660	 5,81944465596862E-02 
661	 5,83831507478656E-02 
662	 5,74997051800061E-02 
663	 5,66344349323122E-02 
664	 5,63010651002484E-02 
665	 5,59125546674205E-02 
666	 0,055424131504418 
667	 5,48417481937375E-02 
668	 5,47120488925519E-02 
669	 5,50763330620183E-02 
670	 5,54872981861191E-02 
671	 5,55990686550693E-02 
672	 5,51835707647343E-02 
673	 5,48201295718397E-02 
674	 5,47278752752784E-02 
675	 5,51796913262686E-02 
676	 5,55510785943704E-02 
677	 5,55337170545052E-02 
678	 5,48206642983941E-02 
679	 5,46088368124207E-02 
680	 5,62832161212942E-02 
681	 5,66484459909196E-02 
682	 5,57924393315465E-02 
683	 5,65862162735345E-02 
684	 5,74987402375292E-02 
685	 5,77144373619585E-02 
686	 5,82189676079753E-02 
687	 5,91784733601005E-02 
688	 6,06903966858962E-02 
689	 6,19151848145936E-02 
690	 6,27841165726885E-02 
691	 6,42487505903417E-02 
692	 6,60570595010985E-02 
693	 6,79615652039905E-02 
694	 0,070244028873189 
695	 7,28401412213305E-02 
696	 7,54521037718384E-02 
697	 7,83504413144467E-02 
698	 8,15643472379854E-02 
699	 8,45269760881379E-02 
700	 8,77120739806012E-02 
701	 9,17840411777465E-02 
702	 9,56867193594563E-02 
703	 9,91799973476155E-02 
704	 0,102531538026537 
705	 0,105786579306363 
706	 0,108972223804457 
707	 0,112037433054923 
708	 0,114927341728238 
709	 0,117527002024414 
710	 0,12039494108672 
711	 0,123458054348648 
712	 0,125557767460453 
713	 0,127470500429345 
714	 0,129926932004472 
715	 0,132219247120119 
716	 0,134119718481744 
717	 0,135338504875717 
718	 0,136783318988812 
719	 0,138678333833763 
720	 0,139695833463628 
721	 0,140653440062339 
722	 0,142725502256113 
723	 0,143921245858374 
724	 0,144218978875497 
725	 0,145198637568554 
726	 0,146399222318234 
727	 0,14744976601178 
728	 0,147712726159471 
729	 0,147601991665438 
730	 0,147959676652119 
731	 0,148878991955328 
732	 0,150124076593748 
733	 0,150502294524395 
734	 0,150696865636213 
735	 0,151313718616267 
736	 0,151704076908914 
737	 0,151903330735562 
738	 0,15229476864577 
739	 0,152528009826721 
740	 0,152558214000317 
741	 0,15288185955609 
742	 0,153269569778341 
743	 0,153415045513052 
744	 0,153524692644877 
745	 0,15373242546504 
746	 0,154335243171204 
747	 0,154764073659425 
748	 0,154741486922704 
749	 0,154716053599182 
750	 0,154748653331723 
751	 0,154836158907229 
752	 0,155037818090719 
753	 0,155316503453531 
754	 0,155487698723063 
755	 0,155613604479699 
756	 0,155759491803709 
757	 0,156111825926174 
758	 0,156457883238343 
759	 0,156305770712396 
760	 0,156139678508002 
761	 0,15617966646605 
762	 0,156602167338672 
763	 0,15704717990855 
764	 0,157181226283418 
765	 0,157343604088231 
766	 0,157583608668701 
767	 0,157886965053016 
768	 0,158065347083671 
769	 0,158026310428505 
770	 0,157725139403906 
771	 0,157561734398983 
772	 0,157982638633658 
773	 0,158166517410314 
774	 0,158092413402784 
775	 0,158324034111291 
776	 0,158556414844203 
777	 0,158648603348152 
778	 0,158763112266638 
779	 0,158897486835825 
780	 0,159020797296762 
781	 0,159233334902947 
782	 0,159487944551525 
783	 0,159550371922879 
784	 0,159494265777996 
785	 0,159406839305785 
786	 0,159592161461903 
787	 0,159794319924634 
788	 0,159442018362592 
789	 0,159624570455083 
790	 0,160403114736612 
791	 0,160620545982037 
792	 0,160532497401215 
793	 0,160385711417209 
794	 0,160258093303343 
795	 0,160225429552166 
796	 0,16036948344196 
797	 0,160676748782828 
798	 0,161032784783093 
799	 0,161004085628491 
800	 0,16078879428161 
801	 0,160635882848942 
802	 0,161078539471486 
803	 0,161770747740345 
804	 0,16153603319364 
805	 0,161524022066409 
806	 0,161969369361877 
807	 0,161699563555234 
808	 0,161406058872814 
809	 0,161861152589065 
810	 0,161828853732275 
811	 0,161399884212711 
812	 0,161562035536608 
813	 0,161675827556298 
814	 0,161566824779219 
815	 0,161811025524584 
816	 0,162221073664327 
817	 0,162518466943607 
818	 0,162782537590314 
819	 0,162868351258799 
820	 0,162257373058942 
821	 0,161975742595988 
822	 0,162456549185618 
823	 0,162957763053586 
824	 0,163181021143874 
825	 0,162867525929395 
826	 0,16291774891418 
827	 0,163335205018746 
828	 0,16339930148254 
829	 0,16327328780377 
830	 0,163105377884116 
831	 0,163391507276072 
832	 0,163624748215501 
833	 0,163059109972024 
834	 0,162902911812345 
835	 0,163230274015231 
836	 0,163243699594908 
837	 0,163135238891492 
838	 0,16305100579514 
839	 0,163269043310417 
840	 0,163706850205011 
841	 0,164202823647859 
842	 0,163788746054854 
843	 0,162878005429507 
844	 0,163699556383879 
845	 0,164483790648506 
846	 0,164271199155108 
847	 0,163685457167619 
848	 0,163339982686967 
849	 0,163974358395259 
850	 0,163896389568583 
851	 0,163182173166967 
852	 0,16361405381881 
853	 0,163887181548355 
854	 0,163465189860298 
855	 0,163841798075441 
856	 0,164437732927951 
857	 0,164261265461992 
858	 0,163796534015252 
859	 0,163438298034294 
860	 0,164080732041834 
861	 0,164514872520023 
862	 0,164207979675411 
863	 0,164237198267222 
864	 0,164331373633517 
865	 0,164011024289663 
866	 0,164422557037475 
867	 0,165143247536203 
868	 0,16398921990266 
869	 0,163231475890114 
870	 0,16382064693138 
871	 0,16425328250975 
872	 0,16453882718506 
873	 0,164846373593479 
874	 0,164796048875905 
875	 0,164514483337216 
876	 0,164571958324073 
877	 0,164727195207512 
878	 0,16482772909167 
879	 0,164580024458116 
880	 0,164325598144143 
881	 0,16445096482273 
882	 0,164777725130362 
883	 0,165084393048984 
884	 0,164947979417823 
885	 0,164454107457843 
886	 0,163946805790971 
887	 0,165012828049705 
888	 0,165781634132619 
889	 0,164595322951652 
890	 0,164316428619961 
891	 0,164904617042955 
892	 0,165125507594126 
893	 0,1651167465043 
894	 0,164879194336309 
895	 0,1643800315844 
896	 0,164226119898159 
897	 0,164760265936251 
898	 0,164471493296442 
899	 0,163905570399578 
900	 0,164427447198442 
901	 0,165343540404845 
902	 0,166190255664337 
903	 0,16608629613126 
904	 0,16582617864883 
905	 0,165934767234155 
906	 0,166308337354388 
907	 0,166412420421036 
908	 0,165533147740022 
909	 0,164814962873294 
910	 0,164666054570592 
911	 0,165368766854425 
912	 0,165895431898005 
913	 0,165753410095599 
914	 0,165415216497569 
915	 0,165128057476257 
916	 0,165117621159775 
917	 0,165342886985531 
918	 0,165548650402746 
919	 0,165089004672722 
920	 0,164915310383133 
921	 0,165227180510593 
922	 0,165126791234488 
923	 0,165416424712305 
924	 0,166589385485475 
925	 0,166483512852964 
926	 0,165557678035577 
927	 0,165279003707851 
928	 0,164805132357725 
929	 0,164349427639856 
930	 0,165428086514001 
931	 0,166348677771915 
932	 0,166150578245075 
933	 0,165848809625997 
934	 0,165436135272683 
935	 0,16480707850099 
936	 0,165431879993956 
937	 0,166723909512755 
938	 0,166123743395987 
939	 0,165432707602377 
940	 0,165224209251769 
941	 0,16464292297452 
942	 0,164408611465231 
943	 0,16504435515453 
944	 0,164795380620393 
945	 0,164084136915664 
946	 0,164228054075883 
947	 0,164653190754016 
948	 0,16504183178739 
949	 0,165013355817721 
950	 0,164091279962599 
951	 0,162315801744126 
952	 0,161591007128911 
953	 0,161759365297903 
954	 0,162297502198424 
955	 0,161979932363463 
956	 0,161258826060226 
957	 0,162165254954299 
958	 0,162269010780989 
959	 0,161321848527744 
960	 0,162447051963914 
961	 0,162798747596703 
962	 0,16057257376797 
963	 0,16026507303609 
964	 0,161120545199951 
965	 0,161000417713746 
966	 0,161266539915803 
967	 0,161902603155086 
968	 0,161983545970087 
969	 0,161932155630445 
970	 0,161777160419249 
971	 0,160755630320322 
972	 0,159617807848613 
973	 0,159166661477242 
974	 0,159861636131843 
975	 0,161477979941213 
976	 0,163548547547438 
977	 0,163401006740205 
978	 0,161292934227976 
979	 0,160849569745704 
980	 0,161137388662388 
981	 0,161650140282773 
982	 0,162013155649028 
983	 0,162340499616966 
984	 0,162736581493194 
985	 0,162256463921451 
986	 0,161891645730719 
987	 0,163813406332614 
988	 0,166147161891082 
989	 0,167368508466999 
990	 0,164160639756332 
991	 0,162428396943134 
992	 0,164561297524763 
993	 0,164171663704188 
994	 0,162281838163088 
995	 0,160706290263007 
996	 0,161694175003273 
997	 0,16389229611781 
998	 0,16379638892642 
999	 0,164259146559549 
1000	 0,165534220139198 
1001	 0,165707322461054 
1002	 0,16570474446741 
1003	 0,166028228275225 
1004	 0,16704044157462 
1005	 0,166417929679487 
1006	 0,162588196094097 
1007	 0,163844149742991 
1008	 0,168334874175486 
1009	 0,170251848947034 
1010	 0,168682841238767 
1011	 0,16500568110233 
1012	 0,164736862525749 
1013	 0,166281786154148 
1014	 0,168263548124643 
1015	 0,167610106689966 
1016	 0,164853332216233 
1017	 0,161358843557451 
1018	 0,162843106504149 
1019	 0,166354998435651 
1020	 0,166269045259789 
1021	 0,166762734597216 
1022	 0,16810558079471 
1023	 0,168466301592038 
1024	 0,168923623938043 
1025	 0,169227089831161 
1026	 0,166555366690086 
1027	 0,164683547160672 
1028	 0,166048254607258 
1029	 0,16896653638945 
1030	 0,171109066253139 
1031	 0,170107309004593 
1032	 0,168032469837994 
1033	 0,166900564247966 
1034	 0,169818466080819 
1035	 0,16869277291884 
1036	 0,164813074031784 
1037	 0,17139295949039 
1038	 0,176486772741598 
1039	 0,174735286725508 
1040	 0,168935933980126 
1041	 0,165953945420102 
1042	 0,170332636400469 
1043	 0,171707816410885 
1044	 0,171697426444112 
1045	 0,174450580024808 
1046	 0,17885307824534 
1047	 0,181319183545555 
1048	 0,174215840551021 
1049	 0,172394902061892 
1050	 0,17683269911468 
1051	 0,171564815260736 
1052	 0,170002527013162 
1053	 0,176799377309432 
1054	 0,179549357844011 
1055	 0,174426290066439 
1056	 0,161317873468017 
1057	 0,163382004798575 
1058	 0,170263476924982 
1059	 0,163550223208076 
1060	 0,167155583138397 
1061	 0,174077592886577 
1062	 0,156600312765817 
1063	 0,153746754587255 
1064	 0,16930832025272 
1065	 0,172947998434609 
1066	 0,165243048866769 
1067	 0,151231459249385 
1068	 0,155967922360306 
1069	 0,160900819731165 
1070	 0,152886468711774 
1071	 0,154332389411977 
1072	 0,165617699142338 
1073	 0,182490305889009 
1074	 0,186498654008971 
1075	 0,177543732117503 
