Wavelength	BELON00242.asd
325	 0,214480970564613 
326	 0,108398029885633 
327	 6,39637691299757E-02 
328	 6,01165026256134E-02 
329	 3,34971076553227E-02 
330	 6,55026238427059E-02 
331	 0,206578219535753 
332	 0,181892532478888 
333	 7,06471118733275E-02 
334	 9,50492519129042E-02 
335	 0,154492308984618 
336	 0,205852760393904 
337	 0,183017070594813 
338	 0,106258581817565 
339	-1,73960813037905E-02 
340	 4,03406776390546E-02 
341	 0,182205601108762 
342	 0,135598475940635 
343	 8,97456952638427E-02 
344	 8,42241822912514E-02 
345	 6,61386002418712E-02 
346	 6,41083403810891E-02 
347	 0,103562686354071 
348	 0,103607907110831 
349	 7,71112893781583E-02 
350	 9,24401253996293E-02 
351	 0,107298389656559 
352	 0,107293714087455 
353	 0,105886585442807 
354	 0,103963896886334 
355	 0,101698865304467 
356	 8,83789875235296E-02 
357	 7,35050259464701E-02 
358	 8,94932011606867E-02 
359	 0,106562013326144 
360	 0,111168805065157 
361	 0,110961186962623 
362	 0,105185261783658 
363	 9,22181790098218E-02 
364	 7,70147237636485E-02 
365	 6,42868322131542E-02 
366	 6,36754187950387E-02 
367	 7,40349886604071E-02 
368	 9,03057527749389E-02 
369	 8,41608080313443E-02 
370	 7,33595494703337E-02 
371	 9,83312295051656E-02 
372	 0,103693480773544 
373	 8,38495768257569E-02 
374	 0,083929513034524 
375	 9,18750414910795E-02 
376	 9,74481344717404E-02 
377	 0,109502689854996 
378	 0,12027660596261 
379	 0,110874574065627 
380	 9,92663946102597E-02 
381	 9,40590719916067E-02 
382	 0,110316108669142 
383	 0,116516457665134 
384	 8,72047535391632E-02 
385	 7,63563105397475E-02 
386	 8,33857274146256E-02 
387	 7,73011202020698E-02 
388	 7,39685755594328E-02 
389	 7,85843842905304E-02 
390	 8,75525535067975E-02 
391	 9,62657542697447E-02 
392	 9,94800782533601E-02 
393	 9,45568929131074E-02 
394	 8,56464007378347E-02 
395	 0,085677074528441 
396	 8,34161599395344E-02 
397	 7,52113328639296E-02 
398	 7,68468010940829E-02 
399	 8,61698715155717E-02 
400	 9,84157794236382E-02 
401	 9,89818855361971E-02 
402	 0,08864540232581 
403	 8,61257594623781E-02 
404	 8,45513681596911E-02 
405	 7,95779358824826E-02 
406	 7,95903072787095E-02 
407	 8,16716375765491E-02 
408	 7,68172097900748E-02 
409	 7,93247736361283E-02 
410	 8,97999532690736E-02 
411	 9,11405831695096E-02 
412	 8,77549566360732E-02 
413	 8,48240022161421E-02 
414	 8,31507427139004E-02 
415	 8,29215996289847E-02 
416	 0,083933567964271 
417	 8,44617974129597E-02 
418	 0,083431138789892 
419	 7,89974861314411E-02 
420	 7,57739452391673E-02 
421	 7,96508220035567E-02 
422	 7,98009889112548E-02 
423	 7,68214360161123E-02 
424	 8,19331991357379E-02 
425	 8,37265951078972E-02 
426	 7,65371800986422E-02 
427	 0,074799626945375 
428	 7,71779353282788E-02 
429	 7,78595893471943E-02 
430	 0,079142090652147 
431	 8,11303353383252E-02 
432	 8,27247108224403E-02 
433	 0,082313924888406 
434	 0,078790300265197 
435	 7,60707862407771E-02 
436	 7,58566978646091E-02 
437	 8,03897208620751E-02 
438	 8,41796150940382E-02 
439	 8,47973295038438E-02 
440	 8,38569832350416E-02 
441	 8,15745973892276E-02 
442	 7,80165309731472E-02 
443	 0,078603262511687 
444	 8,28655155431131E-02 
445	 8,49697719971106E-02 
446	 8,44059881803733E-02 
447	 0,081287510771375 
448	 7,95738324707456E-02 
449	 8,00455806059606E-02 
450	 8,31557328613451E-02 
451	 8,35070300882049E-02 
452	 0,080890648185434 
453	 8,34871440318898E-02 
454	 8,60839930381324E-02 
455	 0,083825860940831 
456	 8,17360907777452E-02 
457	 8,12095427573689E-02 
458	 8,31449689425528E-02 
459	 8,52471838694869E-02 
460	 8,62143493615916E-02 
461	 8,57555317537876E-02 
462	 8,42800906994055E-02 
463	 8,23425803861043E-02 
464	 8,36259865952991E-02 
465	 8,70066851372443E-02 
466	 8,51082289744744E-02 
467	 8,31812125892606E-02 
468	 8,45473790960976E-02 
469	 8,57506326512234E-02 
470	 8,64145628957715E-02 
471	 8,68380147292405E-02 
472	 8,71112702669279E-02 
473	 8,70670685213046E-02 
474	 8,55081010153119E-02 
475	 8,45551274422622E-02 
476	 8,62373173644536E-02 
477	 8,81819349358517E-02 
478	 8,91226536527261E-02 
479	 0,087044162921842 
480	 0,085697683266097 
481	 8,66089074873725E-02 
482	 8,70016211357581E-02 
483	 0,08566601153676 
484	 8,11704003808288E-02 
485	 8,05893547740388E-02 
486	 8,39290260279895E-02 
487	 8,34623387730627E-02 
488	 8,23418117559791E-02 
489	 8,30160753847911E-02 
490	 8,41156738106969E-02 
491	 8,48557578786441E-02 
492	 8,39170875714639E-02 
493	 8,32886811790857E-02 
494	 8,34212384094794E-02 
495	 8,25284465940332E-02 
496	 8,13718494644984E-02 
497	 8,09420899644006E-02 
498	 8,17026871791145E-02 
499	 0,082787623776844 
500	 0,0810777665274 
501	 8,00688656981992E-02 
502	 8,16420852888231E-02 
503	 8,39511219634413E-02 
504	 8,54526525774945E-02 
505	 8,39480350533892E-02 
506	 8,26362628109674E-02 
507	 8,27673784907939E-02 
508	 8,50284100076046E-02 
509	 8,66071775874811E-02 
510	 8,51784825282574E-02 
511	 8,54808490982502E-02 
512	 8,77237150400744E-02 
513	 9,04859401050568E-02 
514	 9,08976636153939E-02 
515	 8,84587084476162E-02 
516	 0,089203286663067 
517	 9,11295911120848E-02 
518	 9,06109382828594E-02 
519	 9,03048294376024E-02 
520	 9,05624576040337E-02 
521	 9,02782503896399E-02 
522	 8,95898774620734E-02 
523	 8,86880683411702E-02 
524	 8,82500973922278E-02 
525	 8,84926597342563E-02 
526	 8,97387570095548E-02 
527	 9,06323280272406E-02 
528	 9,05170190054957E-02 
529	 8,89576973740079E-02 
530	 8,76285783207857E-02 
531	 8,84024607685977E-02 
532	 8,87949149869817E-02 
533	 8,85268708115087E-02 
534	 0,088703866330885 
535	 8,86305660251688E-02 
536	 8,80740087546732E-02 
537	 8,86654364668063E-02 
538	 8,96378119835994E-02 
539	 8,92354512569181E-02 
540	 8,84341121817375E-02 
541	 8,77214188230734E-02 
542	 8,77980999073207E-02 
543	 8,81246670236074E-02 
544	 8,81570273242509E-02 
545	 8,85380423097599E-02 
546	 0,089111647684563 
547	 8,91767151846534E-02 
548	 0,089001188666677 
549	 8,88162118479363E-02 
550	 8,92513164176792E-02 
551	 8,99183005902714E-02 
552	 9,01568694683939E-02 
553	 8,94845668006553E-02 
554	 8,83004915837036E-02 
555	 8,88212224124049E-02 
556	 8,93573584468731E-02 
557	 8,85397707183686E-02 
558	 8,81000554031955E-02 
559	 8,79546876041302E-02 
560	 8,69584437330556E-02 
561	 8,66297846701135E-02 
562	 8,73772895861061E-02 
563	 8,77511834815249E-02 
564	 0,08747613000427 
565	 8,63843716541975E-02 
566	 0,086236415579894 
567	 8,70229101458745E-02 
568	 8,68679811323095E-02 
569	 8,67798260996481E-02 
570	 8,74411382279751E-02 
571	 8,83155556545393E-02 
572	 8,90310522227204E-02 
573	 8,88987698122422E-02 
574	 8,92597119386714E-02 
575	 9,05419851411461E-02 
576	 9,20692287534754E-02 
577	 9,37448340631197E-02 
578	 0,095502399481926 
579	 0,096711173422954 
580	 9,72954585058616E-02 
581	 9,73537207245055E-02 
582	 9,82721717272589E-02 
583	 0,100547125629502 
584	 0,101209889265122 
585	 0,101038409436053 
586	 0,10209366044806 
587	 0,10319051096108 
588	 0,103957187487425 
589	 0,104262002977385 
590	 0,104671537704731 
591	 0,105668285969241 
592	 0,106137707547512 
593	 0,106133948896622 
594	 0,10637449296752 
595	 0,106834430873401 
596	 0,107457882479695 
597	 0,107890743765223 
598	 0,107905032617385 
599	 0,107232621733373 
600	 0,106628804605844 
601	 0,106306527704762 
602	 0,106035822289295 
603	 0,105863571196001 
604	 0,105768383145544 
605	 0,105012557469434 
606	 0,104001534802696 
607	 0,104042211027092 
608	 0,103970867937216 
609	 0,103421061362028 
610	 0,103015666103541 
611	 0,102588950229228 
612	 0,101883724610512 
613	 0,101004071754953 
614	 0,100243396355695 
615	 0,100441725122913 
616	 0,100706439199612 
617	 0,100439193925715 
618	 9,98361923753931E-02 
619	 9,92927594368925E-02 
620	 9,95652250629532E-02 
621	 0,099519566508068 
622	 9,89582292734451E-02 
623	 9,88256115370782E-02 
624	 9,91262634630531E-02 
625	 9,97540707886837E-02 
626	 9,93222322169564E-02 
627	 9,83124286295734E-02 
628	 9,89907362784121E-02 
629	 9,99245431887611E-02 
630	 0,100381633688879 
631	 0,100732895492223 
632	 0,10115050732083 
633	 0,101865938889585 
634	 0,102406564931867 
635	 0,102768637219323 
636	 0,103556721779858 
637	 0,10430440204463 
638	 0,104697859437025 
639	 0,106280820063386 
640	 0,108349094790221 
641	 0,108458269467133 
642	 0,108561639661034 
643	 0,109285553144477 
644	 0,109323376685203 
645	 0,109362434754223 
646	 0,110424665988 
647	 0,110569678212212 
648	 0,109818242091221 
649	 0,110137648220522 
650	 0,110073766402998 
651	 0,108800670503204 
652	 0,108287872928894 
653	 0,108009509258866 
654	 0,106251682407367 
655	 0,104664720774143 
656	 0,103741049897834 
657	 0,103005555339804 
658	 0,101938509462111 
659	 0,100075837397821 
660	 9,85900433032292E-02 
661	 9,75478030694979E-02 
662	 0,096378049417279 
663	 9,50073245160049E-02 
664	 9,34054389492737E-02 
665	 9,17352941346458E-02 
666	 9,02931333728991E-02 
667	 8,94515160003304E-02 
668	 0,089229130297937 
669	 8,93980917641567E-02 
670	 8,91582534144489E-02 
671	 8,88005027395731E-02 
672	 8,85614005472986E-02 
673	 8,81670903172591E-02 
674	 8,77186226069071E-02 
675	 0,087579202122816 
676	 8,72932857914741E-02 
677	 0,086803785225599 
678	 8,66722640395748E-02 
679	 0,087049659533166 
680	 8,80333226691533E-02 
681	 8,82732978834121E-02 
682	 8,80014492194415E-02 
683	 8,89993327308452E-02 
684	 9,04278812693237E-02 
685	 9,18052162629562E-02 
686	 9,33745917764357E-02 
687	 9,52961276094891E-02 
688	 9,77584119395868E-02 
689	 0,100891562290124 
690	 0,10470942342036 
691	 0,108998216639529 
692	 0,113759573413279 
693	 0,119022973632264 
694	 0,12495701499981 
695	 0,131789080203792 
696	 0,139947184373698 
697	 0,148978321798816 
698	 0,158533733573654 
699	 0,167931025649594 
700	 0,177545556137781 
701	 0,187953129452381 
702	 0,198791277863759 
703	 0,209772102187902 
704	 0,220576967703113 
705	 0,230792658964081 
706	 0,240247712888787 
707	 0,250119560816688 
708	 0,259795012288804 
709	 0,267816691913687 
710	 0,275804634944633 
711	 0,284157216074185 
712	 0,292333934232315 
713	 0,299712076273014 
714	 0,305799981584735 
715	 0,311885791998103 
716	 0,317994414300952 
717	 0,323522862088532 
718	 0,328522778182754 
719	 0,333025175411815 
720	 0,337255321437542 
721	 0,341269561705225 
722	 0,345082201552268 
723	 0,348357835978512 
724	 0,351210205877565 
725	 0,354186043907516 
726	 0,35714346664772 
727	 0,359920958300679 
728	 0,361923656449994 
729	 0,363416573763973 
730	 0,364986513831042 
731	 0,366682015136759 
732	 0,368451159823462 
733	 0,369901780359786 
734	 0,371135939799834 
735	 0,372256890863971 
736	 0,373233822317366 
737	 0,374199177961961 
738	 0,37550169827081 
739	 0,376553964105953 
740	 0,377217171703109 
741	 0,378091087168136 
742	 0,379044828020406 
743	 0,37986993756002 
744	 0,380462206365471 
745	 0,380880476649079 
746	 0,38141063929931 
747	 0,381826948075437 
748	 0,382042337483209 
749	 0,382310500346361 
750	 0,382661151504646 
751	 0,383086357501332 
752	 0,383498286148496 
753	 0,383877442515722 
754	 0,384297118697845 
755	 0,384600161299048 
756	 0,38471086785955 
757	 0,385040552283951 
758	 0,385552691288724 
759	 0,386068430775591 
760	 0,386274764705069 
761	 0,386233937024328 
762	 0,386824504031868 
763	 0,387383355014284 
764	 0,387283098330191 
765	 0,38726559362519 
766	 0,387471982853119 
767	 0,387880440877045 
768	 0,388296362730315 
769	 0,388598298303539 
770	 0,388677402354912 
771	 0,388722594522419 
772	 0,388961105673359 
773	 0,38910722483167 
774	 0,389173451590238 
775	 0,38937721919984 
776	 0,389672614871875 
777	 0,390020914196679 
778	 0,390358900665487 
779	 0,390541879977949 
780	 0,390378001791082 
781	 0,390388178457188 
782	 0,390634799787056 
783	 0,390786622255872 
784	 0,390828628560248 
785	 0,390799371223478 
786	 0,391144780940085 
787	 0,391595264833622 
788	 0,391562080144023 
789	 0,391520970146328 
790	 0,391658089566661 
791	 0,392165910485703 
792	 0,392395570401382 
793	 0,391910791057926 
794	 0,391901052997602 
795	 0,392244703746341 
796	 0,392205135692407 
797	 0,39243146122971 
798	 0,392929938868694 
799	 0,39272306738203 
800	 0,39244494173047 
801	 0,392706705212131 
802	 0,392848404624426 
803	 0,392880943225445 
804	 0,393130195074864 
805	 0,393496397694093 
806	 0,393862753049784 
807	 0,393817425526948 
808	 0,393719594961285 
809	 0,393965524163482 
810	 0,394014338751935 
811	 0,39394195268411 
812	 0,394263066760406 
813	 0,394642392569233 
814	 0,394885531247812 
815	 0,39469759523633 
816	 0,394699307919933 
817	 0,395614211285686 
818	 0,396219013178942 
819	 0,396271555052953 
820	 0,395918281724562 
821	 0,395836813370121 
822	 0,396283897170035 
823	 0,396486744904144 
824	 0,396372303613568 
825	 0,395966782347659 
826	 0,395985881804696 
827	 0,396408370620005 
828	 0,396563463127006 
829	 0,396608499009601 
830	 0,396623310635131 
831	 0,396633168851977 
832	 0,396764438938262 
833	 0,397172286583533 
834	 0,397157951543686 
835	 0,396816862937114 
836	 0,397080040879502 
837	 0,397293046964013 
838	 0,397188714908687 
839	 0,397478530277744 
840	 0,398088187973458 
841	 0,398803771207479 
842	 0,398671850768326 
843	 0,397884841874698 
844	 0,397934849517917 
845	 0,398120583614284 
846	 0,398057027963612 
847	 0,397807993479041 
848	 0,397730790347984 
849	 0,39830874590568 
850	 0,398223992460147 
851	 0,397615281158431 
852	 0,398159761862049 
853	 0,398390345453046 
854	 0,397738856170159 
855	 0,398120868360641 
856	 0,398906544434931 
857	 0,398962385505617 
858	 0,39860748646603 
859	 0,398210525830732 
860	 0,39874372038294 
861	 0,399102241645681 
862	 0,398859723492466 
863	 0,399332614406145 
864	 0,399927899500012 
865	 0,39972776507784 
866	 0,400126227331649 
867	 0,40090333180806 
868	 0,400399860950915 
869	 0,399765144378203 
870	 0,39959201133374 
871	 0,399853067954001 
872	 0,400059576216796 
873	 0,399663619821212 
874	 0,400031487745651 
875	 0,400893614929069 
876	 0,40056069279235 
877	 0,400436874926597 
878	 0,400933554650411 
879	 0,400795535635078 
880	 0,400618464018265 
881	 0,401091233548875 
882	 0,401109032068642 
883	 0,400677528789674 
884	 0,400304750926646 
885	 0,400463169830295 
886	 0,401218156328823 
887	 0,401851244404996 
888	 0,402008617788129 
889	 0,401485786960643 
890	 0,401388348838455 
891	 0,401647085297493 
892	 0,401595145481142 
893	 0,401782282118279 
894	 0,402204474904949 
895	 0,40214355161372 
896	 0,401835191168865 
897	 0,401497346154333 
898	 0,401084682201154 
899	 0,40086876215416 
900	 0,401303414331028 
901	 0,401804577916614 
902	 0,402074835380819 
903	 0,401779347553046 
904	 0,40144169755559 
905	 0,401444365731299 
906	 0,401887043238743 
907	 0,40241980352174 
908	 0,402540182659681 
909	 0,402445041137211 
910	 0,402248633524901 
911	 0,402119412964196 
912	 0,402197898934391 
913	 0,402432588490615 
914	 0,401999620684563 
915	 0,401733972921898 
916	 0,40256268640085 
917	 0,403097331535346 
918	 0,403025068757167 
919	 0,402351458054158 
920	 0,401495578985774 
921	 0,400783444057512 
922	 0,400665787251137 
923	 0,400851202481483 
924	 0,401070892681738 
925	 0,401523060079969 
926	 0,401843125462408 
927	 0,401406467271065 
928	 0,400110073863641 
929	 0,398680551863862 
930	 0,399766075591811 
931	 0,400587548060106 
932	 0,39961717007892 
933	 0,398685446826951 
934	 0,39798059627322 
935	 0,397484160873251 
936	 0,397145810822307 
937	 0,396882155606386 
938	 0,396492043094818 
939	 0,396368273375841 
940	 0,396412959618029 
941	 0,395401969325238 
942	 0,394202397835651 
943	 0,393652828322592 
944	 0,39359876799981 
945	 0,393335756893315 
946	 0,391584736052431 
947	 0,390750622236551 
948	 0,391022851642338 
949	 0,390371472247548 
950	 0,389461226154934 
951	 0,38861203575524 
952	 0,387358055593395 
953	 0,38595917364303 
954	 0,384787203958928 
955	 0,38404912687772 
956	 0,38340914904149 
957	 0,38178542072443 
958	 0,380905759328481 
959	 0,381039945006501 
960	 0,380393137538163 
961	 0,379843478112048 
962	 0,380000948715241 
963	 0,379847255584602 
964	 0,379258893033724 
965	 0,378278538592233 
966	 0,378866431654639 
967	 0,380298011495346 
968	 0,378743082673309 
969	 0,377305608213446 
970	 0,377081485248088 
971	 0,376274090490676 
972	 0,375473496376293 
973	 0,375346580895861 
974	 0,376093378122007 
975	 0,377573050212446 
976	 0,379596175033468 
977	 0,378505700106992 
978	 0,374934039757023 
979	 0,374532576164645 
980	 0,375658744104039 
981	 0,377299439637199 
982	 0,378467229554641 
983	 0,379025888557083 
984	 0,379035001437476 
985	 0,37946080239844 
986	 0,379757307251579 
987	 0,378410923039896 
988	 0,378882935746304 
989	 0,381100647018341 
990	 0,380984038085914 
991	 0,380826289384226 
992	 0,381553514030506 
993	 0,381306860711942 
994	 0,379814793657529 
995	 0,377358849709087 
996	 0,378983685378107 
997	 0,382892687579055 
998	 0,3837835005592 
999	 0,384991091849756 
1000	 0,386265818955207 
1001	 0,383517547398144 
1002	 0,381623442219306 
1003	 0,383084488704728 
1004	 0,386577179306088 
1005	 0,388512742487638 
1006	 0,38617868401949 
1007	 0,388382236448201 
1008	 0,392057286544186 
1009	 0,389181700209665 
1010	 0,387568774361269 
1011	 0,388271557847261 
1012	 0,387352046678523 
1013	 0,38787834670071 
1014	 0,390610648302867 
1015	 0,392879374108245 
1016	 0,392461442902944 
1017	 0,388402718053641 
1018	 0,387847808697669 
1019	 0,390027682178662 
1020	 0,392013023108076 
1021	 0,394192314429173 
1022	 0,39578956177695 
1023	 0,394883124150694 
1024	 0,392866255612835 
1025	 0,391090876975874 
1026	 0,393059883410132 
1027	 0,394005106487899 
1028	 0,391628617727036 
1029	 0,392914017036805 
1030	 0,397398125563535 
1031	 0,402902865556636 
1032	 0,397593133393007 
1033	 0,390215750215679 
1034	 0,40310012994102 
1035	 0,404553354613432 
1036	 0,393817803955992 
1037	 0,402277751338612 
1038	 0,407240412571831 
1039	 0,401025038209955 
1040	 0,400441115367891 
1041	 0,400968347157969 
1042	 0,3991849556018 
1043	 0,404759757598633 
1044	 0,410071039967761 
1045	 0,403880591578764 
1046	 0,400644023726038 
1047	 0,400565167175747 
1048	 0,395940463902375 
1049	 0,394930074072009 
1050	 0,397732909306132 
1051	 0,394498876575514 
1052	 0,397478771567144 
1053	 0,408682108677004 
1054	 0,405735694783811 
1055	 0,394373714016115 
1056	 0,383970306532185 
1057	 0,399959208075468 
1058	 0,418665114558002 
1059	 0,404252730520065 
1060	 0,40221893349883 
1061	 0,410140465521253 
1062	 0,399036222073731 
1063	 0,399062461499031 
1064	 0,41144440947735 
1065	 0,40796073079062 
1066	 0,396105261100078 
1067	 0,384964386166604 
1068	 0,403277459328198 
1069	 0,415711828171123 
1070	 0,397972591949663 
1071	 0,396543041915498 
1072	 0,408161539627995 
1073	 0,42085836048422 
1074	 0,414028821365831 
1075	 0,393632722307481 
