Wavelength	BELON00360.asd
325	 0,417048288689428 
326	 0,346453515875004 
327	 0,319610212830918 
328	 0,282277827197337 
329	 0,272559537224852 
330	 0,339610383831552 
331	 0,489841190682957 
332	 0,40182887950864 
333	 0,233046023743698 
334	 0,375413920963403 
335	 0,434774869549739 
336	 0,345958210509676 
337	 0,229119066190834 
338	 0,151741791120679 
339	 0,158168389627829 
340	 0,225278180765685 
341	 0,296657452788553 
342	 0,331906871575909 
343	 0,297664135831323 
344	 0,211261055586559 
345	 0,202956331352129 
346	 0,234118665026593 
347	 0,256832896394896 
348	 0,225645470905229 
349	 0,173180314212792 
350	 0,198209057880775 
351	 0,225831517023933 
352	 0,227891128629714 
353	 0,221056522070495 
354	 0,203613237591587 
355	 0,176116157229031 
356	 0,18740923037358 
357	 0,220264038433101 
358	 0,204007592619056 
359	 0,182486591526423 
360	 0,176710997956517 
361	 0,187538129585405 
362	 0,199999177436858 
363	 0,193435344945076 
364	 0,204646494816981 
365	 0,230744726917978 
366	 0,231561653184203 
367	 0,216413813363947 
368	 0,195770706199229 
369	 0,195438799219877 
370	 0,203513458964766 
371	 0,191351916982241 
372	 0,194630442443854 
373	 0,213679725445714 
374	 0,208283714768827 
375	 0,197990288983616 
376	 0,199485815786546 
377	 0,21420120422908 
378	 0,228121750156338 
379	 0,21023131254863 
380	 0,19581416326873 
381	 0,195034443228902 
382	 0,199661645166616 
383	 0,20000030862221 
384	 0,188740319710417 
385	 0,179602588303965 
386	 0,178944508468148 
387	 0,196908846177372 
388	 0,203983019985759 
389	 0,193211518787603 
390	 0,194461491958369 
391	 0,206093708378052 
392	 0,222808799578958 
393	 0,21902449843804 
394	 0,199865848244714 
395	 0,194653838403373 
396	 0,198060359440315 
397	 0,205376038960513 
398	 0,202994837612903 
399	 0,196104204418221 
400	 0,194606311751178 
401	 0,19377306026712 
402	 0,19225985189888 
403	 0,18891964821046 
404	 0,187074836592348 
405	 0,188439299564944 
406	 0,187247419203943 
407	 0,185255457706087 
408	 0,187340003677449 
409	 0,191422226736751 
410	 0,19588811874058 
411	 0,196007291621482 
412	 0,195668564357831 
413	 0,198264022048284 
414	 0,193152794805942 
415	 0,185690124266197 
416	 0,194704889109068 
417	 0,2014504003844 
418	 0,199038629725087 
419	 0,195342262633828 
420	 0,192393814737079 
421	 0,191837008362776 
422	 0,189198778559489 
423	 0,185224051720925 
424	 0,185003571757898 
425	 0,187979547869952 
426	 0,192710069882607 
427	 0,191310538512559 
428	 0,187411094358807 
429	 0,189279835599897 
430	 0,191832524646592 
431	 0,1931579372971 
432	 0,191780570923157 
433	 0,190323832944179 
434	 0,190850191738804 
435	 0,187189144656992 
436	 0,182783850775625 
437	 0,189311698059259 
438	 0,19389950040194 
439	 0,192179478682645 
440	 0,192049628745377 
441	 0,19291106786684 
442	 0,193138607854886 
443	 0,193823683814176 
444	 0,194441097499718 
445	 0,192405694219323 
446	 0,190704529304273 
447	 0,191265306853845 
448	 0,193878374934766 
449	 0,196286967649123 
450	 0,194541860265295 
451	 0,193016657634745 
452	 0,193265297742259 
453	 0,195462593032779 
454	 0,196908896457398 
455	 0,195338179910325 
456	 0,194716871546994 
457	 0,195571779019208 
458	 0,196945360591873 
459	 0,199382805419212 
460	 0,202044822667433 
461	 0,199134699926684 
462	 0,195288076290422 
463	 0,197265583255989 
464	 0,199878411628483 
465	 0,20109464589055 
466	 0,198588120680678 
467	 0,19667765005848 
468	 0,197903806971313 
469	 0,197004984080845 
470	 0,195861750022526 
471	 0,199917477369537 
472	 0,202573383838379 
473	 0,201769697320395 
474	 0,198647516740843 
475	 0,196743727059462 
476	 0,199254926878449 
477	 0,201193837494994 
478	 0,201611763585111 
479	 0,201149971137326 
480	 0,20046357859795 
481	 0,199802665558721 
482	 0,197929175993183 
483	 0,196436632380793 
484	 0,197827904767579 
485	 0,198860832105872 
486	 0,198593620419903 
487	 0,197283445769424 
488	 0,195491601817233 
489	 0,193891662296014 
490	 0,194675378206735 
491	 0,196738847194173 
492	 0,196793958641345 
493	 0,19757206646679 
494	 0,19904651363319 
495	 0,196128254237311 
496	 0,192910838839812 
497	 0,194281167602881 
498	 0,195399292899971 
499	 0,19564345515972 
500	 0,196702515893704 
501	 0,197716258703182 
502	 0,198235766739033 
503	 0,19885587585141 
504	 0,199292198893629 
505	 0,198858879670187 
506	 0,199009665245413 
507	 0,199969164845472 
508	 0,200737304473505 
509	 0,200902533606258 
510	 0,200251400817313 
511	 0,200819983296637 
512	 0,20239822433773 
513	 0,203482405075653 
514	 0,204089853419698 
515	 0,204310494413578 
516	 0,204842567770746 
517	 0,205861543243384 
518	 0,207562052549045 
519	 0,207550363517878 
520	 0,205994608415785 
521	 0,205940868216451 
522	 0,205914618610692 
523	 0,20497424067472 
524	 0,205313805024836 
525	 0,206356683869323 
526	 0,206151812235533 
527	 0,205497005887582 
528	 0,204831743361032 
529	 0,205112845573464 
530	 0,205490618337465 
531	 0,204929531226572 
532	 0,2040127259931 
533	 0,203267507447047 
534	 0,20387217801494 
535	 0,204453832416387 
536	 0,204230363118916 
537	 0,203924865794112 
538	 0,204046449955718 
539	 0,205453851186904 
540	 0,205983160081505 
541	 0,205233574990948 
542	 0,204895667126601 
543	 0,204824875526016 
544	 0,204791128031869 
545	 0,204859632894316 
546	 0,204806450015675 
547	 0,203920274332814 
548	 0,203425092384361 
549	 0,203895863414488 
550	 0,204583891988567 
551	 0,205366620980104 
552	 0,206259192358019 
553	 0,206283673083827 
554	 0,205477839086567 
555	 0,205228974435921 
556	 0,205039259641082 
557	 0,204534248964486 
558	 0,204949079093384 
559	 0,205498171194213 
560	 0,203523061814376 
561	 0,202321366391476 
562	 0,202907966317024 
563	 0,202510884646501 
564	 0,201706573350543 
565	 0,20157241862048 
566	 0,201815507856029 
567	 0,20219640737265 
568	 0,202099533565327 
569	 0,202018931979075 
570	 0,20233486260113 
571	 0,203099928765808 
572	 0,204151784978573 
573	 0,205132505827573 
574	 0,206196488081221 
575	 0,20736479397571 
576	 0,208486679634839 
577	 0,209863344320153 
578	 0,211818408632223 
579	 0,213290971146355 
580	 0,214300664118791 
581	 0,215821916872453 
582	 0,217055027809185 
583	 0,217657119428865 
584	 0,218744618353972 
585	 0,220079289145778 
586	 0,221003216615866 
587	 0,221583614147503 
588	 0,221908003074721 
589	 0,222262888696444 
590	 0,222809356434797 
591	 0,223671981062274 
592	 0,224703432907076 
593	 0,225631943255571 
594	 0,225832142588236 
595	 0,226082558457235 
596	 0,226653739997174 
597	 0,226726686421037 
598	 0,226461908582771 
599	 0,22621083983384 
600	 0,22622669104281 
601	 0,226339103009875 
602	 0,225518709130766 
603	 0,224728391294906 
604	 0,224694277105794 
605	 0,224401336517573 
606	 0,223793187591301 
607	 0,22316397046399 
608	 0,222459485154897 
609	 0,22177833887008 
610	 0,221723781570359 
611	 0,221495995460923 
612	 0,220076385520011 
613	 0,219084089006302 
614	 0,218739512216918 
615	 0,218308966057554 
616	 0,217932307174536 
617	 0,217651229744956 
618	 0,217064337331423 
619	 0,21648385737767 
620	 0,216638169118326 
621	 0,216806404542593 
622	 0,216727562712443 
623	 0,216406228568293 
624	 0,216172683134789 
625	 0,216354446095889 
626	 0,216462667786261 
627	 0,216584743587652 
628	 0,217345355698345 
629	 0,217909792740508 
630	 0,217930141746338 
631	 0,218252312131044 
632	 0,218995609839999 
633	 0,220213489163539 
634	 0,220907908239385 
635	 0,221032091080278 
636	 0,221829761306579 
637	 0,222532858484673 
638	 0,222582414106991 
639	 0,223921693092802 
640	 0,225964579394481 
641	 0,22636228890671 
642	 0,226780769039761 
643	 0,227734809640093 
644	 0,228127141731781 
645	 0,228495689727378 
646	 0,229653888921789 
647	 0,22982937022038 
648	 0,228959404131213 
649	 0,228468741879282 
650	 0,228041225685355 
651	 0,227453498200696 
652	 0,226655587765878 
653	 0,225575277810453 
654	 0,22405758251551 
655	 0,222687340974297 
656	 0,22163656648547 
657	 0,220614291937003 
658	 0,219369170399244 
659	 0,217678929524327 
660	 0,216047683471839 
661	 0,214436477289593 
662	 0,212304969345007 
663	 0,210429204295537 
664	 0,209189415057965 
665	 0,20819053345924 
666	 0,20715265513829 
667	 0,205697639608069 
668	 0,20484611971342 
669	 0,204672585608369 
670	 0,20422843552373 
671	 0,203784867094428 
672	 0,203547274694589 
673	 0,203088484828262 
674	 0,202539930854627 
675	 0,202423939529367 
676	 0,202114718629734 
677	 0,201549720360828 
678	 0,20168878931462 
679	 0,202157381006889 
680	 0,202420227762536 
681	 0,202738118283237 
682	 0,203293043203958 
683	 0,204451620030489 
684	 0,205832742458294 
685	 0,207202302259154 
686	 0,208456377256041 
687	 0,210392329241049 
688	 0,21447809241796 
689	 0,218135738835903 
690	 0,22109949027599 
691	 0,225859308366287 
692	 0,231662118064339 
693	 0,237761202663189 
694	 0,244593109696475 
695	 0,252359823374955 
696	 0,261377473881652 
697	 0,271178653167141 
698	 0,281509271815578 
699	 0,292233161279123 
700	 0,303399967650865 
701	 0,315107766228464 
702	 0,327210984794509 
703	 0,339392672151497 
704	 0,350999553166328 
705	 0,362498018842205 
706	 0,374118007771782 
707	 0,385294866222735 
708	 0,395875374818091 
709	 0,405805478074682 
710	 0,415070668802811 
711	 0,42389547030197 
712	 0,433362531975133 
713	 0,442191600728226 
714	 0,449231755125356 
715	 0,45627822090667 
716	 0,463319579602008 
717	 0,469353604367352 
718	 0,475189799308623 
719	 0,481000362496325 
720	 0,485812339972416 
721	 0,489991002118388 
722	 0,494085646583989 
723	 0,49826341979612 
724	 0,502353599666795 
725	 0,505523373880611 
726	 0,508382665495953 
727	 0,511271486690641 
728	 0,513597441554786 
729	 0,515492095477384 
730	 0,517294633799171 
731	 0,51910121091111 
732	 0,520937449680647 
733	 0,522691875823234 
734	 0,524237633731281 
735	 0,525480691778719 
736	 0,526700608611734 
737	 0,527855289095564 
738	 0,528660913774065 
739	 0,529515148803024 
740	 0,530509064482986 
741	 0,531215386567261 
742	 0,531740508068928 
743	 0,532251946723966 
744	 0,53284736395945 
745	 0,533465994813643 
746	 0,533814962367458 
747	 0,534210596732255 
748	 0,534766896928822 
749	 0,535010553205645 
750	 0,535079938877553 
751	 0,535263103135571 
752	 0,535632789446078 
753	 0,536038500185235 
754	 0,535749695226381 
755	 0,535723317815397 
756	 0,536557438463012 
757	 0,536848280024192 
758	 0,536759699444394 
759	 0,53708302060205 
760	 0,537411591644093 
761	 0,537608054327009 
762	 0,537603553385996 
763	 0,537641653601768 
764	 0,537930071885951 
765	 0,537993442185809 
766	 0,53785855929748 
767	 0,537768308616509 
768	 0,538057060615504 
769	 0,538705279189312 
770	 0,538741212941912 
771	 0,5384351082441 
772	 0,53821675695914 
773	 0,538360100928113 
774	 0,538761971574873 
775	 0,538891101963735 
776	 0,538867122983197 
777	 0,538767072821886 
778	 0,538736127758859 
779	 0,53874200689371 
780	 0,538699036477962 
781	 0,53892134209788 
782	 0,539313966700894 
783	 0,539249452751752 
784	 0,539147989388594 
785	 0,539278033357381 
786	 0,539394307846718 
787	 0,539462085063983 
788	 0,539494619165866 
789	 0,53930614513796 
790	 0,538977513319995 
791	 0,53899860444941 
792	 0,539338986109176 
793	 0,539876992123401 
794	 0,539749794734648 
795	 0,539223819659098 
796	 0,539157396957476 
797	 0,539357324655588 
798	 0,539701816502481 
799	 0,539887932998155 
800	 0,539772540272349 
801	 0,539291281333244 
802	 0,539174520590233 
803	 0,539418490029449 
804	 0,539653912626118 
805	 0,53973026614324 
806	 0,539623159126348 
807	 0,539682173056385 
808	 0,539793358545607 
809	 0,539806198844382 
810	 0,539710462528649 
811	 0,53960203332807 
812	 0,539766257603431 
813	 0,539853950608541 
814	 0,539764110363455 
815	 0,539799430712746 
816	 0,540103079729745 
817	 0,540784693777173 
818	 0,540983141486661 
819	 0,540765841580406 
820	 0,54098589037444 
821	 0,541189500243214 
822	 0,541208079845937 
823	 0,541381530988527 
824	 0,541499998986035 
825	 0,541265589773362 
826	 0,541098375096891 
827	 0,541047133605472 
828	 0,540854889643139 
829	 0,540944168988001 
830	 0,541413048807133 
831	 0,541368674882433 
832	 0,541073803848467 
833	 0,541019659871976 
834	 0,541282658817737 
835	 0,541662079191315 
836	 0,541423895253683 
837	 0,541136758551969 
838	 0,541121089669601 
839	 0,541205806897393 
840	 0,541451720809167 
841	 0,541962663940936 
842	 0,541800913964436 
843	 0,541119388892469 
844	 0,541238780865951 
845	 0,541518268668369 
846	 0,541588461609671 
847	 0,541435988839373 
848	 0,54134937460675 
849	 0,541732539291273 
850	 0,541842597783684 
851	 0,54161833359333 
852	 0,541532339922149 
853	 0,541398342814742 
854	 0,541206570757443 
855	 0,541536173730164 
856	 0,542003493101828 
857	 0,542012020683199 
858	 0,541449760088285 
859	 0,540761050900284 
860	 0,541508237650777 
861	 0,541863987739872 
862	 0,541123330656803 
863	 0,541404472695793 
864	 0,542114272241087 
865	 0,542208526661158 
866	 0,542636286783357 
867	 0,54323489685928 
868	 0,542857753128988 
869	 0,542618949299297 
870	 0,542946574854815 
871	 0,542923386484644 
872	 0,542650540419559 
873	 0,542367124133875 
874	 0,542640400348764 
875	 0,543190440899862 
876	 0,542760977238493 
877	 0,542735897683894 
878	 0,543444278419074 
879	 0,543174839345273 
880	 0,542823421627011 
881	 0,543407250330735 
882	 0,542990427585867 
883	 0,541899953113859 
884	 0,541957013867172 
885	 0,542344694845334 
886	 0,542699537504526 
887	 0,542706029085244 
888	 0,542358441454637 
889	 0,541762615111885 
890	 0,541990247130136 
891	 0,542641071456363 
892	 0,542398378619739 
893	 0,542207443903557 
894	 0,542156917548762 
895	 0,541212999784297 
896	 0,540604806813376 
897	 0,541228354940206 
898	 0,541796755718189 
899	 0,542108232720898 
900	 0,542204357156057 
901	 0,542130828496354 
902	 0,5420729604246 
903	 0,542722141775143 
904	 0,542733317325162 
905	 0,541534175236237 
906	 0,541510169133593 
907	 0,542132591768524 
908	 0,542225039971481 
909	 0,542975973781298 
910	 0,543928551649394 
911	 0,542864211570659 
912	 0,541725411500526 
913	 0,541467661424727 
914	 0,541645448736214 
915	 0,541908678062188 
916	 0,541919363664419 
917	 0,542191890090594 
918	 0,542584223114325 
919	 0,542585789796547 
920	 0,541964344128674 
921	 0,540976543267056 
922	 0,541262316210803 
923	 0,54148468476868 
924	 0,540585533554013 
925	 0,540233742964588 
926	 0,540240059957907 
927	 0,539821417196285 
928	 0,538780846107981 
929	 0,537596759283871 
930	 0,538103318229288 
931	 0,539217265332938 
932	 0,539929471640763 
933	 0,538346637106949 
934	 0,536157366798845 
935	 0,535779867848659 
936	 0,536286332955381 
937	 0,536756002398626 
938	 0,535095046416698 
939	 0,533995682739653 
940	 0,534199809838182 
941	 0,533779688319128 
942	 0,532747362341101 
943	 0,531308790608553 
944	 0,530434931884406 
945	 0,530139551329587 
946	 0,530165001332279 
947	 0,528739782326607 
948	 0,526429927849943 
949	 0,52745759613561 
950	 0,527751835999799 
951	 0,525419141970341 
952	 0,524574024883077 
953	 0,524481486993576 
954	 0,523735278503587 
955	 0,522271470816254 
956	 0,520495383070329 
957	 0,519454817421379 
958	 0,518975429648493 
959	 0,518616938224553 
960	 0,516407867548812 
961	 0,515187983571319 
962	 0,516847521092834 
963	 0,518082602740678 
964	 0,517696906226722 
965	 0,514738776850072 
966	 0,51435486997714 
967	 0,516413824649334 
968	 0,516113086890802 
969	 0,515491622343196 
970	 0,515152141939642 
971	 0,513804447026214 
972	 0,512750174152714 
973	 0,513104936388036 
974	 0,513094051416899 
975	 0,512933734437457 
976	 0,513580774002714 
977	 0,513407980182667 
978	 0,512196020559973 
979	 0,51053576319841 
980	 0,510504421352199 
981	 0,51284975529963 
982	 0,515298081259769 
983	 0,516451861925776 
984	 0,515310903362234 
985	 0,514370918246329 
986	 0,51413724767952 
987	 0,514498537433427 
988	 0,515927175945417 
989	 0,51776670982634 
990	 0,517565904084542 
991	 0,516509675521056 
992	 0,515544163138777 
993	 0,515927696102436 
994	 0,516841831988183 
995	 0,517373944132292 
996	 0,518876703039465 
997	 0,520230847682591 
998	 0,518831210097138 
999	 0,519487018784763 
1000	 0,522349313595371 
1001	 0,522737663036171 
1002	 0,522866465205243 
1003	 0,52362227026024 
1004	 0,523376973805798 
1005	 0,523234591037428 
1006	 0,52439184382459 
1007	 0,527017581223542 
1008	 0,529044273531173 
1009	 0,526926644333782 
1010	 0,527050504010648 
1011	 0,529430248431195 
1012	 0,527821126826837 
1013	 0,527799970413381 
1014	 0,530704597212219 
1015	 0,530560893839075 
1016	 0,52783229300159 
1017	 0,524119388058314 
1018	 0,527241463514986 
1019	 0,5313845170242 
1020	 0,526586129630333 
1021	 0,528678199568234 
1022	 0,536327658903509 
1023	 0,535179129888916 
1024	 0,533958655785898 
1025	 0,534864294983119 
1026	 0,534521346451566 
1027	 0,532635421307093 
1028	 0,529791445864103 
1029	 0,530467510094685 
1030	 0,533077906000398 
1031	 0,535055426453432 
1032	 0,53510881967968 
1033	 0,53524090081778 
1034	 0,540270422265541 
1035	 0,539841211861104 
1036	 0,535579270190198 
1037	 0,54459013455132 
1038	 0,549588171724111 
1039	 0,543422830649051 
1040	 0,532375014996077 
1041	 0,529437680705134 
1042	 0,542301089492399 
1043	 0,546343703733786 
1044	 0,542908798316452 
1045	 0,539143201275589 
1046	 0,543122681518494 
1047	 0,549297698238889 
1048	 0,539645364526433 
1049	 0,537772683246347 
1050	 0,546020937220503 
1051	 0,543868849184053 
1052	 0,54199621861404 
1053	 0,54521573475889 
1054	 0,549134119598227 
1055	 0,550940641807096 
1056	 0,548574955229533 
1057	 0,544652513657666 
1058	 0,54218211648302 
1059	 0,544500661185534 
1060	 0,553148422208431 
1061	 0,55994585312012 
1062	 0,545741150785405 
1063	 0,548243696554475 
1064	 0,565669164428167 
1065	 0,544720652434325 
1066	 0,539972406994416 
1067	 0,564525373185299 
1068	 0,556969758061215 
1069	 0,537175260253407 
1070	 0,526190546489516 
1071	 0,529715306398469 
1072	 0,543999578493938 
1073	 0,561332027878159 
1074	 0,559944581091242 
1075	 0,547234822134699 
