Wavelength	BLAVET00154.asd
325	 0,32353743972341 
326	 0,330724546150543 
327	 0,315543338084572 
328	 0,301731177917333 
329	 0,46059785048863 
330	 0,551458524298468 
331	 0,355692709321337 
332	 0,225004991380476 
333	 0,184528842263886 
334	 0,250406814411954 
335	 0,292677679405985 
336	 0,286230609198269 
337	 0,29938275796507 
338	 0,300712983034512 
339	 0,261344673876767 
340	 0,279596961816382 
341	 0,315916808686111 
342	 0,261625032191604 
343	 0,195464893884635 
344	 0,141736718953116 
345	 0,151372432117775 
346	 0,182257231989175 
347	 0,199221002469727 
348	 0,204558682820046 
349	 0,200935309821378 
350	 0,196131544778467 
351	 0,203584406530582 
352	 0,218323491705218 
353	 0,174651788893686 
354	 0,132243466038704 
355	 0,154187050554295 
356	 0,179967925776738 
357	 0,193658051896706 
358	 0,186553078038972 
359	 0,178010874149775 
360	 0,175667304396931 
361	 0,159129155132736 
362	 0,151961771706361 
363	 0,184793793473605 
364	 0,21973161144873 
365	 0,236964612348395 
366	 0,202996243869424 
367	 0,176428996307561 
368	 0,187289774885367 
369	 0,184754387786894 
370	 0,171320535920559 
371	 0,164800564806938 
372	 0,150833082817238 
373	 0,13697441029471 
374	 0,173567825641797 
375	 0,191947589843362 
376	 0,147755110296534 
377	 0,141792612001387 
378	 0,166503454953567 
379	 0,16963260495796 
380	 0,173290288541821 
381	 0,179235439972667 
382	 0,170747738211975 
383	 0,166408150839681 
384	 0,18393068523226 
385	 0,201856974425698 
386	 0,208303012503512 
387	 0,185081673694758 
388	 0,167375534917219 
389	 0,168492008447942 
390	 0,154490741789165 
391	 0,146874578761283 
392	 0,172350237959773 
393	 0,179044039954752 
394	 0,167010316734831 
395	 0,170052133668363 
396	 0,171804227755111 
397	 0,165474233926725 
398	 0,163915694109616 
399	 0,166410174402197 
400	 0,169639575389875 
401	 0,174592386121302 
402	 0,177100343046314 
403	 0,160487003060418 
404	 0,152724503270631 
405	 0,169890913313084 
406	 0,173106281044294 
407	 0,166743184783487 
408	 0,171983245048558 
409	 0,172421730788709 
410	 0,165014704990295 
411	 0,156929989650563 
412	 0,15326089638904 
413	 0,157937729204305 
414	 0,163184128634278 
415	 0,165694629405735 
416	 0,160910040582971 
417	 0,158591966336879 
418	 0,161549288250855 
419	 0,158588237199618 
420	 0,155206652532711 
421	 0,159341097119539 
422	 0,163877032262123 
423	 0,165989733681619 
424	 0,161637388002692 
425	 0,159176273608549 
426	 0,162524871836464 
427	 0,158661485986347 
428	 0,153128515190456 
429	 0,159488211045772 
430	 0,159297930990198 
431	 0,151775252332305 
432	 0,158373290695394 
433	 0,165160939637723 
434	 0,159826309676392 
435	 0,158275781726313 
436	 0,159779424683144 
437	 0,154653520491845 
438	 0,151515153662103 
439	 0,15344436204926 
440	 0,156040571096821 
441	 0,15849298439069 
442	 0,160464711897483 
443	 0,157718784752782 
444	 0,152350544900564 
445	 0,154480229786397 
446	 0,157177963629166 
447	 0,156302531258213 
448	 0,155719800912266 
449	 0,155996933413574 
450	 0,157365263549561 
451	 0,157497391853926 
452	 0,156452896667673 
453	 0,158150181997801 
454	 0,159832229764322 
455	 0,159007473990444 
456	 0,161032685281583 
457	 0,163730966668357 
458	 0,158100734104595 
459	 0,156240752361994 
460	 0,161459799985984 
461	 0,158756028905144 
462	 0,154479802486538 
463	 0,158869682057821 
464	 0,162263169165899 
465	 0,162680827275055 
466	 0,162482596289429 
467	 0,161615901729109 
468	 0,160245629945178 
469	 0,1595190453324 
470	 0,159484829095123 
471	 0,15989774386899 
472	 0,159960742727123 
473	 0,159773683299943 
474	 0,161580931203786 
475	 0,162487867662361 
476	 0,159692048999357 
477	 0,157293818087114 
478	 0,156589006371702 
479	 0,158504092264058 
480	 0,160805264257254 
481	 0,162126937883714 
482	 0,161385070842608 
483	 0,160169849478938 
484	 0,161024798555302 
485	 0,159931093757751 
486	 0,157501517838217 
487	 0,160344894729273 
488	 0,162396350138503 
489	 0,159506198521705 
490	 0,159264994409435 
491	 0,161032962172387 
492	 0,160333311797858 
493	 0,160373785727212 
494	 0,161739824587667 
495	 0,16197815702527 
496	 0,160803645668777 
497	 0,158186262367596 
498	 0,159135642344501 
499	 0,162682722807241 
500	 0,162174634800194 
501	 0,161498979785019 
502	 0,162506053141459 
503	 0,161275776876877 
504	 0,159721492199726 
505	 0,162045875342939 
506	 0,163136607009446 
507	 0,162303625746374 
508	 0,163900976903002 
509	 0,164862630763028 
510	 0,162494578506991 
511	 0,161057011081375 
512	 0,161231821774132 
513	 0,1624083866707 
514	 0,164174424731845 
515	 0,165848281367195 
516	 0,164788977726452 
517	 0,163727376646653 
518	 0,166826667226565 
519	 0,167846349362282 
520	 0,166170227107791 
521	 0,165617905107345 
522	 0,165938237546247 
523	 0,166752454865779 
524	 0,166259656944944 
525	 0,165107236746738 
526	 0,165406322240262 
527	 0,165844655563197 
528	 0,166015326043154 
529	 0,166308074567525 
530	 0,166246340796072 
531	 0,165292877693172 
532	 0,164567528013579 
533	 0,164540579688106 
534	 0,165816139431148 
535	 0,166701483444567 
536	 0,166268626844978 
537	 0,165892619590649 
538	 0,165693720448783 
539	 0,165509051097063 
540	 0,165360834919499 
541	 0,165251041669353 
542	 0,165244977372107 
543	 0,164990102774949 
544	 0,164210863519532 
545	 0,164441536150289 
546	 0,165484910039604 
547	 0,16596565797536 
548	 0,166199524296052 
549	 0,166316170060709 
550	 0,166405714206952 
551	 0,16642313914446 
552	 0,166257809467203 
553	 0,166270852616621 
554	 0,166482317044416 
555	 0,166440395812434 
556	 0,16666795484544 
557	 0,167481449044823 
558	 0,167101467946166 
559	 0,165880625717647 
560	 0,165506542758815 
561	 0,165077984608064 
562	 0,164365203929802 
563	 0,163911376725321 
564	 0,163878197337492 
565	 0,164398700656936 
566	 0,165019992162811 
567	 0,165541965752692 
568	 0,165755385086848 
569	 0,166256485677244 
570	 0,167367918163291 
571	 0,16796769845438 
572	 0,168052381593657 
573	 0,167882061265315 
574	 0,16857223237025 
575	 0,170174646456008 
576	 0,170444009175555 
577	 0,170540892639887 
578	 0,171920842118265 
579	 0,173467903153836 
580	 0,174621957379772 
581	 0,174505890960394 
582	 0,17432896747321 
583	 0,17482445600029 
584	 0,175487230644339 
585	 0,176641474770935 
586	 0,179129667080123 
587	 0,179873433953984 
588	 0,178689039476075 
589	 0,179418265142291 
590	 0,180517907450957 
591	 0,18046591651808 
592	 0,181103611876551 
593	 0,182101539012979 
594	 0,18150660051729 
595	 0,181394628367375 
596	 0,182502228192095 
597	 0,182853596226813 
598	 0,182526129250959 
599	 0,18196337966962 
600	 0,181283379101331 
601	 0,180737458107502 
602	 0,180953065392162 
603	 0,181142280242253 
604	 0,180725888965561 
605	 0,180815784218259 
606	 0,181008650429947 
607	 0,179819620418209 
608	 0,17879378541603 
609	 0,178495200465283 
610	 0,178517330763114 
611	 0,17824662808811 
612	 0,176991344527494 
613	 0,176558430075658 
614	 0,176869950197945 
615	 0,175991739611303 
616	 0,175374655643295 
617	 0,17584162824881 
618	 0,175855295050276 
619	 0,17568256452249 
620	 0,176431475318109 
621	 0,176097055859753 
622	 0,174628888774944 
623	 0,175171372916814 
624	 0,176073856416047 
625	 0,175512785372402 
626	 0,175410182329098 
627	 0,175909835566288 
628	 0,176330674943808 
629	 0,176268838768961 
630	 0,175670512435621 
631	 0,175910881558058 
632	 0,176665272175792 
633	 0,177112790327845 
634	 0,177934100758734 
635	 0,179028569876454 
636	 0,179269792272726 
637	 0,179448348861598 
638	 0,180260993339038 
639	 0,181430158637671 
640	 0,182540830781798 
641	 0,18274811714532 
642	 0,182524954171902 
643	 0,182299361572664 
644	 0,183251140493771 
645	 0,184637687072338 
646	 0,185367262535293 
647	 0,185621726898051 
648	 0,185401203581355 
649	 0,184686314007266 
650	 0,183760028113834 
651	 0,182856714683245 
652	 0,182086431563537 
653	 0,181466442840468 
654	 0,181037693817779 
655	 0,180242698543205 
656	 0,178929308478253 
657	 0,177429534288395 
658	 0,176057623126898 
659	 0,175084532304761 
660	 0,17373557907781 
661	 0,172146216545822 
662	 0,171134601145216 
663	 0,17049771596687 
664	 0,170051923274318 
665	 0,169291917643049 
666	 0,168226366277294 
667	 0,166926012692661 
668	 0,166614159553147 
669	 0,16709422776553 
670	 0,166024803679073 
671	 0,165027644830529 
672	 0,165394794059057 
673	 0,165882923782205 
674	 0,166084440146073 
675	 0,16550253463829 
676	 0,165249537176895 
677	 0,16564653673734 
678	 0,16583364608253 
679	 0,165865779976524 
680	 0,165898171130227 
681	 0,16656760269417 
682	 0,167619228265795 
683	 0,167710283680001 
684	 0,167894248327478 
685	 0,168833894999298 
686	 0,170426778600862 
687	 0,172250033503962 
688	 0,173551775273139 
689	 0,175414517236593 
690	 0,178157436878986 
691	 0,181467379083456 
692	 0,185279280748005 
693	 0,189568444959951 
694	 0,194631873548145 
695	 0,200464224068878 
696	 0,206940360393358 
697	 0,213859293947124 
698	 0,221162183160091 
699	 0,229105061060163 
700	 0,237583040082281 
701	 0,246442165553089 
702	 0,255160645965533 
703	 0,263689494595577 
704	 0,272477568510912 
705	 0,281309681226071 
706	 0,289986441135525 
707	 0,298150418802634 
708	 0,305961593331952 
709	 0,313795009059316 
710	 0,321564933157905 
711	 0,329161047626254 
712	 0,336207195696698 
713	 0,342889413961043 
714	 0,349371202242106 
715	 0,35564573784108 
716	 0,361603187794735 
717	 0,366928075340299 
718	 0,371820401161016 
719	 0,376392074239457 
720	 0,380794388485853 
721	 0,384860872093883 
722	 0,388368216670548 
723	 0,391839748636064 
724	 0,39523089736812 
725	 0,397863521741682 
726	 0,400472206773669 
727	 0,403430812562337 
728	 0,405756270754115 
729	 0,407616267421698 
730	 0,409566240415085 
731	 0,411176813282176 
732	 0,412487182249916 
733	 0,414177294156177 
734	 0,415749450316643 
735	 0,416787800439566 
736	 0,41798935768785 
737	 0,419308336425951 
738	 0,420315177293753 
739	 0,421235398534512 
740	 0,422109103570132 
741	 0,422626576491797 
742	 0,423330086536831 
743	 0,424831947292856 
744	 0,425514335893861 
745	 0,425466118541046 
746	 0,426157383664133 
747	 0,426908870907589 
748	 0,427405140229645 
749	 0,428055583908176 
750	 0,428717774007782 
751	 0,429105740969339 
752	 0,429589849639312 
753	 0,430201785643887 
754	 0,430663607303764 
755	 0,431021581707998 
756	 0,431330788366214 
757	 0,431759117453766 
758	 0,432221779617851 
759	 0,432496611448773 
760	 0,432692092464295 
761	 0,432864418499248 
762	 0,433052045581245 
763	 0,43343991010705 
764	 0,434147646294869 
765	 0,434329228097644 
766	 0,434171177253775 
767	 0,43458939125179 
768	 0,435077538744527 
769	 0,435428875154709 
770	 0,435601072712824 
771	 0,435809029679615 
772	 0,436302014440311 
773	 0,436638608834346 
774	 0,436772057160772 
775	 0,436906857249414 
776	 0,436938467370715 
777	 0,436929858645233 
778	 0,437669590896585 
779	 0,438470448139387 
780	 0,438211827055012 
781	 0,438308612579331 
782	 0,438943388575929 
783	 0,439419674747715 
784	 0,439430116680634 
785	 0,438917183471871 
786	 0,439276791359738 
787	 0,439959373564346 
788	 0,439595527871447 
789	 0,439621765189272 
790	 0,440253269777421 
791	 0,440559903069934 
792	 0,440533039471248 
793	 0,440257541873929 
794	 0,440498864566706 
795	 0,441128246634004 
796	 0,441606024181737 
797	 0,441835263333801 
798	 0,441856609650729 
799	 0,44218429134868 
800	 0,442465324543995 
801	 0,442374046342443 
802	 0,442405714933397 
803	 0,442687337466015 
804	 0,443336614491473 
805	 0,443768956135285 
806	 0,443804000546734 
807	 0,443881814660214 
808	 0,444033875077443 
809	 0,44426294096666 
810	 0,444643448957952 
811	 0,44509768707466 
812	 0,445404779295595 
813	 0,445635924817643 
814	 0,445805423828717 
815	 0,445807895204694 
816	 0,445930192840377 
817	 0,446502664706262 
818	 0,44713844344439 
819	 0,447640565870808 
820	 0,447792550638793 
821	 0,447624058280223 
822	 0,447313517377354 
823	 0,447830140687496 
824	 0,448455535730077 
825	 0,448161601838576 
826	 0,448188772835385 
827	 0,448598818657203 
828	 0,448544011657 
829	 0,448824761394034 
830	 0,449694512056077 
831	 0,450004280326544 
832	 0,449774516402006 
833	 0,449224049993923 
834	 0,449496209552924 
835	 0,4503923528662 
836	 0,450224690419187 
837	 0,449913166521046 
838	 0,449989701039 
839	 0,45046040921548 
840	 0,450974915627296 
841	 0,451044462220062 
842	 0,451073257217648 
843	 0,451105603816148 
844	 0,450883000039288 
845	 0,45089134741955 
846	 0,451377189594684 
847	 0,452007479634569 
848	 0,452518780550926 
849	 0,452617578123607 
850	 0,452787790318372 
851	 0,453019277578437 
852	 0,452791540408887 
853	 0,45276952930287 
854	 0,453253436253304 
855	 0,453592602403013 
856	 0,453828392205359 
857	 0,45412250698577 
858	 0,45375950001896 
859	 0,453145501674444 
860	 0,454119289949917 
861	 0,455056154326746 
862	 0,45510255174721 
863	 0,454786856035373 
864	 0,454422053577284 
865	 0,45434368760239 
866	 0,45451254855555 
867	 0,454843687130728 
868	 0,455080485038744 
869	 0,455452572406423 
870	 0,455990019610583 
871	 0,456274674868239 
872	 0,456280900430434 
873	 0,45605246167475 
874	 0,456173257430762 
875	 0,456651714930893 
876	 0,457139563853623 
877	 0,457362953918187 
878	 0,457223477459715 
879	 0,457006232462524 
880	 0,456899362717603 
881	 0,457089784439543 
882	 0,457916089069086 
883	 0,458944540410754 
884	 0,458905390710714 
885	 0,45873766710333 
886	 0,45886464192485 
887	 0,459638151010098 
888	 0,460115749657213 
889	 0,459474404476661 
890	 0,458991949615317 
891	 0,458910148526705 
892	 0,459146892560402 
893	 0,4598332803302 
894	 0,460762730616705 
895	 0,461067857806512 
896	 0,460837554970244 
897	 0,460281805324336 
898	 0,460366507897056 
899	 0,460805201742844 
900	 0,460792605314644 
901	 0,46066042557334 
902	 0,460693048556657 
903	 0,461706875219886 
904	 0,462241355532948 
905	 0,461529186291249 
906	 0,461199684564735 
907	 0,461340958174905 
908	 0,461766263992184 
909	 0,461856603819376 
910	 0,46171145791635 
911	 0,462185320037585 
912	 0,462857723946895 
913	 0,463369255100222 
914	 0,462974371139926 
915	 0,462159325512327 
916	 0,461588348845349 
917	 0,461936267915173 
918	 0,462766978037888 
919	 0,462512144540848 
920	 0,462908700347486 
921	 0,463968100770083 
922	 0,462787584816904 
923	 0,461691373592172 
924	 0,462544086158288 
925	 0,462709002383791 
926	 0,462374845711565 
927	 0,462642478937896 
928	 0,462638266779579 
929	 0,462429343380158 
930	 0,463304627900869 
931	 0,463284903766719 
932	 0,461637070932079 
933	 0,461846674535169 
934	 0,462750950465487 
935	 0,462381485410532 
936	 0,461829356876882 
937	 0,461390131592917 
938	 0,461254365690346 
939	 0,461117721332064 
940	 0,460860691178324 
941	 0,460529373659363 
942	 0,460368200626751 
943	 0,460451492143778 
944	 0,45901633238356 
945	 0,457619223715584 
946	 0,459677583501048 
947	 0,460476763801601 
948	 0,458981639069047 
949	 0,456717750300627 
950	 0,455359691732575 
951	 0,455682853890319 
952	 0,4556158393223 
953	 0,455033749900639 
954	 0,454075828100319 
955	 0,452713424372277 
956	 0,451230937489851 
957	 0,450290481387622 
958	 0,449081890456273 
959	 0,447793637234345 
960	 0,448385643228663 
961	 0,449626477905114 
962	 0,450338661904347 
963	 0,449557940389941 
964	 0,448394539026977 
965	 0,448728487189181 
966	 0,44892311648262 
967	 0,448719570292854 
968	 0,448376363007352 
969	 0,449397646609403 
970	 0,451716044213006 
971	 0,451493025648205 
972	 0,449756640553655 
973	 0,448017400465977 
974	 0,449186195503018 
975	 0,451612321730674 
976	 0,451505466918363 
977	 0,449361121068244 
978	 0,446812951508567 
979	 0,449030954205653 
980	 0,450943516334902 
981	 0,450259273531011 
982	 0,449767959669125 
983	 0,450190808934798 
984	 0,451810656742809 
985	 0,451421141610657 
986	 0,450102126292444 
987	 0,451167373877913 
988	 0,451563998987486 
989	 0,450878676325777 
990	 0,450575035509405 
991	 0,451825738515318 
992	 0,454522519864094 
993	 0,454037598649565 
994	 0,453177278749629 
995	 0,455076147126385 
996	 0,456311255390332 
997	 0,45703986722529 
998	 0,458832774377686 
999	 0,458243793994316 
1000	 0,455721917481517 
1001	 0,456303796288165 
1002	 0,45795769735283 
1003	 0,459359868302354 
1004	 0,458916468993561 
1005	 0,459195943647031 
1006	 0,462290048753327 
1007	 0,461158583195742 
1008	 0,458839193204448 
1009	 0,462700576355404 
1010	 0,465338742129979 
1011	 0,465250963685727 
1012	 0,464748565332114 
1013	 0,462844926856957 
1014	 0,46018553457276 
1015	 0,461437246728166 
1016	 0,46426547040381 
1017	 0,466229977071836 
1018	 0,466051576231448 
1019	 0,46598725986474 
1020	 0,469564951167988 
1021	 0,46972621564354 
1022	 0,46700912534498 
1023	 0,46805315309293 
1024	 0,467022429040047 
1025	 0,463982578720242 
1026	 0,468281621035732 
1027	 0,470831513858429 
1028	 0,466489794798137 
1029	 0,464060307656988 
1030	 0,465279999160514 
1031	 0,470552993469235 
1032	 0,475287803401481 
1033	 0,477003275110194 
1034	 0,47296121066648 
1035	 0,470735676531582 
1036	 0,471311758547663 
1037	 0,46894243846747 
1038	 0,468859505577155 
1039	 0,472789996637758 
1040	 0,478070573444342 
1041	 0,476856030595375 
1042	 0,465140421102892 
1043	 0,462659088537587 
1044	 0,468358586409446 
1045	 0,476111732125828 
1046	 0,477319673022602 
1047	 0,472994823493364 
1048	 0,470472549028015 
1049	 0,472892983622265 
1050	 0,479147047059967 
1051	 0,480695151480884 
1052	 0,480074916512179 
1053	 0,478577158359151 
1054	 0,476029546669349 
1055	 0,474732414772997 
1056	 0,476350877989246 
1057	 0,477383079788089 
1058	 0,479091932724892 
1059	 0,483651048806958 
1060	 0,483982874978473 
1061	 0,479812904372886 
1062	 0,473675692985276 
1063	 0,481669088653011 
1064	 0,497805693988842 
1065	 0,481515428665813 
1066	 0,4684249119108 
1067	 0,471474335946098 
1068	 0,463903271609808 
1069	 0,465215146607577 
1070	 0,485452651885276 
1071	 0,481857192380135 
1072	 0,473231478162435 
1073	 0,487854868130315 
1074	 0,498648878882757 
1075	 0,497436415126847 
