Wavelength	BLAVET00268.asd
325	 0,1719637934723 
326	 0,190758759504656 
327	 0,201461571528768 
328	 0,184297619331885 
329	 0,12218194133358 
330	 8,09075946994498E-02 
331	 0,121092020993108 
332	 0,110080871097868 
333	 7,93421793359719E-02 
334	 0,145012858680446 
335	 0,161748780095351 
336	 0,12251604726556 
337	 0,17536226471467 
338	 0,183063119517889 
339	 2,18996071122919E-02 
340	 2,88467312426959E-02 
341	 0,125625740245618 
342	 0,032489054854494 
343	-0,028586489489592 
344	-7,20875450054755E-04 
345	 5,49219307469861E-02 
346	 7,67638609270025E-02 
347	 3,97886143319325E-02 
348	 2,57689370171518E-02 
349	 3,61119620874415E-02 
350	 3,04326845199881E-02 
351	 3,07071196365026E-02 
352	 3,89825983816463E-02 
353	 1,18742954693053E-02 
354	 5,74971591472624E-03 
355	 7,90071032284021E-02 
356	 0,094284494797999 
357	 5,33955771271615E-02 
358	 5,71328642170307E-02 
359	 4,03374961821699E-02 
360	-1,73099953265568E-02 
361	-1,73417420164968E-02 
362	 1,64282548987037E-02 
363	 3,95899181896547E-02 
364	 4,39479575423026E-02 
365	 3,09704640885135E-02 
366	 2,08249801394462E-02 
367	 2,85085056692558E-02 
368	 5,55880233846684E-02 
369	 5,13719365830814E-02 
370	 0,030819773235208 
371	 3,59333900428263E-02 
372	 1,78100027935364E-02 
373	-1,55314569369865E-02 
374	 2,85246782986203E-02 
375	 6,07799058006098E-02 
376	 2,12557628313068E-02 
377	 7,4079270494118E-03 
378	 2,09358167469606E-02 
379	 2,76932914646566E-02 
380	 3,17286726803024E-02 
381	 3,03426394164201E-02 
382	 1,37081995494714E-02 
383	 6,46106962945108E-03 
384	 0,031663553671543 
385	 4,91859366537549E-02 
386	 0,049550235908056 
387	 2,60419861825011E-02 
388	 1,51738114579059E-02 
389	 2,96751248302811E-02 
390	 3,21374884098932E-02 
391	 2,55612290957388E-02 
392	 1,79091115876089E-02 
393	 2,02793871856852E-02 
394	 3,09426935229288E-02 
395	 3,93381010673711E-02 
396	 3,37701770583489E-02 
397	 0,013459615887917 
398	 1,76346368725949E-02 
399	 3,04935751509792E-02 
400	 2,14951467861666E-02 
401	 2,16281623222803E-02 
402	 3,03786896211757E-02 
403	 1,72295596246775E-02 
404	 5,57387564419605E-03 
405	 1,07297917072705E-02 
406	 1,85475365732027E-02 
407	 2,27770963564638E-02 
408	 1,52424823514467E-02 
409	 1,32668633240723E-02 
410	 1,92332305941368E-02 
411	 1,74711001815285E-02 
412	 1,44609689711486E-02 
413	 1,69175018076235E-02 
414	 2,36689392578604E-02 
415	 2,96862658892754E-02 
416	 2,31774190502412E-02 
417	 1,59331913114201E-02 
418	 1,33989766791543E-02 
419	 1,35870494378828E-02 
420	 1,63158416927327E-02 
421	 0,021550052778679 
422	 2,07452656166696E-02 
423	 1,53634827378637E-02 
424	 1,64701150699162E-02 
425	 2,05390953810173E-02 
426	 2,43395434486547E-02 
427	 1,94711083537675E-02 
428	 1,25150274931483E-02 
429	 1,75199339154491E-02 
430	 1,89824949596675E-02 
431	 1,46820551289081E-02 
432	 1,54091356668763E-02 
433	 0,018154493121175 
434	 1,97821595194624E-02 
435	 2,05085373331986E-02 
436	 1,96545870447582E-02 
437	 1,49813117798655E-02 
438	 1,29840051073925E-02 
439	 1,56014480716518E-02 
440	 1,56718982370721E-02 
441	 1,60982111043497E-02 
442	 2,12807365194693E-02 
443	 2,22992760127585E-02 
444	 0,018422501043867 
445	 1,41038982214298E-02 
446	 0,014078692511063 
447	 0,020042280069344 
448	 1,90700925217645E-02 
449	 1,44924481396514E-02 
450	 1,60570615049469E-02 
451	 1,72146917007462E-02 
452	 1,64733726561806E-02 
453	 1,60747314382463E-02 
454	 1,58828266115837E-02 
455	 1,57892634120918E-02 
456	 1,77764504256421E-02 
457	 1,98751301591484E-02 
458	 1,51710694543155E-02 
459	 0,01541860152697 
460	 2,32927077185579E-02 
461	 2,16297220622083E-02 
462	 0,016427202356433 
463	 1,77641146381271E-02 
464	 1,88492276617555E-02 
465	 1,87639969029035E-02 
466	 2,03104355646352E-02 
467	 2,09236865658185E-02 
468	 1,91942741472891E-02 
469	 1,83860327619547E-02 
470	 1,91625786662775E-02 
471	 2,22520283034159E-02 
472	 2,20897559018052E-02 
473	 1,78357358645478E-02 
474	 1,45787306349281E-02 
475	 0,013708963442429 
476	 1,60683955892364E-02 
477	 1,61395542659376E-02 
478	 1,46815571246445E-02 
479	 1,75548415009849E-02 
480	 1,90693096412585E-02 
481	 1,71009787111383E-02 
482	 0,016217556300583 
483	 1,69051740823751E-02 
484	 1,91673856251454E-02 
485	 1,88765993118141E-02 
486	 1,59834040444604E-02 
487	 1,46548149064156E-02 
488	 1,51417465064756E-02 
489	 1,72158791597484E-02 
490	 0,016994628435214 
491	 1,50716792646542E-02 
492	 1,40422981692483E-02 
493	 1,46944139609733E-02 
494	 0,017140667850898 
495	 2,01065290070933E-02 
496	 2,13059320433449E-02 
497	 1,84744923047296E-02 
498	 1,74590316486676E-02 
499	 1,84046705274495E-02 
500	 1,69166193032195E-02 
501	 1,64467990299537E-02 
502	 1,84984811872678E-02 
503	 1,85459749351214E-02 
504	 1,77665088260693E-02 
505	 1,93930532627846E-02 
506	 1,92616996317978E-02 
507	 1,69306210746309E-02 
508	 1,59718418395195E-02 
509	 1,56575490307468E-02 
510	 0,015231160159463 
511	 1,56620326454516E-02 
512	 1,67417999848189E-02 
513	 1,77325175568642E-02 
514	 1,80549630130217E-02 
515	 1,74875370500227E-02 
516	 1,64217018628107E-02 
517	 1,61071969211502E-02 
518	 1,81938921198028E-02 
519	 1,89534257042085E-02 
520	 1,81284180096353E-02 
521	 1,85827402234315E-02 
522	 0,01950605992255 
523	 0,020119927441343 
524	 0,018969666170281 
525	 1,68353391661102E-02 
526	 1,56712309885948E-02 
527	 1,59323487843036E-02 
528	 1,74663281797299E-02 
529	 1,82609952378818E-02 
530	 1,83072677239175E-02 
531	 1,78193531776102E-02 
532	 1,75183809383628E-02 
533	 1,77490324591884E-02 
534	 1,90940295968092E-02 
535	 1,94704717106393E-02 
536	 1,79591598153529E-02 
537	 1,80368372574643E-02 
538	 1,88410948662955E-02 
539	 0,01785055066329 
540	 1,71929536230129E-02 
541	 1,73555910828027E-02 
542	 1,74654546600586E-02 
543	 1,72893993950952E-02 
544	 0,016714647085448 
545	 1,74672023706869E-02 
546	 0,01895846411534 
547	 1,86986493663632E-02 
548	 1,78641567992912E-02 
549	 1,72051388437789E-02 
550	 1,77047055012106E-02 
551	 1,86696504824693E-02 
552	 1,88692349924438E-02 
553	 1,87240342265175E-02 
554	 0,01845126253831 
555	 1,84598447302329E-02 
556	 1,87543700715928E-02 
557	 1,92056378222028E-02 
558	 1,81268548732805E-02 
559	 1,64424367880727E-02 
560	 1,72782690626538E-02 
561	 1,77593321963186E-02 
562	 1,69862499580468E-02 
563	 1,69681840930324E-02 
564	 0,017316331342835 
565	 1,72820627826917E-02 
566	 0,017979501776082 
567	 1,91389115482913E-02 
568	 0,018907245916475 
569	 1,84237153707701E-02 
570	 1,85093038813874E-02 
571	 1,88260329757874E-02 
572	 0,019196027570687 
573	 1,93447096999748E-02 
574	 1,94481917012907E-02 
575	 1,94757336257942E-02 
576	 1,89228943423972E-02 
577	 1,84956024797854E-02 
578	 1,89960674385398E-02 
579	 0,019643702925416 
580	 2,00847609996661E-02 
581	 1,98669697665553E-02 
582	 1,96448648662162E-02 
583	 1,97574828246348E-02 
584	 1,94685345448498E-02 
585	 1,93920782959588E-02 
586	 2,08196031261467E-02 
587	 2,15682562126256E-02 
588	 2,12400732400872E-02 
589	 2,14883101535652E-02 
590	 2,14941278477002E-02 
591	 2,05271624060684E-02 
592	 0,020526983108559 
593	 2,11906828677575E-02 
594	 2,04595226201406E-02 
595	 2,03972130587333E-02 
596	 2,16956147708115E-02 
597	 2,23206166105051E-02 
598	 2,19888335423632E-02 
599	 0,020580835317522 
600	 2,03774600777746E-02 
601	 2,14356552912582E-02 
602	 0,021177689389156 
603	 2,04190531762972E-02 
604	 1,98981792901104E-02 
605	 1,98832647778695E-02 
606	 2,02973971474177E-02 
607	 0,020939660203006 
608	 0,020906978058753 
609	 2,00247092210729E-02 
610	 1,96628307398123E-02 
611	 1,96352825141633E-02 
612	 1,95515989704346E-02 
613	 1,98474563377438E-02 
614	 2,02621046024829E-02 
615	 0,019595998593452 
616	 1,91369452635463E-02 
617	 1,96502283723149E-02 
618	 2,00296595021025E-02 
619	 2,01703278354166E-02 
620	 2,02938674863347E-02 
621	 1,95594067098607E-02 
622	 1,82381881314695E-02 
623	 1,89801663977668E-02 
624	 1,98970340444551E-02 
625	 1,89735782221303E-02 
626	 1,87374335825724E-02 
627	 1,93763335284366E-02 
628	 1,99288763246644E-02 
629	 1,99338362766684E-02 
630	 1,93132551218093E-02 
631	 1,96913914843881E-02 
632	 2,03571735443816E-02 
633	 1,98040071028536E-02 
634	 0,02000589321422 
635	 2,10367456545318E-02 
636	 2,07095808446518E-02 
637	 2,03481294971747E-02 
638	 2,10631872307989E-02 
639	 2,14748840785035E-02 
640	 2,15258479220717E-02 
641	 0,021826335012023 
642	 2,14659257357183E-02 
643	 2,04735940075556E-02 
644	 2,12303915422041E-02 
645	 2,25998932489954E-02 
646	 2,28429594794537E-02 
647	 2,29531686197856E-02 
648	 2,29217729117426E-02 
649	 2,18114358828542E-02 
650	 2,12118191324444E-02 
651	 2,20189827580251E-02 
652	 2,19553121333788E-02 
653	 2,11954151067271E-02 
654	 2,07985625240461E-02 
655	 2,05036586006759E-02 
656	 2,02950027370304E-02 
657	 2,03030243919075E-02 
658	 2,04086960695123E-02 
659	 2,04585747993725E-02 
660	 1,98032212227005E-02 
661	 1,87399103832466E-02 
662	 1,84280340118959E-02 
663	 1,86018761181349E-02 
664	 1,90062476650214E-02 
665	 1,87673034432984E-02 
666	 1,82635206414184E-02 
667	 1,82548502859431E-02 
668	 1,82373318277973E-02 
669	 1,81534432500188E-02 
670	 1,83465613994754E-02 
671	 1,84313124294672E-02 
672	 1,81372202963547E-02 
673	 1,81620902542277E-02 
674	 1,83907528512243E-02 
675	 0,018225858034066 
676	 1,81449023617534E-02 
677	 1,83382745816649E-02 
678	 1,89207081931826E-02 
679	 1,91739022675915E-02 
680	 1,82768918658552E-02 
681	 1,84358021527133E-02 
682	 1,95417306298816E-02 
683	 1,94855345493089E-02 
684	 0,019250916806859 
685	 0,019431877837561 
686	 1,99181418230596E-02 
687	 2,04641222652685E-02 
688	 2,06603147940519E-02 
689	 0,02079189019059 
690	 2,10734526532418E-02 
691	 2,20080388142956E-02 
692	 2,29353005018357E-02 
693	 2,33255187115336E-02 
694	 2,45103511296154E-02 
695	 2,65740345818661E-02 
696	 2,91181724897404E-02 
697	 3,15712526532442E-02 
698	 3,37740593105796E-02 
699	 3,65450352028502E-02 
700	 0,039798228469298 
701	 4,33182078645989E-02 
702	 4,68683982813153E-02 
703	 0,05051808392023 
704	 5,48124067886833E-02 
705	 5,91412346534455E-02 
706	 6,31208245478792E-02 
707	 6,71063764744469E-02 
708	 7,11650121721648E-02 
709	 7,53127059297319E-02 
710	 7,95898099634217E-02 
711	 8,38736682543721E-02 
712	 8,76383147003309E-02 
713	 9,11750282527899E-02 
714	 0,09477456080936 
715	 9,85621250807518E-02 
716	 0,102348413928342 
717	 0,105581691683207 
718	 0,108500629265763 
719	 0,111260419603628 
720	 0,114215987339748 
721	 0,117027501506465 
722	 0,119228794190566 
723	 0,121484059826338 
724	 0,123875765397512 
725	 0,126130581289691 
726	 0,128046437475576 
727	 0,129529675556358 
728	 0,130973812180191 
729	 0,132248248348868 
730	 0,132952397916529 
731	 0,134170833650243 
732	 0,1359948017917 
733	 0,137257725488786 
734	 0,138261695777268 
735	 0,139291838577643 
736	 0,140025670323936 
737	 0,140612992889849 
738	 0,141546047291358 
739	 0,14243267951197 
740	 0,143080533150081 
741	 0,143276179977183 
742	 0,143541099734397 
743	 0,144476060248995 
744	 0,145276907291491 
745	 0,14582288132392 
746	 0,146358905697467 
747	 0,146917186261157 
748	 0,14749856967053 
749	 0,147943587204347 
750	 0,148278288383604 
751	 0,148571696135404 
752	 0,148867004310274 
753	 0,149185312296041 
754	 0,149533879054572 
755	 0,149834898929365 
756	 0,150058760627839 
757	 0,150497151764187 
758	 0,151031259115111 
759	 0,151346998740517 
760	 0,151510167204166 
761	 0,151608485963797 
762	 0,151974683452445 
763	 0,152308420897536 
764	 0,152337904896537 
765	 0,152558783589348 
766	 0,152991244965287 
767	 0,15351825406181 
768	 0,153566699070123 
769	 0,153112595080183 
770	 0,15350294009855 
771	 0,154180107513821 
772	 0,154365034898084 
773	 0,154740862571835 
774	 0,155288632441595 
775	 0,155562886105228 
776	 0,15552711699603 
777	 0,155290631052178 
778	 0,155778407794793 
779	 0,156452033258625 
780	 0,156375344944479 
781	 0,156347546794805 
782	 0,156562546229674 
783	 0,156937853966662 
784	 0,157212621995317 
785	 0,157251046625313 
786	 0,157516755923937 
787	 0,157852093919919 
788	 0,157855354941394 
789	 0,157886024720166 
790	 0,158101026027297 
791	 0,158707196601031 
792	 0,159078139806282 
793	 0,158786825922188 
794	 0,158909863976692 
795	 0,159387587478239 
796	 0,159710620877295 
797	 0,159847786076579 
798	 0,159865333611318 
799	 0,16027244562509 
800	 0,160545373707168 
801	 0,160236318114179 
802	 0,160477758676042 
803	 0,16114629438909 
804	 0,161429201219657 
805	 0,161377194486847 
806	 0,161150555972879 
807	 0,161624806082872 
808	 0,162288219388749 
809	 0,162532935942025 
810	 0,162698466201673 
811	 0,162785445745592 
812	 0,162555939491109 
813	 0,162632726847136 
814	 0,163198466132056 
815	 0,163547771718842 
816	 0,163751380791753 
817	 0,163971823961808 
818	 0,164269545323689 
819	 0,164550698451852 
820	 0,164469190802718 
821	 0,164419784383011 
822	 0,164596867954864 
823	 0,164895598389931 
824	 0,165156406283495 
825	 0,165194539114378 
826	 0,165470033269735 
827	 0,165871276344715 
828	 0,165615253617484 
829	 0,16569217591293 
830	 0,166509125113465 
831	 0,167101546409566 
832	 0,167294359211231 
833	 0,167019242344673 
834	 0,166873917170733 
835	 0,16699869235381 
836	 0,167254989451199 
837	 0,167455841935227 
838	 0,167509998590351 
839	 0,167623572526231 
840	 0,16778547354893 
841	 0,167944024835591 
842	 0,168319624150402 
843	 0,168774347802978 
844	 0,168705437472989 
845	 0,168521518276956 
846	 0,168495933697961 
847	 0,168753910655117 
848	 0,16920326439477 
849	 0,16969083613812 
850	 0,169548660947286 
851	 0,168963305502357 
852	 0,169066606731629 
853	 0,169584787536161 
854	 0,170242919805573 
855	 0,170209888657451 
856	 0,170029138252752 
857	 0,170566377240511 
858	 0,170490922137679 
859	 0,169989084810835 
860	 0,170685698134442 
861	 0,171529267639978 
862	 0,17190467087376 
863	 0,171693455066659 
864	 0,171397533981035 
865	 0,171675939213167 
866	 0,171912503819102 
867	 0,171988767816284 
868	 0,171937587573711 
869	 0,17225364132721 
870	 0,172997229367599 
871	 0,172967318736091 
872	 0,172639017918988 
873	 0,17271749391901 
874	 0,173060638588889 
875	 0,173469815844502 
876	 0,173435584698612 
877	 0,173441273896303 
878	 0,173676591911739 
879	 0,173953503624493 
880	 0,174183302469597 
881	 0,174300679046802 
882	 0,174641222434066 
883	 0,175032137262433 
884	 0,174844098110635 
885	 0,174550241576912 
886	 0,174480677088604 
887	 0,175324196967531 
888	 0,17610245950266 
889	 0,175908584285745 
890	 0,17566509871003 
891	 0,175651891496316 
892	 0,176099948129606 
893	 0,176475651780938 
894	 0,176565587723221 
895	 0,176296676277299 
896	 0,176301520790137 
897	 0,177008941295495 
898	 0,177650848672687 
899	 0,17777291727423 
900	 0,176809380301702 
901	 0,176147331098191 
902	 0,176214938049047 
903	 0,176769670078554 
904	 0,177569995295431 
905	 0,178301881719225 
906	 0,178080277491428 
907	 0,177634068441065 
908	 0,178135845637276 
909	 0,178383168662924 
910	 0,178319250815686 
911	 0,178764262826898 
912	 0,17890309836565 
913	 0,178499286264394 
914	 0,178608722639715 
915	 0,178794462618316 
916	 0,178506601451771 
917	 0,178501968485981 
918	 0,178828192191895 
919	 0,179196411696613 
920	 0,179751064442528 
921	 0,180271851878376 
922	 0,179636378782805 
923	 0,178865772664407 
924	 0,178854679869396 
925	 0,179186858253006 
926	 0,179510217868481 
927	 0,17934109861729 
928	 0,178701512770924 
929	 0,17800120951273 
930	 0,178658702690801 
931	 0,179358073073722 
932	 0,179288227531216 
933	 0,178734621517766 
934	 0,178209634674034 
935	 0,178319169639705 
936	 0,178699894516032 
937	 0,179093536502827 
938	 0,179159346352323 
939	 0,178501723484597 
940	 0,177268981203357 
941	 0,176949442908287 
942	 0,177162479861192 
943	 0,177408561690107 
944	 0,177024115937359 
945	 0,176355784206884 
946	 0,17626773928802 
947	 0,176513097829401 
948	 0,176538746953247 
949	 0,17435789753899 
950	 0,173631330127164 
951	 0,175737814095495 
952	 0,175043764609174 
953	 0,172718852770906 
954	 0,170957003062358 
955	 0,170034198224975 
956	 0,169932251962963 
957	 0,170227965180202 
958	 0,170653075585634 
959	 0,171050632911392 
960	 0,171553503874649 
961	 0,171756514428502 
962	 0,171323559854025 
963	 0,170127200673219 
964	 0,168925746545544 
965	 0,168824568051825 
966	 0,169055917186871 
967	 0,16944672263518 
968	 0,170247820367901 
969	 0,170176208440462 
970	 0,169083535911629 
971	 0,169444121487334 
972	 0,1699080552964 
973	 0,169265989120859 
974	 0,169828950856604 
975	 0,170930059181792 
976	 0,170714658271219 
977	 0,170950571940047 
978	 0,171707505089925 
979	 0,171665698346657 
980	 0,170907983121273 
981	 0,169773325553511 
982	 0,169844307203753 
983	 0,170500299461607 
984	 0,170859678526581 
985	 0,169733900819488 
986	 0,168220172662007 
987	 0,168822101038025 
988	 0,170060662395242 
989	 0,171771307029347 
990	 0,175342117477476 
991	 0,176701553055178 
992	 0,174481557985149 
993	 0,174593371563974 
994	 0,175741947850278 
995	 0,175961235303301 
996	 0,174666309384278 
997	 0,173179987765991 
998	 0,174314121147972 
999	 0,174539355832416 
1000	 0,173901120915812 
1001	 0,176388330618171 
1002	 0,17853179629278 
1003	 0,17849012878407 
1004	 0,176288260463065 
1005	 0,175477784980703 
1006	 0,178923338047194 
1007	 0,179101709532304 
1008	 0,177502278325945 
1009	 0,179087505499724 
1010	 0,178949113890727 
1011	 0,177122483066003 
1012	 0,177779567193369 
1013	 0,179579183956366 
1014	 0,181433954486735 
1015	 0,180714389922763 
1016	 0,180339019370999 
1017	 0,18254884326495 
1018	 0,183367604136597 
1019	 0,183226771225933 
1020	 0,183665281539022 
1021	 0,186941493884937 
1022	 0,190475152301753 
1023	 0,185378152275031 
1024	 0,182028171217643 
1025	 0,183132460519722 
1026	 0,183023799401146 
1027	 0,182001828445809 
1028	 0,180790883391815 
1029	 0,182344604250432 
1030	 0,186160987165485 
1031	 0,190690772067895 
1032	 0,189388577175785 
1033	 0,185125364679612 
1034	 0,186372534047841 
1035	 0,186658299509284 
1036	 0,1854599138542 
1037	 0,187530814958193 
1038	 0,18792151151944 
1039	 0,186108760619608 
1040	 0,192066980109098 
1041	 0,195953638050503 
1042	 0,19044676954086 
1043	 0,188567172410587 
1044	 0,189062927605094 
1045	 0,187882002993501 
1046	 0,189459683084282 
1047	 0,193519175465817 
1048	 0,197401593719059 
1049	 0,199847052966957 
1050	 0,199747188647072 
1051	 0,195453805629282 
1052	 0,191775479216171 
1053	 0,191499205725096 
1054	 0,193950995095292 
1055	 0,195486701635442 
1056	 0,19416611952977 
1057	 0,202105929657499 
1058	 0,209890297943509 
1059	 0,203362884455311 
1060	 0,19835120117638 
1061	 0,195711198012301 
1062	 0,188436243453085 
1063	 0,189810037869422 
1064	 0,197981580661705 
1065	 0,190675062334938 
1066	 0,188761481222787 
1067	 0,198185320391538 
1068	 0,197780581441111 
1069	 0,196743053533929 
1070	 0,201119923532519 
1071	 0,196704420091366 
1072	 0,19387862871886 
1073	 0,206149206028861 
1074	 0,215635997439336 
1075	 0,215351358918034 
