Wavelength	BLAVET00129.asd
325	 0,223930144319554 
326	 0,283205241504024 
327	 0,295081336681825 
328	 0,25593256763533 
329	 0,226686473574967 
330	 0,223604446053473 
331	 0,242581501856318 
332	 0,105010057900014 
333	-6,02809629713664E-02 
334	 0,148361821820207 
335	 0,208525501837767 
336	 6,94960185017542E-02 
337	 0,121771192655567 
338	 0,206043071872164 
339	 0,151881334033856 
340	 0,122956208706524 
341	 0,12082213452063 
342	 8,04262168426474E-02 
343	 6,42342742073108E-02 
344	 8,22388894578859E-02 
345	 7,75352555676569E-02 
346	 6,67777830331272E-02 
347	 6,64551359338821E-02 
348	 9,68757955785471E-02 
349	 0,13409263247022 
350	 0,113899520577512 
351	 0,10292465512995 
352	 0,116578534274123 
353	 0,079235557262516 
354	 5,13443396894757E-02 
355	 9,77256821770161E-02 
356	 0,109087322765508 
357	 8,63382285619161E-02 
358	 0,107275659037459 
359	 0,108504549883889 
360	 7,12827871246641E-02 
361	 9,22858423231866E-02 
362	 0,13614939011435 
363	 0,147902695024695 
364	 0,137146451583715 
365	 0,1094845255147 
366	 8,13753446861926E-02 
367	 7,82299147749592E-02 
368	 0,106012683010874 
369	 0,105809984382869 
370	 9,02518483331445E-02 
371	 9,81327541447367E-02 
372	 9,09320262031781E-02 
373	 7,44471340746876E-02 
374	 0,119794657913037 
375	 0,147395734985238 
376	 0,10569316477296 
377	 0,10097953179792 
378	 0,126722821652622 
379	 0,13318686795705 
380	 0,129614594591826 
381	 0,117909997462522 
382	 9,62012659955545E-02 
383	 0,083527089771773 
384	 9,86900531603783E-02 
385	 0,108923428996513 
386	 0,110925511725747 
387	 0,113651258502683 
388	 0,114450427515053 
389	 0,112283965156481 
390	 0,107065954286418 
391	 0,103855980569533 
392	 0,108175945801658 
393	 0,102094754102436 
394	 9,04345847351493E-02 
395	 0,100323218005713 
396	 0,108930325369245 
397	 0,106291883468821 
398	 0,11111365035403 
399	 0,117813199631253 
400	 0,115059834778339 
401	 0,115718156177309 
402	 0,117903279377945 
403	 0,101390558009204 
404	 9,09766153872437E-02 
405	 0,101722949144274 
406	 0,10744132206944 
407	 0,108111635831698 
408	 0,112905708365176 
409	 0,112285498608262 
410	 0,106236321457899 
411	 0,107274935815755 
412	 0,109505352930503 
413	 0,106986405951972 
414	 0,103168566497799 
415	 0,100416130953446 
416	 0,103310523841378 
417	 0,10533049610769 
418	 0,103795995438488 
419	 0,101046355101167 
420	 9,88763331087914E-02 
421	 9,91456988370985E-02 
422	 0,101648292928046 
423	 0,105216746098554 
424	 0,106500273625373 
425	 0,10705614676585 
426	 0,107681059645571 
427	 0,106319568860151 
428	 0,104441250011221 
429	 0,105186565182879 
430	 0,104233977574206 
431	 0,101823058954239 
432	 0,104682909384407 
433	 0,107573367332876 
434	 0,105912926020808 
435	 0,106079659340637 
436	 0,106931689374685 
437	 0,1023119601958 
438	 9,88037572577253E-02 
439	 9,95044766987616E-02 
440	 0,10502140468995 
441	 0,109969022791465 
442	 0,107978804867952 
443	 0,104220539792074 
444	 0,10101069388892 
445	 0,10053803935375 
446	 0,102928573172879 
447	 0,107385874655356 
448	 0,106968741020006 
449	 0,104564904700551 
450	 0,107515736994974 
451	 0,10981510145951 
452	 0,109641083665341 
453	 0,10719281357617 
454	 0,105881657146049 
455	 0,108617981155247 
456	 0,110236747817026 
457	 0,109925828835921 
458	 0,107975629368013 
459	 0,108197364675643 
460	 0,111419170510009 
461	 0,111220742678722 
462	 0,109508162985084 
463	 0,109621329546538 
464	 0,109546366187399 
465	 0,109449145510005 
466	 0,112108985532992 
467	 0,111751802666561 
468	 0,105716475365562 
469	 0,106544297866361 
470	 0,111297100205857 
471	 0,110481753373629 
472	 0,109488075958335 
473	 0,109608299200362 
474	 0,109253063795188 
475	 0,108619534516362 
476	 0,108008168609984 
477	 0,107936732206533 
478	 0,108454805728979 
479	 0,109567033214609 
480	 0,109839188003765 
481	 0,10873507491516 
482	 0,107554873426661 
483	 0,107429953709482 
484	 0,109805808307296 
485	 0,109559794501349 
486	 0,107051140618807 
487	 0,109586565628996 
488	 0,110968697590404 
489	 0,107094443884581 
490	 0,107227417552488 
491	 0,110004722425259 
492	 0,10862204213502 
493	 0,108235955239427 
494	 0,109987398894066 
495	 0,110499553733525 
496	 0,109864049694896 
497	 0,10851654268139 
498	 0,109392675335531 
499	 0,111397116525204 
500	 0,108780105981279 
501	 0,106971579028268 
502	 0,108709263975746 
503	 0,109318019639727 
504	 0,109106404445182 
505	 0,109665448459203 
506	 0,110291168991102 
507	 0,110893786358845 
508	 0,11204367713298 
509	 0,112609002160615 
510	 0,111706606497621 
511	 0,112226741505358 
512	 0,113702765635395 
513	 0,113399211590509 
514	 0,113324791075843 
515	 0,114118068457414 
516	 0,113808925488297 
517	 0,11393114347675 
518	 0,116892760435304 
519	 0,118277431313902 
520	 0,117446603885581 
521	 0,116504577464822 
522	 0,116168207156897 
523	 0,11682840930249 
524	 0,116857843041776 
525	 0,116457982793326 
526	 0,116767367674737 
527	 0,116689382507039 
528	 0,116171561245032 
529	 0,117058707227214 
530	 0,117904944084709 
531	 0,116964924118659 
532	 0,115998276158697 
533	 0,115860274941263 
534	 0,11801988715337 
535	 0,119227833181318 
536	 0,117811345306868 
537	 0,117185105078206 
538	 0,117155746794989 
539	 0,116340356051593 
540	 0,116536086924465 
541	 0,117807225444 
542	 0,117965085519288 
543	 0,117325374538601 
544	 0,116409795554511 
545	 0,11739069176308 
546	 0,119415644363948 
547	 0,118850575465318 
548	 0,118274150116212 
549	 0,11880508239635 
550	 0,118892157158572 
551	 0,118941807207457 
552	 0,119873076890547 
553	 0,120177959069633 
554	 0,119567752668594 
555	 0,118639335698704 
556	 0,11836298840699 
557	 0,11938977709065 
558	 0,119666281919287 
559	 0,118905187534143 
560	 0,117192276102061 
561	 0,116394116001476 
562	 0,117095436052149 
563	 0,117333052460901 
564	 0,117150625761614 
565	 0,116860283205245 
566	 0,116963230158951 
567	 0,11742130568192 
568	 0,117463051866009 
569	 0,11785784601641 
570	 0,119023690382827 
571	 0,119482413801585 
572	 0,119539157252447 
573	 0,120411667263789 
574	 0,121003850163748 
575	 0,121188062627858 
576	 0,122240011248548 
577	 0,123793152924185 
578	 0,125324077489245 
579	 0,126864043545008 
580	 0,128045245821169 
581	 0,127824111085216 
582	 0,127511379047099 
583	 0,127975394422419 
584	 0,129374016112395 
585	 0,131053792976741 
586	 0,131894875443768 
587	 0,132376304296301 
588	 0,132701484260035 
589	 0,133114134924456 
590	 0,133648814899758 
591	 0,134322355676385 
592	 0,135206114648513 
593	 0,135890727305776 
594	 0,135111508197523 
595	 0,135050308134554 
596	 0,136432674965631 
597	 0,136651888366001 
598	 0,136042881662295 
599	 0,135520962169532 
600	 0,135298348068184 
601	 0,135295983324742 
602	 0,134760108178686 
603	 0,134225162696287 
604	 0,134090695126531 
605	 0,133718335348456 
606	 0,133187631944802 
607	 0,132927879582818 
608	 0,132864463052638 
609	 0,132860325859623 
610	 0,132331895657851 
611	 0,131496288052323 
612	 0,130681546614899 
613	 0,130496132213874 
614	 0,130706102892839 
615	 0,129975395348135 
616	 0,129208745089717 
617	 0,128945764194554 
618	 0,128377649806036 
619	 0,127865140690012 
620	 0,128428068673048 
621	 0,128239355826987 
622	 0,127164143333105 
623	 0,127791538966688 
624	 0,128433209751852 
625	 0,127304276388975 
626	 0,127342678474798 
627	 0,128419300364244 
628	 0,128303799230275 
629	 0,128009262827835 
630	 0,128093255450199 
631	 0,128754227529849 
632	 0,129559426096407 
633	 0,129749644676871 
634	 0,130419149669643 
635	 0,131596373727757 
636	 0,132024122103058 
637	 0,132465982834319 
638	 0,133524020222649 
639	 0,133839153731815 
640	 0,133813751370112 
641	 0,135162934984801 
642	 0,136090182400942 
643	 0,136086085373902 
644	 0,136784081405727 
645	 0,137743120655386 
646	 0,138211257053748 
647	 0,138470512891014 
648	 0,138360568817407 
649	 0,137078866189282 
650	 0,13606144143019 
651	 0,136116098150097 
652	 0,135053002082397 
653	 0,133436185494342 
654	 0,133142376809612 
655	 0,132356052403097 
656	 0,130691515690188 
657	 0,129408741432552 
658	 0,128134624226902 
659	 0,126422131339102 
660	 0,124694510390128 
661	 0,123100792313774 
662	 0,121698867642894 
663	 0,12072994285613 
664	 0,120156999907328 
665	 0,118838598010307 
666	 0,117262042111869 
667	 0,116391956985364 
668	 0,11550701885409 
669	 0,114653158815498 
670	 0,114765809572117 
671	 0,115014092776935 
672	 0,114707925874315 
673	 0,114149403096537 
674	 0,113602308508775 
675	 0,113581178966134 
676	 0,11351173324348 
677	 0,113300495122936 
678	 0,113765216456224 
679	 0,1141004458633 
680	 0,11331379226971 
681	 0,113523219756583 
682	 0,114743571710894 
683	 0,115261742795791 
684	 0,116012659221635 
685	 0,117499268228439 
686	 0,119161740864709 
687	 0,120795668648312 
688	 0,122127177611021 
689	 0,124174864480521 
690	 0,127206858495546 
691	 0,13066065947369 
692	 0,134755188336539 
693	 0,139700302523557 
694	 0,145277008667824 
695	 0,151467371123842 
696	 0,158347428882638 
697	 0,165866441300647 
698	 0,174033582797581 
699	 0,183017869433527 
700	 0,192496881845078 
701	 0,202057639659736 
702	 0,211926209942114 
703	 0,222017550022362 
704	 0,232073007889754 
705	 0,241869460548004 
706	 0,251249518600075 
707	 0,260328712949857 
708	 0,269161918811321 
709	 0,277807725725732 
710	 0,286143310450477 
711	 0,294120142942596 
712	 0,301770831545573 
713	 0,308886081000862 
714	 0,315284215447991 
715	 0,321620358691974 
716	 0,327923214727911 
717	 0,333887412468517 
718	 0,339365651123032 
719	 0,344277861563653 
720	 0,348734589385149 
721	 0,352796674518253 
722	 0,356528253876909 
723	 0,360368260079323 
724	 0,364174924195812 
725	 0,367059384012129 
726	 0,369711419994059 
727	 0,372545449222956 
728	 0,375177875884809 
729	 0,377443412406147 
730	 0,37913294050386 
731	 0,380680667517665 
732	 0,382336706657743 
733	 0,384484159183183 
734	 0,386375542127231 
735	 0,387392310190542 
736	 0,38836929743949 
737	 0,389513678376067 
738	 0,390952278198404 
739	 0,392196376413339 
740	 0,393086062454781 
741	 0,393939699718397 
742	 0,394855284130691 
743	 0,395903050785891 
744	 0,396625231741314 
745	 0,397128854015194 
746	 0,398086913551724 
747	 0,399006853950898 
748	 0,399628456271075 
749	 0,400126931653008 
750	 0,400611055997636 
751	 0,401213035629045 
752	 0,401770600444953 
753	 0,402309395163233 
754	 0,403133988176951 
755	 0,403797100806857 
756	 0,404010504177855 
757	 0,404357981078864 
758	 0,404768916983383 
759	 0,404860815686635 
760	 0,405289537678526 
761	 0,406089713062177 
762	 0,406334601187935 
763	 0,406562355174513 
764	 0,407276815883651 
765	 0,40756433672705 
766	 0,407597571121143 
767	 0,408320838519172 
768	 0,408818316641359 
769	 0,4088407887623 
770	 0,409181717306168 
771	 0,409643658700357 
772	 0,409923437198955 
773	 0,410323903404825 
774	 0,4107597788225 
775	 0,410786254483423 
776	 0,410756586883001 
777	 0,41088794198206 
778	 0,411267447211058 
779	 0,411700173932316 
780	 0,411887421662142 
781	 0,41213662167427 
782	 0,412528377537916 
783	 0,413115756887034 
784	 0,413359761994078 
785	 0,413022871293671 
786	 0,413299213093932 
787	 0,413951584761685 
788	 0,414260190880265 
789	 0,414368828021798 
790	 0,414384307635051 
791	 0,414678768917675 
792	 0,414812339758363 
793	 0,41451013052018 
794	 0,414849735179908 
795	 0,415525941395318 
796	 0,415471248982733 
797	 0,415663614783653 
798	 0,416226356230755 
799	 0,41613007914442 
800	 0,416028904150016 
801	 0,4165383411673 
802	 0,416769992089626 
803	 0,416801439677437 
804	 0,417309505914453 
805	 0,417552858351131 
806	 0,417393930145909 
807	 0,417661386602538 
808	 0,418038836567525 
809	 0,41814265563858 
810	 0,418418491124389 
811	 0,418806428953591 
812	 0,41887181625379 
813	 0,419065724462102 
814	 0,419509917624809 
815	 0,419673729131761 
816	 0,41987476524929 
817	 0,420524683044882 
818	 0,421147073950629 
819	 0,421490257062721 
820	 0,421154403714142 
821	 0,420875344353627 
822	 0,42103302993242 
823	 0,421484689266098 
824	 0,42180829471994 
825	 0,42150007767223 
826	 0,421429588776234 
827	 0,421739260002572 
828	 0,422155512167358 
829	 0,42253394081629 
830	 0,422795107862967 
831	 0,4231597499601 
832	 0,423274410850349 
833	 0,422650312098536 
834	 0,422684772898679 
835	 0,423315417124972 
836	 0,423050032027523 
837	 0,422987603065172 
838	 0,423613726286275 
839	 0,42391080312452 
840	 0,423982769794763 
841	 0,424139110499778 
842	 0,424431255215534 
843	 0,424775225383397 
844	 0,424846108513731 
845	 0,42479295691283 
846	 0,424715290431846 
847	 0,424598486058552 
848	 0,424761490467837 
849	 0,425629216703504 
850	 0,425798130871608 
851	 0,425350967103791 
852	 0,425871214794873 
853	 0,426214860507382 
854	 0,425869414316594 
855	 0,425792489899824 
856	 0,426061187374297 
857	 0,42662195377308 
858	 0,4266468464566 
859	 0,426268646513108 
860	 0,426609268858619 
861	 0,427119198190573 
862	 0,427490506416527 
863	 0,427744548228301 
864	 0,427783780497971 
865	 0,427504195766918 
866	 0,42732350936295 
867	 0,427397011121084 
868	 0,427802740795641 
869	 0,428358033546012 
870	 0,428848528635484 
871	 0,428689665519224 
872	 0,428386539919759 
873	 0,428601954174862 
874	 0,429109650364055 
875	 0,429573538291122 
876	 0,429123676796595 
877	 0,429051255542076 
878	 0,42968396175481 
879	 0,429465822717504 
880	 0,429017323681401 
881	 0,42913752468663 
882	 0,429779203376885 
883	 0,430527609138495 
884	 0,430348691727154 
885	 0,429947646341323 
886	 0,429682158890937 
887	 0,429843475756201 
888	 0,430460644448102 
889	 0,431420038513719 
890	 0,431297764223219 
891	 0,430502801979216 
892	 0,430501968359706 
893	 0,430642230592104 
894	 0,430775404159703 
895	 0,431074094982844 
896	 0,431387515964932 
897	 0,431562598045442 
898	 0,431334803321712 
899	 0,431041520338127 
900	 0,431366853097583 
901	 0,43115787424251 
902	 0,430543039916683 
903	 0,431276118408318 
904	 0,432047435677721 
905	 0,432047753274747 
906	 0,431885177706549 
907	 0,431922007604563 
908	 0,432552361549508 
909	 0,433051922410897 
910	 0,433159180729653 
911	 0,432680881873052 
912	 0,432335939258448 
913	 0,43239500069403 
914	 0,432127001891729 
915	 0,431736729073452 
916	 0,431526701090329 
917	 0,431539906742856 
918	 0,431773467748967 
919	 0,432195804842414 
920	 0,43258662780534 
921	 0,432823727487717 
922	 0,43294606294101 
923	 0,432570950078631 
924	 0,431516602177809 
925	 0,431208659975536 
926	 0,431189992825741 
927	 0,43016012983847 
928	 0,430083039569489 
929	 0,431065514330181 
930	 0,431477932111696 
931	 0,431195650442307 
932	 0,430291654136923 
933	 0,429759285506538 
934	 0,429887266582849 
935	 0,430794715472068 
936	 0,430122582179807 
937	 0,428330145151939 
938	 0,428231581099843 
939	 0,428560651314354 
940	 0,428775803748276 
941	 0,42862933005321 
942	 0,428107817559217 
943	 0,42720298126318 
944	 0,425474811073851 
945	 0,42403194808257 
946	 0,425001446913155 
947	 0,425257183900199 
948	 0,42406803211156 
949	 0,422363891719219 
950	 0,421174638470691 
951	 0,420973262972966 
952	 0,420529082169205 
953	 0,419454554797902 
954	 0,417550623801833 
955	 0,416817554228389 
956	 0,416966363786526 
957	 0,416173838256215 
958	 0,414705063562847 
959	 0,413032978695866 
960	 0,412921196945571 
961	 0,413205151527645 
962	 0,412973292167617 
963	 0,412912427417853 
964	 0,413061816261749 
965	 0,413357859642699 
966	 0,413083079815016 
967	 0,412337498673459 
968	 0,411989360606211 
969	 0,411924033852356 
970	 0,412056531863585 
971	 0,412107036440722 
972	 0,412039566889294 
973	 0,411913630623738 
974	 0,412470087158605 
975	 0,413434381320891 
976	 0,414141571522793 
977	 0,413643833695148 
978	 0,412453281551184 
979	 0,413392022717661 
980	 0,413750705323693 
981	 0,412585246388201 
982	 0,412790929475816 
983	 0,413628010705245 
984	 0,414052682767128 
985	 0,413549995085022 
986	 0,412762682111492 
987	 0,413115384692673 
988	 0,414028226855545 
989	 0,415105137485404 
990	 0,415513379940496 
991	 0,416161451197565 
992	 0,417469941282972 
993	 0,419102137255185 
994	 0,419794687288597 
995	 0,418493516988416 
996	 0,418082987482559 
997	 0,418648680051739 
998	 0,419233706942847 
999	 0,419814929612831 
1000	 0,420349534939184 
1001	 0,421118426982897 
1002	 0,420523453487763 
1003	 0,418458966535526 
1004	 0,41893339198883 
1005	 0,420900711800948 
1006	 0,422706298312889 
1007	 0,421386045184227 
1008	 0,419724994072959 
1009	 0,423542095059833 
1010	 0,424088405219842 
1011	 0,421605729760283 
1012	 0,425289235941058 
1013	 0,426791267110996 
1014	 0,423818364078354 
1015	 0,424725673316742 
1016	 0,426335567706843 
1017	 0,425817453117525 
1018	 0,426293489822634 
1019	 0,426316324051237 
1020	 0,423315998363453 
1021	 0,42549745113981 
1022	 0,431495601386848 
1023	 0,432245709904138 
1024	 0,429961565610124 
1025	 0,426507508912597 
1026	 0,427219439548369 
1027	 0,427390425791527 
1028	 0,424663978103374 
1029	 0,425808251263797 
1030	 0,428908572113152 
1031	 0,43082286708988 
1032	 0,43284806379334 
1033	 0,433165800508653 
1034	 0,427768216653845 
1035	 0,426903984898122 
1036	 0,431365467777574 
1037	 0,432891665755468 
1038	 0,430550423603686 
1039	 0,425959844819939 
1040	 0,430171372126151 
1041	 0,435838135408758 
1042	 0,435886103302599 
1043	 0,427939904364695 
1044	 0,4237825525223 
1045	 0,438300398501986 
1046	 0,441225824323471 
1047	 0,431608482860639 
1048	 0,422784343398231 
1049	 0,423101756748089 
1050	 0,432526588143333 
1051	 0,439068771159189 
1052	 0,437914931356508 
1053	 0,429389434722604 
1054	 0,43108110409872 
1055	 0,435289492028224 
1056	 0,435296957368709 
1057	 0,443156844842685 
1058	 0,448608214028662 
1059	 0,436956284026996 
1060	 0,433885908835122 
1061	 0,437961673536167 
1062	 0,431525001522244 
1063	 0,435118331036013 
1064	 0,446988475402172 
1065	 0,438681354693263 
1066	 0,430896297930591 
1067	 0,431533137404502 
1068	 0,428033630694915 
1069	 0,426626494786794 
1070	 0,430796397592203 
1071	 0,42727136876456 
1072	 0,426484047609202 
1073	 0,441446675294945 
1074	 0,449650708195433 
1075	 0,447599011500194 
