Wavelength	BLAVET00249.asd
325	 0,294285004684422 
326	 0,340654597334266 
327	 0,31593474965497 
328	 0,215258243988634 
329	 0,188445285981481 
330	 0,210563613535352 
331	 0,230445426049881 
332	 0,1955590668158 
333	 0,140412989453721 
334	 0,167865301632964 
335	 0,198979601060897 
336	 0,213256971465075 
337	 0,230739196566803 
338	 0,204004761166861 
339	 9,90727982262227E-02 
340	 0,120611208883592 
341	 0,211643861598832 
342	 0,192464589235127 
343	 0,176748542801992 
344	 0,187597003048949 
345	 0,159774383144928 
346	 0,145246433617054 
347	 0,178746106743234 
348	 0,163578047379335 
349	 0,121532221834197 
350	 0,149000913387616 
351	 0,177081432617068 
352	 0,178102031094643 
353	 0,150832130606666 
354	 0,134663504181225 
355	 0,167266322042322 
356	 0,187089960213978 
357	 0,184214838629128 
358	 0,173180960773588 
359	 0,143002584004383 
360	 9,85573178330802E-02 
361	 0,126351979012524 
362	 0,172637676104723 
363	 0,160347192479303 
364	 0,142078918378549 
365	 0,128102295780167 
366	 0,103499948143372 
367	 0,114441629570528 
368	 0,173705169922586 
369	 0,180543934694133 
370	 0,152819989790944 
371	 0,14752345395132 
372	 0,135422234809783 
373	 0,118578201731211 
374	 0,137256808803049 
375	 0,145541011099706 
376	 0,114235647108092 
377	 0,126849412513271 
378	 0,162963016254025 
379	 0,156851352064634 
380	 0,152499534720123 
381	 0,161488280649035 
382	 0,169828902191558 
383	 0,173485510722668 
384	 0,168722073077513 
385	 0,166222670831923 
386	 0,164506059868304 
387	 0,152152727982195 
388	 0,149931245865121 
389	 0,163063612062784 
390	 0,163919435241644 
391	 0,155077990222933 
392	 0,143260905539414 
393	 0,145434348023112 
394	 0,157331458001715 
395	 0,154904376865752 
396	 0,149967126193275 
397	 0,149111917542148 
398	 0,153011320593249 
399	 0,158831815701842 
400	 0,162437054564134 
401	 0,163005442408497 
402	 0,1607990129157 
403	 0,157808809120914 
404	 0,154233726538994 
405	 0,151002898598803 
406	 0,156734219849549 
407	 0,166813682660785 
408	 0,171552911381174 
409	 0,168139658742701 
410	 0,159440197301455 
411	 0,162276797992997 
412	 0,168355362003266 
413	 0,168982287918655 
414	 0,165367437567326 
415	 0,160626420225805 
416	 0,162556145740875 
417	 0,161094557415569 
418	 0,154022096855483 
419	 0,15383167886522 
420	 0,158187598672244 
421	 0,162698623067537 
422	 0,164556166938079 
423	 0,164043350008639 
424	 0,164720562179418 
425	 0,165590370786303 
426	 0,165729841809424 
427	 0,162090043682613 
428	 0,158362502149251 
429	 0,162269431660764 
430	 0,160600358146992 
431	 0,15361086963521 
432	 0,159979909219261 
433	 0,167591722158447 
434	 0,165645486848159 
435	 0,167686010998158 
436	 0,171340848332454 
437	 0,163918928610347 
438	 0,159380501235507 
439	 0,162273840262902 
440	 0,16229050281249 
441	 0,160849455735185 
442	 0,160841170935409 
443	 0,161137718272062 
444	 0,161346536739338 
445	 0,160640109233179 
446	 0,161374143521999 
447	 0,164454947369718 
448	 0,164763034398184 
449	 0,16279558934601 
450	 0,160605542758795 
451	 0,160662849425095 
452	 0,163174191738668 
453	 0,164736995981302 
454	 0,165929635656116 
455	 0,167461580635621 
456	 0,170451665146962 
457	 0,172948746325092 
458	 0,168770302408448 
459	 0,167631376349157 
460	 0,172582604097467 
461	 0,174191372414363 
462	 0,173030299797547 
463	 0,171049595441252 
464	 0,170440183162219 
465	 0,171271137717094 
466	 0,171548624912565 
467	 0,170058527563921 
468	 0,166699644932197 
469	 0,168146031744663 
470	 0,171975160352784 
471	 0,17142084596177 
472	 0,17108192662648 
473	 0,171868784019934 
474	 0,1711417418192 
475	 0,170688795058552 
476	 0,172245388488681 
477	 0,171649364179781 
478	 0,169733700751172 
479	 0,171456957608106 
480	 0,171749777610974 
481	 0,168887707866538 
482	 0,167964133008032 
483	 0,169316658616928 
484	 0,172651477379658 
485	 0,173087184767703 
486	 0,1704544450085 
487	 0,169556190105956 
488	 0,170053787556565 
489	 0,171390357862504 
490	 0,171210902724173 
491	 0,16964119598534 
492	 0,16741416805366 
493	 0,167906644365207 
494	 0,171651408499612 
495	 0,174442860938633 
496	 0,174981383209624 
497	 0,172355276804083 
498	 0,172919524286614 
499	 0,175608232520423 
500	 0,171916268885985 
501	 0,169777528378145 
502	 0,172857363181477 
503	 0,171523513663914 
504	 0,169132682659416 
505	 0,173851409849294 
506	 0,175975375780998 
507	 0,174119291969573 
508	 0,175758307959334 
509	 0,1775669614649 
510	 0,176481276075249 
511	 0,176833800790394 
512	 0,178551814362194 
513	 0,17940259707889 
514	 0,179802062037301 
515	 0,179853552971957 
516	 0,179177219581315 
517	 0,179106036949691 
518	 0,18151539030418 
519	 0,182668717187045 
520	 0,18211284708083 
521	 0,182032548614828 
522	 0,182273327702174 
523	 0,182632817075076 
524	 0,182234452827716 
525	 0,181592949506055 
526	 0,182288932317362 
527	 0,182415084325734 
528	 0,181544179460831 
529	 0,181150964145698 
530	 0,181127633382783 
531	 0,181214306616418 
532	 0,181073227441695 
533	 0,181090888008577 
534	 0,183011373540926 
535	 0,183826488560539 
536	 0,182147973864708 
537	 0,18225528011238 
538	 0,183510916390948 
539	 0,183711603550807 
540	 0,183268678477539 
541	 0,182530252488517 
542	 0,182737924805254 
543	 0,182996137768524 
544	 0,182446190652336 
545	 0,183105303563232 
546	 0,184443390177242 
547	 0,183897572297611 
548	 0,183301611322486 
549	 0,183472183370287 
550	 0,183368772701405 
551	 0,183357328515925 
552	 0,18419453257315 
553	 0,184591210148736 
554	 0,184307959721264 
555	 0,184021332326984 
556	 0,183889377198517 
557	 0,183984426432169 
558	 0,183685002472868 
559	 0,182962959730613 
560	 0,181973669111679 
561	 0,181227267456914 
562	 0,180936277530617 
563	 0,180703005528335 
564	 0,180662682669138 
565	 0,181038063470997 
566	 0,181259679793214 
567	 0,181354338361379 
568	 0,181996642499693 
569	 0,182717126542871 
570	 0,183188992443778 
571	 0,183613330811427 
572	 0,184237849811807 
573	 0,185518816988883 
574	 0,186901026196749 
575	 0,18824493952215 
576	 0,189988732567498 
577	 0,191753117216117 
578	 0,193109068108167 
579	 0,195266688606001 
580	 0,197826779338864 
581	 0,19864768883011 
582	 0,199612474894732 
583	 0,201659182144861 
584	 0,203025007036705 
585	 0,204035115066003 
586	 0,205682171503132 
587	 0,207153503730456 
588	 0,20820164481005 
589	 0,208848538245695 
590	 0,209537909520248 
591	 0,210641921932906 
592	 0,211190741025038 
593	 0,211374937573773 
594	 0,212222915999703 
595	 0,213180601443358 
596	 0,213924545217585 
597	 0,214271164545336 
598	 0,214024496261201 
599	 0,21288490460247 
600	 0,212888713655609 
601	 0,21394383152251 
602	 0,213272014637139 
603	 0,212148809051977 
604	 0,211634764499519 
605	 0,211335324718618 
606	 0,211010967509397 
607	 0,210251340704143 
608	 0,209214629436809 
609	 0,208087655701154 
610	 0,207524000660192 
611	 0,207234223412522 
612	 0,206785129947039 
613	 0,205845024808066 
614	 0,20462610678166 
615	 0,204093082630126 
616	 0,20379248714954 
617	 0,203389226269068 
618	 0,202533061759663 
619	 0,201826099332413 
620	 0,202652376406845 
621	 0,20276712278821 
622	 0,201825924071655 
623	 0,202096176804341 
624	 0,202698247486811 
625	 0,202626181780853 
626	 0,202916704009039 
627	 0,203523047617398 
628	 0,203754942008147 
629	 0,203662619668607 
630	 0,203442360951607 
631	 0,204329647648917 
632	 0,205672866823322 
633	 0,206192699836698 
634	 0,206765428384064 
635	 0,207556713446782 
636	 0,208121156123675 
637	 0,209079292036924 
638	 0,210888544810421 
639	 0,212439734545221 
640	 0,213480087104697 
641	 0,213933170001361 
642	 0,214389194479937 
643	 0,215083788788199 
644	 0,215540576572253 
645	 0,216253594498068 
646	 0,217909137089819 
647	 0,218568892524776 
648	 0,217918501768136 
649	 0,216748349092344 
650	 0,215739116813053 
651	 0,215256382371956 
652	 0,213997170469754 
653	 0,212141273751357 
654	 0,210422987194806 
655	 0,208846095545355 
656	 0,207421981222423 
657	 0,206095832437661 
658	 0,204388786735167 
659	 0,20184377360499 
660	 0,19916729725767 
661	 0,196641053349229 
662	 0,194459451395548 
663	 0,192636577726243 
664	 0,191095518960545 
665	 0,189215921349879 
666	 0,187389563435913 
667	 0,186326686190818 
668	 0,185570000145576 
669	 0,18488615667937 
670	 0,183949412745406 
671	 0,18297268591791 
672	 0,182189629030114 
673	 0,18217137562086 
674	 0,182467592869643 
675	 0,181741858805417 
676	 0,181204037211752 
677	 0,181273048564199 
678	 0,181602056519408 
679	 0,181921179540389 
680	 0,181955315282642 
681	 0,182612981177745 
682	 0,183817426642808 
683	 0,184522602600441 
684	 0,185634673909269 
685	 0,187647952486686 
686	 0,189826034221867 
687	 0,192353097693503 
688	 0,195718463765446 
689	 0,199488241320529 
690	 0,203794333992667 
691	 0,209634807625779 
692	 0,216437331477533 
693	 0,223684366670445 
694	 0,231936896772274 
695	 0,241139912927846 
696	 0,250886064748986 
697	 0,26162498877854 
698	 0,273397894163058 
699	 0,285436168031501 
700	 0,297405214666212 
701	 0,309015344159587 
702	 0,32065889545331 
703	 0,332417130496344 
704	 0,344352621953541 
705	 0,355828268820252 
706	 0,366434562707514 
707	 0,376640437529879 
708	 0,386343588290891 
709	 0,395225085734271 
710	 0,403476040929202 
711	 0,411302332304143 
712	 0,419270491114273 
713	 0,426732967045358 
714	 0,433062867647468 
715	 0,438820530962562 
716	 0,444276816281002 
717	 0,449766389738821 
718	 0,454846983350012 
719	 0,459321187289127 
720	 0,463243302782175 
721	 0,466924872862979 
722	 0,470751270778121 
723	 0,474125958755788 
724	 0,476981995298987 
725	 0,479586193073976 
726	 0,482071780980581 
727	 0,484464327741352 
728	 0,486075231229972 
729	 0,48746777794198 
730	 0,48982472067641 
731	 0,491755626716468 
732	 0,492978258447845 
733	 0,494265029030909 
734	 0,495525355750351 
735	 0,496662816403772 
736	 0,4977480212106 
737	 0,498782257074159 
738	 0,499751096936123 
739	 0,500610004089463 
740	 0,501335466714088 
741	 0,501885958730903 
742	 0,502457252337321 
743	 0,503265241563852 
744	 0,503844342626953 
745	 0,504261041226731 
746	 0,505077593758641 
747	 0,505792237714134 
748	 0,506206532405966 
749	 0,507017080829632 
750	 0,507815743046907 
751	 0,507851065735858 
752	 0,508148183073156 
753	 0,50879779493896 
754	 0,508938686453025 
755	 0,509229261211468 
756	 0,510053699700423 
757	 0,510152896117634 
758	 0,509938898829348 
759	 0,510669979747553 
760	 0,511199571449682 
761	 0,51122704196921 
762	 0,511157676495509 
763	 0,511339930271734 
764	 0,512029421408728 
765	 0,51224079321767 
766	 0,512163043871935 
767	 0,512892357603688 
768	 0,513195991506326 
769	 0,512770924556474 
770	 0,512858954876219 
771	 0,513268905801944 
772	 0,513646565847218 
773	 0,513967684262242 
774	 0,51422838721441 
775	 0,514517410470341 
776	 0,514672920350069 
777	 0,514670093659506 
778	 0,514979939679731 
779	 0,515283673714014 
780	 0,51503937164481 
781	 0,514992968717227 
782	 0,515321042468095 
783	 0,515970696059451 
784	 0,516140668293437 
785	 0,515464474952884 
786	 0,515633183527325 
787	 0,516342099818975 
788	 0,516624063789193 
789	 0,516670490336586 
790	 0,516587795900461 
791	 0,516684876072118 
792	 0,516821041777151 
793	 0,516887426985331 
794	 0,517037045083448 
795	 0,517268229721392 
796	 0,517544458836736 
797	 0,517710646969043 
798	 0,517730188850154 
799	 0,517699209140021 
800	 0,517842553600764 
801	 0,518307508798451 
802	 0,518125021882598 
803	 0,517659348441504 
804	 0,518325845098182 
805	 0,518925816334347 
806	 0,519055816127309 
807	 0,519108352961586 
808	 0,519214204459596 
809	 0,519488651083916 
810	 0,519961721213275 
811	 0,520461641819994 
812	 0,520586285977403 
813	 0,520338175100747 
814	 0,51986248150713 
815	 0,519930776322721 
816	 0,520349358036562 
817	 0,520797423262729 
818	 0,521481578953561 
819	 0,522115601338449 
820	 0,521791053753088 
821	 0,521426036899806 
822	 0,521504820945879 
823	 0,521994739632626 
824	 0,522413535712513 
825	 0,522160819494811 
826	 0,521966825309092 
827	 0,522015778856216 
828	 0,522277846676888 
829	 0,522516048859252 
830	 0,522628583604464 
831	 0,522978434754129 
832	 0,523142805075862 
833	 0,522520862302696 
834	 0,522322750290957 
835	 0,522727765589078 
836	 0,523314714131886 
837	 0,523422923050509 
838	 0,522851738932991 
839	 0,523048694848554 
840	 0,523639016957524 
841	 0,523861043917445 
842	 0,523744062888924 
843	 0,523514651823247 
844	 0,523996149766236 
845	 0,52419230339725 
846	 0,523705760357187 
847	 0,523835590554459 
848	 0,524489930260013 
849	 0,525321700697498 
850	 0,525464387069415 
851	 0,52501755830469 
852	 0,525114390476768 
853	 0,525391624837966 
854	 0,525668494252669 
855	 0,526104502327916 
856	 0,526360130051468 
857	 0,525980227052929 
858	 0,525514385437979 
859	 0,525311739245367 
860	 0,525990402793122 
861	 0,526477258987288 
862	 0,526292348441369 
863	 0,526443416709026 
864	 0,526587883408077 
865	 0,526169922209712 
866	 0,526401069717355 
867	 0,527144971303475 
868	 0,527090180501448 
869	 0,527059345679595 
870	 0,527282618682142 
871	 0,526611674645048 
872	 0,526096114831237 
873	 0,527039946847645 
874	 0,527533753855879 
875	 0,527407662781232 
876	 0,527477855501957 
877	 0,52753678604593 
878	 0,527566413651184 
879	 0,527879821107487 
880	 0,527941334383277 
881	 0,527254870495735 
882	 0,527900729442693 
883	 0,529214769918819 
884	 0,528292041176378 
885	 0,527472834272757 
886	 0,527599612262477 
887	 0,528316776390089 
888	 0,529011465507805 
889	 0,529100027353254 
890	 0,528485719318067 
891	 0,527811022686069 
892	 0,528529471090067 
893	 0,528797058576106 
894	 0,528243151758166 
895	 0,528121229773756 
896	 0,528160611807906 
897	 0,528159885381932 
898	 0,528595846456613 
899	 0,529110080593082 
900	 0,528982782791095 
901	 0,528474544057537 
902	 0,527986629055534 
903	 0,528642059415155 
904	 0,529451739717242 
905	 0,529698957787169 
906	 0,529159109489003 
907	 0,528600152091255 
908	 0,529129413693485 
909	 0,529139375517504 
910	 0,52869649291718 
911	 0,529291154588541 
912	 0,529956790358754 
913	 0,530223808172763 
914	 0,53040353901404 
915	 0,529951337847689 
916	 0,528377890272285 
917	 0,527870910412032 
918	 0,528490237984777 
919	 0,529162794739838 
920	 0,529831863800562 
921	 0,530310691704918 
922	 0,530368275455101 
923	 0,529775096330429 
924	 0,52852382604676 
925	 0,528236169695599 
926	 0,52854623007786 
927	 0,528309890842952 
928	 0,527640068819063 
929	 0,526986452742971 
930	 0,527863783022551 
931	 0,529172024339195 
932	 0,529956042145909 
933	 0,528748544024951 
934	 0,527082939003493 
935	 0,527100069233595 
936	 0,527277901771629 
937	 0,52712551234881 
938	 0,526067439622286 
939	 0,525908684842024 
940	 0,526979568403476 
941	 0,52722330467426 
942	 0,526415050975343 
943	 0,524612633613355 
944	 0,523206398001534 
945	 0,522595235588511 
946	 0,522990034086973 
947	 0,523062410067224 
948	 0,522320360733029 
949	 0,520678636668227 
950	 0,519231957873088 
951	 0,518651355852627 
952	 0,518666030781188 
953	 0,51855633455158 
954	 0,517531353760357 
955	 0,516446399398144 
956	 0,515490204165643 
957	 0,514525281150761 
958	 0,514322332906969 
959	 0,514702596360436 
960	 0,513504554007522 
961	 0,512528854666837 
962	 0,513103404926258 
963	 0,513999610091956 
964	 0,513927663599675 
965	 0,51130732855805 
966	 0,510578312776391 
967	 0,511892155641377 
968	 0,511805449950396 
969	 0,512465287417696 
970	 0,514027888975846 
971	 0,512765422554716 
972	 0,510579718729792 
973	 0,509556116233621 
974	 0,51005406657207 
975	 0,511616050609748 
976	 0,513297244773489 
977	 0,513431755610962 
978	 0,512261478876355 
979	 0,512588421768525 
980	 0,512431879896657 
981	 0,511356593820775 
982	 0,512757386030564 
983	 0,514281680602889 
984	 0,513511904279111 
985	 0,514336841852504 
986	 0,515701240511423 
987	 0,514199395700343 
988	 0,513282988950266 
989	 0,513917014176098 
990	 0,516088726386862 
991	 0,515975704661859 
992	 0,512778747503443 
993	 0,514687762828581 
994	 0,518543634455477 
995	 0,520146246561277 
996	 0,518745642067016 
997	 0,517024215289617 
998	 0,520588795971189 
999	 0,521310409394223 
1000	 0,518378344860482 
1001	 0,517564104845627 
1002	 0,517950421057199 
1003	 0,51888262653581 
1004	 0,518941353349692 
1005	 0,518814235270717 
1006	 0,519314695887319 
1007	 0,520166986120056 
1008	 0,521798155754527 
1009	 0,525089197860101 
1010	 0,524600166731342 
1011	 0,520890725914806 
1012	 0,52076767660548 
1013	 0,521591358076076 
1014	 0,521884681256886 
1015	 0,519490141550312 
1016	 0,519018971607873 
1017	 0,523565943963252 
1018	 0,524369817014506 
1019	 0,522638833386611 
1020	 0,522184679356403 
1021	 0,523084877860124 
1022	 0,525266086018134 
1023	 0,528660345106537 
1024	 0,528035919580902 
1025	 0,523529458352311 
1026	 0,524612778160414 
1027	 0,5266358580158 
1028	 0,526512400020958 
1029	 0,526179404740064 
1030	 0,526474675070853 
1031	 0,528010156273399 
1032	 0,528325200271587 
1033	 0,528338391936079 
1034	 0,530918057790252 
1035	 0,531550871278878 
1036	 0,529612886786409 
1037	 0,527906746743523 
1038	 0,525704060561415 
1039	 0,523807846401709 
1040	 0,527422259186732 
1041	 0,53084303459448 
1042	 0,529726720962952 
1043	 0,531032569314533 
1044	 0,533777951739374 
1045	 0,535234017291576 
1046	 0,533586919141135 
1047	 0,529295593876043 
1048	 0,524125894871302 
1049	 0,524795782079001 
1050	 0,530840392045916 
1051	 0,532247450678101 
1052	 0,530481067869299 
1053	 0,52605016406593 
1054	 0,517070606871458 
1055	 0,514283144279324 
1056	 0,525277208864288 
1057	 0,532286808065119 
1058	 0,537112794594637 
1059	 0,545505888776401 
1060	 0,538618751318753 
1061	 0,522579958950732 
1062	 0,519952323915783 
1063	 0,527995862745888 
1064	 0,539173709048711 
1065	 0,528817718409497 
1066	 0,518356377514434 
1067	 0,516234152060389 
1068	 0,509083846063613 
1069	 0,506834825176011 
1070	 0,515293496200812 
1071	 0,518045965066388 
1072	 0,520753502462186 
1073	 0,531222484715247 
1074	 0,530992865387277 
1075	 0,523904089675669 
