Wavelength	BLAVET00252.asd
325	 0,213149825287028 
326	 0,245345643476858 
327	 0,2193171791217 
328	 0,133515604479572 
329	 0,114921118731126 
330	 0,109361720701776 
331	 6,19630904311536E-02 
332	 9,13261614888698E-03 
333	-1,70641231733447E-02 
334	 0,069857954377756 
335	 0,140062590735776 
336	 0,159715983042336 
337	 0,141770445718011 
338	 0,10525482289515 
339	 7,18812679467735E-02 
340	 4,12723048284208E-02 
341	 2,86979966477323E-02 
342	 6,74053566829771E-02 
343	 6,27641191141652E-02 
344	 1,60194544456612E-04 
345	 1,85561178503023E-02 
346	 4,20819820801724E-02 
347	 6,93936855306846E-03 
348	 1,66682282483502E-02 
349	 5,37526269862606E-02 
350	 2,69385740467312E-02 
351	 1,82337842139156E-02 
352	 4,88799086918574E-02 
353	 0,045898922573636 
354	 3,25777090116666E-02 
355	 3,97429179020965E-02 
356	 4,31365977970247E-02 
357	 4,24502413800279E-02 
358	 5,72187464799163E-02 
359	 3,90812482728864E-02 
360	-2,22633582583635E-02 
361	-1,24508106039034E-02 
362	 3,21440613754173E-02 
363	 4,98614808268863E-02 
364	 5,08361863948077E-02 
365	 3,79679724971521E-02 
366	 1,80252568506882E-02 
367	 2,16720351062278E-02 
368	 5,71680156315466E-02 
369	 5,34538941914852E-02 
370	 2,88508125580372E-02 
371	 3,64506394526472E-02 
372	 2,06040224990841E-02 
373	-1,46020893524655E-02 
374	 1,54020326866584E-02 
375	 3,53511714964064E-02 
376	-4,71369605900257E-03 
377	 3,63760987449553E-03 
378	 3,60480646504589E-02 
379	 4,53327357038342E-03 
380	-8,31228902332205E-03 
381	 1,73719322992945E-02 
382	 3,19610186965037E-02 
383	 4,03210343972134E-02 
384	 4,70120714823626E-02 
385	 0,048767849448856 
386	 4,41027004598943E-02 
387	 2,60580772094405E-02 
388	 0,018884692365025 
389	 3,04270751708934E-02 
390	 3,19352695523149E-02 
391	 2,79077992696262E-02 
392	 2,67509588267317E-02 
393	 2,18790011538014E-02 
394	 1,61441349615633E-02 
395	 2,23025793011619E-02 
396	 2,81334115513619E-02 
397	 2,82426064992013E-02 
398	 3,31174274508584E-02 
399	 0,037400287848287 
400	 3,15691307869483E-02 
401	 2,76554221032804E-02 
402	 2,68471943155933E-02 
403	 2,06830998919318E-02 
404	 1,72953026153787E-02 
405	 2,16590058058681E-02 
406	 2,60920691868802E-02 
407	 2,86333061637306E-02 
408	 2,85623259593534E-02 
409	 0,026196110435071 
410	 0,022663696864192 
411	 2,14264608322054E-02 
412	 2,15226274723281E-02 
413	 2,19686091966459E-02 
414	 2,62297770380862E-02 
415	 3,07586721639576E-02 
416	 2,57416853612063E-02 
417	 0,019058629156433 
418	 1,48167846915289E-02 
419	 1,37824227459972E-02 
420	 1,63733914357279E-02 
421	 2,28798567711113E-02 
422	 2,58321214570262E-02 
423	 2,44303349077704E-02 
424	 2,20477122709912E-02 
425	 2,07280889623761E-02 
426	 0,02145365994623 
427	 2,09706937214614E-02 
428	 2,02710611050153E-02 
429	 0,022345964587768 
430	 2,04126094474538E-02 
431	 1,50224440436665E-02 
432	 1,71591475836054E-02 
433	 2,13292466129418E-02 
434	 0,022209295905999 
435	 2,06985043162875E-02 
436	 1,84562339243323E-02 
437	 1,94173505234342E-02 
438	 1,94642466585469E-02 
439	 1,78273075615689E-02 
440	 0,02058136128757 
441	 2,37553590381741E-02 
442	 2,19563430572433E-02 
443	 2,04398769462137E-02 
444	 1,96959074778089E-02 
445	 1,59829337437626E-02 
446	 1,61465141297181E-02 
447	 2,30721590056884E-02 
448	 2,31356267479369E-02 
449	 1,90958618753736E-02 
450	 1,95468332782967E-02 
451	 2,20267289364763E-02 
452	 2,46503930802031E-02 
453	 2,18194551025053E-02 
454	 1,87387685369718E-02 
455	 2,03664834348213E-02 
456	 2,32278178161313E-02 
457	 2,49803665262662E-02 
458	 2,07364543347323E-02 
459	 2,01501628523732E-02 
460	 2,59053307146676E-02 
461	 2,67642883066915E-02 
462	 2,36766314699843E-02 
463	 0,019309283714635 
464	 1,89325592802138E-02 
465	 2,24893372128416E-02 
466	 2,45050906547348E-02 
467	 0,024936392643757 
468	 2,39054394144712E-02 
469	 2,31743068409396E-02 
470	 2,30083727165865E-02 
471	 2,33231211222682E-02 
472	 2,33732504561774E-02 
473	 2,30554955534148E-02 
474	 2,33991691069234E-02 
475	 2,33462671207467E-02 
476	 2,18430349384383E-02 
477	 1,93639965545592E-02 
478	 1,78116355388916E-02 
479	 0,022422207693967 
480	 2,49167805960456E-02 
481	 2,21061103698509E-02 
482	 2,09998157737695E-02 
483	 2,19276681264731E-02 
484	 0,024260047696642 
485	 0,023666229998687 
486	 2,04094861465524E-02 
487	 2,02019688749954E-02 
488	 2,13424831683595E-02 
489	 2,23654311239487E-02 
490	 2,30662637241767E-02 
491	 2,26872169012025E-02 
492	 0,019119678105456 
493	 1,84019193139196E-02 
494	 2,20287471892512E-02 
495	 2,56777489571124E-02 
496	 2,63655072642776E-02 
497	 2,13838403364618E-02 
498	 2,05304147689105E-02 
499	 2,36142181744153E-02 
500	 0,022330355742737 
501	 2,15183488149462E-02 
502	 2,34047613013095E-02 
503	 2,27720100568435E-02 
504	 2,13580572810043E-02 
505	 2,33807447655838E-02 
506	 0,024400962966245 
507	 2,36581343105812E-02 
508	 2,40350459619963E-02 
509	 2,41799548696746E-02 
510	 2,29143892140463E-02 
511	 2,29848431831912E-02 
512	 2,41654313435701E-02 
513	 2,46828099772205E-02 
514	 2,41951861362301E-02 
515	 2,29314228387241E-02 
516	 2,34642827118467E-02 
517	 2,52190966927916E-02 
518	 2,70849312658491E-02 
519	 2,69505039075862E-02 
520	 2,53857286440605E-02 
521	 2,68093412270943E-02 
522	 2,78098856683688E-02 
523	 2,60538002182023E-02 
524	 2,45635007764511E-02 
525	 2,39693884494033E-02 
526	 2,45312281430189E-02 
527	 2,52087463963272E-02 
528	 2,55675287291186E-02 
529	 2,59431123216269E-02 
530	 2,56452305507141E-02 
531	 2,39178901144749E-02 
532	 0,023332582584263 
533	 2,42162159079677E-02 
534	 2,57544245166943E-02 
535	 2,60673938682841E-02 
536	 2,44042337668727E-02 
537	 2,46312057580426E-02 
538	 2,60699644979699E-02 
539	 2,66326693270317E-02 
540	 2,56927364821031E-02 
541	 2,37631181660702E-02 
542	 2,43801720779373E-02 
543	 2,54067117094601E-02 
544	 2,47164746191735E-02 
545	 2,59377902319468E-02 
546	 2,81849364123063E-02 
547	 2,71118980189783E-02 
548	 2,56706586335092E-02 
549	 2,53866523733265E-02 
550	 2,59780408784543E-02 
551	 2,69962141390799E-02 
552	 2,78518153559967E-02 
553	 2,76427719076128E-02 
554	 2,65167807658284E-02 
555	 2,60728959869017E-02 
556	 0,026616904021095 
557	 0,028169837681004 
558	 2,81917775862271E-02 
559	 2,70088196902123E-02 
560	 2,66113505774971E-02 
561	 2,64894272724178E-02 
562	 2,64696669103059E-02 
563	 2,63431714073797E-02 
564	 0,026163421805825 
565	 2,60259434111371E-02 
566	 2,64163353730414E-02 
567	 2,72637257053351E-02 
568	 2,79199174338785E-02 
569	 2,83193608353105E-02 
570	 2,84323117601489E-02 
571	 2,85702133842634E-02 
572	 2,86359105486201E-02 
573	 2,82694553093593E-02 
574	 2,79322760362544E-02 
575	 2,78540379318025E-02 
576	 2,81190941691595E-02 
577	 0,028735717373779 
578	 2,96864072445593E-02 
579	 3,07067550867546E-02 
580	 3,13654369186951E-02 
581	 3,06094182430881E-02 
582	 0,029918081315499 
583	 3,01044523570304E-02 
584	 3,00028017498032E-02 
585	 0,030084946677275 
586	 0,031495434373928 
587	 3,23035810790904E-02 
588	 3,21202866497882E-02 
589	 3,22122033217161E-02 
590	 0,032248446415061 
591	 3,19363302400406E-02 
592	 3,26610684765399E-02 
593	 3,36979719032316E-02 
594	 0,032158651330466 
595	 3,14604725116792E-02 
596	 3,28533261022194E-02 
597	 3,31300941135946E-02 
598	 3,25832495694426E-02 
599	 3,21601448271943E-02 
600	 3,20934110173786E-02 
601	 3,23168485622678E-02 
602	 3,20774102358032E-02 
603	 3,19886879339761E-02 
604	 3,24662916756759E-02 
605	 3,23097102093199E-02 
606	 3,17952087946038E-02 
607	 3,21717661813617E-02 
608	 3,21856037549901E-02 
609	 3,15561985571605E-02 
610	 3,14989522192865E-02 
611	 3,17623946536939E-02 
612	 3,19080049255868E-02 
613	 3,19402594193674E-02 
614	 3,18386320175692E-02 
615	 0,031598208102321 
616	 3,13536254596163E-02 
617	 3,11848330718253E-02 
618	 3,08630182875137E-02 
619	 3,06601626971726E-02 
620	 3,12815992212275E-02 
621	 3,09528076587444E-02 
622	 2,96768953904009E-02 
623	 3,06017604318302E-02 
624	 3,16134254905887E-02 
625	 3,04666635547509E-02 
626	 3,04794354135777E-02 
627	 3,16005697566883E-02 
628	 0,031665501268191 
629	 3,11617799503784E-02 
630	 3,05031404148497E-02 
631	 3,10156523542285E-02 
632	 0,031937463742 
633	 3,17658969564315E-02 
634	 3,18590760344621E-02 
635	 3,23959854485054E-02 
636	 0,032430385305021 
637	 3,25279189208991E-02 
638	 3,31441394345947E-02 
639	 3,34768999102646E-02 
640	 3,35464840506451E-02 
641	 3,37824168594891E-02 
642	 3,40264177837185E-02 
643	 3,42181670589925E-02 
644	 0,034307493461145 
645	 0,034428590382248 
646	 3,47585495205975E-02 
647	 3,50458921655517E-02 
648	 0,03511453099344 
649	 3,45456427463085E-02 
650	 3,43366651140254E-02 
651	 3,49677589838966E-02 
652	 3,42055924729752E-02 
653	 3,28201956584735E-02 
654	 3,30505382619403E-02 
655	 3,33247444061218E-02 
656	 3,31045279143794E-02 
657	 3,23612470408371E-02 
658	 3,18539172250602E-02 
659	 3,22997503628388E-02 
660	 3,17170082470521E-02 
661	 3,03477440495767E-02 
662	 3,01112501145132E-02 
663	 3,01674630291516E-02 
664	 3,00610803382233E-02 
665	 2,96900348697237E-02 
666	 2,90585599141917E-02 
667	 2,81663606203629E-02 
668	 2,79987956199898E-02 
669	 2,85687661474585E-02 
670	 2,87047159626659E-02 
671	 2,86175530546313E-02 
672	 2,85327854259255E-02 
673	 2,88885032403421E-02 
674	 2,92732404400956E-02 
675	 2,83697407307752E-02 
676	 2,81159517114772E-02 
677	 2,90176367003227E-02 
678	 2,95239671685619E-02 
679	 2,94803394227855E-02 
680	 2,88850826788163E-02 
681	 2,92038463205012E-02 
682	 3,02722913405081E-02 
683	 3,03098890261244E-02 
684	 3,04370496640359E-02 
685	 3,12150485203927E-02 
686	 3,15617753109277E-02 
687	 3,16471046682573E-02 
688	 3,19862760229412E-02 
689	 3,26659829821844E-02 
690	 3,37130457499613E-02 
691	 0,035023956219048 
692	 3,63143888874379E-02 
693	 3,73824141935469E-02 
694	 3,89634049942703E-02 
695	 4,10912002923103E-02 
696	 4,34118225648138E-02 
697	 4,62126226481662E-02 
698	 4,95140445457781E-02 
699	 5,27957798019505E-02 
700	 5,60296523985301E-02 
701	 5,92548006366605E-02 
702	 6,29028664637664E-02 
703	 6,68946398262107E-02 
704	 7,06199747957189E-02 
705	 7,42844637327399E-02 
706	 7,79752264117923E-02 
707	 8,13616016361767E-02 
708	 8,44992532449604E-02 
709	 8,75388185902823E-02 
710	 9,08240281580878E-02 
711	 9,42299148919186E-02 
712	 9,66106368526935E-02 
713	 9,89498951465005E-02 
714	 0,102133172121544 
715	 0,10491507982896 
716	 0,107214039518485 
717	 0,109469122433471 
718	 0,111461600843855 
719	 0,113205401226342 
720	 0,115293233620997 
721	 0,117286078454479 
722	 0,118570658610986 
723	 0,119526203066482 
724	 0,120449269862439 
725	 0,121915515595556 
726	 0,123489485259398 
727	 0,124821830960883 
728	 0,125452977472796 
729	 0,125819427598381 
730	 0,126818109994168 
731	 0,127645319614723 
732	 0,128166643420465 
733	 0,128879537512102 
734	 0,12965066087324 
735	 0,130320209445855 
736	 0,130499530353474 
737	 0,130502439819456 
738	 0,131310624512046 
739	 0,131941337034902 
740	 0,13210045104605 
741	 0,132382021236646 
742	 0,132774484655018 
743	 0,133202632156058 
744	 0,133339982650193 
745	 0,133344248286683 
746	 0,133943132543238 
747	 0,134539119456546 
748	 0,134813667805967 
749	 0,134992000156793 
750	 0,135151781191295 
751	 0,135370240944967 
752	 0,135583361750513 
753	 0,135819648434249 
754	 0,136310376084048 
755	 0,136506852425933 
756	 0,136109504467487 
757	 0,136308451525524 
758	 0,136867329702526 
759	 0,13689848932779 
760	 0,137075605881484 
761	 0,137495858751253 
762	 0,137595277285834 
763	 0,13767170271717 
764	 0,138004043951786 
765	 0,138065386061441 
766	 0,137970462839483 
767	 0,138307895487205 
768	 0,138463768316334 
769	 0,138299027722829 
770	 0,138517748335687 
771	 0,138792760086803 
772	 0,13868543994948 
773	 0,13874782246541 
774	 0,139094163522929 
775	 0,139771715968762 
776	 0,139937979031997 
777	 0,139331546353778 
778	 0,139547282910592 
779	 0,140078405878208 
780	 0,139911458604258 
781	 0,139964723650707 
782	 0,140351189569476 
783	 0,140635728035536 
784	 0,140709870043563 
785	 0,140574884888649 
786	 0,140918432953607 
787	 0,141436534263405 
788	 0,141395997751194 
789	 0,141618029398319 
790	 0,142125052219963 
791	 0,141983772392372 
792	 0,141676455077121 
793	 0,141624428406933 
794	 0,141775083585271 
795	 0,142050868332281 
796	 0,14230017065328 
797	 0,142529176176687 
798	 0,142681467880265 
799	 0,14253672267204 
800	 0,142399396287889 
801	 0,142572941516876 
802	 0,143071272288353 
803	 0,14368546858975 
804	 0,143948890717998 
805	 0,143942696247821 
806	 0,143768976529354 
807	 0,143849684879708 
808	 0,144036287202736 
809	 0,14413430439204 
810	 0,144214325541422 
811	 0,144264068216196 
812	 0,144183547166338 
813	 0,144314650563994 
814	 0,144721359242821 
815	 0,144804056494172 
816	 0,144843765910523 
817	 0,14522506341309 
818	 0,145609657789328 
819	 0,14581212603625 
820	 0,145507385499471 
821	 0,145313898150371 
822	 0,145485917509154 
823	 0,145476515811676 
824	 0,145464137110717 
825	 0,145738416794532 
826	 0,146127017641677 
827	 0,146438958118402 
828	 0,146200666623447 
829	 0,146112986471602 
830	 0,146493525971532 
831	 0,146820111712938 
832	 0,146843671682024 
833	 0,146324067789907 
834	 0,146173795163761 
835	 0,146471402173195 
836	 0,14665614201112 
837	 0,146661452192265 
838	 0,146499081088309 
839	 0,146573806454849 
840	 0,146939381410247 
841	 0,147593795941339 
842	 0,147599398264695 
843	 0,147046369011015 
844	 0,147047695752956 
845	 0,147340925045009 
846	 0,147737928039017 
847	 0,147956851587861 
848	 0,147978850871033 
849	 0,147844587494581 
850	 0,147578451200418 
851	 0,147333849695332 
852	 0,147522169153021 
853	 0,14777259623812 
854	 0,147852381869699 
855	 0,147676812501459 
856	 0,147587657612226 
857	 0,148050280981079 
858	 0,148246585254119 
859	 0,148157225014441 
860	 0,148408111181052 
861	 0,148711334772893 
862	 0,148912704631062 
863	 0,149082667717316 
864	 0,149055358075047 
865	 0,148629542313473 
866	 0,148522712381428 
867	 0,148656394815434 
868	 0,148069760340475 
869	 0,148258138915036 
870	 0,149619351048221 
871	 0,149949180074329 
872	 0,149640006024442 
873	 0,149430399881383 
874	 0,14927121578136 
875	 0,149217671378219 
876	 0,149387153816903 
877	 0,149368387895117 
878	 0,149112697928101 
879	 0,149469066796156 
880	 0,14984275916295 
881	 0,149572274023225 
882	 0,14972579109353 
883	 0,150115792177863 
884	 0,149629843835682 
885	 0,149362769502113 
886	 0,149696465607525 
887	 0,150439023202515 
888	 0,15079814978522 
889	 0,150143420193614 
890	 0,149990728898117 
891	 0,150311735153316 
892	 0,15041033802602 
893	 0,15039093705119 
894	 0,150355350991789 
895	 0,150709816944561 
896	 0,151033251541725 
897	 0,15098546470005 
898	 0,150694902825483 
899	 0,150460681036415 
900	 0,150769874306635 
901	 0,150942465548632 
902	 0,150837464564429 
903	 0,150647611718379 
904	 0,150917052661262 
905	 0,151829347171745 
906	 0,152131387767512 
907	 0,151923954372624 
908	 0,151595610217383 
909	 0,151377824082151 
910	 0,151360502764473 
911	 0,151528240182903 
912	 0,151719447940372 
913	 0,151860775556045 
914	 0,152155305153401 
915	 0,152146318709781 
916	 0,151411272545807 
917	 0,151876022503108 
918	 0,152917315655715 
919	 0,151835808519333 
920	 0,151455946615427 
921	 0,152308177171979 
922	 0,15194819071203 
923	 0,151423308630627 
924	 0,151666464591798 
925	 0,152083052169558 
926	 0,152406527810324 
927	 0,152355945147385 
928	 0,151859773944158 
929	 0,151228869994201 
930	 0,151580596084543 
931	 0,152127555467557 
932	 0,152395367857328 
933	 0,15268190720219 
934	 0,152838191633647 
935	 0,152647858799843 
936	 0,151914986119984 
937	 0,150831727401166 
938	 0,14987693392459 
939	 0,149700139293695 
940	 0,150390453014719 
941	 0,150810452705808 
942	 0,151329214303881 
943	 0,152182999394011 
944	 0,151595472615291 
945	 0,150744887096302 
946	 0,152382831450635 
947	 0,152582462384585 
948	 0,150888013278859 
949	 0,150033963961483 
950	 0,149327196321877 
951	 0,148530725888122 
952	 0,148637091154411 
953	 0,148703552867274 
954	 0,147584381446282 
955	 0,147736509233255 
956	 0,148819208789641 
957	 0,148673940246829 
958	 0,148163192623448 
959	 0,14768419145246 
960	 0,147883001908494 
961	 0,147570209657765 
962	 0,146119199373113 
963	 0,146171419740378 
964	 0,147671182762698 
965	 0,149907541722477 
966	 0,149973666758139 
967	 0,148132892921575 
968	 0,147662059439606 
969	 0,147974297600527 
970	 0,148705578431635 
971	 0,149024595128454 
972	 0,148592044663616 
973	 0,147380046462502 
974	 0,14765097859175 
975	 0,148884638962486 
976	 0,149486024486024 
977	 0,148512589998632 
978	 0,146850788896425 
979	 0,148582255281007 
980	 0,150138252448597 
981	 0,149912856436988 
982	 0,149932781161008 
983	 0,150241163708384 
984	 0,150575913605217 
985	 0,14870342120014 
986	 0,146410118565353 
987	 0,147874957858701 
988	 0,149482981073762 
989	 0,15009766952679 
990	 0,149648952170707 
991	 0,149656965839946 
992	 0,150603508350755 
993	 0,149857505005147 
994	 0,14943966181554 
995	 0,151459994936206 
996	 0,152979573421886 
997	 0,153571439874097 
998	 0,153600470649278 
999	 0,151605234366067 
1000	 0,148781111376103 
1001	 0,150807275577428 
1002	 0,151912648718863 
1003	 0,149986543483472 
1004	 0,150872534529851 
1005	 0,152556721995246 
1006	 0,152730614226421 
1007	 0,153120789914858 
1008	 0,153719904808335 
1009	 0,154039185099176 
1010	 0,155316285253052 
1011	 0,156426347538432 
1012	 0,152457224440101 
1013	 0,150439232249896 
1014	 0,152596524474094 
1015	 0,152623008184716 
1016	 0,151897864842847 
1017	 0,152107325770786 
1018	 0,155294494185672 
1019	 0,15800130884909 
1020	 0,154951181904462 
1021	 0,155071247459138 
1022	 0,158265054267183 
1023	 0,158206085721953 
1024	 0,156290796779267 
1025	 0,15433006169286 
1026	 0,158639270242781 
1027	 0,161150504400937 
1028	 0,157542351525354 
1029	 0,157643715210767 
1030	 0,159619590453296 
1031	 0,160139051520161 
1032	 0,161870962641834 
1033	 0,162562984150086 
1034	 0,15684788972564 
1035	 0,154927188780966 
1036	 0,157310836249403 
1037	 0,153958084450818 
1038	 0,154134280289502 
1039	 0,160104878391647 
1040	 0,160618974765978 
1041	 0,162147073026713 
1042	 0,16852679098006 
1043	 0,161328832487629 
1044	 0,153310927652688 
1045	 0,164014070719893 
1046	 0,169226397795193 
1047	 0,165548442668857 
1048	 0,157095994210089 
1049	 0,15694936939504 
1050	 0,165306204931038 
1051	 0,165498965621208 
1052	 0,160811155876062 
1053	 0,154707697360733 
1054	 0,156530188653229 
1055	 0,160009432257218 
1056	 0,159978358651201 
1057	 0,165825656545131 
1058	 0,173942507983005 
1059	 0,177779827528365 
1060	 0,172068874088776 
1061	 0,162134743503246 
1062	 0,162906638987781 
1063	 0,160056590123033 
1064	 0,154472085476132 
1065	 0,165550216744596 
1066	 0,171435420218982 
1067	 0,164206151800367 
1068	 0,157784033448377 
1069	 0,161831249841018 
1070	 0,178187902581358 
1071	 0,168340930290303 
1072	 0,15338510109357 
1073	 0,164128814997975 
1074	 0,164974354694689 
1075	 0,161438277985959 
