Wavelength	BLAVET00336.asd
325	 0,446925863175522 
326	 0,523557461850747 
327	 0,429937328898844 
328	 0,169368896105447 
329	 0,173620892696331 
330	 0,244211991198273 
331	 0,15483320235224 
332	 0,106605152822116 
333	 0,11459419194784 
334	 0,193265868713561 
335	 0,190695639439757 
336	 0,117916229686843 
337	 0,207331192112339 
338	 0,292042074002428 
339	 0,200906384342648 
340	 0,135842159801807 
341	 0,131942502848585 
342	 0,179557043523049 
343	 0,202632374003411 
344	 0,179612224156812 
345	 0,149324463890036 
346	 0,13758927524847 
347	 0,150952036659173 
348	 0,149975251296349 
349	 0,138963888931066 
350	 0,14881772701329 
351	 0,156133527857579 
352	 0,14993829666834 
353	 0,119693291469121 
354	 0,102117675063122 
355	 0,132385785429084 
356	 0,151296393661944 
357	 0,151759239028653 
358	 0,153963870950076 
359	 0,144146721029335 
360	 0,121157188339759 
361	 0,128583882216195 
362	 0,148478997119854 
363	 0,153037934193905 
364	 0,141490772542365 
365	 0,119550642793095 
366	 0,110711227013347 
367	 0,122699367724676 
368	 0,151418370982963 
369	 0,142528368509436 
370	 0,111424911793456 
371	 0,100910702159945 
372	 9,75978486869896E-02 
373	 0,101833297324332 
374	 0,129474598756314 
375	 0,146544217601844 
376	 0,131696181281009 
377	 0,1219146669717 
378	 0,125032162723065 
379	 0,142178999841651 
380	 0,152438066552951 
381	 0,149463832950048 
382	 0,153123865467617 
383	 0,155671396384587 
384	 0,148591496979207 
385	 0,134344763652961 
386	 0,118271161818292 
387	 0,102737519481038 
388	 0,112919915250689 
389	 0,148103551880659 
390	 0,133594261577428 
391	 0,110385257974319 
392	 0,132508421711849 
393	 0,134440745348915 
394	 0,117159729404781 
395	 0,1245202736078 
396	 0,133089664697513 
397	 0,131357788984027 
398	 0,125525744843689 
399	 0,126405612100916 
400	 0,149972031790343 
401	 0,148849556326105 
402	 0,123278611784308 
403	 0,118943414046442 
404	 0,121694375881626 
405	 0,121303476018986 
406	 0,122774005632674 
407	 0,125227438541643 
408	 0,12678359106304 
409	 0,125048683773309 
410	 0,119791410523272 
411	 0,11280946485024 
412	 0,108430557067683 
413	 0,110418469332384 
414	 0,115649140320452 
415	 0,120138642155497 
416	 0,115739742189294 
417	 0,112568288762844 
418	 0,114118274150581 
419	 0,112299047811009 
420	 0,111830573556622 
421	 0,119368134800964 
422	 0,120343148523205 
423	 0,114632797467226 
424	 0,112664518271606 
425	 0,113455220901318 
426	 0,11601067226248 
427	 0,117198078678888 
428	 0,117643778842256 
429	 0,119881589551221 
430	 0,117248502642857 
431	 0,110651305755904 
432	 0,111819125804458 
433	 0,116450743393533 
434	 0,120063451257641 
435	 0,121688317908787 
436	 0,120647247059356 
437	 0,115608613238707 
438	 0,111731295383034 
439	 0,111553547905694 
440	 0,114911724421411 
441	 0,117865017789313 
442	 0,115787337092351 
443	 0,114588754593436 
444	 0,115177283147184 
445	 0,115266941307418 
446	 0,115818639377616 
447	 0,117070509705631 
448	 0,115791585214326 
449	 0,114115359993215 
450	 0,11676820591228 
451	 0,120183309225633 
452	 0,122536035905315 
453	 0,121413419126159 
454	 0,11922488165094 
455	 0,118413461680847 
456	 0,119145142664253 
457	 0,120995577077203 
458	 0,122829105712409 
459	 0,124438213330502 
460	 0,125446967674227 
461	 0,125338915548494 
462	 0,124025948476774 
463	 0,121407127056026 
464	 0,122145496327416 
465	 0,125665395322148 
466	 0,1261374865378 
467	 0,123841983274069 
468	 0,119576311326127 
469	 0,11828447604753 
470	 0,119410665097217 
471	 0,120220156858552 
472	 0,12158747879757 
473	 0,123206905694721 
474	 0,123369956040372 
475	 0,12226520973386 
476	 0,120264258481759 
477	 0,11799875386429 
478	 0,117159276678055 
479	 0,122294224499757 
480	 0,12501456257757 
481	 0,121950581922297 
482	 0,119472455423405 
483	 0,118888891903772 
484	 0,120981641487117 
485	 0,121121109539854 
486	 0,119246968526543 
487	 0,12073138841624 
488	 0,121233407273207 
489	 0,117922536035533 
490	 0,117807608511952 
491	 0,119609818308773 
492	 0,117218879001247 
493	 0,117659398933206 
494	 0,122153022027628 
495	 0,123994080019406 
496	 0,123125156445184 
497	 0,120199763177218 
498	 0,121502473909537 
499	 0,125380145325265 
500	 0,121739528504868 
501	 0,11891440491859 
502	 0,121093971178958 
503	 0,121009589495433 
504	 0,120077896320453 
505	 0,122377506598978 
506	 0,124528748534462 
507	 0,12554992886773 
508	 0,126102180607686 
509	 0,125905777631222 
510	 0,124805786655299 
511	 0,124633119104961 
512	 0,125260422480499 
513	 0,125190562174951 
514	 0,125865384481426 
515	 0,127644483513634 
516	 0,128764162999838 
517	 0,129397116462475 
518	 0,130085256457969 
519	 0,12982690937655 
520	 0,129036150283915 
521	 0,130086294297001 
522	 0,130863178524186 
523	 0,129952719534728 
524	 0,129648237535613 
525	 0,129911649561445 
526	 0,129806141724043 
527	 0,129738856011804 
528	 0,129809510841097 
529	 0,129927290854219 
530	 0,129970320960655 
531	 0,129810587750625 
532	 0,128698986079677 
533	 0,127525737726108 
534	 0,129661966491365 
535	 0,131293261193655 
536	 0,130379442698775 
537	 0,130055443882524 
538	 0,130363069252736 
539	 0,130607651936457 
540	 0,130487510518943 
541	 0,13006620686042 
542	 0,130217474540686 
543	 0,130499874503001 
544	 0,130487483461772 
545	 0,131506256519979 
546	 0,132895620176687 
547	 0,132178582876682 
548	 0,131284507941757 
549	 0,131161405853886 
550	 0,131132491455871 
551	 0,131473574648856 
552	 0,132749067901807 
553	 0,133443763868577 
554	 0,13317276085219 
555	 0,13225970110612 
556	 0,132157975054867 
557	 0,133806230022908 
558	 0,133250493536588 
559	 0,131173535480669 
560	 0,131058648338415 
561	 0,13123433431111 
562	 0,131074297703576 
563	 0,130625905755604 
564	 0,130253624066586 
565	 0,130427905127427 
566	 0,13074726714975 
567	 0,131106972319381 
568	 0,131492007739091 
569	 0,132141156450176 
570	 0,133157951412672 
571	 0,133871144887856 
572	 0,134352824516574 
573	 0,134986200263068 
574	 0,135742781442291 
575	 0,136607004426703 
576	 0,137302455108818 
577	 0,13847623008605 
578	 0,140822126648265 
579	 0,142626512542843 
580	 0,143591297870701 
581	 0,144162986181585 
582	 0,144839922881345 
583	 0,145903765908145 
584	 0,146882141074372 
585	 0,147727385614874 
586	 0,148456633362056 
587	 0,149368983659166 
588	 0,150492955192069 
589	 0,151572245449127 
590	 0,152221483660145 
591	 0,152159940496092 
592	 0,152655788600995 
593	 0,153397373089513 
594	 0,152638517775006 
595	 0,152567842475563 
596	 0,15390926843829 
597	 0,154176357627883 
598	 0,153642940603567 
599	 0,153106687859256 
600	 0,153028153326589 
601	 0,153379117934577 
602	 0,153484920559463 
603	 0,152859287892226 
604	 0,151310261421207 
605	 0,151165713805063 
606	 0,151848977910509 
607	 0,150891713526462 
608	 0,150096432775798 
609	 0,150020705137685 
610	 0,149975736300753 
611	 0,149505328408365 
612	 0,148138374624919 
613	 0,147288043533895 
614	 0,147073335707617 
615	 0,146550289857031 
616	 0,1460516402732 
617	 0,145793307388142 
618	 0,14576589756361 
619	 0,145754102047703 
620	 0,145343294472582 
621	 0,144961221486053 
622	 0,144770921948633 
623	 0,144771920599071 
624	 0,144883888006512 
625	 0,145020564734916 
626	 0,145143952955795 
627	 0,145325355283562 
628	 0,145914149655911 
629	 0,146000091563156 
630	 0,145343823275491 
631	 0,145882482720853 
632	 0,147016435196956 
633	 0,147386525399253 
634	 0,148093785174113 
635	 0,149221001515551 
636	 0,149779966899574 
637	 0,150583583365496 
638	 0,152221830489933 
639	 0,152860072443014 
640	 0,152646233362541 
641	 0,152733508007804 
642	 0,153171212487508 
643	 0,154021340087572 
644	 0,155136518752885 
645	 0,156137336711448 
646	 0,156584877404486 
647	 0,156770067467054 
648	 0,156669065178761 
649	 0,155930355386242 
650	 0,155138563063212 
651	 0,154614242889342 
652	 0,153373617463499 
653	 0,151759912160273 
654	 0,150791701617372 
655	 0,149458897585675 
656	 0,147616503752721 
657	 0,146241499296553 
658	 0,144981925147485 
659	 0,143408938815184 
660	 0,141515329070869 
661	 0,139440140771279 
662	 0,137473788029944 
663	 0,136049821992676 
664	 0,135262623013632 
665	 0,13398349151499 
666	 0,132553306103378 
667	 0,13172336783756 
668	 0,130848184357894 
669	 0,129873618605235 
670	 0,129263855808117 
671	 0,128898733188719 
672	 0,12867599529639 
673	 0,128752307315484 
674	 0,128820289239673 
675	 0,128054604314887 
676	 0,127562384294224 
677	 0,12775355027461 
678	 0,128327518887897 
679	 0,128844472720894 
680	 0,128832721317421 
681	 0,129252350744887 
682	 0,130186262324384 
683	 0,131091876837494 
684	 0,132106492533996 
685	 0,133383143866472 
686	 0,13550986372415 
687	 0,137975281633978 
688	 0,139705267918545 
689	 0,142116719621645 
690	 0,145617330354779 
691	 0,149796113752426 
692	 0,154496557163748 
693	 0,159630458868579 
694	 0,165755052760912 
695	 0,172780710141294 
696	 0,180234421674359 
697	 0,188200914879806 
698	 0,19674176066254 
699	 0,2061825111101 
700	 0,215818694489528 
701	 0,224741373329633 
702	 0,234353487431455 
703	 0,244496950369576 
704	 0,253564267083606 
705	 0,262394899966325 
706	 0,271411868741072 
707	 0,279456796513798 
708	 0,287012323860428 
709	 0,295253850623301 
710	 0,303204984262114 
711	 0,310523659522852 
712	 0,317147865943604 
713	 0,323472313823288 
714	 0,329814222585137 
715	 0,33562583443566 
716	 0,340899196046143 
717	 0,345805953877589 
718	 0,350557232748787 
719	 0,35518816126089 
720	 0,359322734315607 
721	 0,362870097668522 
722	 0,365773519336648 
723	 0,36907921507153 
724	 0,372684859357986 
725	 0,375296965745431 
726	 0,377568160771409 
727	 0,379862809549466 
728	 0,381566336452193 
729	 0,383094995964246 
730	 0,385329945155183 
731	 0,387203189045394 
732	 0,388586187327708 
733	 0,390481620393495 
734	 0,392195545395787 
735	 0,393122060196453 
736	 0,393807949777386 
737	 0,394558838476872 
738	 0,395903226219316 
739	 0,396922746327434 
740	 0,3973588745508 
741	 0,397892302161931 
742	 0,398727670666398 
743	 0,400009264476175 
744	 0,400832970492013 
745	 0,40119941896705 
746	 0,401806576424151 
747	 0,402521845069216 
748	 0,403241865045946 
749	 0,403664622965755 
750	 0,404027358563579 
751	 0,404760712800468 
752	 0,405142120619688 
753	 0,405240387353094 
754	 0,406125832973875 
755	 0,406909423032789 
756	 0,406990028413602 
757	 0,407272067332375 
758	 0,407694894667415 
759	 0,407801113335277 
760	 0,40824886016916 
761	 0,409060726816004 
762	 0,409299457350143 
763	 0,409413483553017 
764	 0,40985593516358 
765	 0,410298205764669 
766	 0,410640156505165 
767	 0,410797561536667 
768	 0,410816481753801 
769	 0,410812932255717 
770	 0,411233397238266 
771	 0,411883161073471 
772	 0,412478700287749 
773	 0,412602692271763 
774	 0,412396526497966 
775	 0,412623347230713 
776	 0,412812952398788 
777	 0,412824258817596 
778	 0,413433737601608 
779	 0,414105417794758 
780	 0,413943373809442 
781	 0,414044087824276 
782	 0,414547299813637 
783	 0,414847992168816 
784	 0,415079918189605 
785	 0,415322607870507 
786	 0,415487036377078 
787	 0,415652212012384 
788	 0,415971496495462 
789	 0,416301398677889 
790	 0,416599413470325 
791	 0,416956469580352 
792	 0,417049755513684 
793	 0,416672825839509 
794	 0,416438712901175 
795	 0,416502123717322 
796	 0,416928569248198 
797	 0,417468113257904 
798	 0,41797781114473 
799	 0,418384062217201 
800	 0,41854407768965 
801	 0,418369983702199 
802	 0,418377584149344 
803	 0,418693866191417 
804	 0,419416713702466 
805	 0,419839954575602 
806	 0,419764275247243 
807	 0,419816374046682 
808	 0,419993118384532 
809	 0,420245045756049 
810	 0,420660429608674 
811	 0,421138812688123 
812	 0,421412551444339 
813	 0,421507000107548 
814	 0,421489383253712 
815	 0,421675766380076 
816	 0,422030347128147 
817	 0,422466958408204 
818	 0,422899577639388 
819	 0,423206896152222 
820	 0,423119041362546 
821	 0,42306689767757 
822	 0,423253664879462 
823	 0,423473289753919 
824	 0,423664746497429 
825	 0,423775675196535 
826	 0,423736491206791 
827	 0,423623381516294 
828	 0,423672485343854 
829	 0,423935324286596 
830	 0,424408184763803 
831	 0,4249116367094 
832	 0,425163839626437 
833	 0,424838752966724 
834	 0,424619997822167 
835	 0,424698042012265 
836	 0,425080782015376 
837	 0,425210980206427 
838	 0,424889198490431 
839	 0,425090934240066 
840	 0,425511950892277 
841	 0,425571784860439 
842	 0,425647544378522 
843	 0,425888200906287 
844	 0,426514438376616 
845	 0,426976087428983 
846	 0,426974563712135 
847	 0,426799701999573 
848	 0,426716532202574 
849	 0,427034109076549 
850	 0,427080424712944 
851	 0,426927214211153 
852	 0,427422756243955 
853	 0,427838131583355 
854	 0,427789811661029 
855	 0,427572250713811 
856	 0,427510582097735 
857	 0,427985808873404 
858	 0,427947905375421 
859	 0,427579980738356 
860	 0,428353975752185 
861	 0,429100654422395 
862	 0,429208624703004 
863	 0,42907810496873 
864	 0,428808014997104 
865	 0,428484847834355 
866	 0,428405134851968 
867	 0,428639266123981 
868	 0,429162259555472 
869	 0,429610984006827 
870	 0,429764707983483 
871	 0,429562795832164 
872	 0,429423621927479 
873	 0,429828380955241 
874	 0,430092890724771 
875	 0,430254771222841 
876	 0,430948819604721 
877	 0,431295508448323 
878	 0,431040948578895 
879	 0,431072369833177 
880	 0,431175605481211 
881	 0,431081439116998 
882	 0,431626086802225 
883	 0,432432367212904 
884	 0,432059544358959 
885	 0,431793350910792 
886	 0,432032606808812 
887	 0,432247133618055 
888	 0,432398613560917 
889	 0,432482347878606 
890	 0,432584093114244 
891	 0,432762654016926 
892	 0,433091932354282 
893	 0,43355559144649 
894	 0,434057772846863 
895	 0,434322417299447 
896	 0,434250667093696 
897	 0,433812846146699 
898	 0,433273076033304 
899	 0,433046706244401 
900	 0,433763879526578 
901	 0,434145069493778 
902	 0,433995935709248 
903	 0,434189794198835 
904	 0,434281631103893 
905	 0,434068603506508 
906	 0,434139027158832 
907	 0,434574539923954 
908	 0,435369941688651 
909	 0,435474709049532 
910	 0,434912456520442 
911	 0,434549240955087 
912	 0,434848234256697 
913	 0,435831848353091 
914	 0,436078907824636 
915	 0,435952964041514 
916	 0,43599396890158 
917	 0,435726031388577 
918	 0,435279959612878 
919	 0,43512906904824 
920	 0,435286568799871 
921	 0,43573269561367 
922	 0,436353993171741 
923	 0,436656713202114 
924	 0,436248845404775 
925	 0,435397102291826 
926	 0,434551672350199 
927	 0,434363006236193 
928	 0,434684791787882 
929	 0,435171323325407 
930	 0,434699543586254 
931	 0,43455734814744 
932	 0,435280056541867 
933	 0,43499719303041 
934	 0,434272553891048 
935	 0,43408000967926 
936	 0,43361563035018 
937	 0,432949004949116 
938	 0,432717328949244 
939	 0,432590639526317 
940	 0,432416414190973 
941	 0,432122989516879 
942	 0,431673967112501 
943	 0,431089603679149 
944	 0,430795276337381 
945	 0,430850744221416 
946	 0,431285961544146 
947	 0,430487935141227 
948	 0,428480273965818 
949	 0,427212293118167 
950	 0,426141896193617 
951	 0,425133285601929 
952	 0,425422437450844 
953	 0,425323039987343 
954	 0,422841799194477 
955	 0,421670980977034 
956	 0,422299219118768 
957	 0,42414796434812 
958	 0,423941304708584 
959	 0,421209106675986 
960	 0,419918326027435 
961	 0,419627081456974 
962	 0,419812675578909 
963	 0,419899645096306 
964	 0,419768631245462 
965	 0,419431040120046 
966	 0,419172862244349 
967	 0,419162785091058 
968	 0,41958084348486 
969	 0,420379075718103 
970	 0,421241875902836 
971	 0,421012719099345 
972	 0,419515588826198 
973	 0,41717242866033 
974	 0,419221362136336 
975	 0,423012102504517 
976	 0,422296350039563 
977	 0,421002206152942 
978	 0,420531600842253 
979	 0,422132908200806 
980	 0,422242366191454 
981	 0,41993792303485 
982	 0,421242265768076 
983	 0,422993578244419 
984	 0,421724009783268 
985	 0,421214134727436 
986	 0,421703328345374 
987	 0,422328659004743 
988	 0,422589266986336 
989	 0,422502657144781 
990	 0,422999288237029 
991	 0,422670133957229 
992	 0,421350066519291 
993	 0,422535002083533 
994	 0,42464555517709 
995	 0,425748647796528 
996	 0,427206393483056 
997	 0,428673604696847 
998	 0,429173723561985 
999	 0,428028167198391 
1000	 0,426135273074171 
1001	 0,427187694763406 
1002	 0,428964329462656 
1003	 0,430023661041562 
1004	 0,429127404228912 
1005	 0,42795574475762 
1006	 0,428295419067839 
1007	 0,429804120164332 
1008	 0,431672112830713 
1009	 0,43262002259612 
1010	 0,432544977859377 
1011	 0,432005775164707 
1012	 0,43283697516139 
1013	 0,434346194516881 
1014	 0,435717580429734 
1015	 0,434278479227192 
1016	 0,433610509321439 
1017	 0,436394735672512 
1018	 0,437795442795197 
1019	 0,437329365904359 
1020	 0,435489906566507 
1021	 0,434856417451194 
1022	 0,435342537669847 
1023	 0,434227075513453 
1024	 0,436069154507343 
1025	 0,44074312821173 
1026	 0,440814562785019 
1027	 0,439316117559595 
1028	 0,438633390359263 
1029	 0,43951059259859 
1030	 0,441381583952527 
1031	 0,443205059452922 
1032	 0,44257487580414 
1033	 0,440826157840778 
1034	 0,441739978811805 
1035	 0,439907931048211 
1036	 0,436259730537471 
1037	 0,4399775004462 
1038	 0,441248242313888 
1039	 0,437909163194368 
1040	 0,443400270400883 
1041	 0,449832476119486 
1042	 0,450120359597298 
1043	 0,447298657324095 
1044	 0,443978279148538 
1045	 0,443303714089035 
1046	 0,448239316075343 
1047	 0,453057894005221 
1048	 0,442177722204619 
1049	 0,442284419610143 
1050	 0,454526912342169 
1051	 0,44986802290358 
1052	 0,444792885790752 
1053	 0,446643201606867 
1054	 0,44713581102071 
1055	 0,444474761619391 
1056	 0,43915450888081 
1057	 0,445517450623102 
1058	 0,455496139899782 
1059	 0,455731896094506 
1060	 0,453345759130379 
1061	 0,45118951513043 
1062	 0,452328467343764 
1063	 0,453377559344206 
1064	 0,451927588757112 
1065	 0,442364782824902 
1066	 0,44071017211145 
1067	 0,450173062864872 
1068	 0,446456058747056 
1069	 0,443238612864234 
1070	 0,449904802629924 
1071	 0,449665766764192 
1072	 0,454061007224713 
1073	 0,476021648263903 
1074	 0,473451769842017 
1075	 0,456913307059482 
