Wavelength	BLAVET00278.asd
325	 0,44506930732024 
326	 0,47662655419727 
327	 0,461417679133012 
328	 0,381107476300771 
329	 0,33559624695007 
330	 0,344825903987224 
331	 0,401079916533427 
332	 0,403915389123728 
333	 0,377424927062218 
334	 0,409069354232542 
335	 0,377283648848255 
336	 0,285415862452986 
337	 0,275905152511068 
338	 0,291165106572828 
339	 0,27212678145993 
340	 0,268587934413912 
341	 0,27021722301291 
342	 0,235090136492403 
343	 0,226108083577622 
344	 0,25307980577068 
345	 0,24198769106546 
346	 0,233669287258085 
347	 0,261948304869328 
348	 0,26680238231116 
349	 0,248960146619996 
350	 0,236311270965723 
351	 0,239412106925058 
352	 0,253362511869099 
353	 0,214275615809914 
354	 0,186143156307827 
355	 0,236498625672372 
356	 0,258748340050097 
357	 0,243481698815989 
358	 0,232193277410289 
359	 0,222991578957575 
360	 0,215509015850761 
361	 0,210874882715675 
362	 0,214717385341884 
363	 0,233766149275417 
364	 0,252691761979179 
365	 0,260086095200724 
366	 0,229758005968324 
367	 0,213189628521667 
368	 0,235156491673225 
369	 0,246320568565477 
370	 0,242376764068513 
371	 0,225143714439103 
372	 0,221957099400598 
373	 0,234950353087824 
374	 0,237223689111603 
375	 0,230296299411947 
376	 0,217657007129385 
377	 0,230233761452149 
378	 0,253123169687141 
379	 0,251146297797741 
380	 0,239639625795458 
381	 0,228075692761395 
382	 0,226743241579533 
383	 0,233850651937264 
384	 0,246686479721033 
385	 0,264887347147957 
386	 0,27277829665978 
387	 0,230340368799633 
388	 0,212586780112385 
389	 0,24365278880602 
390	 0,244521830546339 
391	 0,231986441214553 
392	 0,233746139987826 
393	 0,232895261729843 
394	 0,231776856308464 
395	 0,249380140884393 
396	 0,255086520291399 
397	 0,237669978069934 
398	 0,235200616938782 
399	 0,241650283144884 
400	 0,241377071858507 
401	 0,240238945427904 
402	 0,238133245435346 
403	 0,22942764224689 
404	 0,224890962792812 
405	 0,231450796012005 
406	 0,243099101575574 
407	 0,253287356153357 
408	 0,253071651479803 
409	 0,247422607137013 
410	 0,239313186894167 
411	 0,232606227517479 
412	 0,229942732716385 
413	 0,233086994768199 
414	 0,2338658742005 
415	 0,231211099551918 
416	 0,225375265757335 
417	 0,225414268395394 
418	 0,23297248460722 
419	 0,232748210708932 
420	 0,229214534127759 
421	 0,229690936179719 
422	 0,231445588971885 
423	 0,233485767346749 
424	 0,233943526362177 
425	 0,235910820624411 
426	 0,240269309342805 
427	 0,237572737356012 
428	 0,232267730715609 
429	 0,234766341508989 
430	 0,233852180169035 
431	 0,228970252251412 
432	 0,231975564383751 
433	 0,236726512329069 
434	 0,237354883040647 
435	 0,235789691051249 
436	 0,233211994034929 
437	 0,231238648309613 
438	 0,231235975801525 
439	 0,233653041886686 
440	 0,236901450472576 
441	 0,239379035438612 
442	 0,239492753380875 
443	 0,239504655717733 
444	 0,239421306574351 
445	 0,236981176801087 
446	 0,2354866902901 
447	 0,23669793636746 
448	 0,236480998332504 
449	 0,235939090343635 
450	 0,238377554791672 
451	 0,239182547962368 
452	 0,237863448949392 
453	 0,238809789481696 
454	 0,241014008152672 
455	 0,243197013812712 
456	 0,243336823617744 
457	 0,242145958822077 
458	 0,242382877346297 
459	 0,243751708611213 
460	 0,245506403124329 
461	 0,243559482627478 
462	 0,241363001648507 
463	 0,243983434136705 
464	 0,24541404733643 
465	 0,245124839103508 
466	 0,247330376275439 
467	 0,247771928319952 
468	 0,244159179731113 
469	 0,242505881754534 
470	 0,242967490039926 
471	 0,244072861887599 
472	 0,244706258632029 
473	 0,24458501438857 
474	 0,244921477326794 
475	 0,245106246804171 
476	 0,244471390269996 
477	 0,242627120196834 
478	 0,241147705415356 
479	 0,244808476461901 
480	 0,246833212064228 
481	 0,244581856178346 
482	 0,243323635894764 
483	 0,24404730894534 
484	 0,247303061091674 
485	 0,248898469523432 
486	 0,248061820688321 
487	 0,246880590580513 
488	 0,245726893340835 
489	 0,244937319149946 
490	 0,245244823461587 
491	 0,245685913259451 
492	 0,243306523392824 
493	 0,243765664052319 
494	 0,247804606464298 
495	 0,248268958626353 
496	 0,246447743355611 
497	 0,244474208587803 
498	 0,245644826258516 
499	 0,248537563589755 
500	 0,24583500090437 
501	 0,244747209274477 
502	 0,248571310320431 
503	 0,248728050246131 
504	 0,246935949578222 
505	 0,248095351563823 
506	 0,248957383375515 
507	 0,249031575662583 
508	 0,250246861020434 
509	 0,251600501427064 
510	 0,252171498725246 
511	 0,253146279889232 
512	 0,254196842782067 
513	 0,253896296132718 
514	 0,253668959069502 
515	 0,254080132433049 
516	 0,254159726034565 
517	 0,254783968264188 
518	 0,257315902252901 
519	 0,258529102478264 
520	 0,258057525533598 
521	 0,257841554139643 
522	 0,2580849458655 
523	 0,25879349693758 
524	 0,25837867796136 
525	 0,257508234155418 
526	 0,25827256273178 
527	 0,258956129455937 
528	 0,259059778871284 
529	 0,259408107848798 
530	 0,259379549412151 
531	 0,258241774591381 
532	 0,258218830592803 
533	 0,259383758240254 
534	 0,260388638677926 
535	 0,260555858003096 
536	 0,259681126454026 
537	 0,25981972970624 
538	 0,260567600682806 
539	 0,260663037492564 
540	 0,260534938267588 
541	 0,260288550452574 
542	 0,259814215909464 
543	 0,259687798204538 
544	 0,260435896989854 
545	 0,261425641382999 
546	 0,262248662218236 
547	 0,262304936412535 
548	 0,262114389823545 
549	 0,261986145347749 
550	 0,261987173779934 
551	 0,262326211142277 
552	 0,263317478950951 
553	 0,264005167646815 
554	 0,264086713504079 
555	 0,263647153305241 
556	 0,263376418419638 
557	 0,263744269385785 
558	 0,263093163897525 
559	 0,261822162409766 
560	 0,261655560930972 
561	 0,261552873348986 
562	 0,261126248573592 
563	 0,260511868261744 
564	 0,260108507897244 
565	 0,260410015279965 
566	 0,260581780127789 
567	 0,260639498535018 
568	 0,261470014218149 
569	 0,262371067381273 
570	 0,262867421370124 
571	 0,263508977060975 
572	 0,264259757269673 
573	 0,264827393287145 
574	 0,265600324812984 
575	 0,266710673390341 
576	 0,268023828882901 
577	 0,269391308846744 
578	 0,270669307435726 
579	 0,272450709343243 
580	 0,274374780605998 
581	 0,274963888415632 
582	 0,275347825998023 
583	 0,276162363773783 
584	 0,276796856102737 
585	 0,277560399382433 
586	 0,279173922084618 
587	 0,280112100554105 
588	 0,280228661679328 
589	 0,281132381925965 
590	 0,282259008421584 
591	 0,283020793457615 
592	 0,283723858134897 
593	 0,284098477113464 
594	 0,283017174487425 
595	 0,283202086538561 
596	 0,28540852115311 
597	 0,285301644738015 
598	 0,284097117484608 
599	 0,284314950687561 
600	 0,284350526302371 
601	 0,283955678821121 
602	 0,283822378745233 
603	 0,283576898766617 
604	 0,282951962598839 
605	 0,28251781487393 
606	 0,28219079862005 
607	 0,281471769548778 
608	 0,280993583231818 
609	 0,2808597506942 
610	 0,280226468994259 
611	 0,279373539486061 
612	 0,278727001811198 
613	 0,27812339360773 
614	 0,277600543875896 
615	 0,277353617428474 
616	 0,277215149172184 
617	 0,277005873527179 
618	 0,27612675369711 
619	 0,275223163147285 
620	 0,275789496439464 
621	 0,275829892318559 
622	 0,275063642660862 
623	 0,275652152761908 
624	 0,276197186476632 
625	 0,275222978727684 
626	 0,275084809727849 
627	 0,275842501883168 
628	 0,276221793763837 
629	 0,276126145065003 
630	 0,275713277754589 
631	 0,276755012399886 
632	 0,278313623951603 
633	 0,278533009400667 
634	 0,279051354031729 
635	 0,280133006590711 
636	 0,280854742358795 
637	 0,281570692553558 
638	 0,28256852301154 
639	 0,283356170672844 
640	 0,28388958074494 
641	 0,28424182205889 
642	 0,284758325516935 
643	 0,285553689918468 
644	 0,286273845336758 
645	 0,28690454582259 
646	 0,287484342406116 
647	 0,287624782269313 
648	 0,287251428041654 
649	 0,286466623066802 
650	 0,28569543263409 
651	 0,285143364102767 
652	 0,283765339616103 
653	 0,282083144211054 
654	 0,281512961627331 
655	 0,280484350344838 
656	 0,278703303392836 
657	 0,277515994636991 
658	 0,276281362633049 
659	 0,274279491268329 
660	 0,272169741599046 
661	 0,270182824869604 
662	 0,268500040762503 
663	 0,266946194467674 
664	 0,265420873783785 
665	 0,263871683251854 
666	 0,26247660358104 
667	 0,261490128984368 
668	 0,261137018009096 
669	 0,261103292327559 
670	 0,259906841509989 
671	 0,258899554864396 
672	 0,259138853202944 
673	 0,259448965874457 
674	 0,259447434280449 
675	 0,258672589396703 
676	 0,258230350351281 
677	 0,25850927838813 
678	 0,259021651167385 
679	 0,259366405024216 
680	 0,259139210952818 
681	 0,259343991740655 
682	 0,260065527333599 
683	 0,260593297959301 
684	 0,261766446700841 
685	 0,263964948966489 
686	 0,2660427329653 
687	 0,267913590226694 
688	 0,269672722544765 
689	 0,272150454777822 
690	 0,275683512562001 
691	 0,280200727690332 
692	 0,28540235603572 
693	 0,291039032784624 
694	 0,297398209138192 
695	 0,304518446223886 
696	 0,31241735583957 
697	 0,320788514573436 
698	 0,329518934588862 
699	 0,338919676975261 
700	 0,348536245346924 
701	 0,35778011329676 
702	 0,367083010085337 
703	 0,376420866265603 
704	 0,385516108861579 
705	 0,394188099491452 
706	 0,402332844927499 
707	 0,410226484115207 
708	 0,417848393544582 
709	 0,425064248165912 
710	 0,431978393967723 
711	 0,438550528681878 
712	 0,444473055567283 
713	 0,449943768522545 
714	 0,455146622120251 
715	 0,460173962531147 
716	 0,464956283799655 
717	 0,469189283727234 
718	 0,473205852905202 
719	 0,477070782033746 
720	 0,480280894696028 
721	 0,483164155256261 
722	 0,486192729518162 
723	 0,488975822672415 
724	 0,491417979656561 
725	 0,493472405628412 
726	 0,495542595227064 
727	 0,497798022349803 
728	 0,499340161175396 
729	 0,500506688332093 
730	 0,50213041517153 
731	 0,503441527142303 
732	 0,504387197407504 
733	 0,505775012817373 
734	 0,507039871054214 
735	 0,507703881714313 
736	 0,508447600447033 
737	 0,509357828443057 
738	 0,510386117473714 
739	 0,511055323311686 
740	 0,511287209846943 
741	 0,511822796479469 
742	 0,512484376021118 
743	 0,512992997123066 
744	 0,513528766104274 
745	 0,514096019760349 
746	 0,51460053706457 
747	 0,515099798055699 
748	 0,515595141148453 
749	 0,515892772261954 
750	 0,516096121271925 
751	 0,51639070877352 
752	 0,516780024714723 
753	 0,51722506822373 
754	 0,517575755587738 
755	 0,517841003804028 
756	 0,518035592463286 
757	 0,518188066026478 
758	 0,518405775334021 
759	 0,518904151071789 
760	 0,519258686184685 
761	 0,519401709698409 
762	 0,519759425699449 
763	 0,520144454430627 
764	 0,520352031159813 
765	 0,520220685605493 
766	 0,52007836069597 
767	 0,520920894725577 
768	 0,52137288607418 
769	 0,521035134617881 
770	 0,521102399507973 
771	 0,521347989970502 
772	 0,521392048373971 
773	 0,52155494350087 
774	 0,521791525206152 
775	 0,521724058701685 
776	 0,521838310248329 
777	 0,522319796726098 
778	 0,522602796081272 
779	 0,522613545997501 
780	 0,522341233743952 
781	 0,522444189774864 
782	 0,522938869036708 
783	 0,523221512670495 
784	 0,523169489109082 
785	 0,522801118333661 
786	 0,523003525933184 
787	 0,523507259357375 
788	 0,523591506398255 
789	 0,523788686611453 
790	 0,524105106586138 
791	 0,523935088665797 
792	 0,52374317433417 
793	 0,523912983813466 
794	 0,524263397655496 
795	 0,52460477556357 
796	 0,524571135002698 
797	 0,524837247495446 
798	 0,525407636959704 
799	 0,525154453429114 
800	 0,524790269111532 
801	 0,525001417200085 
802	 0,525000578590719 
803	 0,524832933336815 
804	 0,524929533284699 
805	 0,525315161642414 
806	 0,525899526125288 
807	 0,52615816459018 
808	 0,526104842381422 
809	 0,525826646278206 
810	 0,525747839921504 
811	 0,526025680708048 
812	 0,526877360819101 
813	 0,527298110318911 
814	 0,52693666448048 
815	 0,526641877648713 
816	 0,526682890298432 
817	 0,527259321344611 
818	 0,527750377373834 
819	 0,527962232623489 
820	 0,527820128893266 
821	 0,527726873505668 
822	 0,527845275730628 
823	 0,527762062801303 
824	 0,527650893123422 
825	 0,527780230504853 
826	 0,528109562600303 
827	 0,528465239594319 
828	 0,528301958278291 
829	 0,528362357160363 
830	 0,528945936980435 
831	 0,529294748448005 
832	 0,529291504805758 
833	 0,528908225059887 
834	 0,528836696732819 
835	 0,5291288736658 
836	 0,529343592541562 
837	 0,529248407666194 
838	 0,528838636965132 
839	 0,529069468743397 
840	 0,529644624911792 
841	 0,5299930412079 
842	 0,529886770997128 
843	 0,529490065991019 
844	 0,529570423918595 
845	 0,529737244535609 
846	 0,529830753614097 
847	 0,53033355311065 
848	 0,530807185806677 
849	 0,530587058179282 
850	 0,530538679214509 
851	 0,530771529017135 
852	 0,530874510809152 
853	 0,53094532269332 
854	 0,531014227147889 
855	 0,530918977044008 
856	 0,530934358472732 
857	 0,531442273264558 
858	 0,531519634084225 
859	 0,531223220878701 
860	 0,531463190900903 
861	 0,531986196882843 
862	 0,53254072890903 
863	 0,532424779754797 
864	 0,532024369049331 
865	 0,531941315433303 
866	 0,531896934204234 
867	 0,531936539228708 
868	 0,532387491772483 
869	 0,532663619458927 
870	 0,53254793416839 
871	 0,532625836618685 
872	 0,532870583349426 
873	 0,533170110058408 
874	 0,533239722891674 
875	 0,532969305133848 
876	 0,532129722279982 
877	 0,531983363024089 
878	 0,532839916241543 
879	 0,532998701586598 
880	 0,532841018062759 
881	 0,532931830768984 
882	 0,533279639104604 
883	 0,533642246536666 
884	 0,533338169856813 
885	 0,533095490839922 
886	 0,533147835522944 
887	 0,533156263145571 
888	 0,533249199745657 
889	 0,533544457046329 
890	 0,533816775423177 
891	 0,533979449729423 
892	 0,53394493850977 
893	 0,533937637883321 
894	 0,534082597990786 
895	 0,534601643836584 
896	 0,534762768192795 
897	 0,534108648825519 
898	 0,534028963343551 
899	 0,534288342413119 
900	 0,534059995645639 
901	 0,533980678724694 
902	 0,534071156028601 
903	 0,533634375487163 
904	 0,533739377335372 
905	 0,534849941966506 
906	 0,535153765651607 
907	 0,534995346007605 
908	 0,535192355786847 
909	 0,535005251961019 
910	 0,534530745762511 
911	 0,534499926614814 
912	 0,534886116908549 
913	 0,535580988112507 
914	 0,536096245754251 
915	 0,536024734058684 
916	 0,535062667644547 
917	 0,534592706271557 
918	 0,534681512773289 
919	 0,53458123264073 
920	 0,53528388983951 
921	 0,536586675045223 
922	 0,536103185332004 
923	 0,534923243655581 
924	 0,534124163033815 
925	 0,533842715582064 
926	 0,534063724570833 
927	 0,534688010414589 
928	 0,534737071544501 
929	 0,534058663897757 
930	 0,533145662754316 
931	 0,533250682937302 
932	 0,534794355773227 
933	 0,535343721677537 
934	 0,534831677043548 
935	 0,533628271346663 
936	 0,533597913899969 
937	 0,534471153329901 
938	 0,534269588900278 
939	 0,533287223301719 
940	 0,532000701122545 
941	 0,532364545760835 
942	 0,532994569126412 
943	 0,532585161659726 
944	 0,531927512298769 
945	 0,531234009448101 
946	 0,530674603125439 
947	 0,530170809487428 
948	 0,529394733030001 
949	 0,527117928381938 
950	 0,525634938459739 
951	 0,526044127602288 
952	 0,526181891356649 
953	 0,52568691647874 
954	 0,524465353770878 
955	 0,523393828260299 
956	 0,522959294989238 
957	 0,523950425694687 
958	 0,52394756103525 
959	 0,522545313349383 
960	 0,522321535282812 
961	 0,522162679328221 
962	 0,521312109758759 
963	 0,521294713141812 
964	 0,521991839142575 
965	 0,522892709852782 
966	 0,522652840227417 
967	 0,521319827987948 
968	 0,520086276592937 
969	 0,519799751624417 
970	 0,520656141121547 
971	 0,521279031899708 
972	 0,521521391443423 
973	 0,521425436348038 
974	 0,522165847152998 
975	 0,522651266499099 
976	 0,520595636970071 
977	 0,519426892052547 
978	 0,519987985099587 
979	 0,521652634217207 
980	 0,522432410491254 
981	 0,521734983228975 
982	 0,522815426960699 
983	 0,524250737203162 
984	 0,524308228991006 
985	 0,523027799267781 
986	 0,521525391072229 
987	 0,521918383220954 
988	 0,522316384468316 
989	 0,522584102682366 
990	 0,524395912075427 
991	 0,525514038060058 
992	 0,52498061937962 
993	 0,524811527242514 
994	 0,525233155857292 
995	 0,526157905530948 
996	 0,525709983247057 
997	 0,525119548327273 
998	 0,527524506255845 
999	 0,527165544178719 
1000	 0,524376627712855 
1001	 0,526600739999389 
1002	 0,528443620783661 
1003	 0,527657997426041 
1004	 0,5279422842165 
1005	 0,528499525181982 
1006	 0,528427114858486 
1007	 0,529248896633995 
1008	 0,531170213441324 
1009	 0,534161086045319 
1010	 0,534226138072469 
1011	 0,531330500189957 
1012	 0,529258912745839 
1013	 0,527194638127278 
1014	 0,525656339272739 
1015	 0,528001275752413 
1016	 0,531781065873482 
1017	 0,534495384301658 
1018	 0,534850277657825 
1019	 0,534195076165744 
1020	 0,534882115710576 
1021	 0,535891771891566 
1022	 0,536263603253479 
1023	 0,533906377028232 
1024	 0,531534493091885 
1025	 0,530964684886872 
1026	 0,535496380826514 
1027	 0,537243110041437 
1028	 0,532478082997263 
1029	 0,534153020866109 
1030	 0,537423670179974 
1031	 0,535514331598547 
1032	 0,538523309350705 
1033	 0,542912829130203 
1034	 0,537881726210793 
1035	 0,534551971439192 
1036	 0,535684972793834 
1037	 0,539031723389166 
1038	 0,541867949932997 
1039	 0,542627785641428 
1040	 0,541032601063813 
1041	 0,541411967620094 
1042	 0,545878662805346 
1043	 0,54059779449522 
1044	 0,534493477596964 
1045	 0,54150786583556 
1046	 0,545538178711366 
1047	 0,54418431117 
1048	 0,540015924190123 
1049	 0,53842223030775 
1050	 0,541049903008342 
1051	 0,546436200676796 
1052	 0,548004171047378 
1053	 0,543425519752654 
1054	 0,540613043912022 
1055	 0,541143716259279 
1056	 0,545298035310058 
1057	 0,547697631519088 
1058	 0,547740383543757 
1059	 0,546147840905963 
1060	 0,548672856909997 
1061	 0,552812995738193 
1062	 0,549924858785292 
1063	 0,54659605298644 
1064	 0,544800628264458 
1065	 0,544307445225205 
1066	 0,542982748903753 
1067	 0,53921781287314 
1068	 0,529440508749982 
1069	 0,526370804163028 
1070	 0,537415275308085 
1071	 0,5447110438186 
1072	 0,546029594695995 
1073	 0,542551426874274 
1074	 0,552556145181463 
1075	 0,564514956712754 
