Wavelength	CAMFROU00518.asd
325	 0,703430803221746 
326	 0,349804861828173 
327	 0,218814381483567 
328	 0,313945055541889 
329	 0,393098300120062 
330	 0,380477711473924 
331	 0,228530515335956 
332	 0,228297939414782 
333	 0,333398406255677 
334	 0,300132627669921 
335	 0,17790542024038 
336	 3,95040854084966E-02 
337	 0,131408534287112 
338	 0,247771716110361 
339	 0,239740252241972 
340	 0,201626664214409 
341	 0,164621247133303 
342	 0,196267423001888 
343	 0,175439345763975 
344	 9,46848824029679E-02 
345	 0,141018811708789 
346	 0,201604760909305 
347	 0,194079947046114 
348	 0,145984376516455 
349	 8,68704194604709E-02 
350	 0,108160320046851 
351	 0,105522934749374 
352	 5,78069419159674E-02 
353	 8,23199703910186E-02 
354	 0,130934578716626 
355	 0,145547617914251 
356	 0,161484100437922 
357	 0,173310548888113 
358	 0,142388506141663 
359	 0,123443615333823 
360	 0,136946370141675 
361	 0,104232068372709 
362	 6,52727843903801E-02 
363	 9,17991504593313E-02 
364	 0,122941102423878 
365	 0,143451123584769 
366	 0,152687656914772 
367	 0,139263373070136 
368	 0,101642726616192 
369	 9,17758976866782E-02 
370	 0,108097568739803 
371	 0,13900927134618 
372	 0,137212933585952 
373	 9,91564044063913E-02 
374	 7,37036431537231E-02 
375	 7,96802269118111E-02 
376	 0,122596705123039 
377	 0,133805429899976 
378	 0,118936378492075 
379	 0,104365366223906 
380	 0,104589373986366 
381	 0,120255153132204 
382	 0,120797658955335 
383	 0,117373327542819 
384	 0,120844316501051 
385	 0,111944720980059 
386	 9,45759527385097E-02 
387	 8,86858851101807E-02 
388	 8,94845680036272E-02 
389	 9,34838490741428E-02 
390	 9,56735126854199E-02 
391	 9,20454153425062E-02 
392	 7,88757968757604E-02 
393	 7,71464955587925E-02 
394	 8,56581100414933E-02 
395	 8,73690455939158E-02 
396	 8,74743071322949E-02 
397	 8,85200497295695E-02 
398	 9,05735642572734E-02 
399	 0,090210217542013 
400	 8,21740081193175E-02 
401	 7,65910422489906E-02 
402	 7,57150959243867E-02 
403	 7,70379451264647E-02 
404	 7,84991832426683E-02 
405	 7,87725823591924E-02 
406	 7,88221248860602E-02 
407	 7,92624202283851E-02 
408	 8,14688130947973E-02 
409	 8,06723842261846E-02 
410	 7,67884579513984E-02 
411	 7,57014448589798E-02 
412	 7,62093576526566E-02 
413	 0,076804373760999 
414	 7,58072540807895E-02 
415	 7,49472243577026E-02 
416	 7,93619543057962E-02 
417	 8,36146657656409E-02 
418	 8,51195013933463E-02 
419	 8,37246699280931E-02 
420	 8,04077950590716E-02 
421	 7,64493180033821E-02 
422	 7,64619911506701E-02 
423	 7,86512247637151E-02 
424	 0,072624933428904 
425	 7,13395777093276E-02 
426	 8,08585027923068E-02 
427	 8,18895588822201E-02 
428	 0,076839915810537 
429	 7,41007616057748E-02 
430	 0,074339667283703 
431	 7,67252455791155E-02 
432	 7,56736877709979E-02 
433	 7,33081546636617E-02 
434	 7,18415847819665E-02 
435	 7,21587749060551E-02 
436	 7,31929302956945E-02 
437	 7,16301417930455E-02 
438	 7,08860129634515E-02 
439	 7,20555615139858E-02 
440	 7,28307533070577E-02 
441	 7,33130952448305E-02 
442	 0,073885524249783 
443	 7,48400960889514E-02 
444	 0,075574986505265 
445	 7,40521333900782E-02 
446	 7,14886338170926E-02 
447	 6,92118392212888E-02 
448	 7,06290557215133E-02 
449	 7,36527042083718E-02 
450	 7,35355532114381E-02 
451	 7,41442249656322E-02 
452	 7,59336808455533E-02 
453	 7,58613896592899E-02 
454	 0,074767704672528 
455	 7,37699630431424E-02 
456	 7,67771450828172E-02 
457	 8,13509263955956E-02 
458	 7,94238769550899E-02 
459	 7,66920522404451E-02 
460	 7,55493741436308E-02 
461	 7,45212561575788E-02 
462	 7,33166601176177E-02 
463	 7,16454834056538E-02 
464	 7,26161051579241E-02 
465	 7,56014831035285E-02 
466	 7,61953339397362E-02 
467	 7,44546249061493E-02 
468	 7,11294501067399E-02 
469	 7,22780060762104E-02 
470	 7,61133104602893E-02 
471	 7,75420592791749E-02 
472	 7,82617253961039E-02 
473	 7,84883792190113E-02 
474	 7,72479452964751E-02 
475	 7,67200104727121E-02 
476	 7,88341839015461E-02 
477	 7,79966776086933E-02 
478	 7,50545639123312E-02 
479	 0,075495247042947 
480	 7,66061354336765E-02 
481	 7,68600802812044E-02 
482	 7,48871896147564E-02 
483	 7,25512719962297E-02 
484	 7,27308700034541E-02 
485	 7,36784775430231E-02 
486	 7,46296939496195E-02 
487	 7,45576319354581E-02 
488	 0,074889431546347 
489	 7,64910387755696E-02 
490	 7,65574328134848E-02 
491	 7,52645998098523E-02 
492	 7,35654964733713E-02 
493	 7,45320344700138E-02 
494	 7,80642644617985E-02 
495	 7,69850774459379E-02 
496	 7,48749644569485E-02 
497	 7,63034160700668E-02 
498	 7,56370752429225E-02 
499	 7,29579605822545E-02 
500	 7,19989299930902E-02 
501	 7,27168533458096E-02 
502	 7,47327452039481E-02 
503	 7,49570456168306E-02 
504	 7,43566188424502E-02 
505	 7,54318115575216E-02 
506	 7,57679154038727E-02 
507	 7,52844267810655E-02 
508	 7,69476366449843E-02 
509	 0,077928982590853 
510	 7,58459280381489E-02 
511	 0,076111543627751 
512	 0,078270686969521 
513	 0,078336220767971 
514	 7,88379730119707E-02 
515	 8,03675667042062E-02 
516	 7,96220171309698E-02 
517	 7,84161478217747E-02 
518	 7,96668361030139E-02 
519	 8,07092764005563E-02 
520	 8,09256061751322E-02 
521	 0,080704036546755 
522	 8,06162776786691E-02 
523	 8,10664838787508E-02 
524	 8,17967237740765E-02 
525	 8,22734753502128E-02 
526	 8,14162058699866E-02 
527	 8,04548467406427E-02 
528	 7,99759269737318E-02 
529	 8,03926717947613E-02 
530	 8,09541392929235E-02 
531	 8,07866797656693E-02 
532	 8,10841697716077E-02 
533	 8,16581493685892E-02 
534	 0,08118739360203 
535	 8,01668504659645E-02 
536	 0,079097396193807 
537	 7,94066174632213E-02 
538	 8,05670702480382E-02 
539	 8,13587155018827E-02 
540	 8,13650970050243E-02 
541	 8,05898762163252E-02 
542	 7,98238254699434E-02 
543	 7,97040639278798E-02 
544	 8,07446423865219E-02 
545	 8,18301778572212E-02 
546	 8,23929551431924E-02 
547	 8,15955140885597E-02 
548	 8,08989583857338E-02 
549	 8,10762809092901E-02 
550	 8,19416143165045E-02 
551	 8,26159954833644E-02 
552	 8,17639869641002E-02 
553	 8,16515505695893E-02 
554	 8,23654169629813E-02 
555	 8,14383656706371E-02 
556	 8,03937600857499E-02 
557	 8,05214258716393E-02 
558	 8,10020660939501E-02 
559	 8,12676668651132E-02 
560	 8,01684525232892E-02 
561	 7,96574436783588E-02 
562	 8,02565012180531E-02 
563	 0,079775304371317 
564	 7,89627428476529E-02 
565	 7,90420241056547E-02 
566	 7,96076596105078E-02 
567	 8,02922944376599E-02 
568	 8,02585097290242E-02 
569	 7,98229037605204E-02 
570	 7,93847073100969E-02 
571	 8,04727609394905E-02 
572	 0,082262051874226 
573	 8,23723552221524E-02 
574	 8,30572463101171E-02 
575	 8,46821990898555E-02 
576	 8,49234521630649E-02 
577	 8,48093516777862E-02 
578	 8,56674759065919E-02 
579	 8,73634907063415E-02 
580	 8,91640136354327E-02 
581	 8,88069849220093E-02 
582	 8,89913447270788E-02 
583	 9,09973981392929E-02 
584	 9,17120676296717E-02 
585	 9,18548208963453E-02 
586	 0,093457194555979 
587	 9,44412019676954E-02 
588	 9,44065577712394E-02 
589	 0,094445225636971 
590	 9,48874646339338E-02 
591	 9,59460759703496E-02 
592	 9,67138756366604E-02 
593	 9,70415477351104E-02 
594	 9,71355740615648E-02 
595	 9,68839600050892E-02 
596	 9,64639058017348E-02 
597	 9,72209775110777E-02 
598	 9,83523978289353E-02 
599	 9,84955109023598E-02 
600	 9,80943439508833E-02 
601	 9,74361978403921E-02 
602	 9,72469605345934E-02 
603	 0,096778769417381 
604	 9,55534087127048E-02 
605	 9,52800509569781E-02 
606	 9,56694405469124E-02 
607	 9,53712637572202E-02 
608	 9,46616880314771E-02 
609	 9,37107277015918E-02 
610	 0,093033924676083 
611	 9,27577682745034E-02 
612	 9,29585247967706E-02 
613	 9,22232503048277E-02 
614	 0,090791797583509 
615	 9,06668063381533E-02 
616	 9,08910071648268E-02 
617	 9,08063043384049E-02 
618	 9,03515401249334E-02 
619	 8,98389448677462E-02 
620	 8,99625485647187E-02 
621	 8,97178638378902E-02 
622	 8,90624400466695E-02 
623	 8,94714347411182E-02 
624	 9,00709713331478E-02 
625	 8,99018504536237E-02 
626	 8,97623481009737E-02 
627	 8,97868277629465E-02 
628	 8,98284070767724E-02 
629	 9,00779216756055E-02 
630	 9,05452156676291E-02 
631	 9,04801537699971E-02 
632	 9,05277379568091E-02 
633	 0,091910385338303 
634	 9,25052833552216E-02 
635	 9,21544120533212E-02 
636	 9,29418152794218E-02 
637	 9,41034028358534E-02 
638	 0,094922099362673 
639	 9,54747494082532E-02 
640	 9,59228978773596E-02 
641	 9,67837746932546E-02 
642	 9,70389686077127E-02 
643	 9,65799440811029E-02 
644	 9,75126866094442E-02 
645	 9,85201407306798E-02 
646	 9,76730658206774E-02 
647	 9,72790707242203E-02 
648	 9,76226901946631E-02 
649	 9,75942263602556E-02 
650	 9,72242157479483E-02 
651	 9,65328096342909E-02 
652	 9,56007247295501E-02 
653	 0,094613099891046 
654	 0,093816298638354 
655	 9,35441187717135E-02 
656	 0,093537990818272 
657	 9,21393496898528E-02 
658	 8,99703322988731E-02 
659	 8,78164586278907E-02 
660	 0,086257970565266 
661	 8,51126647628645E-02 
662	 8,32680403212113E-02 
663	 8,17904537472324E-02 
664	 8,11688898536146E-02 
665	 8,08467870995387E-02 
666	 8,02474956762972E-02 
667	 7,85579338100155E-02 
668	 7,77981399623057E-02 
669	 7,81103206993827E-02 
670	 7,75385596082773E-02 
671	 7,68833388217089E-02 
672	 7,67892540885752E-02 
673	 7,65633638537626E-02 
674	 7,62675729949212E-02 
675	 7,63971954796149E-02 
676	 7,62043605650302E-02 
677	 7,55836618084064E-02 
678	 7,56229146352949E-02 
679	 7,58096015677742E-02 
680	 7,54458036093073E-02 
681	 7,59226573063269E-02 
682	 7,71461675970124E-02 
683	 7,77748656303622E-02 
684	 0,07828480020338 
685	 7,90200337990038E-02 
686	 8,02916776871256E-02 
687	 8,21280559803506E-02 
688	 8,44974444009374E-02 
689	 8,69524463677988E-02 
690	 8,94848098669691E-02 
691	 9,26197720088799E-02 
692	 9,66677903492412E-02 
693	 0,101842208254318 
694	 0,107368610147417 
695	 0,113369067132177 
696	 0,120569180565313 
697	 0,128453906640958 
698	 0,136887011370998 
699	 0,146404935721269 
700	 0,156623721882607 
701	 0,16697943961772 
702	 0,177908334480139 
703	 0,189202604116323 
704	 0,199969964688494 
705	 0,210601722830554 
706	 0,2212987624639 
707	 0,231754329489475 
708	 0,241905456292929 
709	 0,251674301827584 
710	 0,261117063868877 
711	 0,270195401075393 
712	 0,278711829290334 
713	 0,286689513060591 
714	 0,294180228118022 
715	 0,301714887567433 
716	 0,309010744805717 
717	 0,315134660465519 
718	 0,320677731992016 
719	 0,325893439268259 
720	 0,330763151955707 
721	 0,335277565322315 
722	 0,339425307852014 
723	 0,343432442910804 
724	 0,34732680650931 
725	 0,350924140182132 
726	 0,354307347850955 
727	 0,357489250369254 
728	 0,360049659325576 
729	 0,362225181270351 
730	 0,364528576161884 
731	 0,366698567094078 
732	 0,368677506660578 
733	 0,370501086505318 
734	 0,372208010740328 
735	 0,373836615006959 
736	 0,375446873166047 
737	 0,376956355131674 
738	 0,378142244480272 
739	 0,37915854385259 
740	 0,380074292200261 
741	 0,38086741611136 
742	 0,381715947882532 
743	 0,382813071000758 
744	 0,38371963865193 
745	 0,384422252492033 
746	 0,38522225418735 
747	 0,386002504085507 
748	 0,386695106569121 
749	 0,387215179920177 
750	 0,387812651746719 
751	 0,388892585827785 
752	 0,38962178664279 
753	 0,389924318135374 
754	 0,390463826486794 
755	 0,391060508133343 
756	 0,391571988179595 
757	 0,391972482174569 
758	 0,392360459711858 
759	 0,392961448114361 
760	 0,393377225484252 
761	 0,393620272477449 
762	 0,394412987194798 
763	 0,395182085664776 
764	 0,395387610078857 
765	 0,395754208860621 
766	 0,396219067662261 
767	 0,39616700919271 
768	 0,396513698201339 
769	 0,397462044786625 
770	 0,397898880899962 
771	 0,398062934062053 
772	 0,398354846140992 
773	 0,398975793616128 
774	 0,399650187971026 
775	 0,39931659729776 
776	 0,399257219629424 
777	 0,400042161352561 
778	 0,40058113675483 
779	 0,400827364140483 
780	 0,400900495131706 
781	 0,401048962039076 
782	 0,401347927259911 
783	 0,401777738437362 
784	 0,402023849377755 
785	 0,401968768292539 
786	 0,402566936947172 
787	 0,403260354538484 
788	 0,4027924526513 
789	 0,402750838619039 
790	 0,403452777919226 
791	 0,4041085022379 
792	 0,40444486991197 
793	 0,40429495914144 
794	 0,404140170100523 
795	 0,404243919539406 
796	 0,40501848485908 
797	 0,405289756106459 
798	 0,404931287764147 
799	 0,405487341777246 
800	 0,406120962651413 
801	 0,406025740522304 
802	 0,406241195426532 
803	 0,406678154965711 
804	 0,40660287598519 
805	 0,406538405412812 
806	 0,406734243232677 
807	 0,407380593225536 
808	 0,408177281939842 
809	 0,408768911922134 
810	 0,408834615754527 
811	 0,408605670183695 
812	 0,408888341680256 
813	 0,409323994434241 
814	 0,409749746129185 
815	 0,410088373873642 
816	 0,41036456342039 
817	 0,41062857988751 
818	 0,411149379378742 
819	 0,411779258833996 
820	 0,411897772130941 
821	 0,411996069410764 
822	 0,412298249708809 
823	 0,412562586840198 
824	 0,412947334560413 
825	 0,413669889020318 
826	 0,414487621164144 
827	 0,415124517972039 
828	 0,414956700615546 
829	 0,414752520427126 
830	 0,414934632538206 
831	 0,415281213286098 
832	 0,415673589268879 
833	 0,415977902388405 
834	 0,416472545335954 
835	 0,416993564056372 
836	 0,416791783607867 
837	 0,416652348677195 
838	 0,416972344659562 
839	 0,417275443409457 
840	 0,417359171004342 
841	 0,417019759095897 
842	 0,417649532377483 
843	 0,418922286796221 
844	 0,418511053934254 
845	 0,418208886193099 
846	 0,418848154009637 
847	 0,418831709149471 
848	 0,418551285216798 
849	 0,418789158857001 
850	 0,419207385953452 
851	 0,419611889786786 
852	 0,419639091587826 
853	 0,419698395100933 
854	 0,419986851531964 
855	 0,420212924208189 
856	 0,420317565592985 
857	 0,420269038108009 
858	 0,420208041187749 
859	 0,42032075751435 
860	 0,421051559090786 
861	 0,421794877493612 
862	 0,42212617101349 
863	 0,421556025917612 
864	 0,421156241287013 
865	 0,422319417206995 
866	 0,422720097905911 
867	 0,422305216819633 
868	 0,422621115640637 
869	 0,423416746538668 
870	 0,424418047567039 
871	 0,424639734562161 
872	 0,424496909437091 
873	 0,42461044533803 
874	 0,424679634295512 
875	 0,425004168977815 
876	 0,426780801252726 
877	 0,427388804584421 
878	 0,426163334288849 
879	 0,426372348995281 
880	 0,427067353769696 
881	 0,426997711515667 
882	 0,427510213664162 
883	 0,428382491831892 
884	 0,428371758842669 
885	 0,428376748505813 
886	 0,428625698909094 
887	 0,428558538691859 
888	 0,428483705747015 
889	 0,428711195424453 
890	 0,429074839636537 
891	 0,429415248017638 
892	 0,429426165916668 
893	 0,429752037773371 
894	 0,430383308212967 
895	 0,430312558164631 
896	 0,430069573473582 
897	 0,430130061465935 
898	 0,430601783541499 
899	 0,431180614275258 
900	 0,431317740702048 
901	 0,431126981902764 
902	 0,430845419324609 
903	 0,431139905259804 
904	 0,431833513591715 
905	 0,432647220914815 
906	 0,432421546167878 
907	 0,432213115062954 
908	 0,43368591786544 
909	 0,434247809072773 
910	 0,43366234678862 
911	 0,433177539826207 
912	 0,433506750647821 
913	 0,434803896452844 
914	 0,435685500313261 
915	 0,435529995178022 
916	 0,433962898212848 
917	 0,433670842808734 
918	 0,434512344904434 
919	 0,434639002478024 
920	 0,434614179807189 
921	 0,434524884097645 
922	 0,434168202539477 
923	 0,433615262872113 
924	 0,433044081550436 
925	 0,433445270635491 
926	 0,434392611702165 
927	 0,434880225762174 
928	 0,434542407172254 
929	 0,433710872093509 
930	 0,434175653697374 
931	 0,434272462582667 
932	 0,43312758661446 
933	 0,431903570744717 
934	 0,431174164170687 
935	 0,431433581830723 
936	 0,430664608398088 
937	 0,429439348767207 
938	 0,430824494257225 
939	 0,431629799527952 
940	 0,430689737501497 
941	 0,428897246770422 
942	 0,427709164070419 
943	 0,428177209747285 
944	 0,427583002309722 
945	 0,426212178574484 
946	 0,425445596895801 
947	 0,424969881063371 
948	 0,424581566953757 
949	 0,423842192759925 
950	 0,422664150447731 
951	 0,421131370900821 
952	 0,420069820017675 
953	 0,419157242302381 
954	 0,417918437817284 
955	 0,41713935811205 
956	 0,416646189386349 
957	 0,415571842077954 
958	 0,41462396643794 
959	 0,413867407736572 
960	 0,412299564860813 
961	 0,411549768700329 
962	 0,412537684291892 
963	 0,411769669862541 
964	 0,41081361384167 
965	 0,412746084854124 
966	 0,412710734576396 
967	 0,41069186922332 
968	 0,410633145075174 
969	 0,410281221700524 
970	 0,409277827230096 
971	 0,410837551854509 
972	 0,412151119159241 
973	 0,410779484751176 
974	 0,410841767624507 
975	 0,411870661891647 
976	 0,411763480512737 
977	 0,412247398183503 
978	 0,413385953326394 
979	 0,413909520275794 
980	 0,413945854623908 
981	 0,413725446598801 
982	 0,414123355816806 
983	 0,415200901986993 
984	 0,416679101127252 
985	 0,415259390972044 
986	 0,413379853735501 
987	 0,416914270213092 
988	 0,418339958104091 
989	 0,416712612540088 
990	 0,416824389728292 
991	 0,418285157555414 
992	 0,420556739949887 
993	 0,421563501217694 
994	 0,421819786711376 
995	 0,422207026551613 
996	 0,424540978244148 
997	 0,426918627055727 
998	 0,424919562845654 
999	 0,426243974239057 
1000	 0,430626114216194 
1001	 0,428533858813203 
1002	 0,427836042532721 
1003	 0,431531028546814 
1004	 0,432391215162594 
1005	 0,432585624303035 
1006	 0,434478526620288 
1007	 0,433955412388533 
1008	 0,433253517187947 
1009	 0,437488931108102 
1010	 0,438100947263608 
1011	 0,434580160880777 
1012	 0,432590981500953 
1013	 0,43374019522495 
1014	 0,438318116744716 
1015	 0,443253786846643 
1016	 0,444677640817083 
1017	 0,440543997640695 
1018	 0,440311216239843 
1019	 0,443568251171003 
1020	 0,447215565607601 
1021	 0,447958530818757 
1022	 0,446742125530031 
1023	 0,448992378529718 
1024	 0,449576456465755 
1025	 0,447962872888552 
1026	 0,449236930608033 
1027	 0,452713846695384 
1028	 0,4571682219146 
1029	 0,458885886163327 
1030	 0,457907169125771 
1031	 0,455096453045728 
1032	 0,452828606919498 
1033	 0,452460048798655 
1034	 0,455280203208525 
1035	 0,457808191115523 
1036	 0,458640611892704 
1037	 0,457332600824647 
1038	 0,456878863032261 
1039	 0,45894549451605 
1040	 0,464452837828883 
1041	 0,46680230314423 
1042	 0,461736399114839 
1043	 0,460490457021664 
1044	 0,461523646906123 
1045	 0,46064389370249 
1046	 0,462078516468765 
1047	 0,465463373025661 
1048	 0,468350829271642 
1049	 0,46571488916151 
1050	 0,459774492004203 
1051	 0,466316276158281 
1052	 0,469364969851762 
1053	 0,463662057372298 
1054	 0,466200431566532 
1055	 0,477019341936174 
1056	 0,491764759426636 
1057	 0,483886230943173 
1058	 0,468770061113301 
1059	 0,473106936909048 
1060	 0,469698570991469 
1061	 0,462103052686401 
1062	 0,471375619127911 
1063	 0,473825123266486 
1064	 0,467834428285245 
1065	 0,474376280624954 
1066	 0,479756888824275 
1067	 0,478926613150451 
1068	 0,480636223190407 
1069	 0,481034918098127 
1070	 0,477874072171221 
1071	 0,47831521103765 
1072	 0,481363691923029 
1073	 0,484334783848479 
1074	 0,479638221719415 
1075	 0,472924184647289 
