Wavelength	CAMFROU00853.asd
325	 0,109930476401411 
326	 9,61602408162551E-02 
327	 0,140813545773305 
328	 0,199270303859019 
329	 0,178335542505513 
330	 0,130507386345243 
331	 9,13695034532235E-02 
332	 0,191921015676497 
333	 0,33304863929808 
334	 0,254635021283583 
335	 0,241999721421506 
336	 0,304869736108283 
337	 0,120229436153235 
338	-7,69514640411426E-03 
339	 0,120388059346657 
340	 0,173171961158964 
341	 0,115613146260431 
342	-2,1436462356914E-03 
343	-4,26805651077065E-02 
344	 1,68631653109022E-02 
345	 9,83626010073325E-02 
346	 0,139572612317696 
347	 0,125587509210729 
348	 9,18101641436303E-02 
349	 6,42320286917199E-02 
350	 0,111559106561227 
351	 0,100744063404507 
352	 1,43663580135245E-02 
353	 5,32453177463831E-02 
354	 0,123269749711979 
355	 0,11243166447578 
356	 7,16183313761815E-02 
357	 2,79458809272122E-02 
358	 2,65105478286149E-02 
359	 0,059031609908146 
360	 0,101751257932444 
361	 8,69261702498662E-02 
362	 0,047910440395705 
363	 4,21202378254971E-02 
364	 4,69558163279578E-02 
365	 5,27554779605607E-02 
366	 4,32147338423258E-02 
367	 0,032039440385008 
368	 3,00219352186614E-02 
369	 4,59137850026689E-02 
370	 6,63448529704349E-02 
371	 7,63487079513671E-02 
372	 6,02440070626424E-02 
373	 2,45780568225212E-02 
374	 0,013211258006823 
375	 2,35359512912637E-02 
376	 0,046812342220602 
377	 4,95982091557963E-02 
378	 3,90943775301071E-02 
379	 3,85701252779096E-02 
380	 4,09452590424604E-02 
381	 4,38495090494849E-02 
382	 4,53866143522093E-02 
383	 4,59739069908561E-02 
384	 4,62177192275243E-02 
385	 5,05561429384405E-02 
386	 5,32025156934493E-02 
387	 3,33259565081738E-02 
388	 0,027168413893773 
389	 4,26275798519627E-02 
390	 4,45918192246089E-02 
391	 0,033513327376787 
392	 0,013979694875663 
393	 2,12869139229463E-02 
394	 4,82119042655571E-02 
395	 5,22719508973705E-02 
396	 4,63702327300516E-02 
397	 3,87181664888744E-02 
398	 3,52297432640399E-02 
399	 0,036613804917798 
400	 4,31399360811895E-02 
401	 4,08425761377022E-02 
402	 3,20642250767936E-02 
403	 0,039447808702444 
404	 4,69537267252496E-02 
405	 4,39952579124233E-02 
406	 3,80612015173881E-02 
407	 0,034255638943137 
408	 4,09009700550572E-02 
409	 4,40737539084942E-02 
410	 3,97794956710512E-02 
411	 3,00761404708712E-02 
412	 0,021608294329677 
413	 2,06765063839895E-02 
414	 2,42580450507131E-02 
415	 2,98549199401514E-02 
416	 0,033664776845574 
417	 3,82828792249274E-02 
418	 4,31700130051769E-02 
419	 4,02162281789343E-02 
420	 3,39136152684035E-02 
421	 3,08349195240329E-02 
422	 3,11433500037176E-02 
423	 3,33705722086841E-02 
424	 3,23696520264079E-02 
425	 3,21957991210687E-02 
426	 3,46773658041677E-02 
427	 0,033068139654448 
428	 3,01419960893132E-02 
429	 0,032235654244344 
430	 3,45646219775377E-02 
431	 3,55359207631183E-02 
432	 3,48674081156789E-02 
433	 3,47180478562166E-02 
434	 3,67183341255644E-02 
435	 0,0356391634567 
436	 3,23841351362347E-02 
437	 3,11964400275346E-02 
438	 3,19646644530059E-02 
439	 3,41765659289869E-02 
440	 3,46221503053563E-02 
441	 3,38265963290715E-02 
442	 3,28421683389019E-02 
443	 3,51186477595389E-02 
444	 3,85833116763166E-02 
445	 3,32627251362814E-02 
446	 0,028891789456804 
447	 3,11996485569674E-02 
448	 3,17893440133462E-02 
449	 3,17026574141808E-02 
450	 3,52266443009376E-02 
451	 0,036617371078582 
452	 3,52592502936693E-02 
453	 3,72434033180348E-02 
454	 3,83067146462165E-02 
455	 3,47696100719401E-02 
456	 3,61512169754275E-02 
457	 4,08502031915131E-02 
458	 3,99639489000766E-02 
459	 0,038555099593513 
460	 3,83216508665204E-02 
461	 3,62218638050558E-02 
462	 3,33903203456435E-02 
463	 3,15546540397935E-02 
464	 3,46950298852578E-02 
465	 4,05648778696641E-02 
466	 3,78802682172308E-02 
467	 3,59865709656028E-02 
468	 4,02258904546777E-02 
469	 3,89166121985032E-02 
470	 3,47927280212153E-02 
471	 3,64051363855885E-02 
472	 3,76867403195988E-02 
473	 0,037078762776077 
474	 0,036482486457979 
475	 3,67140416619813E-02 
476	 3,83711094490456E-02 
477	 3,91957270787506E-02 
478	 3,86972959378686E-02 
479	 3,65367617106788E-02 
480	 3,65930714873268E-02 
481	 0,039778272706592 
482	 3,84907432538896E-02 
483	 3,58201954385742E-02 
484	 3,74829549210915E-02 
485	 3,84360316865564E-02 
486	 3,77513729003845E-02 
487	 3,69436918577687E-02 
488	 3,73882593761497E-02 
489	 3,98779619064594E-02 
490	 4,17748262377079E-02 
491	 4,21388798900301E-02 
492	 3,96448761051714E-02 
493	 0,038667675295165 
494	 0,040234471206431 
495	 4,00799447283804E-02 
496	 3,97923877998082E-02 
497	 4,14592201955295E-02 
498	 4,13693646481243E-02 
499	 3,96721440329432E-02 
500	 3,92635357326028E-02 
501	 3,97107811027959E-02 
502	 4,05803403345368E-02 
503	 4,01904289682879E-02 
504	 3,95117665033723E-02 
505	 4,06916058492123E-02 
506	 4,11076594192701E-02 
507	 4,05766326574577E-02 
508	 4,21061314545512E-02 
509	 4,28458984585711E-02 
510	 4,03904531101844E-02 
511	 3,99121860193444E-02 
512	 4,15284802209392E-02 
513	 4,30185823951335E-02 
514	 4,38911030610554E-02 
515	 4,38074208944132E-02 
516	 4,26265781728903E-02 
517	 0,042102700080659 
518	 4,46477243130199E-02 
519	 4,55001837203496E-02 
520	 4,43222252349416E-02 
521	 4,47887593292025E-02 
522	 4,54009110791884E-02 
523	 4,51251563343168E-02 
524	 4,53911226837197E-02 
525	 4,59436433837909E-02 
526	 0,045764714574626 
527	 4,52584677371772E-02 
528	 4,48528958022156E-02 
529	 4,60371439083136E-02 
530	 0,047303415923219 
531	 4,68522312184832E-02 
532	 4,70074549079618E-02 
533	 4,77662123474764E-02 
534	 4,74353176295104E-02 
535	 4,68431643850382E-02 
536	 4,65858205352423E-02 
537	 4,73461703340373E-02 
538	 4,82909153817929E-02 
539	 4,77390077679927E-02 
540	 4,72413708381963E-02 
541	 4,72003787542036E-02 
542	 4,69717598481886E-02 
543	 4,70504636408902E-02 
544	 4,79070189377859E-02 
545	 4,88511190019506E-02 
546	 4,95096771674354E-02 
547	 4,93107141519915E-02 
548	 4,91120325494251E-02 
549	 4,93685818747981E-02 
550	 4,99177016222775E-02 
551	 5,05562615760877E-02 
552	 5,10246173911074E-02 
553	 5,11653153614219E-02 
554	 5,10635170705332E-02 
555	 5,13084882644706E-02 
556	 0,051454357014423 
557	 0,051145829598205 
558	 5,09340939191891E-02 
559	 0,050744357899709 
560	 4,99065272079165E-02 
561	 5,01712761364851E-02 
562	 5,18081346510653E-02 
563	 5,18484633769992E-02 
564	 5,10742151187128E-02 
565	 5,08676834156911E-02 
566	 5,10755436652691E-02 
567	 5,15956251784797E-02 
568	 5,21295296352643E-02 
569	 5,23561348012158E-02 
570	 5,21082930604763E-02 
571	 5,20720070051232E-02 
572	 0,05243175341022 
573	 0,053326573852539 
574	 0,054314517457069 
575	 5,50658081850732E-02 
576	 5,50272381265788E-02 
577	 5,47329665166327E-02 
578	 5,48383471147288E-02 
579	 0,055833789569393 
580	 5,70691789330965E-02 
581	 5,60818114349366E-02 
582	 5,55134557537098E-02 
583	 5,67250599482169E-02 
584	 5,75465164936685E-02 
585	 0,057841687409746 
586	 5,78533060974976E-02 
587	 0,058268012066785 
588	 5,90268467257414E-02 
589	 5,87043417519997E-02 
590	 5,84329023847564E-02 
591	 5,92859503322169E-02 
592	 6,02969218963605E-02 
593	 6,09823356182235E-02 
594	 6,05802832925174E-02 
595	 6,02041630001673E-02 
596	 6,04257675221028E-02 
597	 6,10791298141408E-02 
598	 6,17653164330311E-02 
599	 6,19575699505604E-02 
600	 6,15946429399908E-02 
601	 6,09644626621325E-02 
602	 6,12608018082078E-02 
603	 6,14438179987645E-02 
604	 6,07399197686199E-02 
605	 6,03336855750365E-02 
606	 6,02679827465642E-02 
607	 6,01109596589837E-02 
608	 6,00420131057617E-02 
609	 6,01535808683085E-02 
610	 6,06589947657988E-02 
611	 6,11605319428596E-02 
612	 6,11657395596194E-02 
613	 6,03058890058875E-02 
614	 5,90347582429424E-02 
615	 5,90366020126439E-02 
616	 5,94498323868852E-02 
617	 5,96631361420634E-02 
618	 5,95407501420401E-02 
619	 5,92218796097393E-02 
620	 5,89690563183347E-02 
621	 0,059368993184597 
622	 6,03297960177488E-02 
623	 6,03769363799925E-02 
624	 6,01225476074611E-02 
625	 6,02738297203837E-02 
626	 0,06025649502815 
627	 6,01039079914033E-02 
628	 6,01840219305602E-02 
629	 0,060523469069015 
630	 6,10137033183346E-02 
631	 6,06565243909087E-02 
632	 6,03325457907116E-02 
633	 6,17102037633707E-02 
634	 6,18620278599997E-02 
635	 6,07459856062605E-02 
636	 6,20062853433816E-02 
637	 6,33273998236231E-02 
638	 6,27813760265505E-02 
639	 0,063022090501054 
640	 0,063866744103652 
641	 0,063592218008273 
642	 6,34475038068446E-02 
643	 0,063892659526484 
644	 6,45903068318633E-02 
645	 6,49658566711445E-02 
646	 6,43320301127515E-02 
647	 6,42524660217234E-02 
648	 6,47995589269007E-02 
649	 0,064704071564322 
650	 0,064579180719933 
651	 6,47390979529775E-02 
652	 6,41026068755544E-02 
653	 6,31107186757772E-02 
654	 6,29191226496318E-02 
655	 6,30543530510576E-02 
656	 6,32098821768573E-02 
657	 6,27679136890231E-02 
658	 6,18325390508601E-02 
659	 6,05915672119705E-02 
660	 5,97559249210324E-02 
661	 5,93849765407087E-02 
662	 0,059191327726292 
663	 5,85086289878448E-02 
664	 0,05726111989205 
665	 0,057620148593462 
666	 0,058555625259836 
667	 5,81160119207924E-02 
668	 5,72890883370204E-02 
669	 5,65132048109497E-02 
670	 5,63831458325317E-02 
671	 5,63711858550053E-02 
672	 5,60810125943238E-02 
673	 5,62532215460115E-02 
674	 0,056702703949046 
675	 5,67058837735673E-02 
676	 5,66973637258535E-02 
677	 5,68189559082047E-02 
678	 5,69891637382615E-02 
679	 5,71087289589488E-02 
680	 5,70725316004838E-02 
681	 5,74653853184462E-02 
682	 5,81827189500515E-02 
683	 5,84023731001757E-02 
684	 5,87345334670304E-02 
685	 5,95182427669358E-02 
686	 6,03598259777024E-02 
687	 6,12418979989624E-02 
688	 6,22096369957553E-02 
689	 6,35062553115379E-02 
690	 6,50728085136966E-02 
691	 6,62851770921548E-02 
692	 6,76323811826938E-02 
693	 6,95614877819567E-02 
694	 7,16583049154282E-02 
695	 7,39629772199542E-02 
696	 0,076807810729066 
697	 7,97581014118681E-02 
698	 8,26191822667386E-02 
699	 8,54881965579601E-02 
700	 8,84918345341887E-02 
701	 9,17734791220935E-02 
702	 0,094935173262563 
703	 9,78909668619596E-02 
704	 0,100732346377646 
705	 0,103585787296304 
706	 0,106489019340158 
707	 0,10907476137438 
708	 0,111386933720186 
709	 0,113557652650725 
710	 0,115973377968716 
711	 0,118572233416262 
712	 0,120487799397723 
713	 0,122067225286912 
714	 0,12368737881253 
715	 0,125586003832536 
716	 0,127507847338498 
717	 0,128710932512495 
718	 0,129544928174612 
719	 0,130248546726059 
720	 0,131287974614671 
721	 0,13244469607322 
722	 0,133378848208602 
723	 0,134266070643221 
724	 0,135141432474894 
725	 0,136006195434951 
726	 0,136755131056188 
727	 0,137327218485616 
728	 0,137765559130952 
729	 0,138195320262991 
730	 0,138830226122442 
731	 0,139293041696742 
732	 0,139583624527647 
733	 0,140200724785038 
734	 0,14096024076816 
735	 0,141657983192716 
736	 0,142020804805179 
737	 0,142146255723411 
738	 0,142378361819075 
739	 0,142764216001784 
740	 0,143263232840025 
741	 0,143458230458422 
742	 0,143537481991127 
743	 0,143757821768703 
744	 0,143918652801034 
745	 0,144058002029335 
746	 0,144460312457487 
747	 0,144629498619681 
748	 0,144423716611231 
749	 0,144855258872253 
750	 0,145621813555955 
751	 0,146097463250025 
752	 0,146102897550135 
753	 0,145782715278949 
754	 0,145878923192045 
755	 0,146272321826519 
756	 0,146792745696143 
757	 0,146695329684514 
758	 0,146469304866195 
759	 0,147416727963355 
760	 0,147833223737261 
761	 0,147424678314719 
762	 0,147622624587595 
763	 0,148037095538493 
764	 0,148239616309098 
765	 0,148457862231131 
766	 0,148633886031532 
767	 0,148459180293292 
768	 0,148654007284435 
769	 0,149344447424154 
770	 0,149437630151111 
771	 0,149258224442875 
772	 0,149303927283362 
773	 0,1497134134389 
774	 0,15028941465018 
775	 0,150281423709035 
776	 0,150407628326407 
777	 0,15095965078869 
778	 0,151225011842982 
779	 0,151221867099262 
780	 0,151093977508472 
781	 0,151134710793255 
782	 0,151383241082624 
783	 0,151653127308153 
784	 0,151738781021169 
785	 0,151573603066577 
786	 0,151840285827052 
787	 0,152291105491184 
788	 0,152295880287723 
789	 0,152530444921989 
790	 0,153026213885308 
791	 0,153080854909966 
792	 0,15301328870282 
793	 0,153076298669425 
794	 0,152895293182872 
795	 0,152780295395261 
796	 0,15354162021992 
797	 0,154041374919344 
798	 0,15398547448719 
799	 0,154042709866605 
800	 0,15413503704719 
801	 0,154165811072794 
802	 0,154217858468521 
803	 0,154303879754655 
804	 0,154400459006868 
805	 0,154591233246608 
806	 0,15487083983108 
807	 0,155070103628268 
808	 0,155119056694322 
809	 0,15498388523224 
810	 0,155229933315239 
811	 0,155697681627209 
812	 0,155549902256128 
813	 0,155667977742184 
814	 0,156271955158901 
815	 0,156333988635361 
816	 0,156116958297796 
817	 0,156043804530311 
818	 0,156134306826609 
819	 0,156414756768368 
820	 0,156922192252811 
821	 0,157375538063678 
822	 0,157576118121946 
823	 0,157295435177378 
824	 0,157021720040446 
825	 0,157390737237843 
826	 0,157787372537197 
827	 0,158053059200808 
828	 0,158185477192604 
829	 0,158388906370313 
830	 0,158676557633979 
831	 0,15832533416898 
832	 0,157933755858215 
833	 0,15839681022259 
834	 0,159062635132888 
835	 0,159567429060458 
836	 0,159301265267371 
837	 0,159178616709367 
838	 0,159607543380015 
839	 0,159638191846177 
840	 0,159370597514498 
841	 0,159096774472929 
842	 0,158952212152578 
843	 0,159037782025338 
844	 0,159514206946771 
845	 0,15991833533571 
846	 0,159970959529714 
847	 0,159803323887226 
848	 0,159506950570096 
849	 0,159185687646941 
850	 0,159228220224805 
851	 0,159588076283236 
852	 0,159733718667308 
853	 0,159982428636371 
854	 0,160392051192156 
855	 0,160219920258705 
856	 0,159794003104773 
857	 0,159667924680197 
858	 0,160088843274498 
859	 0,160757614765434 
860	 0,160515255531878 
861	 0,160158698232217 
862	 0,160156706897238 
863	 0,16065491063015 
864	 0,161109821590302 
865	 0,160823116198758 
866	 0,161260730325653 
867	 0,162132757647203 
868	 0,161390316382711 
869	 0,161053707717502 
870	 0,161895596051049 
871	 0,162227899249935 
872	 0,162358067013403 
873	 0,1628215671658 
874	 0,162916032241492 
875	 0,162641262225797 
876	 0,162392954532849 
877	 0,162351689427605 
878	 0,16253363361921 
879	 0,162380625342655 
880	 0,162341527396243 
881	 0,16290486707668 
882	 0,163243913999402 
883	 0,163304699925799 
884	 0,163446732248007 
885	 0,163403743379058 
886	 0,163167055624624 
887	 0,163145111610935 
888	 0,163159852419283 
889	 0,163021083107103 
890	 0,162730361017179 
891	 0,162541362152355 
892	 0,163013074191563 
893	 0,163310276006326 
894	 0,163357843957711 
895	 0,164294066448906 
896	 0,164602805134727 
897	 0,163354923549959 
898	 0,163799109567576 
899	 0,164956872768659 
900	 0,164188579422774 
901	 0,163572790381247 
902	 0,163710156711623 
903	 0,16453974182365 
904	 0,165167955309922 
905	 0,165097013536898 
906	 0,165372398751242 
907	 0,165400839579059 
908	 0,164196365137669 
909	 0,164358479689669 
910	 0,165744582551564 
911	 0,165813025477677 
912	 0,165540756060548 
913	 0,165454397793672 
914	 0,165975618612179 
915	 0,16642897537597 
916	 0,166066804833244 
917	 0,165975730110848 
918	 0,166193227667694 
919	 0,166174000938214 
920	 0,166576725501829 
921	 0,167359274311079 
922	 0,16730472971262 
923	 0,166936713742592 
924	 0,16675953608118 
925	 0,166659990462297 
926	 0,166882413349537 
927	 0,167893922739844 
928	 0,16821987407642 
929	 0,16760366936288 
930	 0,166669176648686 
931	 0,166909872232621 
932	 0,168685603989053 
933	 0,167961096909098 
934	 0,166430451016472 
935	 0,166805334185473 
936	 0,167330806608786 
937	 0,167732286919504 
938	 0,168567386733737 
939	 0,167832130197775 
940	 0,165591725151908 
941	 0,166272873352203 
942	 0,167703417598419 
943	 0,167753429593653 
944	 0,167572489807484 
945	 0,167549787562284 
946	 0,168087665904523 
947	 0,168737207191748 
948	 0,169221569707253 
949	 0,16929701976326 
950	 0,168338114993187 
951	 0,166538098909471 
952	 0,167428058877369 
953	 0,169057684477753 
954	 0,16869335025129 
955	 0,168401165187816 
956	 0,168392201333538 
957	 0,168094211964321 
958	 0,168061099291092 
959	 0,168309231981912 
960	 0,167937849021022 
961	 0,167919224879394 
962	 0,168764826846246 
963	 0,168003885870194 
964	 0,166986259368736 
965	 0,168232944297164 
966	 0,16823399110811 
967	 0,166974473112485 
968	 0,167007613232018 
969	 0,168433896163216 
970	 0,170691663096864 
971	 0,170606324418616 
972	 0,169366270573115 
973	 0,168412630363246 
974	 0,168822574874366 
975	 0,169754232258954 
976	 0,169303310441889 
977	 0,169169638004791 
978	 0,169663919393041 
979	 0,170319890686882 
980	 0,170404235746012 
981	 0,169720462443905 
982	 0,169524107644616 
983	 0,169604248908869 
984	 0,169683639717474 
985	 0,170627366179278 
986	 0,171335409191638 
987	 0,169365185195069 
988	 0,169668388445177 
989	 0,172110784627587 
990	 0,170464951411661 
991	 0,170188465996097 
992	 0,173281851331741 
993	 0,17344217168025 
994	 0,172113974697372 
995	 0,171549284634584 
996	 0,173847954233725 
997	 0,176674907820998 
998	 0,174725544946301 
999	 0,174249993482666 
1000	 0,175877896962105 
1001	 0,175023447322955 
1002	 0,174142368583235 
1003	 0,174612872896712 
1004	 0,176732458196121 
1005	 0,179272012810315 
1006	 0,180595778833404 
1007	 0,175894295299687 
1008	 0,170646102719625 
1009	 0,175770738011726 
1010	 0,179283357846572 
1011	 0,179063269132967 
1012	 0,179660312462596 
1013	 0,17871467434548 
1014	 0,176461097549591 
1015	 0,179114712234185 
1016	 0,181588604854289 
1017	 0,17968679396562 
1018	 0,178351506566313 
1019	 0,178584413832438 
1020	 0,180683477570882 
1021	 0,183214901005319 
1022	 0,185436940830963 
1023	 0,186811742918135 
1024	 0,184996174452784 
1025	 0,180692557284618 
1026	 0,18030711537433 
1027	 0,18086479630659 
1028	 0,180830126726175 
1029	 0,184956923595176 
1030	 0,188187839993289 
1031	 0,18485577083477 
1032	 0,186302532417191 
1033	 0,189768552260438 
1034	 0,185396577129843 
1035	 0,184282272806064 
1036	 0,187621124275373 
1037	 0,187438153519696 
1038	 0,187588049010241 
1039	 0,189372651833244 
1040	 0,191001234661498 
1041	 0,189721494564952 
1042	 0,184675391029857 
1043	 0,187052328942281 
1044	 0,190983088217389 
1045	 0,186913346296444 
1046	 0,192394022022015 
1047	 0,202214953178624 
1048	 0,195921718511841 
1049	 0,186733533754848 
1050	 0,180557755061202 
1051	 0,184294133228174 
1052	 0,187012302881742 
1053	 0,183852657493066 
1054	 0,180264745951778 
1055	 0,184577029942898 
1056	 0,20001073283163 
1057	 0,198007741327903 
1058	 0,185645223697125 
1059	 0,179767306675503 
1060	 0,190103638617726 
1061	 0,206910093778523 
1062	 0,203261415867509 
1063	 0,192905136747447 
1064	 0,184804758715591 
1065	 0,195155159526814 
1066	 0,198266629143198 
1067	 0,186603614088483 
1068	 0,189191379720197 
1069	 0,190456680816813 
1070	 0,181131597739902 
1071	 0,192239666879575 
1072	 0,204591695432132 
1073	 0,193465118821002 
1074	 0,194145072935691 
1075	 0,201699035197224 
