Wavelength	CAMFROU00747.asd
325	 2,21157430165787E-02 
326	 1,59917044400497E-02 
327	 9,01695038424505E-02 
328	 0,224451849319664 
329	 0,280410650575189 
330	 0,234938653947837 
331	 6,44013368786048E-02 
332	-8,56045625197031E-03 
333	 2,21247935968244E-02 
334	 9,2965681011507E-03 
335	 3,04287984059644E-02 
336	 8,19892354133654E-02 
337	 7,70287176114903E-02 
338	 6,26700867317352E-02 
339	 7,40287902947804E-02 
340	 5,21888102122906E-02 
341	 2,15575650293428E-02 
342	 8,94094787398243E-02 
343	 0,08681469350727 
344	-2,80635143361225E-03 
345	 1,32513881454635E-02 
346	 0,069111910724055 
347	 0,106277241901844 
348	 0,06817980015322 
349	-6,45043921201726E-03 
350	 4,31717190539299E-02 
351	 6,98913276990015E-02 
352	 3,83717656942313E-02 
353	 5,77816937804467E-02 
354	 8,01679411741964E-02 
355	 4,91781428848668E-02 
356	 3,63486189008579E-02 
357	 0,044850282734883 
358	 3,99083741668389E-02 
359	 4,17928524071204E-02 
360	 0,053493650056416 
361	 3,13718464118769E-02 
362	 1,03831029788607E-02 
363	 4,86016422923257E-02 
364	 5,56677902569339E-02 
365	 2,62906132415384E-02 
366	 1,89372273754504E-02 
367	 1,42353391889889E-02 
368	 2,83203552764141E-03 
369	 1,90207403098421E-02 
370	 4,58119454060722E-02 
371	 0,056468693546414 
372	 6,79906352567341E-02 
373	 7,31090335674285E-02 
374	 2,30735367112344E-02 
375	-1,31215112357851E-02 
376	 1,98823741168237E-02 
377	 5,32139320240592E-02 
378	 6,52473807675145E-02 
379	 2,21473053950247E-02 
380	 9,21169996901463E-03 
381	 4,46211347308005E-02 
382	 5,14976583409955E-02 
383	 0,049419262978585 
384	 0,058535850707843 
385	 5,37383040140227E-02 
386	 3,69741592437806E-02 
387	 2,18046858560866E-02 
388	 2,62875432659877E-02 
389	 4,85174389679069E-02 
390	 4,47019735776001E-02 
391	 0,030549296750897 
392	 2,93146868460752E-02 
393	 3,30344346964309E-02 
394	 3,81467086644754E-02 
395	 4,00897854525992E-02 
396	 3,60134281328571E-02 
397	 2,62051165223891E-02 
398	 2,09707599482131E-02 
399	 1,92977485326714E-02 
400	 1,77938311851697E-02 
401	 2,17214371496667E-02 
402	 2,88870898471696E-02 
403	 2,68605726573517E-02 
404	 0,026929443852648 
405	 3,53721639308082E-02 
406	 3,40746843602396E-02 
407	 2,68594202608247E-02 
408	 2,67153676289735E-02 
409	 2,58714011371014E-02 
410	 2,27025050645406E-02 
411	 1,94397648938973E-02 
412	 1,73893031525899E-02 
413	 1,76992965749426E-02 
414	 1,88280065293715E-02 
415	 2,09853571487617E-02 
416	 2,62206791312754E-02 
417	 2,97528989265316E-02 
418	 0,029411319775616 
419	 2,55200652240672E-02 
420	 2,11936048344148E-02 
421	 2,02560606084382E-02 
422	 2,17763850873891E-02 
423	 2,44994815323161E-02 
424	 2,56786238896935E-02 
425	 2,56473762280797E-02 
426	 2,46486409327836E-02 
427	 2,29364973041672E-02 
428	 2,12869070531084E-02 
429	 2,05853617491514E-02 
430	 2,26367947377002E-02 
431	 0,026392501416566 
432	 2,56005286058294E-02 
433	 2,33985200627113E-02 
434	 2,28327482819583E-02 
435	 2,35252054721961E-02 
436	 2,40207882744334E-02 
437	 2,03205625469129E-02 
438	 0,018540170240005 
439	 2,07225839369208E-02 
440	 2,30280661393132E-02 
441	 2,32469954709464E-02 
442	 1,91186337316166E-02 
443	 2,30854072235309E-02 
444	 3,20566611054946E-02 
445	 2,52071263475564E-02 
446	 1,94594612653398E-02 
447	 2,44029795451037E-02 
448	 2,39596253901399E-02 
449	 1,99245958632282E-02 
450	 1,93744742505104E-02 
451	 2,15551424009559E-02 
452	 2,48176279265103E-02 
453	 0,022378146394632 
454	 0,019499640922228 
455	 2,11839024287689E-02 
456	 0,023738386248186 
457	 2,57407104465035E-02 
458	 2,56023465596178E-02 
459	 2,53623239202953E-02 
460	 2,55096033863548E-02 
461	 2,32241094087574E-02 
462	 2,00635772071152E-02 
463	 1,83257000616483E-02 
464	 1,99748927137426E-02 
465	 2,37960757157282E-02 
466	 2,39071761482511E-02 
467	 2,38420257465432E-02 
468	 2,56350826348961E-02 
469	 2,54046425256927E-02 
470	 2,37036742564161E-02 
471	 2,23411761754332E-02 
472	 2,30777565826894E-02 
473	 2,56600130492993E-02 
474	 2,57827801452131E-02 
475	 2,47011401381282E-02 
476	 2,39074424236096E-02 
477	 2,30987703076802E-02 
478	 2,29201497924597E-02 
479	 2,52850582824905E-02 
480	 2,70067882769575E-02 
481	 2,65333416500943E-02 
482	 2,48572465224698E-02 
483	 2,32370151036976E-02 
484	 2,32629310146723E-02 
485	 2,40170551453656E-02 
486	 2,47552680150883E-02 
487	 2,35964256141483E-02 
488	 2,32199185189185E-02 
489	 2,54063010640658E-02 
490	 2,66917668381943E-02 
491	 2,62296226559218E-02 
492	 2,30634344555066E-02 
493	 2,18117987285151E-02 
494	 2,35969206293359E-02 
495	 2,41913121617445E-02 
496	 2,40664364972179E-02 
497	 2,41297665458655E-02 
498	 0,024148357126916 
499	 2,36717880085879E-02 
500	 0,020975170668038 
501	 2,01402924240433E-02 
502	 2,29990541294982E-02 
503	 2,40277094856637E-02 
504	 2,39802280042922E-02 
505	 2,56868864505417E-02 
506	 2,53227557616109E-02 
507	 2,29082841561748E-02 
508	 2,36108256464646E-02 
509	 2,41224645947867E-02 
510	 2,15613694109199E-02 
511	 0,021928668871768 
512	 2,46545117846904E-02 
513	 2,55595053958664E-02 
514	 2,54362955762231E-02 
515	 2,46137691919054E-02 
516	 2,33722447840335E-02 
517	 0,022895028060071 
518	 2,47302339737463E-02 
519	 0,025275836362032 
520	 2,41409946998019E-02 
521	 2,35848088856665E-02 
522	 2,35584731147513E-02 
523	 2,39998243821059E-02 
524	 2,49178891734887E-02 
525	 2,56599658411349E-02 
526	 2,48306119416021E-02 
527	 0,023908812091019 
528	 2,35802103110744E-02 
529	 2,43496716086837E-02 
530	 2,51279358785211E-02 
531	 2,46626944809598E-02 
532	 2,44531258100343E-02 
533	 2,47816685039906E-02 
534	 2,55311805505064E-02 
535	 0,025660843452349 
536	 2,46627267419519E-02 
537	 2,38510166827542E-02 
538	 0,023594357977332 
539	 2,41902274873349E-02 
540	 0,024871747936524 
541	 2,50730730380402E-02 
542	 2,34293167130921E-02 
543	 2,25499503097565E-02 
544	 2,48464477532882E-02 
545	 2,57212305095156E-02 
546	 2,49158221000741E-02 
547	 2,45049976134417E-02 
548	 2,40415797948313E-02 
549	 2,35147165826929E-02 
550	 0,023903409108698 
551	 2,46111851323959E-02 
552	 0,024568746300542 
553	 2,44973380974568E-02 
554	 2,45228542127127E-02 
555	 2,43057672182314E-02 
556	 2,42441485662355E-02 
557	 2,46084654809483E-02 
558	 0,024404389519656 
559	 2,37987783659745E-02 
560	 2,36302609584756E-02 
561	 2,36558498900844E-02 
562	 2,37121755284315E-02 
563	 2,32220920462818E-02 
564	 2,29143326624176E-02 
565	 2,37957119029726E-02 
566	 2,45534943436031E-02 
567	 2,47688476788507E-02 
568	 0,024363719900497 
569	 2,37957123742583E-02 
570	 0,023437633512054 
571	 0,023437896983588 
572	 2,36100529488638E-02 
573	 2,33642231126694E-02 
574	 2,40380407369208E-02 
575	 2,56181782736587E-02 
576	 2,55864139009476E-02 
577	 2,46938618499627E-02 
578	 2,40200053610024E-02 
579	 2,44218803734365E-02 
580	 2,54466256858212E-02 
581	 2,49004527923093E-02 
582	 2,45132867685276E-02 
583	 2,51667172224948E-02 
584	 2,54707651977465E-02 
585	 2,55589047874224E-02 
586	 2,59946454687706E-02 
587	 0,026324370108225 
588	 2,64363640888347E-02 
589	 2,64919348790768E-02 
590	 2,64552451727637E-02 
591	 2,63169886478568E-02 
592	 2,66360408014156E-02 
593	 0,027182416982656 
594	 2,70342958363571E-02 
595	 2,68047239576087E-02 
596	 2,68326670332514E-02 
597	 2,74070483428175E-02 
598	 2,78469017295697E-02 
599	 2,70873415791824E-02 
600	 2,69933938872192E-02 
601	 2,76898752064392E-02 
602	 2,75538579130609E-02 
603	 2,69072578741811E-02 
604	 2,61464042315602E-02 
605	 2,65866681275364E-02 
606	 2,75617279350596E-02 
607	 2,68833023118527E-02 
608	 2,61204984803684E-02 
609	 2,59027115407389E-02 
610	 2,62623695624246E-02 
611	 2,66418341401621E-02 
612	 2,63606393226009E-02 
613	 2,57394769596194E-02 
614	 2,50781853178123E-02 
615	 2,50075693568089E-02 
616	 2,52523894236608E-02 
617	 2,55243655462569E-02 
618	 2,49643135062465E-02 
619	 2,41472514514198E-02 
620	 0,024437326954263 
621	 2,49026754973642E-02 
622	 2,51754249255217E-02 
623	 0,024950706469876 
624	 0,025057256664688 
625	 2,62729982762151E-02 
626	 2,60701985315249E-02 
627	 2,48130229691105E-02 
628	 0,02517180431349 
629	 2,57303290087768E-02 
630	 2,57778114656762E-02 
631	 2,56165216166794E-02 
632	 2,54731242967853E-02 
633	 2,56657671518089E-02 
634	 2,58410089394944E-02 
635	 2,59000380341591E-02 
636	 2,58261947584114E-02 
637	 2,60674708448032E-02 
638	 2,69399641520469E-02 
639	 2,74738811951261E-02 
640	 2,75986088251255E-02 
641	 2,76682352530191E-02 
642	 2,75110848396441E-02 
643	 2,71788641966332E-02 
644	 2,72715038318684E-02 
645	 2,74597967990773E-02 
646	 2,72471832451447E-02 
647	 0,027160696043265 
648	 2,73373888700828E-02 
649	 2,78445678804191E-02 
650	 2,80263144814495E-02 
651	 2,74875045138349E-02 
652	 2,69250996966746E-02 
653	 2,66167397184566E-02 
654	 2,69099792110521E-02 
655	 0,026942450007866 
656	 2,65344187828493E-02 
657	 0,026545698725179 
658	 2,62436995590769E-02 
659	 2,48967722744326E-02 
660	 2,45692108234641E-02 
661	 2,50531282476302E-02 
662	 2,44063224310298E-02 
663	 2,35711882513962E-02 
664	 2,31603106781823E-02 
665	 2,40615316293057E-02 
666	 2,50667967049961E-02 
667	 2,41670182047355E-02 
668	 2,33780138336471E-02 
669	 2,32295049976715E-02 
670	 2,33147240721517E-02 
671	 2,34915286608332E-02 
672	 2,36205304120006E-02 
673	 0,023388570212007 
674	 2,31734606409091E-02 
675	 2,41199359408029E-02 
676	 2,45769721019666E-02 
677	 2,40921977352933E-02 
678	 2,39454762784663E-02 
679	 2,39312713648476E-02 
680	 2,36860278280703E-02 
681	 2,38728627853227E-02 
682	 0,024392984172523 
683	 2,44673816621206E-02 
684	 2,43928144164305E-02 
685	 2,43830753016971E-02 
686	 2,46334920494978E-02 
687	 2,51238798770449E-02 
688	 2,57602021649866E-02 
689	 0,026477714383283 
690	 2,72046596747588E-02 
691	 2,76687890541958E-02 
692	 2,86371197047614E-02 
693	 3,07375025175013E-02 
694	 3,27111670797566E-02 
695	 3,45430568669618E-02 
696	 3,67960934717587E-02 
697	 3,95474530318544E-02 
698	 4,28642536596641E-02 
699	 4,66693949610433E-02 
700	 5,10116744148562E-02 
701	 5,59533785915903E-02 
702	 6,09754282373285E-02 
703	 6,58405715880437E-02 
704	 7,02489747835095E-02 
705	 7,50941204006731E-02 
706	 8,08255737044744E-02 
707	 8,60746351364122E-02 
708	 9,10698581445826E-02 
709	 0,09661945590945 
710	 0,101937886422006 
711	 0,10681465401004 
712	 0,111513583824449 
713	 0,116089758989089 
714	 0,120578165406641 
715	 0,125001472791081 
716	 0,129150141889347 
717	 0,132544370343243 
718	 0,135524751011642 
719	 0,138346503814324 
720	 0,141561391248889 
721	 0,144717207411209 
722	 0,147185332147388 
723	 0,149263664090607 
724	 0,151210881306579 
725	 0,153561363712591 
726	 0,155893995300896 
727	 0,157925715548725 
728	 0,159637903169722 
729	 0,161048870844917 
730	 0,162211012329094 
731	 0,163160238595372 
732	 0,164037289688418 
733	 0,165235499117407 
734	 0,166609666205748 
735	 0,167966068615374 
736	 0,16867750329 
737	 0,168983452517558 
738	 0,169773261067744 
739	 0,170510088971467 
740	 0,171046445604831 
741	 0,171692390617588 
742	 0,172219990066113 
743	 0,172359867819026 
744	 0,17300223093004 
745	 0,173971764028932 
746	 0,174123732754514 
747	 0,174007347866674 
748	 0,173977434853391 
749	 0,174235531887696 
750	 0,174894226339757 
751	 0,176108267201073 
752	 0,176371481893009 
753	 0,175760366351432 
754	 0,176344808312644 
755	 0,176940594949425 
756	 0,176705799917039 
757	 0,176374450497244 
758	 0,176327341952512 
759	 0,177110805746796 
760	 0,177761156625827 
761	 0,178021315485371 
762	 0,178451699943331 
763	 0,178759460094806 
764	 0,178687232635225 
765	 0,178984385749343 
766	 0,179463045046464 
767	 0,179191271773047 
768	 0,179179568866952 
769	 0,179721861932709 
770	 0,18002411220582 
771	 0,180103570369591 
772	 0,180070869624536 
773	 0,18028292183262 
774	 0,180610350472604 
775	 0,180299694802422 
776	 0,180349806530431 
777	 0,181139942851391 
778	 0,181443895344475 
779	 0,181325133410211 
780	 0,181087530699922 
781	 0,181015579567067 
782	 0,181204641356605 
783	 0,18164826001643 
784	 0,181853408736687 
785	 0,18158658544943 
786	 0,181891260857354 
787	 0,182364722858721 
788	 0,18200604982073 
789	 0,181930087291172 
790	 0,18234197965872 
791	 0,182623858092337 
792	 0,182761537010684 
793	 0,182757895291911 
794	 0,182662321590163 
795	 0,182587599338845 
796	 0,182716486487346 
797	 0,183022942112619 
798	 0,183407374734104 
799	 0,183495360700332 
800	 0,183426262374584 
801	 0,183368410746383 
802	 0,183515363115935 
803	 0,1837880615456 
804	 0,183895747926427 
805	 0,183896040878455 
806	 0,183837961829288 
807	 0,183883858379462 
808	 0,18404556519012 
809	 0,18431488851472 
810	 0,184564836928647 
811	 0,184862417253526 
812	 0,185540690041344 
813	 0,185976017626601 
814	 0,185928456174665 
815	 0,185770429731006 
816	 0,185661058167683 
817	 0,185749490846606 
818	 0,186273767327646 
819	 0,18691651527446 
820	 0,186540976047803 
821	 0,186483857450158 
822	 0,187226873124583 
823	 0,187407668853019 
824	 0,187330571978675 
825	 0,187557822658619 
826	 0,187937607097595 
827	 0,1883133546429 
828	 0,188238689767974 
829	 0,188406537126293 
830	 0,189035846169947 
831	 0,18902413070248 
832	 0,188605344413449 
833	 0,188263348994867 
834	 0,188750146431624 
835	 0,189736956635831 
836	 0,189499665197917 
837	 0,189105750823549 
838	 0,189173315479179 
839	 0,189696680858306 
840	 0,190151995411232 
841	 0,189822102497138 
842	 0,189189432118946 
843	 0,188688620867958 
844	 0,189225313984883 
845	 0,189926201445605 
846	 0,190277530890494 
847	 0,190552039266781 
848	 0,190475699946085 
849	 0,189653106368964 
850	 0,189510126158941 
851	 0,190140050296391 
852	 0,190583401338378 
853	 0,190683371956182 
854	 0,190404367841752 
855	 0,190337283147364 
856	 0,190342872184098 
857	 0,190133941522289 
858	 0,190288104167128 
859	 0,190831384723966 
860	 0,191500473007497 
861	 0,191546269382413 
862	 0,190775911475402 
863	 0,190676471796799 
864	 0,19133005667622 
865	 0,192579112580838 
866	 0,192773289893416 
867	 0,192015090494254 
868	 0,191854588347447 
869	 0,192375825837509 
870	 0,193436566047019 
871	 0,193730468579191 
872	 0,19349247373875 
873	 0,193191291130442 
874	 0,193214423574492 
875	 0,193643427280553 
876	 0,194389614649075 
877	 0,195100249495354 
878	 0,195469608182329 
879	 0,194909288896766 
880	 0,194390475233315 
881	 0,19494951363842 
882	 0,195286743340463 
883	 0,195315257756738 
884	 0,19556409226201 
885	 0,195574442583991 
886	 0,195318066365628 
887	 0,19549411911579 
888	 0,195702982353443 
889	 0,195562034393965 
890	 0,195589360225082 
891	 0,195787416758107 
892	 0,195941128794075 
893	 0,196278704531488 
894	 0,196681833191408 
895	 0,196306682605475 
896	 0,196103408993832 
897	 0,196774742811027 
898	 0,197490891023518 
899	 0,197659967819388 
900	 0,196449055277138 
901	 0,196323623719525 
902	 0,1974756514434 
903	 0,197622890459007 
904	 0,19784235383612 
905	 0,198611839299697 
906	 0,198205369442514 
907	 0,197596436247848 
908	 0,198418625437757 
909	 0,198552482928987 
910	 0,197947333095281 
911	 0,198113293211934 
912	 0,198405633528685 
913	 0,19860462858084 
914	 0,199302459975794 
915	 0,199664531850815 
916	 0,198829975054242 
917	 0,198883312749021 
918	 0,199792110173654 
919	 0,200460736590745 
920	 0,200474182553676 
921	 0,199733334047671 
922	 0,198803524853764 
923	 0,198091992440639 
924	 0,197902525266898 
925	 0,197877804762628 
926	 0,197951250453063 
927	 0,198141929685842 
928	 0,197898964443763 
929	 0,19743383736471 
930	 0,198172879865057 
931	 0,198750219363349 
932	 0,198379300231209 
933	 0,197731504897215 
934	 0,196994789294869 
935	 0,196347205281187 
936	 0,197128029173738 
937	 0,198398225574282 
938	 0,196727479638844 
939	 0,194960620038919 
940	 0,194184978003423 
941	 0,193627452810984 
942	 0,193802075829095 
943	 0,194998363492118 
944	 0,195410771297849 
945	 0,194754841401088 
946	 0,193096012971727 
947	 0,192594766292974 
948	 0,193071851046597 
949	 0,191257454848012 
950	 0,189280556026414 
951	 0,188459369325624 
952	 0,188579557954219 
953	 0,188921298328986 
954	 0,188617184847959 
955	 0,187372467634104 
956	 0,185814448493557 
957	 0,185748809326285 
958	 0,185251532271177 
959	 0,184019237142028 
960	 0,183846514069825 
961	 0,184005986826797 
962	 0,183762276825338 
963	 0,182093476227982 
964	 0,180726945189142 
965	 0,182411866513443 
966	 0,18310103812038 
967	 0,182166663949023 
968	 0,180885215175935 
969	 0,180753796366727 
970	 0,182151261105163 
971	 0,18312841118109 
972	 0,182966448010063 
973	 0,18144198050171 
974	 0,182039309935535 
975	 0,183509789272893 
976	 0,182498688949207 
977	 0,182646042906066 
978	 0,184156731129682 
979	 0,184283261846521 
980	 0,184095372656698 
981	 0,184010875980669 
982	 0,183238556738493 
983	 0,182661821495112 
984	 0,183165379730265 
985	 0,183548113167356 
986	 0,184054477859003 
987	 0,185630937557052 
988	 0,186419363612561 
989	 0,186038663803513 
990	 0,185043001555167 
991	 0,185685611195035 
992	 0,188298282394538 
993	 0,187085860309173 
994	 0,185141881523331 
995	 0,186190547333638 
996	 0,189367946700989 
997	 0,192376442758241 
998	 0,191124003107189 
999	 0,191050294777646 
1000	 0,192501221497145 
1001	 0,190482679549941 
1002	 0,189752420288064 
1003	 0,192225305129522 
1004	 0,194012083788189 
1005	 0,195401678105375 
1006	 0,196761566438616 
1007	 0,195218963743357 
1008	 0,1935593757039 
1009	 0,197406381526108 
1010	 0,200444277833221 
1011	 0,201128485876271 
1012	 0,200446530734811 
1013	 0,199657421700303 
1014	 0,199620853231525 
1015	 0,201047796201256 
1016	 0,201937525883734 
1017	 0,200571725713653 
1018	 0,19682102233359 
1019	 0,195744191089959 
1020	 0,204329549852831 
1021	 0,207577486364702 
1022	 0,205057626138142 
1023	 0,205766299092853 
1024	 0,208616302471008 
1025	 0,211908931026656 
1026	 0,208887217997804 
1027	 0,206100730762042 
1028	 0,207236890577004 
1029	 0,2040129729261 
1030	 0,202106907660132 
1031	 0,208220339548529 
1032	 0,20966038373341 
1033	 0,206782227283971 
1034	 0,205310283543295 
1035	 0,206115168849178 
1036	 0,209114517239946 
1037	 0,212672851930596 
1038	 0,212398035258224 
1039	 0,208631107613236 
1040	 0,214723096939076 
1041	 0,221016884706113 
1042	 0,219129812456546 
1043	 0,213309875465616 
1044	 0,208366630780443 
1045	 0,209880376615157 
1046	 0,214301238180641 
1047	 0,218810133394759 
1048	 0,219424776548526 
1049	 0,215510423266871 
1050	 0,210437834526564 
1051	 0,218971153138043 
1052	 0,220502964704907 
1053	 0,208628317668566 
1054	 0,209167555967152 
1055	 0,216769391867035 
1056	 0,224134809799619 
1057	 0,225402132642716 
1058	 0,222432523614276 
1059	 0,219603835766455 
1060	 0,217173443944387 
1061	 0,217637083431464 
1062	 0,226310200309665 
1063	 0,226322301441166 
1064	 0,218537724590724 
1065	 0,226980685543244 
1066	 0,225906398507242 
1067	 0,209008328484076 
1068	 0,207846976375564 
1069	 0,215022163618 
1070	 0,222123838331942 
1071	 0,223419782813431 
1072	 0,221280564757238 
1073	 0,219135041151675 
1074	 0,207127852692077 
1075	 0,197251062465466 
