Wavelength	CAMFROU00007.asd
325	 0,359810282145886 
326	 0,481518752515795 
327	 0,354014134404011 
328	 0,102742111198791 
329	 0,20986094987781 
330	 0,359632463230137 
331	 0,351109985025593 
332	 0,303143897056716 
333	 0,266660701648785 
334	 0,287142694741629 
335	 0,358537604555467 
336	 0,439646167329125 
337	 0,370239460452136 
338	 0,311841581422575 
339	 0,372641917949188 
340	 0,344409363536973 
341	 0,27190156872662 
342	 0,394236600252286 
343	 0,402672376848433 
344	 0,270205656625805 
345	 0,359777638766179 
346	 0,445970528975097 
347	 0,36781407024716 
348	 0,318513807351669 
349	 0,330360205831904 
350	 0,405315987321338 
351	 0,434758734298854 
352	 0,397831632990735 
353	 0,393649406986786 
354	 0,400853623647849 
355	 0,386734578049879 
356	 0,386228716857365 
357	 0,404381332209844 
358	 0,438116486695691 
359	 0,468117388727325 
360	 0,478503942370404 
361	 0,475164678974122 
362	 0,467842050212982 
363	 0,469058879879768 
364	 0,4652458145097 
365	 0,455132492954057 
366	 0,44509731933884 
367	 0,440173600333331 
368	 0,444656533561558 
369	 0,465332135814031 
370	 0,483494986271935 
371	 0,474644187341033 
372	 0,468875712933097 
373	 0,476139154504766 
374	 0,502873297195938 
375	 0,507384296742242 
376	 0,464599396795028 
377	 0,468993992215933 
378	 0,499889421529042 
379	 0,485896268534096 
380	 0,487602576199306 
381	 0,514477747609094 
382	 0,515830106342241 
383	 0,505921197446621 
384	 0,501206712332667 
385	 0,5093759052763 
386	 0,523210672656836 
387	 0,516540535049594 
388	 0,513480188877462 
389	 0,52111186486384 
390	 0,52518380017873 
391	 0,523916862818079 
392	 0,516351464791474 
393	 0,509843810637645 
394	 0,508511695513983 
395	 0,520645536935539 
396	 0,525173500706164 
397	 0,514383724261319 
398	 0,516004592422503 
399	 0,521330621727411 
400	 0,512321251952287 
401	 0,515262225819878 
402	 0,530979420022109 
403	 0,539009075326517 
404	 0,539243338185609 
405	 0,533385271562742 
406	 0,534153699715251 
407	 0,538475351521584 
408	 0,535459951781047 
409	 0,536261919568572 
410	 0,541855423721631 
411	 0,541876506707033 
412	 0,540720403517438 
413	 0,54287358960963 
414	 0,54460328814034 
415	 0,544900627831234 
416	 0,542802353822186 
417	 0,541582433617214 
418	 0,542452711260778 
419	 0,543064873027129 
420	 0,545092112556653 
421	 0,550816528604001 
422	 0,553658255340867 
423	 0,552745941442015 
424	 0,550093758473662 
425	 0,549322361181812 
426	 0,551832018000136 
427	 0,548465984531314 
428	 0,544080679149961 
429	 0,549480537805404 
430	 0,553410411033077 
431	 0,552549636169974 
432	 0,548338749170257 
433	 0,545278034599664 
434	 0,547105907544389 
435	 0,548739064288594 
436	 0,549198563867683 
437	 0,548643982482222 
438	 0,547683689308407 
439	 0,547013660474404 
440	 0,548967790696747 
441	 0,550200804835804 
442	 0,546353634151906 
443	 0,54553648704616 
444	 0,548351063578198 
445	 0,550072039735193 
446	 0,550912805125011 
447	 0,551023144814504 
448	 0,551550165898598 
449	 0,551728304687909 
450	 0,549584543002271 
451	 0,54951043558475 
452	 0,551821626358651 
453	 0,551309915236161 
454	 0,550110870818258 
455	 0,550523368304815 
456	 0,554293316295194 
457	 0,559165331867702 
458	 0,558858219147466 
459	 0,557260369904075 
460	 0,556203774606418 
461	 0,555944119900512 
462	 0,55599322556319 
463	 0,555553953186108 
464	 0,558911336180642 
465	 0,56430842644507 
466	 0,562400570740803 
467	 0,559431607649014 
468	 0,559548983917617 
469	 0,559800913697208 
470	 0,559960967424946 
471	 0,560374221482586 
472	 0,560550941898136 
473	 0,560613617356467 
474	 0,562116762314634 
475	 0,563020825631229 
476	 0,561473357330018 
477	 0,562776409081074 
478	 0,565798011354814 
479	 0,564002520109246 
480	 0,564118476633173 
481	 0,567995391535983 
482	 0,565427941860172 
483	 0,561122354348897 
484	 0,563457454387068 
485	 0,565495407417904 
486	 0,56582053839531 
487	 0,566493413931565 
488	 0,567151687431979 
489	 0,567590160678708 
490	 0,568997111302456 
491	 0,570347246165058 
492	 0,568619749626107 
493	 0,56839566222324 
494	 0,570526766660803 
495	 0,57004276260496 
496	 0,569271155205709 
497	 0,571165928814803 
498	 0,570675408983992 
499	 0,568063469356104 
500	 0,567314158204767 
501	 0,56814133063039 
502	 0,570123678540698 
503	 0,570930041467343 
504	 0,571240299206861 
505	 0,573023355102461 
506	 0,572883238553586 
507	 0,570805537140729 
508	 0,571089067077147 
509	 0,572236052950533 
510	 0,572706026126101 
511	 0,57253430062586 
512	 0,572295159175757 
513	 0,573627797554035 
514	 0,574459229531768 
515	 0,574057875611702 
516	 0,573879813915874 
517	 0,574441171789689 
518	 0,576248620212628 
519	 0,577299444089061 
520	 0,577241223392975 
521	 0,577035644875977 
522	 0,576675988563893 
523	 0,576247063469611 
524	 0,576678245510538 
525	 0,577513920417801 
526	 0,577481379119834 
527	 0,577080512333231 
528	 0,576633227786782 
529	 0,576953500385572 
530	 0,577376276512176 
531	 0,577088010164131 
532	 0,577366207487111 
533	 0,577916375727897 
534	 0,576740155712871 
535	 0,576348420962583 
536	 0,577889811948806 
537	 0,577612720221331 
538	 0,576466425374124 
539	 0,577180282665892 
540	 0,577386968642874 
541	 0,576787433287917 
542	 0,577385840720653 
543	 0,578326353217163 
544	 0,578683988113089 
545	 0,579037705258334 
546	 0,579217213259668 
547	 0,578370639890228 
548	 0,57788581707461 
549	 0,578350570821014 
550	 0,578525181885492 
551	 0,578702161946248 
552	 0,579593017530783 
553	 0,579899890344286 
554	 0,579555478411139 
555	 0,5799513945258 
556	 0,580206492342364 
557	 0,579649551402517 
558	 0,579758923731397 
559	 0,580305742744357 
560	 0,580065889114569 
561	 0,579625097688648 
562	 0,579321443540927 
563	 0,579713577318785 
564	 0,580302350075658 
565	 0,580373401094372 
566	 0,580278738598522 
567	 0,580316359587646 
568	 0,581282650141383 
569	 0,581943042468887 
570	 0,581537469722277 
571	 0,581700093668453 
572	 0,582346654852251 
573	 0,582670962807419 
574	 0,583328088497635 
575	 0,584381850494824 
576	 0,585056257722288 
577	 0,585523206726249 
578	 0,586028820477672 
579	 0,585907649536594 
580	 0,585523270041963 
581	 0,586397057581789 
582	 0,58738845407059 
583	 0,587886348121117 
584	 0,588605542193303 
585	 0,589632169266609 
586	 0,591040576719806 
587	 0,591610758342654 
588	 0,591359999896578 
589	 0,59228328201568 
590	 0,593124248624245 
591	 0,592706522959862 
592	 0,592760155754922 
593	 0,593471740898088 
594	 0,594442951462158 
595	 0,595127667238033 
596	 0,595255649149648 
597	 0,595153343745342 
598	 0,595253592406608 
599	 0,596139287205989 
600	 0,596621526184744 
601	 0,596487528351662 
602	 0,596378358883354 
603	 0,596277147143079 
604	 0,596204488726213 
605	 0,596682470620664 
606	 0,597227093081177 
607	 0,59643056262992 
608	 0,595757698564249 
609	 0,595690680905124 
610	 0,595448729128408 
611	 0,59521231258542 
612	 0,595273111092089 
613	 0,595182771878788 
614	 0,594951990502903 
615	 0,594957924782781 
616	 0,595211518673798 
617	 0,595642102926998 
618	 0,5956176608573 
619	 0,595244040905255 
620	 0,594872537520783 
621	 0,594868234559163 
622	 0,595240587830415 
623	 0,595326379275878 
624	 0,595151019467501 
625	 0,594806163857453 
626	 0,594741224439048 
627	 0,595058316026703 
628	 0,595797765109986 
629	 0,596210902248846 
630	 0,595951204610342 
631	 0,595701062315439 
632	 0,595678567435992 
633	 0,596082778470375 
634	 0,596436535160218 
635	 0,596682496363767 
636	 0,59728807300915 
637	 0,597799414561984 
638	 0,597865128617569 
639	 0,598238962980047 
640	 0,598904774931944 
641	 0,599615101424402 
642	 0,59952950949389 
643	 0,598601876093433 
644	 0,598918789892911 
645	 0,599634654783829 
646	 0,599406828826384 
647	 0,599402294548993 
648	 0,599648054751722 
649	 0,599300274117343 
650	 0,598690249237901 
651	 0,598011278044142 
652	 0,596681748734137 
653	 0,595590510913051 
654	 0,596722235745121 
655	 0,597479769049483 
656	 0,597109291263111 
657	 0,596827645710645 
658	 0,59637652707679 
659	 0,595459832901962 
660	 0,595071382852818 
661	 0,595137844302003 
662	 0,594797067533172 
663	 0,594355834160273 
664	 0,593994684003685 
665	 0,593910320055496 
666	 0,593944390155881 
667	 0,593827010342442 
668	 0,593522089372453 
669	 0,593058769679317 
670	 0,592537863446844 
671	 0,592361159081826 
672	 0,592791723347095 
673	 0,593012757088337 
674	 0,593031836194382 
675	 0,593316855518545 
676	 0,593263603137034 
677	 0,592798829126258 
678	 0,592833165771474 
679	 0,592952466312994 
680	 0,59258678688308 
681	 0,592476612101688 
682	 0,592763417423718 
683	 0,593300962618361 
684	 0,593881943246784 
685	 0,594395582783454 
686	 0,595120733573481 
687	 0,595914231350267 
688	 0,596448114119662 
689	 0,597155890837291 
690	 0,598230228110555 
691	 0,599744477087624 
692	 0,601693769590101 
693	 0,604032727103412 
694	 0,606291591394475 
695	 0,608473048570739 
696	 0,610943485993823 
697	 0,613141198711822 
698	 0,614963870502271 
699	 0,617317212367659 
700	 0,619826598434733 
701	 0,621898752735477 
702	 0,624270951359677 
703	 0,626869589891343 
704	 0,628873890171997 
705	 0,63067877618507 
706	 0,632533486895819 
707	 0,634315960623655 
708	 0,635993090564029 
709	 0,637532220697277 
710	 0,638794587466707 
711	 0,639874828119855 
712	 0,641342737861374 
713	 0,642916770446921 
714	 0,644284728353754 
715	 0,645122152381221 
716	 0,645693700738484 
717	 0,646921031499136 
718	 0,647784260899148 
719	 0,647972971365209 
720	 0,648388364686885 
721	 0,648912260687829 
722	 0,649280942481007 
723	 0,650007360946146 
724	 0,650875554225773 
725	 0,650705254714982 
726	 0,650764745842972 
727	 0,651715392383236 
728	 0,652101418436245 
729	 0,651976908391452 
730	 0,65177079559533 
731	 0,65189813175237 
732	 0,65237831410964 
733	 0,652608537091594 
734	 0,652578141180618 
735	 0,652341663898426 
736	 0,65249117479682 
737	 0,652852339183395 
738	 0,652655908757054 
739	 0,652695205501396 
740	 0,653110639348113 
741	 0,652932723931202 
742	 0,652559885024089 
743	 0,652539296357769 
744	 0,652757862233668 
745	 0,653001016415848 
746	 0,652668777237862 
747	 0,652403659542417 
748	 0,652509384917567 
749	 0,652430255795993 
750	 0,65238337101411 
751	 0,652814119497991 
752	 0,652791022556878 
753	 0,652327154619866 
754	 0,652526592613198 
755	 0,652721116490309 
756	 0,652445358080287 
757	 0,652260923051082 
758	 0,652144362048719 
759	 0,651843928710393 
760	 0,651748437148618 
761	 0,65189599948901 
762	 0,651804576700436 
763	 0,65176976329907 
764	 0,652055559191814 
765	 0,652062006238549 
766	 0,651694322856042 
767	 0,650908342497128 
768	 0,650660976359226 
769	 0,651201585767916 
770	 0,651445827875455 
771	 0,651244689933858 
772	 0,650569648382671 
773	 0,650432736252474 
774	 0,650837252836879 
775	 0,651042283554821 
776	 0,650946444921873 
777	 0,650555660205705 
778	 0,650507908540023 
779	 0,650477605277713 
780	 0,649873859996179 
781	 0,649601237914435 
782	 0,649780237075087 
783	 0,649952937942627 
784	 0,649914849287916 
785	 0,649557617924539 
786	 0,64921073145168 
787	 0,649049562316058 
788	 0,649287175980814 
789	 0,649460892897625 
790	 0,649411624530017 
791	 0,649208525947058 
792	 0,648928581644474 
793	 0,648640731330917 
794	 0,64828978347362 
795	 0,648120119510611 
796	 0,648724562885981 
797	 0,648814732565271 
798	 0,648167418106007 
799	 0,648069050266199 
800	 0,648056319771899 
801	 0,647672985982353 
802	 0,647631526681076 
803	 0,647781923938663 
804	 0,6473960405141 
805	 0,647070729360568 
806	 0,647033328130363 
807	 0,647233281155358 
808	 0,647427817572893 
809	 0,647370371180259 
810	 0,647393034853838 
811	 0,647374449711101 
812	 0,646721509162422 
813	 0,646380507590595 
814	 0,646672421009266 
815	 0,646837548755818 
816	 0,646772125614692 
817	 0,646454267325217 
818	 0,646574475515705 
819	 0,646880608422521 
820	 0,646057855520886 
821	 0,645524839063792 
822	 0,645863996400336 
823	 0,646094597145345 
824	 0,646030411328361 
825	 0,645580200833234 
826	 0,645776253160892 
827	 0,646437010415962 
828	 0,64614744302769 
829	 0,645816571265493 
830	 0,645842202114076 
831	 0,645492473243573 
832	 0,645180132628504 
833	 0,645546716204561 
834	 0,645715736084657 
835	 0,645499370687191 
836	 0,645039693771215 
837	 0,644694893124026 
838	 0,644718555301382 
839	 0,645281423404924 
840	 0,645778034318605 
841	 0,645363794854995 
842	 0,64530851749292 
843	 0,645631531034066 
844	 0,64520962627831 
845	 0,645030043439769 
846	 0,645522356502802 
847	 0,645673434254755 
848	 0,645461733195605 
849	 0,645033320805105 
850	 0,644678440409642 
851	 0,644499955550601 
852	 0,644480402782427 
853	 0,644522283802524 
854	 0,644550868033275 
855	 0,644542450137379 
856	 0,64441955467861 
857	 0,644091954716513 
858	 0,643718945385458 
859	 0,643501146213504 
860	 0,643954920033629 
861	 0,644136953720189 
862	 0,643677022408318 
863	 0,643729624539306 
864	 0,643952514664417 
865	 0,64375071821567 
866	 0,643283122274072 
867	 0,642784272989964 
868	 0,642858797274415 
869	 0,642857599054399 
870	 0,642543092750559 
871	 0,642493193154091 
872	 0,642672361422052 
873	 0,642954833980877 
874	 0,642752972945696 
875	 0,642321868347338 
876	 0,642875987089865 
877	 0,642957109228817 
878	 0,642225216129671 
879	 0,642515298006231 
880	 0,643044732582336 
881	 0,642851702930331 
882	 0,642878245323715 
883	 0,643005923273821 
884	 0,642377091471143 
885	 0,642130684009774 
886	 0,642476532881163 
887	 0,642143744486991 
888	 0,641829130413562 
889	 0,642212891789113 
890	 0,642688478291536 
891	 0,642730718577017 
892	 0,641383221932928 
893	 0,64071262106664 
894	 0,641150507745272 
895	 0,641139661797454 
896	 0,641241071104478 
897	 0,64182247857192 
898	 0,641807162939988 
899	 0,641330152932592 
900	 0,640925917200724 
901	 0,640629172111569 
902	 0,640536119011484 
903	 0,640919242147872 
904	 0,640847832757557 
905	 0,639945399380959 
906	 0,640099385546122 
907	 0,64054982517791 
908	 0,639906782486975 
909	 0,63994531669882 
910	 0,640536597662829 
911	 0,639815328754672 
912	 0,639459517878059 
913	 0,640173361561467 
914	 0,641228483172546 
915	 0,641440962705913 
916	 0,63973367749985 
917	 0,638874061744828 
918	 0,639094693586522 
919	 0,639445727230263 
920	 0,63964869717401 
921	 0,63958487418825 
922	 0,639585345138509 
923	 0,639446096443407 
924	 0,639054145065722 
925	 0,639025960320959 
926	 0,639463147346652 
927	 0,640373413462381 
928	 0,64096799898733 
929	 0,64075510780336 
930	 0,638897385003293 
931	 0,637648595312216 
932	 0,63821338556992 
933	 0,638820091131917 
934	 0,638942662497856 
935	 0,638215144441543 
936	 0,63754369545347 
937	 0,637353014860434 
938	 0,638337312578056 
939	 0,638186153834281 
940	 0,636548572150578 
941	 0,636653313253837 
942	 0,637366904097441 
943	 0,637502238339585 
944	 0,637312854872883 
945	 0,637084106064117 
946	 0,637289000315334 
947	 0,637683698976929 
948	 0,638106774851642 
949	 0,63847448666617 
950	 0,63774950303025 
951	 0,635710810742849 
952	 0,634845821948819 
953	 0,635113071481853 
954	 0,636014371933364 
955	 0,635625930602167 
956	 0,63440524436101 
957	 0,634782710885838 
958	 0,634590225134788 
959	 0,633532689980184 
960	 0,633737405223226 
961	 0,634141261643736 
962	 0,633943116782454 
963	 0,634079156973974 
964	 0,634287365013274 
965	 0,633999285330954 
966	 0,634271485235589 
967	 0,634915519089207 
968	 0,634588764923016 
969	 0,633751010424259 
970	 0,632912736036153 
971	 0,63369707674797 
972	 0,634205103742887 
973	 0,632814172243538 
974	 0,632384105229666 
975	 0,632578327283161 
976	 0,631903171815653 
977	 0,631748238182412 
978	 0,632295700244593 
979	 0,632995919889501 
980	 0,632886856586509 
981	 0,631919440607646 
982	 0,63298155078218 
983	 0,634085323442421 
984	 0,633078851866564 
985	 0,631939882003473 
986	 0,63115293647456 
987	 0,630935851184039 
988	 0,630287649942423 
989	 0,629480619734166 
990	 0,630667080996606 
991	 0,631257017419684 
992	 0,630338435043248 
993	 0,631240448383718 
994	 0,633270212832045 
995	 0,635154203172463 
996	 0,634115919434023 
997	 0,631753852917645 
998	 0,632138298570962 
999	 0,632801780776101 
1000	 0,633027344220531 
1001	 0,632745855856424 
1002	 0,632713514599445 
1003	 0,633004427849562 
1004	 0,631452876955627 
1005	 0,630709986262072 
1006	 0,632998895061334 
1007	 0,632207716749422 
1008	 0,629442255439957 
1009	 0,628552837576851 
1010	 0,628819126067846 
1011	 0,629888171763915 
1012	 0,631191109345512 
1013	 0,631250917492103 
1014	 0,629969341409972 
1015	 0,630807067429228 
1016	 0,631897385203805 
1017	 0,631413628496095 
1018	 0,628759200347087 
1019	 0,627545068467186 
1020	 0,632957616386512 
1021	 0,636014835837605 
1022	 0,635093495079694 
1023	 0,631822240409353 
1024	 0,629577695881308 
1025	 0,629610503209047 
1026	 0,630710436322795 
1027	 0,631170837980573 
1028	 0,629967385075812 
1029	 0,628542571404401 
1030	 0,627940946825903 
1031	 0,629005175746279 
1032	 0,629671937317006 
1033	 0,628821237800567 
1034	 0,624964397383311 
1035	 0,626617382877133 
1036	 0,632192557688746 
1037	 0,626022802207052 
1038	 0,624663965517531 
1039	 0,632808644866435 
1040	 0,633162344056414 
1041	 0,631817006508322 
1042	 0,633984370582051 
1043	 0,633641056340994 
1044	 0,630070466375789 
1045	 0,623760164689856 
1046	 0,62376496979624 
1047	 0,62756957736904 
1048	 0,624108847548877 
1049	 0,62295084729768 
1050	 0,624861577102229 
1051	 0,62127179906259 
1052	 0,618847397559898 
1053	 0,621061539347921 
1054	 0,626919288960178 
1055	 0,635027836662777 
1056	 0,642557987009877 
1057	 0,63656872580835 
1058	 0,622685662529538 
1059	 0,612687707234397 
1060	 0,61813405385447 
1061	 0,630673012353943 
1062	 0,625235288872316 
1063	 0,621441439537952 
1064	 0,624447981330182 
1065	 0,632570467817582 
1066	 0,629078509855913 
1067	 0,612698873075518 
1068	 0,622057460655477 
1069	 0,62773780178702 
1070	 0,610933476566293 
1071	 0,617657108537591 
1072	 0,628249620801286 
1073	 0,615035079875432 
1074	 0,606441984593956 
1075	 0,608665943576205 
