Wavelength	CAMFROU00438.asd
325	 0,465278715623092 
326	 0,350784927982639 
327	 0,2734843667678 
328	 0,286635762139505 
329	 0,404190520522595 
330	 0,383995532583009 
331	 6,02620236515917E-02 
332	 3,86467199724873E-02 
333	 0,255769121271525 
334	 0,240409756344024 
335	 0,236914483484781 
336	 0,275143188477643 
337	 0,194224800917424 
338	 0,186734098424431 
339	 0,366105770455391 
340	 0,260855497314437 
341	-1,83765118286696E-02 
342	 0,111062186111742 
343	 0,176071137711499 
344	 9,07539269022096E-02 
345	 0,156206187162637 
346	 0,218961130804916 
347	 0,167466664446378 
348	 0,080397133010236 
349	 9,80196475908311E-03 
350	 8,80347503341744E-02 
351	 0,12773965001297 
352	 8,06642763917851E-02 
353	 6,84999449833116E-02 
354	 7,09095267182655E-02 
355	 5,33341144851172E-02 
356	 6,70087796275335E-02 
357	 0,097992086060792 
358	 7,22870382369733E-02 
359	 6,50317545388006E-02 
360	 0,100145595595196 
361	 7,47345631999942E-02 
362	 4,03017015698929E-02 
363	 8,53791240151552E-02 
364	 9,97322964599913E-02 
365	 0,072507726085671 
366	 5,74054817612287E-02 
367	 4,58346266670022E-02 
368	 3,48088221585019E-02 
369	 4,70234080930571E-02 
370	 7,09905097290199E-02 
371	 9,20354660557499E-02 
372	 8,52002075408462E-02 
373	 5,52916627090816E-02 
374	 0,059898028726078 
375	 6,41405549227506E-02 
376	 4,30270071732236E-02 
377	 5,11065147045537E-02 
378	 7,47636466650706E-02 
379	 7,07360512194982E-02 
380	 7,13506865946122E-02 
381	 8,10652214821934E-02 
382	 6,85648405071171E-02 
383	 6,02356263373213E-02 
384	 7,92882307896342E-02 
385	 8,37898009090628E-02 
386	 7,03806657000801E-02 
387	 4,61395018103455E-02 
388	 4,13228195600969E-02 
389	 0,06031401129808 
390	 6,07151055046295E-02 
391	 5,11503382286523E-02 
392	 4,61242031242396E-02 
393	 4,58557830222521E-02 
394	 5,07209211341693E-02 
395	 6,26606201170862E-02 
396	 6,70081672850303E-02 
397	 0,057624909892336 
398	 4,77883088648411E-02 
399	 4,06921387574002E-02 
400	 3,88460486262397E-02 
401	 3,66410068566571E-02 
402	 3,60094565841756E-02 
403	 5,18234396369869E-02 
404	 5,86056362607034E-02 
405	 4,22065823864023E-02 
406	 3,75786761939752E-02 
407	 4,37102626522687E-02 
408	 4,82289197494993E-02 
409	 4,89374967887249E-02 
410	 4,63053213481561E-02 
411	 4,83698940093712E-02 
412	 4,81652768025846E-02 
413	 3,94675172899568E-02 
414	 3,69852818303474E-02 
415	 4,09663496511589E-02 
416	 4,54828286803128E-02 
417	 4,88429057794706E-02 
418	 4,96174772707373E-02 
419	 4,56748061778141E-02 
420	 4,16074863869053E-02 
421	 4,33656429786804E-02 
422	 4,51549066526747E-02 
423	 4,49256797758075E-02 
424	 4,03893312736343E-02 
425	 3,75953105028869E-02 
426	 3,96771828575894E-02 
427	 3,87946362502008E-02 
428	 3,68067249129358E-02 
429	 0,038897289653003 
430	 4,05682144664094E-02 
431	 4,07641565705085E-02 
432	 4,12843240006689E-02 
433	 4,14237408993291E-02 
434	 4,06398027869538E-02 
435	 4,16929055078025E-02 
436	 4,29764723953959E-02 
437	 3,86227090999883E-02 
438	 3,69748488574224E-02 
439	 4,03464763105897E-02 
440	 0,040335869727388 
441	 0,039476396036115 
442	 4,18451239005213E-02 
443	 4,30237206509042E-02 
444	 0,042075582567271 
445	 3,91376930881248E-02 
446	 3,79637524953793E-02 
447	 0,040350869061502 
448	 3,90098011439758E-02 
449	 3,68274790715892E-02 
450	 4,11188272103341E-02 
451	 4,46535451805962E-02 
452	 4,49932900812167E-02 
453	 4,21905977337528E-02 
454	 3,99237058844305E-02 
455	 4,15045138446111E-02 
456	 4,46028348338009E-02 
457	 4,71855062605112E-02 
458	 4,52617992910623E-02 
459	 0,044571380102234 
460	 4,66408311253919E-02 
461	 4,43485448441997E-02 
462	 3,97447265297744E-02 
463	 3,63128964232048E-02 
464	 3,85583820389246E-02 
465	 4,47630385396586E-02 
466	 4,50109915129384E-02 
467	 4,39902342662814E-02 
468	 0,044765236035787 
469	 4,53070743350431E-02 
470	 4,53437341465752E-02 
471	 4,46700695987774E-02 
472	 4,51003123791735E-02 
473	 4,66860744692543E-02 
474	 4,65327695773038E-02 
475	 4,62173431169955E-02 
476	 4,73234948691604E-02 
477	 4,67556227882664E-02 
478	 4,51720761583019E-02 
479	 4,62218123530362E-02 
480	 0,046613095977335 
481	 4,53021919557353E-02 
482	 4,63152257796042E-02 
483	 4,80287568536303E-02 
484	 4,74540830233666E-02 
485	 4,75617281742185E-02 
486	 4,84645945318347E-02 
487	 4,74797734264259E-02 
488	 4,65479023544198E-02 
489	 4,71388129727799E-02 
490	 4,85558462564112E-02 
491	 4,95184734248799E-02 
492	 4,70475818441333E-02 
493	 0,046662435696238 
494	 4,93058030763112E-02 
495	 4,85166387215832E-02 
496	 4,69967558045001E-02 
497	 4,82704238493459E-02 
498	 4,84573161966397E-02 
499	 4,72673302799417E-02 
500	 4,62537727837976E-02 
501	 4,63955427536989E-02 
502	 4,80103686732815E-02 
503	 4,85565288597539E-02 
504	 4,86388853798825E-02 
505	 5,00061104291921E-02 
506	 5,05941924527704E-02 
507	 5,01701817632021E-02 
508	 5,06571976038704E-02 
509	 5,05605105524234E-02 
510	 4,87030733611349E-02 
511	 4,96879899313587E-02 
512	 5,24793830906203E-02 
513	 5,21747155530563E-02 
514	 5,17814330280758E-02 
515	 5,23052076206927E-02 
516	 5,15042291288694E-02 
517	 5,07741731746805E-02 
518	 0,052340524928503 
519	 5,24579523686409E-02 
520	 5,10153300922195E-02 
521	 5,12339449988419E-02 
522	 5,19894326540876E-02 
523	 5,24863688445638E-02 
524	 5,38721157963886E-02 
525	 5,52005640673333E-02 
526	 5,39438909091648E-02 
527	 5,30344764370625E-02 
528	 5,33896249177791E-02 
529	 5,37709190110668E-02 
530	 5,41577948986713E-02 
531	 5,46287949196709E-02 
532	 5,58417274491016E-02 
533	 5,71719979541096E-02 
534	 5,62829314759835E-02 
535	 5,52725056867791E-02 
536	 5,54051733550842E-02 
537	 0,056040313517649 
538	 0,056653472418918 
539	 5,63994046764751E-02 
540	 5,67564332698334E-02 
541	 5,77127153522571E-02 
542	 5,69175421393848E-02 
543	 5,61670609444938E-02 
544	 5,72249074661899E-02 
545	 5,74402777008177E-02 
546	 5,69642211650707E-02 
547	 5,78393954849527E-02 
548	 5,82962143047844E-02 
549	 5,77691274498511E-02 
550	 5,86858920899202E-02 
551	 6,00013436564334E-02 
552	 5,96763226330706E-02 
553	 5,97067180507459E-02 
554	 6,04225174988521E-02 
555	 6,08221536821344E-02 
556	 6,09372073249061E-02 
557	 6,08371282236974E-02 
558	 0,060925922308223 
559	 6,09390241601659E-02 
560	 5,97601488271275E-02 
561	 5,97691858423295E-02 
562	 6,14764056481784E-02 
563	 6,15745807024693E-02 
564	 6,09365450828676E-02 
565	 0,061106579044738 
566	 6,11961762523609E-02 
567	 6,12195704848647E-02 
568	 6,19896048819105E-02 
569	 6,24763539707886E-02 
570	 6,20563324176936E-02 
571	 6,21584114315984E-02 
572	 0,062735681733497 
573	 6,31648494153539E-02 
574	 6,37478902225435E-02 
575	 6,44540497956479E-02 
576	 6,47677946744745E-02 
577	 6,48015547125032E-02 
578	 6,47439725480483E-02 
579	 6,54830833769798E-02 
580	 0,066588852996613 
581	 0,06598686837004 
582	 0,065701559488619 
583	 6,67330244413098E-02 
584	 6,70361630144918E-02 
585	 6,71587115485381E-02 
586	 6,86176578929085E-02 
587	 6,90964746361323E-02 
588	 0,068368381708059 
589	 6,87743196393408E-02 
590	 6,94828803522138E-02 
591	 6,96266395308454E-02 
592	 6,95861277207618E-02 
593	 6,94789008423902E-02 
594	 6,94184828186204E-02 
595	 6,94171917706063E-02 
596	 6,95320407021521E-02 
597	 7,00246094952167E-02 
598	 7,05983960371515E-02 
599	 7,07990312869366E-02 
600	 7,07588008474795E-02 
601	 7,06754272917958E-02 
602	 7,12931380725701E-02 
603	 7,13378215097756E-02 
604	 7,00025720673083E-02 
605	 7,02415379664856E-02 
606	 7,15795240005682E-02 
607	 7,17539600468703E-02 
608	 0,071083673374972 
609	 0,069856469315647 
610	 6,92799671331759E-02 
611	 6,94611566556306E-02 
612	 7,03593398516649E-02 
613	 7,05686526635348E-02 
614	 7,00375405863162E-02 
615	 6,98974018354561E-02 
616	 7,01468628759692E-02 
617	 7,06505299527931E-02 
618	 0,070096378914709 
619	 6,91395342503903E-02 
620	 6,94323631134449E-02 
621	 6,98566794003344E-02 
622	 7,00540545149565E-02 
623	 7,01096268307678E-02 
624	 7,02108824399883E-02 
625	 7,05333903009264E-02 
626	 7,05504762269927E-02 
627	 0,070449487780056 
628	 7,11769169049394E-02 
629	 0,071575661084044 
630	 7,11911275263053E-02 
631	 7,14221008227129E-02 
632	 7,19617718091064E-02 
633	 7,20448930568336E-02 
634	 7,21159784189536E-02 
635	 7,23203385712531E-02 
636	 7,27311274208873E-02 
637	 7,31483821928124E-02 
638	 7,34188988330197E-02 
639	 7,39353819876899E-02 
640	 7,45238746597183E-02 
641	 7,45997507161425E-02 
642	 7,45155363871589E-02 
643	 7,44682287175205E-02 
644	 7,47249421592198E-02 
645	 7,49900425988202E-02 
646	 7,48514466331437E-02 
647	 7,47194252773922E-02 
648	 7,47640307214482E-02 
649	 7,52635805942525E-02 
650	 7,53876678434815E-02 
651	 7,46464383679921E-02 
652	 7,39979659876602E-02 
653	 7,36920344125684E-02 
654	 7,39140634609083E-02 
655	 7,40819370945107E-02 
656	 0,07396744546208 
657	 7,37431222743082E-02 
658	 7,31576983397648E-02 
659	 7,19864106935738E-02 
660	 7,12443701173578E-02 
661	 7,09592762291699E-02 
662	 7,05222963545098E-02 
663	 6,98776900252035E-02 
664	 6,91280604319937E-02 
665	 6,92926182718649E-02 
666	 6,98305078488715E-02 
667	 6,97431789441623E-02 
668	 6,94502619566197E-02 
669	 0,069093601136852 
670	 0,06878985325869 
671	 6,85743640975707E-02 
672	 0,06846721633845 
673	 6,83549698573991E-02 
674	 6,83303029387077E-02 
675	 6,86722007019992E-02 
676	 6,90772582419067E-02 
677	 6,93752856978355E-02 
678	 6,93818166339649E-02 
679	 0,069278845443956 
680	 6,93036842588518E-02 
681	 6,99775686354611E-02 
682	 7,09735810455784E-02 
683	 7,08349232451851E-02 
684	 7,07199722925314E-02 
685	 7,13366908995738E-02 
686	 7,23992327676847E-02 
687	 7,36029995390433E-02 
688	 7,44564019101721E-02 
689	 7,57393819513016E-02 
690	 7,74630873894988E-02 
691	 7,85617600830833E-02 
692	 7,97944319160959E-02 
693	 8,18512678150238E-02 
694	 8,40572334282742E-02 
695	 8,63325117631897E-02 
696	 8,87807286654377E-02 
697	 9,15920378146724E-02 
698	 9,47523380880465E-02 
699	 9,76822626107915E-02 
700	 0,100563327986722 
701	 0,103693757686858 
702	 0,106989528204504 
703	 0,110285720016922 
704	 0,113152080042168 
705	 0,115827249086946 
706	 0,118460318628972 
707	 0,120988128490069 
708	 0,123352686192618 
709	 0,125409794702589 
710	 0,127635882387241 
711	 0,130072632646785 
712	 0,132173690309346 
713	 0,134035437456492 
714	 0,135781431712483 
715	 0,137643956977252 
716	 0,139411769748936 
717	 0,140426184218076 
718	 0,141267409331664 
719	 0,142211094137411 
720	 0,143205208288485 
721	 0,14437923962288 
722	 0,145892916903092 
723	 0,146766044478721 
724	 0,147052211580485 
725	 0,147779314095862 
726	 0,148591622324347 
727	 0,149280525591344 
728	 0,149984986900815 
729	 0,150604571733138 
730	 0,150924235815679 
731	 0,151386071881395 
732	 0,152047068873616 
733	 0,152502687553114 
734	 0,152868617316835 
735	 0,153260001145171 
736	 0,153666641287724 
737	 0,154044643688225 
738	 0,154290525781097 
739	 0,154438296220828 
740	 0,154580566036966 
741	 0,155146399236979 
742	 0,155688664473692 
743	 0,155669291373095 
744	 0,155872242649372 
745	 0,156321359178108 
746	 0,156565522675112 
747	 0,156498780584655 
748	 0,156178024621054 
749	 0,156396105352409 
750	 0,157123151500781 
751	 0,158184011839046 
752	 0,158536850451461 
753	 0,15818934710812 
754	 0,158432221054582 
755	 0,15883469578178 
756	 0,159045246851116 
757	 0,158918934002681 
758	 0,158723589635968 
759	 0,159046993142287 
760	 0,159416684553187 
761	 0,159644235043816 
762	 0,159608317910716 
763	 0,15967730808001 
764	 0,160174428659535 
765	 0,160520829376112 
766	 0,160672414600255 
767	 0,160801253675085 
768	 0,161079552912919 
769	 0,16148319594699 
770	 0,161372001536541 
771	 0,1612091859009 
772	 0,161587371593338 
773	 0,161935442718376 
774	 0,162073828903482 
775	 0,16179793192948 
776	 0,161943400960765 
777	 0,162801760133513 
778	 0,163102813163823 
779	 0,162952651477906 
780	 0,162724928482233 
781	 0,162759047377922 
782	 0,163051469314805 
783	 0,163127141101236 
784	 0,163265668481489 
785	 0,163638453432788 
786	 0,164141720938388 
787	 0,164383952276773 
788	 0,163651641629593 
789	 0,163747303026176 
790	 0,164819683228778 
791	 0,165041151530465 
792	 0,164824123494687 
793	 0,164581179425933 
794	 0,164606088512269 
795	 0,164927429330728 
796	 0,16548285167206 
797	 0,16589915080724 
798	 0,166037183142824 
799	 0,166048068463835 
800	 0,165984746593616 
801	 0,165910927567513 
802	 0,166080483244616 
803	 0,166386053339582 
804	 0,166391184467353 
805	 0,166602690271198 
806	 0,167099491779545 
807	 0,167300374238858 
808	 0,16723272020951 
809	 0,166999257736668 
810	 0,167125085957436 
811	 0,167527199482863 
812	 0,167636918642651 
813	 0,167712944241811 
814	 0,167841548092003 
815	 0,167911760451524 
816	 0,168001309246975 
817	 0,168202082951627 
818	 0,168153742604416 
819	 0,167974589156447 
820	 0,168244746284241 
821	 0,168630332503004 
822	 0,168920993221429 
823	 0,168897045962375 
824	 0,168747409595816 
825	 0,168747888652467 
826	 0,169066017827787 
827	 0,169475994901183 
828	 0,169096006095827 
829	 0,168876424796098 
830	 0,169230865876802 
831	 0,169315429440583 
832	 0,169222077219567 
833	 0,169197538815646 
834	 0,170003608364464 
835	 0,171135705988084 
836	 0,170279506944907 
837	 0,169682357804267 
838	 0,170432554073909 
839	 0,170864392059014 
840	 0,170896774133202 
841	 0,170693156170733 
842	 0,170098680403289 
843	 0,169522054034178 
844	 0,170311613870994 
845	 0,171169587956774 
846	 0,171374678839885 
847	 0,171476263455899 
848	 0,171440614131315 
849	 0,17115024850489 
850	 0,171063842406583 
851	 0,171178307595975 
852	 0,170979652360482 
853	 0,171119904632874 
854	 0,171787451621358 
855	 0,17176698858059 
856	 0,171321414433255 
857	 0,171003609698233 
858	 0,170797927971066 
859	 0,170842665014114 
860	 0,171604653524343 
861	 0,17182285118458 
862	 0,171061303028826 
863	 0,171184178907186 
864	 0,171823355727244 
865	 0,172233275220596 
866	 0,172359541647384 
867	 0,172189294556194 
868	 0,171731251539838 
869	 0,171659779908597 
870	 0,172213476311259 
871	 0,172610275094232 
872	 0,172749279529384 
873	 0,172615648643115 
874	 0,172267476384673 
875	 0,172089882317588 
876	 0,173170164933337 
877	 0,173806440726043 
878	 0,173351168089543 
879	 0,172684042264389 
880	 0,172539268579019 
881	 0,173518705485128 
882	 0,173434977419939 
883	 0,172552378553634 
884	 0,172746366645749 
885	 0,173291851293693 
886	 0,173761876646966 
887	 0,173238088318663 
888	 0,172677675682129 
889	 0,173004148575507 
890	 0,173547755121119 
891	 0,17386919947506 
892	 0,173239740963204 
893	 0,173058997957136 
894	 0,173643030485881 
895	 0,174184106945359 
896	 0,17423856069993 
897	 0,173653771193728 
898	 0,174349713319571 
899	 0,17534888909279 
900	 0,174406173068263 
901	 0,173395609860299 
902	 0,173045009443123 
903	 0,173811694052426 
904	 0,174760151347038 
905	 0,175185032425659 
906	 0,174796102035606 
907	 0,174214882572631 
908	 0,17436360807419 
909	 0,174522907391813 
910	 0,174614471645756 
911	 0,175001774254681 
912	 0,175104465674617 
913	 0,174756547509128 
914	 0,174736810399982 
915	 0,174899023729697 
916	 0,175014016256652 
917	 0,175450945575722 
918	 0,175993908358439 
919	 0,175908022757325 
920	 0,176068110316232 
921	 0,176576497182007 
922	 0,176431954732074 
923	 0,176018696932666 
924	 0,175706839820173 
925	 0,175371240375882 
926	 0,175290510912593 
927	 0,175986984295392 
928	 0,176109012868376 
929	 0,175663443333432 
930	 0,176267027206158 
931	 0,176820499045265 
932	 0,176684230650271 
933	 0,176267787163567 
934	 0,175902293648179 
935	 0,175943945847574 
936	 0,176138591937815 
937	 0,176358179307295 
938	 0,176520466248142 
939	 0,176135207443911 
940	 0,17527374703198 
941	 0,175240763502187 
942	 0,17571105248464 
943	 0,176221426123443 
944	 0,175783997211496 
945	 0,175177279383902 
946	 0,176153435194385 
947	 0,17686087262653 
948	 0,176941683995215 
949	 0,177237432415325 
950	 0,177330992677355 
951	 0,177033208571497 
952	 0,176731872811789 
953	 0,176426625171105 
954	 0,176089317698384 
955	 0,176412803841121 
956	 0,176949720718752 
957	 0,176146484686614 
958	 0,175721723466848 
959	 0,176054113877478 
960	 0,175968942449905 
961	 0,175685162800192 
962	 0,175325470467697 
963	 0,173992798919407 
964	 0,173208496866813 
965	 0,175352851257515 
966	 0,175932746077447 
967	 0,174690140117546 
968	 0,174618853435758 
969	 0,174492993768447 
970	 0,174227661740458 
971	 0,176053543216077 
972	 0,177195584736777 
973	 0,175346295984036 
974	 0,174945610762863 
975	 0,17578748900171 
976	 0,176105706496682 
977	 0,176406167572374 
978	 0,176627201561407 
979	 0,176164975018687 
980	 0,176427449893153 
981	 0,177667084968287 
982	 0,176800802250131 
983	 0,176196232313226 
984	 0,17828052549895 
985	 0,179764102599572 
986	 0,179908129848516 
987	 0,178471941280544 
988	 0,178316673534386 
989	 0,179388954206395 
990	 0,177855904507379 
991	 0,177388613309391 
992	 0,179462266114917 
993	 0,180445904874972 
994	 0,180692017724773 
995	 0,181004001593607 
996	 0,183138650131517 
997	 0,184954331011393 
998	 0,181689327183295 
999	 0,180104963287532 
1000	 0,181614369398805 
1001	 0,183656255845113 
1002	 0,184815378475776 
1003	 0,184394798778352 
1004	 0,183490479027249 
1005	 0,1828361780319 
1006	 0,18300186218105 
1007	 0,183064057963874 
1008	 0,183435293426349 
1009	 0,185082443320632 
1010	 0,186861635570596 
1011	 0,188170651846424 
1012	 0,188507657205123 
1013	 0,187353639234109 
1014	 0,185308182165879 
1015	 0,186643053688311 
1016	 0,187603008649984 
1017	 0,185158940346544 
1018	 0,182816744796671 
1019	 0,1837458782225 
1020	 0,191390822019012 
1021	 0,192451590202555 
1022	 0,188420629201773 
1023	 0,193083514608324 
1024	 0,195733534089537 
1025	 0,193793399196504 
1026	 0,192429631190992 
1027	 0,191840637926239 
1028	 0,191991040208958 
1029	 0,191139632722808 
1030	 0,191723501559764 
1031	 0,19639864145001 
1032	 0,200664485128704 
1033	 0,200104278672162 
1034	 0,187775714535572 
1035	 0,188145397028002 
1036	 0,201319692229849 
1037	 0,200069514417364 
1038	 0,195843247155146 
1039	 0,193250108329084 
1040	 0,188738817089278 
1041	 0,188026929294909 
1042	 0,194962081935573 
1043	 0,202207346112177 
1044	 0,203924757485131 
1045	 0,194671172045343 
1046	 0,193642847619796 
1047	 0,198282641686002 
1048	 0,191876354739068 
1049	 0,18589586956424 
1050	 0,18499560739464 
1051	 0,193411522115611 
1052	 0,200312991429373 
1053	 0,200543457674251 
1054	 0,197377031621653 
1055	 0,198900125317323 
1056	 0,209082862554883 
1057	 0,203251146879662 
1058	 0,193916322796566 
1059	 0,202799200760846 
1060	 0,20378636711375 
1061	 0,198892790506732 
1062	 0,205151630606603 
1063	 0,213541488651902 
1064	 0,218256742825704 
1065	 0,209609930485908 
1066	 0,201827579660679 
1067	 0,201737884965223 
1068	 0,206967481369214 
1069	 0,204688413003688 
1070	 0,190147899502577 
1071	 0,202492883961279 
1072	 0,216590930072199 
1073	 0,19965423880826 
1074	 0,190231909012442 
1075	 0,191630625837068 
