Wavelength	CAMFROU00365.asd
325	 0,33295159277646 
326	 0,30430179037085 
327	 0,278974619842668 
328	 0,260649122863067 
329	 0,211106979754143 
330	 0,220373687561373 
331	 0,350540615943473 
332	 0,353666924598057 
333	 0,255373260993935 
334	 0,247639859035734 
335	 0,230651189034395 
336	 0,198491984100989 
337	 0,235346479867198 
338	 0,273889402948988 
339	 0,266772970338559 
340	 0,254956455397862 
341	 0,236116464217511 
342	 0,202651351923092 
343	 0,133293373842635 
344	 5,12822402466759E-02 
345	 0,178674474245952 
346	 0,291323260582393 
347	 0,24840035136069 
348	 0,184574339574329 
349	 0,137334580799418 
350	 0,161214664504119 
351	 0,176052514991358 
352	 0,162758128949535 
353	 0,194078037004558 
354	 0,215058261360385 
355	 0,168178073313536 
356	 0,177054408820042 
357	 0,227446973761564 
358	 0,19868865780063 
359	 0,183224736437666 
360	 0,214368499813174 
361	 0,183186895430574 
362	 0,140249223358581 
363	 0,174599250270321 
364	 0,205210288543575 
365	 0,212384445975859 
366	 0,189835112866703 
367	 0,175393942444554 
368	 0,192253262484711 
369	 0,206230616221699 
370	 0,212525367076519 
371	 0,215184549950845 
372	 0,215495112921176 
373	 0,211647608875587 
374	 0,190811062612765 
375	 0,182516234130668 
376	 0,206683587836128 
377	 0,207927310110954 
378	 0,195866841796316 
379	 0,207543545956452 
380	 0,209178747972731 
381	 0,196246211179289 
382	 0,202665006583676 
383	 0,214649604480113 
384	 0,217364818996896 
385	 0,214510963309565 
386	 0,206688635890491 
387	 0,191383626350503 
388	 0,19358004622411 
389	 0,215572344110125 
390	 0,221506714162507 
391	 0,214364138679286 
392	 0,201030159618473 
393	 0,199662645537686 
394	 0,20626711634402 
395	 0,195597857430327 
396	 0,187764711880095 
397	 0,192151891116819 
398	 0,197414808119794 
399	 0,20100091603387 
400	 0,200788874869733 
401	 0,204732498468983 
402	 0,209900211616617 
403	 0,196489847039734 
404	 0,189624494864073 
405	 0,204126122598912 
406	 0,212701085828642 
407	 0,213674034936515 
408	 0,212841303155044 
409	 0,208690600269659 
410	 0,202017557074101 
411	 0,19544240446633 
412	 0,192121530164863 
413	 0,194738522605079 
414	 0,198603882359728 
415	 0,201598562063949 
416	 0,201307948820945 
417	 0,202861637780981 
418	 0,206656363070432 
419	 0,201722092957235 
420	 0,195351875400785 
421	 0,197901259171268 
422	 0,202557123212174 
423	 0,205353122576562 
424	 0,198729650551191 
425	 0,193614325594068 
426	 0,196390305909265 
427	 0,199828034135759 
428	 0,20110132656881 
429	 0,196726007686734 
430	 0,195694467157286 
431	 0,198916979946443 
432	 0,197569310394162 
433	 0,195001271900075 
434	 0,194576941128487 
435	 0,196659771001127 
436	 0,199137330333742 
437	 0,196455373720307 
438	 0,193827257151749 
439	 0,193892990383738 
440	 0,198631749893793 
441	 0,20257795853401 
442	 0,198794608005778 
443	 0,199313497010572 
444	 0,203861758710446 
445	 0,20165868987782 
446	 0,198106518516691 
447	 0,196901432077024 
448	 0,198031395827211 
449	 0,200149285615363 
450	 0,200742955764252 
451	 0,20143940033311 
452	 0,202312666263946 
453	 0,201683838536832 
454	 0,200720089686551 
455	 0,200716747767785 
456	 0,204298832923906 
457	 0,209054232656342 
458	 0,207712727359333 
459	 0,205878896045328 
460	 0,205790028942728 
461	 0,205458070943591 
462	 0,2040877380545 
463	 0,200795546149773 
464	 0,201687920169096 
465	 0,206414895115054 
466	 0,208187157447759 
467	 0,209485529348701 
468	 0,211538411538877 
469	 0,210257281385311 
470	 0,207338041860897 
471	 0,206764033174929 
472	 0,208575762505723 
473	 0,211579077568974 
474	 0,209540507299909 
475	 0,207948393507593 
476	 0,212125408375299 
477	 0,212491230691754 
478	 0,209616043726271 
479	 0,210763472448054 
480	 0,211292096219291 
481	 0,209643926440695 
482	 0,21031698589222 
483	 0,212017272355735 
484	 0,212221043164132 
485	 0,211812048549381 
486	 0,210982196453056 
487	 0,2094623617258 
488	 0,208777177006308 
489	 0,209985125288304 
490	 0,211880455313601 
491	 0,213015477805772 
492	 0,210536186249465 
493	 0,208593558370861 
494	 0,208820454180402 
495	 0,210780021785718 
496	 0,213083772608995 
497	 0,21420237111098 
498	 0,213139278197841 
499	 0,210789478383543 
500	 0,21013519035351 
501	 0,211281550061921 
502	 0,213791824940151 
503	 0,21353541433289 
504	 0,212158713712849 
505	 0,213516648314327 
506	 0,214356907937118 
507	 0,2145141596125 
508	 0,217854987564742 
509	 0,219901483539377 
510	 0,216847302005947 
511	 0,215669046567692 
512	 0,217101017441218 
513	 0,219551633781513 
514	 0,220966864259907 
515	 0,220624653214861 
516	 0,221054680321894 
517	 0,221773302562886 
518	 0,221728705503026 
519	 0,222141459069751 
520	 0,222820342748166 
521	 0,221814030043757 
522	 0,221248717844599 
523	 0,22254295514535 
524	 0,223459053050723 
525	 0,223721320219296 
526	 0,223571311657439 
527	 0,223285257148062 
528	 0,22312125277884 
529	 0,223685459489513 
530	 0,224132083614744 
531	 0,223478706213002 
532	 0,223573478080814 
533	 0,224315890398556 
534	 0,224040038303638 
535	 0,223567188594651 
536	 0,223410066722054 
537	 0,223574413651549 
538	 0,223849317534822 
539	 0,223814168532096 
540	 0,224094325213542 
541	 0,224630384116514 
542	 0,224139236869768 
543	 0,223950112480732 
544	 0,225331528096394 
545	 0,226329209894225 
546	 0,226512098748725 
547	 0,225810682530488 
548	 0,225453178161176 
549	 0,225927193642645 
550	 0,225740395335476 
551	 0,225410919691696 
552	 0,225983742430153 
553	 0,226899579303081 
554	 0,227605784779271 
555	 0,226695523493339 
556	 0,225534947289677 
557	 0,225303831257043 
558	 0,225670609035646 
559	 0,225973500168167 
560	 0,22458692133478 
561	 0,223759999060708 
562	 0,224181702353484 
563	 0,223867679177293 
564	 0,223376297261519 
565	 0,223672229276875 
566	 0,22356398862346 
567	 0,223079612309447 
568	 0,223321153519149 
569	 0,223965088839299 
570	 0,224789045333161 
571	 0,225991472483374 
572	 0,227309835681216 
573	 0,228125828878656 
574	 0,229137805971307 
575	 0,230627952788552 
576	 0,232769353897566 
577	 0,234575202473503 
578	 0,234975762387705 
579	 0,236047282625642 
580	 0,237784286156965 
581	 0,238579119539737 
582	 0,239275780675636 
583	 0,240345824151749 
584	 0,241502385882846 
585	 0,242849704545252 
586	 0,244696566003752 
587	 0,245715077820526 
588	 0,245886741530522 
589	 0,24716338726508 
590	 0,248455564580706 
591	 0,248706586893534 
592	 0,248982590555413 
593	 0,249541224698192 
594	 0,250559066678099 
595	 0,251188665958538 
596	 0,251098348890283 
597	 0,251146301169686 
598	 0,251307913270717 
599	 0,251397265723926 
600	 0,251486491362823 
601	 0,251473310127877 
602	 0,250965272327494 
603	 0,250235760042356 
604	 0,249571542908177 
605	 0,249589282853916 
606	 0,249895671524075 
607	 0,249351135155402 
608	 0,248383573231211 
609	 0,247252449584439 
610	 0,246497018548213 
611	 0,246033356952297 
612	 0,245683864599324 
613	 0,244649600605418 
614	 0,243300010480249 
615	 0,243534802253253 
616	 0,243979992927898 
617	 0,243745684459117 
618	 0,243433254871232 
619	 0,243024038078005 
620	 0,242262262202899 
621	 0,241953014031645 
622	 0,242315812710177 
623	 0,242965829753207 
624	 0,243420445163941 
625	 0,243228754929636 
626	 0,242743429310835 
627	 0,24234825462119 
628	 0,242840646619222 
629	 0,24350253948913 
630	 0,243913140347613 
631	 0,243892091641553 
632	 0,244123526488315 
633	 0,245757908906109 
634	 0,247081992375804 
635	 0,24770577515906 
636	 0,248363307065965 
637	 0,249081656987169 
638	 0,249892069077955 
639	 0,251089426671702 
640	 0,252414060643026 
641	 0,253176376166923 
642	 0,253493746028996 
643	 0,25360657996012 
644	 0,254754048588209 
645	 0,255918489807286 
646	 0,255654002266901 
647	 0,255619951800164 
648	 0,255965572940609 
649	 0,255803196014506 
650	 0,254975854745834 
651	 0,253464055788347 
652	 0,252073917873285 
653	 0,251016787164064 
654	 0,250432293140507 
655	 0,249677265672483 
656	 0,248528126775132 
657	 0,247289568423906 
658	 0,245689772466636 
659	 0,243464068801191 
660	 0,24138184727243 
661	 0,23951074364276 
662	 0,237422662393924 
663	 0,235455849929468 
664	 0,23383989784059 
665	 0,232857838283074 
666	 0,232046369825958 
667	 0,230633251947596 
668	 0,229612540845558 
669	 0,229054494911342 
670	 0,227958517505386 
671	 0,227308760866747 
672	 0,227788216496723 
673	 0,227565157473379 
674	 0,22685813180434 
675	 0,227034410975037 
676	 0,227072407452281 
677	 0,226738336208075 
678	 0,22689782185167 
679	 0,227052578764787 
680	 0,226554474377993 
681	 0,227195161752266 
682	 0,228800436683986 
683	 0,229321391380208 
684	 0,230216548359032 
685	 0,232287596693651 
686	 0,234513102652045 
687	 0,236989488687994 
688	 0,240115039935805 
689	 0,243730242137336 
690	 0,247821581891391 
691	 0,252401957196776 
692	 0,257823186641366 
693	 0,264370145286342 
694	 0,271520093670235 
695	 0,279246806103821 
696	 0,287876270201165 
697	 0,296760565398399 
698	 0,305671079856202 
699	 0,315122223287708 
700	 0,325128893523897 
701	 0,335628935717178 
702	 0,345691395979138 
703	 0,355052630806782 
704	 0,363840997244654 
705	 0,37232641313165 
706	 0,380662693752003 
707	 0,388596198885285 
708	 0,396193222160904 
709	 0,403634530450949 
710	 0,410363329863441 
711	 0,416347877033896 
712	 0,422247179234186 
713	 0,428029099983248 
714	 0,433593817290314 
715	 0,438462112160967 
716	 0,442639760689608 
717	 0,446409830347671 
718	 0,44991083606831 
719	 0,453237237601664 
720	 0,456415775959591 
721	 0,459333653721134 
722	 0,461849912970402 
723	 0,464548380952337 
724	 0,467248539295023 
725	 0,468768797773502 
726	 0,470313473985266 
727	 0,472536499144921 
728	 0,474171010012792 
729	 0,475329254245058 
730	 0,476524858195483 
731	 0,477585387711847 
732	 0,47856463412661 
733	 0,479794306252769 
734	 0,481032614876176 
735	 0,48204475927004 
736	 0,482751173729793 
737	 0,483268019335591 
738	 0,483878358829783 
739	 0,484648516637711 
740	 0,485507525947485 
741	 0,485867642624927 
742	 0,486027495164993 
743	 0,486389122562602 
744	 0,486826503658994 
745	 0,487332936615731 
746	 0,488006258619266 
747	 0,488418413885266 
748	 0,488386181510611 
749	 0,488402366259826 
750	 0,488592873028586 
751	 0,489052201690186 
752	 0,48924977615724 
753	 0,489236563995325 
754	 0,489832047955146 
755	 0,49043896486567 
756	 0,490594421897862 
757	 0,490325602141901 
758	 0,490024508248485 
759	 0,490486501031847 
760	 0,490710732221662 
761	 0,490559270504401 
762	 0,491033982459395 
763	 0,491602495663613 
764	 0,491734340984908 
765	 0,491888321602932 
766	 0,492018983395647 
767	 0,491659140023626 
768	 0,491969679045445 
769	 0,493112953519337 
770	 0,493119349034288 
771	 0,492650945089068 
772	 0,492687938808077 
773	 0,493114465237281 
774	 0,49362432750482 
775	 0,493277266269681 
776	 0,493151301238872 
777	 0,493702806481692 
778	 0,493870372394812 
779	 0,493811962714883 
780	 0,493939859885625 
781	 0,49381204801995 
782	 0,493529966471081 
783	 0,493863112057595 
784	 0,494115584396657 
785	 0,493862327921906 
786	 0,493637397260244 
787	 0,493626861594914 
788	 0,494019468436883 
789	 0,494383003308893 
790	 0,49455856280426 
791	 0,494576335142873 
792	 0,494547597040862 
793	 0,494551649741138 
794	 0,494356332758134 
795	 0,494228226934549 
796	 0,494830221722956 
797	 0,495296721561904 
798	 0,495299717743865 
799	 0,494865223840043 
800	 0,494497411192257 
801	 0,494655519323801 
802	 0,49494479557977 
803	 0,495221159540211 
804	 0,495368925383712 
805	 0,495270195719721 
806	 0,49501911017744 
807	 0,49535267778866 
808	 0,495852884083014 
809	 0,496017623591097 
810	 0,496032759574959 
811	 0,495974506642359 
812	 0,495918906069263 
813	 0,496066742378849 
814	 0,496459065719132 
815	 0,496787463219516 
816	 0,496855107128044 
817	 0,496496962066851 
818	 0,496722435431142 
819	 0,497387780405751 
820	 0,497319269174355 
821	 0,497264794459658 
822	 0,497535734866833 
823	 0,497791773080158 
824	 0,497817925979104 
825	 0,497400912203378 
826	 0,497767037258127 
827	 0,498628276146839 
828	 0,498026666891741 
829	 0,497722891527631 
830	 0,498442557288785 
831	 0,498454905076269 
832	 0,49814011294057 
833	 0,498260587475541 
834	 0,498567573313433 
835	 0,498852125574893 
836	 0,498590216329367 
837	 0,498439031366221 
838	 0,498743179155275 
839	 0,499224146752451 
840	 0,499422028804117 
841	 0,498764011891742 
842	 0,498474343240489 
843	 0,498681743947586 
844	 0,49864503083245 
845	 0,498625406542205 
846	 0,498770253349423 
847	 0,499172477843285 
848	 0,499403287107135 
849	 0,498868510329326 
850	 0,498892554823893 
851	 0,49950363492829 
852	 0,499633713928996 
853	 0,499618856150805 
854	 0,499594662659515 
855	 0,499237472524493 
856	 0,498950387889314 
857	 0,499304461803361 
858	 0,49912557515376 
859	 0,498553890092609 
860	 0,499012721023388 
861	 0,499478992677005 
862	 0,499440709332329 
863	 0,499288576426388 
864	 0,499206941068749 
865	 0,499377978043692 
866	 0,49973910251619 
867	 0,500081422251172 
868	 0,499802319493015 
869	 0,499746508532848 
870	 0,500242893938545 
871	 0,500555379230229 
872	 0,500834079407223 
873	 0,501319520088806 
874	 0,501254946840493 
875	 0,500825823389532 
876	 0,501045071989491 
877	 0,501226074333426 
878	 0,501172500353056 
879	 0,501481687927322 
880	 0,501787040786304 
881	 0,501669484907227 
882	 0,501645570343258 
883	 0,501702096452099 
884	 0,50155219256885 
885	 0,501167030129882 
886	 0,500716756982647 
887	 0,501052869629997 
888	 0,501633279294835 
889	 0,501899753728696 
890	 0,502169620244144 
891	 0,502281137358577 
892	 0,501714839929832 
893	 0,50182782843201 
894	 0,502654807722834 
895	 0,502188866613864 
896	 0,5016094136442 
897	 0,501901207383172 
898	 0,502825093153016 
899	 0,503528367040018 
900	 0,502612904190342 
901	 0,501462991929753 
902	 0,500860016112741 
903	 0,501926873141857 
904	 0,503040883067729 
905	 0,503154654083568 
906	 0,502910405611657 
907	 0,502552667476058 
908	 0,502321652948069 
909	 0,502916483353097 
910	 0,503761188517745 
911	 0,502399877026331 
912	 0,501621147409992 
913	 0,502578393752141 
914	 0,503598033826566 
915	 0,503950248620378 
916	 0,50308630121594 
917	 0,502689913913467 
918	 0,502909150604593 
919	 0,50319261387276 
920	 0,503226382197709 
921	 0,502913411063177 
922	 0,502548476662832 
923	 0,50232196842952 
924	 0,502339102605951 
925	 0,502019369956855 
926	 0,501800879830004 
927	 0,502670198353284 
928	 0,502708347161424 
929	 0,501587769904033 
930	 0,500156556274081 
931	 0,499673757745731 
932	 0,50063889386603 
933	 0,500879965396419 
934	 0,500601433969762 
935	 0,500405091013955 
936	 0,50023696895034 
937	 0,500043766498818 
938	 0,499765350971634 
939	 0,498703310548696 
940	 0,497058932119925 
941	 0,497156829281874 
942	 0,497788220856857 
943	 0,497678903261885 
944	 0,496395359064366 
945	 0,495080601432144 
946	 0,496017294003306 
947	 0,495944558158296 
948	 0,49441174419665 
949	 0,493573377220698 
950	 0,492172038489564 
951	 0,490013099111289 
952	 0,490562678463764 
953	 0,491606520510526 
954	 0,49017773080766 
955	 0,489566753639559 
956	 0,489770934486016 
957	 0,489026241928805 
958	 0,488176262985159 
959	 0,487453150096335 
960	 0,486414123550163 
961	 0,486618314381069 
962	 0,488569018404582 
963	 0,485933612884852 
964	 0,482557265360145 
965	 0,485486325431361 
966	 0,486107067653916 
967	 0,48372326964278 
968	 0,483039734203127 
969	 0,483081149983193 
970	 0,483568431155387 
971	 0,484916046622687 
972	 0,485231321267216 
973	 0,483184644201507 
974	 0,483580994393464 
975	 0,485397488816021 
976	 0,485310081542723 
977	 0,485231156028834 
978	 0,485571743184352 
979	 0,486058320089546 
980	 0,486549393733555 
981	 0,486667025468189 
982	 0,484631156488071 
983	 0,483478208547244 
984	 0,486021184252699 
985	 0,486204834041769 
986	 0,484963560633853 
987	 0,48632307255139 
988	 0,486312214878697 
989	 0,484946290912109 
990	 0,486310236503987 
991	 0,488143590708209 
992	 0,489103367164621 
993	 0,489014311983781 
994	 0,489071083930606 
995	 0,490355947455088 
996	 0,489993090324406 
997	 0,489168355391326 
998	 0,49112247926394 
999	 0,49324383538748 
1000	 0,494293029824857 
1001	 0,49243227979434 
1002	 0,493098429192828 
1003	 0,497845890933008 
1004	 0,498578280025764 
1005	 0,497192107383332 
1006	 0,496151259166206 
1007	 0,493851358204337 
1008	 0,492596902894165 
1009	 0,496647177299739 
1010	 0,498441791048137 
1011	 0,49700836367255 
1012	 0,496070911334013 
1013	 0,497541166085072 
1014	 0,501348801551232 
1015	 0,501850980262633 
1016	 0,500898961384467 
1017	 0,500402254706874 
1018	 0,499619364936342 
1019	 0,500202763277204 
1020	 0,504420045961222 
1021	 0,505804565303905 
1022	 0,5044724075142 
1023	 0,505546030177641 
1024	 0,504419917001325 
1025	 0,501319548187438 
1026	 0,504015119816524 
1027	 0,505855098158179 
1028	 0,503227302958191 
1029	 0,504092463811831 
1030	 0,508151693053274 
1031	 0,513606185094651 
1032	 0,514876371761476 
1033	 0,511816527828275 
1034	 0,506307328561891 
1035	 0,508828141004428 
1036	 0,517875955830166 
1037	 0,516141264135898 
1038	 0,513452713378748 
1039	 0,513425342926722 
1040	 0,510518820901044 
1041	 0,509343134514803 
1042	 0,513554741731465 
1043	 0,520829265771612 
1044	 0,522544247172699 
1045	 0,508910553266082 
1046	 0,510946563622792 
1047	 0,523786803541552 
1048	 0,519386231756794 
1049	 0,513033015624789 
1050	 0,510999320273695 
1051	 0,520398500286259 
1052	 0,525468828286894 
1053	 0,51989304009389 
1054	 0,515199037857424 
1055	 0,518506819674986 
1056	 0,531924909577592 
1057	 0,52952404713671 
1058	 0,51793686683392 
1059	 0,512679749135372 
1060	 0,519665613570851 
1061	 0,530962967685042 
1062	 0,525625207727041 
1063	 0,514547651406542 
1064	 0,506578761819651 
1065	 0,520280697454027 
1066	 0,525589760894588 
1067	 0,514743959233199 
1068	 0,528602018821477 
1069	 0,533089430343744 
1070	 0,508288542305551 
1071	 0,516983662588627 
1072	 0,532493242500994 
1073	 0,517354469894751 
1074	 0,518057396388521 
1075	 0,527897250664538 
