Wavelength	CAMFROU00402.asd
325	 2,43737744237428E-02 
326	 0,127006072909921 
327	 0,191036099049834 
328	 0,19636941026878 
329	 0,137139921491603 
330	 8,44142180401636E-02 
331	 7,59111328736627E-02 
332	 3,57435588800046E-02 
333	 5,23294750513127E-04 
334	 8,11176091652036E-02 
335	 6,77347082834607E-02 
336	-0,046006214424192 
337	-3,35192506636086E-02 
338	 2,54268870196896E-02 
339	 0,06033497543638 
340	 1,54407081575031E-02 
341	-6,35495600763871E-02 
342	-2,48838466540785E-03 
343	 3,31963223523278E-02 
344	 1,47053404690911E-02 
345	 3,23068688210598E-02 
346	 0,070548545351842 
347	 0,115609739851546 
348	 5,24448087950755E-02 
349	-6,47985862051042E-02 
350	 5,96094865598196E-03 
351	 0,041889334496926 
352	-9,26665390049267E-03 
353	 0,029533958634119 
354	 7,69892755797141E-02 
355	 3,88801212738144E-02 
356	 0,024431896063228 
357	 3,64178632086505E-02 
358	 1,27281451723063E-02 
359	 1,23733552487073E-02 
360	 4,76624636394481E-02 
361	 6,07183496689043E-03 
362	-4,29569064816609E-02 
363	 1,83904617405545E-02 
364	 4,62771864553757E-02 
365	 2,37931960981159E-02 
366	 9,91550247985503E-03 
367	 3,47032882833757E-03 
368	 4,59988161945484E-03 
369	 1,53099220440504E-02 
370	 3,22699056941626E-02 
371	 5,67831263562986E-02 
372	 5,81705528462117E-02 
373	 3,09922521792563E-02 
374	-6,5246251664395E-03 
375	-2,71653885308417E-02 
376	-1,00426044347717E-02 
377	 7,02750212496086E-03 
378	 1,79119743232011E-02 
379	 0,021756569061876 
380	 1,96195486625379E-02 
381	 1,54833392699925E-02 
382	 2,47689569941576E-02 
383	 3,20635846059575E-02 
384	 2,30680239589156E-02 
385	 1,08291264791388E-02 
386	 1,66584306772947E-03 
387	 5,30079306917043E-03 
388	 2,66690580455385E-02 
389	 0,056060296184848 
390	 4,65796914213636E-02 
391	 2,39008795242612E-02 
392	 2,37362523723782E-02 
393	 2,68803284068779E-02 
394	 2,80478158188573E-02 
395	 2,39289571914801E-02 
396	 1,78531078246781E-02 
397	 1,28913062001911E-02 
398	 1,59630651977429E-02 
399	 2,01237702595603E-02 
400	 0,01386798469096 
401	 1,19001750617046E-02 
402	 1,65823713246337E-02 
403	 2,24503626699173E-02 
404	 2,61641796557366E-02 
405	 2,58320572376168E-02 
406	 2,32156646199673E-02 
407	 2,19502341763659E-02 
408	 0,02975135075234 
409	 2,83014203056957E-02 
410	 1,65130780992529E-02 
411	 0,015034158420385 
412	 1,50005643498031E-02 
413	 7,85363756470604E-03 
414	 1,08726710269839E-02 
415	 2,07449864431439E-02 
416	 2,27007748026938E-02 
417	 2,36095415388586E-02 
418	 2,51736353847162E-02 
419	 2,10532562450717E-02 
420	 0,017353462236569 
421	 2,23370172710406E-02 
422	 2,49937729441409E-02 
423	 2,34555015008069E-02 
424	 1,98110040134703E-02 
425	 1,90058663440396E-02 
426	 2,31417935359779E-02 
427	 2,25084676573715E-02 
428	 1,87654915398639E-02 
429	 1,67082875993765E-02 
430	 0,018300449538725 
431	 2,22214707423758E-02 
432	 1,97575307366237E-02 
433	 1,68167243297102E-02 
434	 1,87528584045716E-02 
435	 2,09421264349213E-02 
436	 2,13673110074281E-02 
437	 1,63158504827553E-02 
438	 1,52834941524187E-02 
439	 2,07160231412385E-02 
440	 2,20692250801687E-02 
441	 1,99859206269281E-02 
442	 1,65247799384048E-02 
443	 1,78727570125509E-02 
444	 0,02227306734694 
445	 0,018261733823027 
446	 0,014592122413903 
447	 0,016508273279593 
448	 1,79879811441912E-02 
449	 1,84689922432086E-02 
450	 1,83748980797505E-02 
451	 1,92358843470043E-02 
452	 2,07730464492469E-02 
453	 1,94435768122622E-02 
454	 1,74166534720502E-02 
455	 1,70167698157572E-02 
456	 2,11663770040283E-02 
457	 2,66384485654197E-02 
458	 2,38990470650582E-02 
459	 2,07909812047679E-02 
460	 2,01791978544186E-02 
461	 1,69984837573368E-02 
462	 1,36936841794865E-02 
463	 1,39648957695895E-02 
464	 1,63115185641838E-02 
465	 0,019318178779882 
466	 2,00578808981984E-02 
467	 1,95021562105394E-02 
468	 0,018705219434925 
469	 2,11935303363803E-02 
470	 2,41369067359136E-02 
471	 2,09913278543548E-02 
472	 1,80696925139113E-02 
473	 1,74834667338879E-02 
474	 1,81394138735514E-02 
475	 0,019811459421863 
476	 2,21726110590911E-02 
477	 2,20544099795941E-02 
478	 2,01007587383727E-02 
479	 1,98394777779921E-02 
480	 0,020389660010377 
481	 2,12732349509433E-02 
482	 2,18043362593426E-02 
483	 2,20375906700304E-02 
484	 2,22390772730278E-02 
485	 2,16507379318084E-02 
486	 2,02661167006409E-02 
487	 1,83740431051426E-02 
488	 1,82244258371886E-02 
489	 2,10805324294354E-02 
490	 2,16255757810974E-02 
491	 2,03337065079551E-02 
492	 2,03514481513237E-02 
493	 2,05860723849129E-02 
494	 0,020729036797944 
495	 2,07424088882837E-02 
496	 2,07142123641254E-02 
497	 2,07504992265012E-02 
498	 2,05770478965868E-02 
499	 2,00504142860819E-02 
500	 1,88157977158713E-02 
501	 1,79534394764982E-02 
502	 1,81280612831193E-02 
503	 0,019171869777374 
504	 2,03510783466489E-02 
505	 2,05102634684438E-02 
506	 2,04068719611182E-02 
507	 0,020503819936276 
508	 2,19697402570601E-02 
509	 2,25461695975928E-02 
510	 2,03954242499563E-02 
511	 2,00947393876911E-02 
512	 2,15339623717369E-02 
513	 2,21324354147538E-02 
514	 2,23964301820411E-02 
515	 2,23946831387305E-02 
516	 2,15238809598549E-02 
517	 2,08597371747824E-02 
518	 2,19180220754168E-02 
519	 2,28109618971911E-02 
520	 2,30896224271545E-02 
521	 2,30990335551903E-02 
522	 2,32891362629146E-02 
523	 2,38763514248051E-02 
524	 2,34481233539693E-02 
525	 2,25755885876944E-02 
526	 2,30471053595501E-02 
527	 2,33960874449505E-02 
528	 2,31784293750428E-02 
529	 2,29209272736171E-02 
530	 2,25322222377193E-02 
531	 2,18814434827966E-02 
532	 2,26436806496254E-02 
533	 2,41306914444064E-02 
534	 2,30623199539507E-02 
535	 0,021668759771568 
536	 2,13369077128247E-02 
537	 2,18790375031394E-02 
538	 2,25672574024667E-02 
539	 2,20933776584643E-02 
540	 2,19822163563749E-02 
541	 0,022332381553493 
542	 2,11161410909682E-02 
543	 0,020496477916904 
544	 2,25109508619828E-02 
545	 2,34176191930647E-02 
546	 2,28297377406732E-02 
547	 2,17970170067053E-02 
548	 2,14820202650354E-02 
549	 2,23242405395076E-02 
550	 2,25741945413081E-02 
551	 2,24113514289223E-02 
552	 0,022438306636272 
553	 2,26287892012559E-02 
554	 2,28983236988484E-02 
555	 0,022826401076203 
556	 2,28727672491067E-02 
557	 2,33775484351845E-02 
558	 2,36383046472024E-02 
559	 2,33816650781628E-02 
560	 2,21139339090395E-02 
561	 2,14687433341523E-02 
562	 2,19970550541584E-02 
563	 2,23876035366138E-02 
564	 2,23650646129939E-02 
565	 2,17389469522594E-02 
566	 2,19451391830418E-02 
567	 0,022883645577832 
568	 2,28015243020091E-02 
569	 0,022546073887019 
570	 2,27077020321265E-02 
571	 2,29105200959978E-02 
572	 2,31000162455718E-02 
573	 2,32348983238426E-02 
574	 2,36039741868362E-02 
575	 2,42386872456457E-02 
576	 2,47853456744631E-02 
577	 2,50495104186404E-02 
578	 2,48633453333831E-02 
579	 2,48934859206644E-02 
580	 2,51430906567347E-02 
581	 2,50379747490998E-02 
582	 2,50139586697702E-02 
583	 2,53634057674653E-02 
584	 2,63059183160261E-02 
585	 2,73059981424502E-02 
586	 2,74130374795338E-02 
587	 2,73108990813272E-02 
588	 2,73053913761811E-02 
589	 2,77851745550149E-02 
590	 2,80342795678212E-02 
591	 2,74495223022134E-02 
592	 2,77617376375556E-02 
593	 2,87210604246188E-02 
594	 2,87713081104142E-02 
595	 2,83620838025287E-02 
596	 2,78304384796574E-02 
597	 2,80645670049273E-02 
598	 2,86769275890666E-02 
599	 2,89546487940043E-02 
600	 2,89760525189832E-02 
601	 2,88369164079433E-02 
602	 2,89882033086269E-02 
603	 2,88077060379296E-02 
604	 2,79210058413646E-02 
605	 2,80569562332654E-02 
606	 2,87049307827708E-02 
607	 2,78856252788694E-02 
608	 2,69545710566147E-02 
609	 2,65380039038679E-02 
610	 2,71189910009368E-02 
611	 2,77449607192039E-02 
612	 2,72154334119816E-02 
613	 2,66605932131236E-02 
614	 2,63609682606208E-02 
615	 0,026249137770737 
616	 2,61665328556196E-02 
617	 2,59962085428713E-02 
618	 2,57013823433971E-02 
619	 2,54273690565788E-02 
620	 2,54719427016188E-02 
621	 2,55293490092771E-02 
622	 2,54708630958443E-02 
623	 2,51413034048604E-02 
624	 2,51337216536462E-02 
625	 2,60002711393419E-02 
626	 2,60615203154943E-02 
627	 2,54478919940078E-02 
628	 2,56153075598801E-02 
629	 2,60140438985694E-02 
630	 2,63388527892431E-02 
631	 2,63873024770258E-02 
632	 2,64305681102186E-02 
633	 2,69449538858039E-02 
634	 2,75824068253149E-02 
635	 0,028122892038958 
636	 2,81131601201972E-02 
637	 0,028206999273721 
638	 2,89377350683603E-02 
639	 2,96875233312039E-02 
640	 3,00776985967163E-02 
641	 2,94022270731406E-02 
642	 2,89881955408893E-02 
643	 2,93316695599145E-02 
644	 2,96693298497143E-02 
645	 2,98251609606486E-02 
646	 2,96705384348492E-02 
647	 2,95748174005707E-02 
648	 2,96816708793846E-02 
649	 3,01515296944706E-02 
650	 3,03884208293955E-02 
651	 3,00162411104734E-02 
652	 2,95204975357791E-02 
653	 2,91807427292153E-02 
654	 2,94431968017533E-02 
655	 2,92999264266788E-02 
656	 0,028510444270947 
657	 2,78265326336445E-02 
658	 2,70419293593406E-02 
659	 2,59254070408097E-02 
660	 2,52322085476932E-02 
661	 2,48819587844794E-02 
662	 0,024109416184364 
663	 2,34444316774632E-02 
664	 2,31663185328823E-02 
665	 2,32313538018266E-02 
666	 2,34009865571707E-02 
667	 2,33390946031112E-02 
668	 2,30882207860794E-02 
669	 2,27146033688141E-02 
670	 2,24176377556707E-02 
671	 2,22887089763643E-02 
672	 2,23553970023504E-02 
673	 2,20716244200438E-02 
674	 2,16273490402329E-02 
675	 2,17467795040104E-02 
676	 2,17156872175914E-02 
677	 2,13861186618699E-02 
678	 2,14502774856054E-02 
679	 2,17292684292434E-02 
680	 2,19448279729245E-02 
681	 2,23711417645957E-02 
682	 2,28901172843312E-02 
683	 2,29622874492876E-02 
684	 2,30144634236195E-02 
685	 2,33189961142204E-02 
686	 2,37905931015196E-02 
687	 2,44838427719957E-02 
688	 2,55000263361366E-02 
689	 2,66856779594946E-02 
690	 2,79831156469501E-02 
691	 0,029348655298476 
692	 3,10244052768503E-02 
693	 3,32231303747447E-02 
694	 3,57023467124092E-02 
695	 3,86215483778951E-02 
696	 4,24888767751965E-02 
697	 4,68184853613516E-02 
698	 5,13743026130168E-02 
699	 5,61104810926407E-02 
700	 6,12488611096952E-02 
701	 6,70660033909536E-02 
702	 7,30445534729677E-02 
703	 0,078976266556897 
704	 8,46693946373927E-02 
705	 9,06172138743671E-02 
706	 9,69903869900964E-02 
707	 0,102532108966786 
708	 0,107484663822539 
709	 0,112587522570896 
710	 0,117795976922154 
711	 0,123010798619311 
712	 0,127798435368808 
713	 0,132141386410854 
714	 0,13606873558441 
715	 0,140090581813818 
716	 0,143992616428929 
717	 0,147002281117973 
718	 0,149529925695029 
719	 0,1518422463106 
720	 0,154384107461122 
721	 0,156972584506789 
722	 0,159317594701945 
723	 0,161319611816493 
724	 0,163067406317789 
725	 0,164967502579174 
726	 0,166626975960509 
727	 0,167852238405462 
728	 0,169155826749974 
729	 0,170363623801931 
730	 0,171003253898403 
731	 0,171915312024929 
732	 0,173217410468703 
733	 0,174205428213061 
734	 0,174969184562186 
735	 0,175627827977429 
736	 0,176416923049563 
737	 0,177217226520216 
738	 0,177602854353484 
739	 0,177933280459089 
740	 0,17836378144731 
741	 0,178920290095705 
742	 0,179437117035431 
743	 0,179726589153836 
744	 0,180099107638927 
745	 0,180568059213927 
746	 0,181001362718122 
747	 0,181124208131709 
748	 0,180893028096707 
749	 0,181078593567865 
750	 0,181695649059559 
751	 0,182636046210163 
752	 0,182939244220542 
753	 0,182667409154522 
754	 0,18321838174501 
755	 0,183830861680445 
756	 0,183941245646598 
757	 0,183860719221686 
758	 0,183792185656109 
759	 0,184045275267638 
760	 0,18428254098806 
761	 0,184424070607879 
762	 0,18463767779336 
763	 0,18494791438207 
764	 0,185353212847238 
765	 0,185607297653377 
766	 0,185678399445032 
767	 0,185541451604536 
768	 0,185837401824499 
769	 0,186625875381185 
770	 0,186600381155875 
771	 0,186246372594492 
772	 0,186268460413029 
773	 0,186617841794524 
774	 0,187067076649668 
775	 0,186886032894584 
776	 0,18692188356261 
777	 0,187503135493205 
778	 0,187622448935846 
779	 0,187485365147823 
780	 0,187559903436872 
781	 0,187570370415176 
782	 0,187527033340145 
783	 0,187682909883292 
784	 0,187853602770242 
785	 0,187944586456024 
786	 0,18829542795362 
787	 0,188635460918473 
788	 0,188396142649472 
789	 0,188332430146981 
790	 0,188630665105964 
791	 0,189046925211518 
792	 0,189295632490811 
793	 0,189159789589776 
794	 0,188819648358024 
795	 0,188548156045473 
796	 0,188816240249589 
797	 0,189249386675118 
798	 0,18963021150097 
799	 0,189659035362809 
800	 0,189548923855238 
801	 0,189527060614606 
802	 0,189649826532753 
803	 0,189829221715092 
804	 0,189810898327347 
805	 0,189719049602024 
806	 0,189643540416343 
807	 0,189789164655136 
808	 0,190032155185073 
809	 0,190217400547647 
810	 0,190241082882216 
811	 0,190249658864045 
812	 0,190724012621327 
813	 0,191174824864573 
814	 0,191397895656547 
815	 0,19161461304218 
816	 0,191638617410855 
817	 0,191262416231806 
818	 0,191584856185278 
819	 0,192408132412537 
820	 0,192362267522153 
821	 0,192247186891687 
822	 0,192442382942369 
823	 0,19284305987917 
824	 0,193165895283242 
825	 0,193072029644079 
826	 0,193630308490047 
827	 0,194610336973927 
828	 0,19445038070555 
829	 0,194281039213584 
830	 0,194564595829614 
831	 0,194177617084292 
832	 0,193642789393824 
833	 0,193806330757926 
834	 0,194639300946274 
835	 0,195602729975052 
836	 0,194962233210548 
837	 0,194568106896361 
838	 0,195297253064033 
839	 0,195667761915456 
840	 0,195545412604449 
841	 0,194992489410266 
842	 0,194662029620721 
843	 0,194764324582018 
844	 0,195294779839676 
845	 0,195816226182681 
846	 0,19607403538419 
847	 0,196327721771724 
848	 0,196408419131199 
849	 0,196053632091815 
850	 0,196002346433827 
851	 0,196180207384279 
852	 0,195580088577213 
853	 0,195404416668006 
854	 0,196123529381876 
855	 0,196142051884174 
856	 0,195859377428842 
857	 0,196060975348563 
858	 0,195915071224842 
859	 0,195626351864889 
860	 0,196568237635706 
861	 0,196998125912297 
862	 0,196226616120491 
863	 0,196175624746323 
864	 0,196604397855606 
865	 0,196925518982972 
866	 0,197178839438228 
867	 0,197303270152274 
868	 0,197104725060442 
869	 0,197220656765987 
870	 0,197860660401882 
871	 0,198243192425307 
872	 0,198409426446291 
873	 0,198494512243873 
874	 0,198008736679399 
875	 0,197368038487028 
876	 0,197979108576271 
877	 0,198798543226409 
878	 0,199320407620042 
879	 0,199488620106683 
880	 0,199535275690866 
881	 0,199716439799605 
882	 0,199821811123977 
883	 0,199786616459709 
884	 0,199385641051582 
885	 0,199864874568431 
886	 0,201266246144882 
887	 0,201361879549831 
888	 0,200742405073283 
889	 0,200168911190516 
890	 0,200351452383742 
891	 0,200915605364663 
892	 0,20066861521622 
893	 0,200688378802827 
894	 0,201256788599968 
895	 0,202122329811718 
896	 0,202380571824361 
897	 0,201565860674706 
898	 0,20235177210997 
899	 0,203538033914416 
900	 0,202235981151753 
901	 0,201700726691975 
902	 0,202448349937036 
903	 0,202717047946326 
904	 0,202701775632567 
905	 0,202540264810533 
906	 0,202318162052798 
907	 0,202388993998589 
908	 0,203199017687672 
909	 0,203272802278491 
910	 0,202670525295195 
911	 0,202772780422889 
912	 0,203201810696665 
913	 0,203669904823866 
914	 0,203574365364227 
915	 0,203065836103223 
916	 0,202451041387434 
917	 0,202956887534174 
918	 0,203969907214119 
919	 0,203211334170782 
920	 0,202959806874368 
921	 0,203709638304357 
922	 0,203869338686132 
923	 0,203606991323787 
924	 0,203147676806905 
925	 0,202554327525059 
926	 0,202464785479252 
927	 0,203982115720491 
928	 0,204636554253811 
929	 0,203897122855285 
930	 0,202704279296097 
931	 0,201998329101527 
932	 0,202280628451178 
933	 0,202689978311733 
934	 0,202703186338937 
935	 0,20184214115639 
936	 0,201542033247889 
937	 0,201818843550891 
938	 0,201812144511342 
939	 0,201314540508903 
940	 0,20038873473326 
941	 0,199840594723547 
942	 0,199861759083357 
943	 0,200443352178021 
944	 0,200202999010608 
945	 0,199446064364377 
946	 0,199212645824314 
947	 0,198658491063389 
948	 0,197809115680802 
949	 0,197703185075833 
950	 0,196881221294448 
951	 0,194936224299246 
952	 0,195009462380608 
953	 0,195580278264357 
954	 0,194520272714586 
955	 0,194606659649712 
956	 0,195166942134452 
957	 0,193019383417153 
958	 0,190902988606255 
959	 0,189918830002524 
960	 0,190077031550832 
961	 0,191268017391786 
962	 0,192935177171711 
963	 0,191600560754003 
964	 0,189285624656975 
965	 0,189776915791776 
966	 0,190034766000362 
967	 0,189616790524719 
968	 0,189407522566962 
969	 0,189766091167034 
970	 0,190661835415896 
971	 0,191047452982788 
972	 0,190830915349815 
973	 0,190091387279969 
974	 0,189630422720397 
975	 0,189928733370929 
976	 0,191562003687427 
977	 0,191544195926727 
978	 0,190139196051307 
979	 0,191366633577407 
980	 0,192779704902128 
981	 0,19282710733035 
982	 0,19003370408294 
983	 0,18818083291966 
984	 0,190912460332012 
985	 0,193140196423462 
986	 0,194051033007937 
987	 0,194061904652152 
988	 0,193386301740132 
989	 0,1925832985424 
990	 0,193032260636509 
991	 0,1936297585135 
992	 0,193945002286385 
993	 0,195221670895519 
994	 0,196667745030629 
995	 0,197285914225078 
996	 0,196471585009224 
997	 0,195073462860072 
998	 0,194862816011529 
999	 0,195514114142653 
1000	 0,196717880459659 
1001	 0,197649039285467 
1002	 0,198214151098096 
1003	 0,198820644241506 
1004	 0,202334707224166 
1005	 0,204996348781448 
1006	 0,203148500580678 
1007	 0,199150511051024 
1008	 0,196662792836025 
1009	 0,201083412070051 
1010	 0,206161575736903 
1011	 0,209067394104707 
1012	 0,206849006393868 
1013	 0,205631609199843 
1014	 0,207479184231101 
1015	 0,207263374161241 
1016	 0,205550531555892 
1017	 0,20358424742741 
1018	 0,205229187900544 
1019	 0,20943475937016 
1020	 0,213462940562682 
1021	 0,214232569545464 
1022	 0,212504601260991 
1023	 0,213107954716217 
1024	 0,211001687969529 
1025	 0,206485976744666 
1026	 0,20816292341621 
1027	 0,209957626862075 
1028	 0,208155039021516 
1029	 0,207789276919165 
1030	 0,208338944462903 
1031	 0,2087373358808 
1032	 0,211716791105444 
1033	 0,214791098626447 
1034	 0,212408670044633 
1035	 0,209217565672324 
1036	 0,208372690947137 
1037	 0,215915968443 
1038	 0,218058568648424 
1039	 0,211153666347286 
1040	 0,21145057241429 
1041	 0,216539129869217 
1042	 0,221882211186147 
1043	 0,214066322311677 
1044	 0,202947540440872 
1045	 0,204458955010902 
1046	 0,215420263144369 
1047	 0,226112520412452 
1048	 0,216068014321931 
1049	 0,209732436154963 
1050	 0,212470007459912 
1051	 0,213769191846004 
1052	 0,213089031635351 
1053	 0,210961560070169 
1054	 0,212563497360835 
1055	 0,218496285177164 
1056	 0,227043543029994 
1057	 0,223362259357326 
1058	 0,215244405841286 
1059	 0,21667797636165 
1060	 0,218523083285667 
1061	 0,218773923970985 
1062	 0,217214998500312 
1063	 0,214337959076127 
1064	 0,213037217139761 
1065	 0,223418886704286 
1066	 0,224583296098849 
1067	 0,212044544631827 
1068	 0,218687071328888 
1069	 0,219627813744345 
1070	 0,20103712790056 
1071	 0,215857690264035 
1072	 0,233032243623763 
1073	 0,211221658365601 
1074	 0,191912020441125 
1075	 0,186347574577231 
