Wavelength	CAMFROU00579.asd
325	 0,526623702847388 
326	 0,200384150930188 
327	 0,15607797540105 
328	 0,358781113521423 
329	 0,320641237060732 
330	 0,214255268638517 
331	 0,148201078385042 
332	 0,144212306193219 
333	 0,1661474389738 
334	 9,21446525786608E-02 
335	 0,107543102939475 
336	 0,215619273567451 
337	 0,21663311867968 
338	 0,174908696260773 
339	 0,1482121114864 
340	 0,166033166784171 
341	 0,192854838287742 
342	 0,112257801665713 
343	 5,15919242556563E-02 
344	 4,66482229634423E-02 
345	 0,126671094974301 
346	 0,186306603626724 
347	 0,170197619572955 
348	 0,128705827935185 
349	 9,41431467331982E-02 
350	 0,147677511727002 
351	 0,152916751722435 
352	 8,69641185206887E-02 
353	 0,11973715360326 
354	 0,16562541076772 
355	 0,124830007945778 
356	 0,125589088560766 
357	 0,162738964247069 
358	 0,141198351015204 
359	 0,137635667271097 
360	 0,174409165957504 
361	 0,144837202557685 
362	 9,28605560042416E-02 
363	 9,82111461341884E-02 
364	 0,119994964823699 
365	 0,139456267938065 
366	 0,121297427017492 
367	 0,105850901698252 
368	 0,119251551919528 
369	 0,137562899062121 
370	 0,154371095459791 
371	 0,172290510368668 
372	 0,170542586424054 
373	 0,149908797856895 
374	 0,141820729891351 
375	 0,137806369498867 
376	 0,132093848533605 
377	 0,138011492770747 
378	 0,14757859218182 
379	 0,139024163540115 
380	 0,143129661735084 
381	 0,162627358141848 
382	 0,160662176524433 
383	 0,152872749482919 
384	 0,154886267081667 
385	 0,149930665945142 
386	 0,141302535919162 
387	 0,146760969097149 
388	 0,149111803182607 
389	 0,144577372141407 
390	 0,1532616353719 
391	 0,157518683837472 
392	 0,134785451846805 
393	 0,134177952423979 
394	 0,153699414867339 
395	 0,156212304147529 
396	 0,154625326894528 
397	 0,155691884001759 
398	 0,159899357549405 
399	 0,161248798551636 
400	 0,15031328085757 
401	 0,145513082791549 
402	 0,147915077154876 
403	 0,142804854335617 
404	 0,137477680608506 
405	 0,137022257729512 
406	 0,14040460261693 
407	 0,14621961295533 
408	 0,152715593317459 
409	 0,155730130804193 
410	 0,153355279418183 
411	 0,14249418230352 
412	 0,134274502675898 
413	 0,138844503069094 
414	 0,141562748240295 
415	 0,140520637006911 
416	 0,13704160026604 
417	 0,140950644076256 
418	 0,152739086447065 
419	 0,14992812435407 
420	 0,142859999782625 
421	 0,14718855871364 
422	 0,147735021295068 
423	 0,143794306776712 
424	 0,143822422043264 
425	 0,145589544886612 
426	 0,147452954496895 
427	 0,148058804013975 
428	 0,147687372135439 
429	 0,147194072762095 
430	 0,146828388810134 
431	 0,14664414767341 
432	 0,145944648882347 
433	 0,146304957990542 
434	 0,148830696978376 
435	 0,14867167705921 
436	 0,145906213593048 
437	 0,142404537445978 
438	 0,141908160019476 
439	 0,145001664715578 
440	 0,143996416546238 
441	 0,143166425679311 
442	 0,148644468076199 
443	 0,151592206281281 
444	 0,150134279983079 
445	 0,144907523712407 
446	 0,142717578572324 
447	 0,147305500770448 
448	 0,150166112705756 
449	 0,15084233300284 
450	 0,150670860075236 
451	 0,152238379596287 
452	 0,154900493383902 
453	 0,151533450300619 
454	 0,147914934247562 
455	 0,14955035853261 
456	 0,153322449088294 
457	 0,156798589134168 
458	 0,155631805263991 
459	 0,154063783123454 
460	 0,153784201460671 
461	 0,152784571598175 
462	 0,151366808231274 
463	 0,150108279169145 
464	 0,15069786301017 
465	 0,152709709733797 
466	 0,153311656087773 
467	 0,153050679604076 
468	 0,152563210349301 
469	 0,154542708953626 
470	 0,15653021117724 
471	 0,152748670849423 
472	 0,150752860302013 
473	 0,152326873099446 
474	 0,153128101178171 
475	 0,153053844647558 
476	 0,152332267166582 
477	 0,153256069622728 
478	 0,154913637010147 
479	 0,153302107126013 
480	 0,152427567628655 
481	 0,153512348555452 
482	 0,150796118810498 
483	 0,148222728788959 
484	 0,152441869961383 
485	 0,154646395349669 
486	 0,153373120464981 
487	 0,152843132749507 
488	 0,152935573848561 
489	 0,153470412942871 
490	 0,154067742509036 
491	 0,153978048941016 
492	 0,151378198465507 
493	 0,150353469884559 
494	 0,151900169036492 
495	 0,152660360898251 
496	 0,152625181051763 
497	 0,152110920217296 
498	 0,152122417820211 
499	 0,152512671415814 
500	 0,151997053540032 
501	 0,15145711812241 
502	 0,151418058345542 
503	 0,151564682768827 
504	 0,15231750237035 
505	 0,154711298799356 
506	 0,154574588753684 
507	 0,152172923558554 
508	 0,154533647126411 
509	 0,15715526706321 
510	 0,155882227715025 
511	 0,154565052953917 
512	 0,154516177262324 
513	 0,15736353732821 
514	 0,159120296679612 
515	 0,158271720869579 
516	 0,157553109157649 
517	 0,157802200933911 
518	 0,159792666214793 
519	 0,160115905046218 
520	 0,158651155243243 
521	 0,158371321640315 
522	 0,158856072468252 
523	 0,159680771153716 
524	 0,160113810016004 
525	 0,159961923043869 
526	 0,158973098490085 
527	 0,158676591600848 
528	 0,159399183533858 
529	 0,159619575042981 
530	 0,159316977681874 
531	 0,15862441711144 
532	 0,158692968246349 
533	 0,159277771298592 
534	 0,158716901871041 
535	 0,158007167409459 
536	 0,157793263357602 
537	 0,158171039215614 
538	 0,158858966028961 
539	 0,159382610416085 
540	 0,159537144197494 
541	 0,15923159064295 
542	 0,158367564987039 
543	 0,158003868367217 
544	 0,159096534412451 
545	 0,160009699213308 
546	 0,16030937453019 
547	 0,159776110315941 
548	 0,159498809117963 
549	 0,160020574128167 
550	 0,160953934947203 
551	 0,161537179521945 
552	 0,160683395796919 
553	 0,159988893620598 
554	 0,15992802617204 
555	 0,16030637407369 
556	 0,160588153959877 
557	 0,160332643424518 
558	 0,159896247270573 
559	 0,159266410502945 
560	 0,157951656152986 
561	 0,158029101731767 
562	 0,15979688958063 
563	 0,1594915716961 
564	 0,1581656158087 
565	 0,157641278935806 
566	 0,158316513544883 
567	 0,159660991821402 
568	 0,15933019843178 
569	 0,15877218450486 
570	 0,159020838898678 
571	 0,159573827649147 
572	 0,160252525263889 
573	 0,160723557404657 
574	 0,161914662237093 
575	 0,16387901014309 
576	 0,165126971036079 
577	 0,166047435486373 
578	 0,167201466245477 
579	 0,16868921591267 
580	 0,170088098146619 
581	 0,169955015740438 
582	 0,17000593804505 
583	 0,17118208032515 
584	 0,172440951987907 
585	 0,173502514207592 
586	 0,174119161260355 
587	 0,174795496232329 
588	 0,175618762295498 
589	 0,176202817756979 
590	 0,17666229034459 
591	 0,177139430763803 
592	 0,178045350354376 
593	 0,179094575463468 
594	 0,179361744844331 
595	 0,179206129263189 
596	 0,178946232591995 
597	 0,179531599118786 
598	 0,180327980070799 
599	 0,180263158166535 
600	 0,179832604762175 
601	 0,179301950471046 
602	 0,179176665020482 
603	 0,178889062409642 
604	 0,178075574450445 
605	 0,178082955106309 
606	 0,178518569099974 
607	 0,177978988328581 
608	 0,17676694544761 
609	 0,175294572447522 
610	 0,175332088107399 
611	 0,175636319243591 
612	 0,174507906531544 
613	 0,173668158365466 
614	 0,173429988733979 
615	 0,173409276595293 
616	 0,173180428685845 
617	 0,172559653334168 
618	 0,172643535946304 
619	 0,173015181989586 
620	 0,172560089782437 
621	 0,171938741578982 
622	 0,171475892899015 
623	 0,171544667340573 
624	 0,172046107860512 
625	 0,172806627026587 
626	 0,172809013358031 
627	 0,172288131212499 
628	 0,172565237486552 
629	 0,173188636357769 
630	 0,173858657828187 
631	 0,174014026257879 
632	 0,174228128553208 
633	 0,175591691692878 
634	 0,176045826274524 
635	 0,175516502700007 
636	 0,176295815931224 
637	 0,177530604497863 
638	 0,178441460343044 
639	 0,179502029578614 
640	 0,180462020746534 
641	 0,180516345873067 
642	 0,180603779014647 
643	 0,181140791479256 
644	 0,18205850661295 
645	 0,182859173796423 
646	 0,18292715673555 
647	 0,182571227168244 
648	 0,182133103883999 
649	 0,182562290626681 
650	 0,182491215745681 
651	 0,1810980985332 
652	 0,179813077454951 
653	 0,178924488105837 
654	 0,178540249450172 
655	 0,178107535060801 
656	 0,177311693111386 
657	 0,175904205386461 
658	 0,174013452067802 
659	 0,171831042733937 
660	 0,170217296025989 
661	 0,169154722424672 
662	 0,167984306843737 
663	 0,166597044857784 
664	 0,165085248685338 
665	 0,164705505081252 
666	 0,164555562055399 
667	 0,163000088291406 
668	 0,161956866561023 
669	 0,161683551042414 
670	 0,160900797194093 
671	 0,160096673082388 
672	 0,159672900265991 
673	 0,159242656434221 
674	 0,159001589600864 
675	 0,159717895872886 
676	 0,159770697926463 
677	 0,158861650865828 
678	 0,159097704084576 
679	 0,159645831192492 
680	 0,159332073888771 
681	 0,15965643971099 
682	 0,160693725437629 
683	 0,16154618175129 
684	 0,162337356526964 
685	 0,163235954299283 
686	 0,16499719737245 
687	 0,167300907595502 
688	 0,169367197298409 
689	 0,17194282077632 
690	 0,1753063531936 
691	 0,179512181946811 
692	 0,184343215619211 
693	 0,18963495129341 
694	 0,195997850480879 
695	 0,203351437317925 
696	 0,211193964061439 
697	 0,219793915255627 
698	 0,229179041881808 
699	 0,23895975109656 
700	 0,249251890966158 
701	 0,260232913926373 
702	 0,271171869552944 
703	 0,281981275326805 
704	 0,293126465448158 
705	 0,30428137246116 
706	 0,315104816795901 
707	 0,324884169206605 
708	 0,333970936633837 
709	 0,343172729189385 
710	 0,351882526086939 
711	 0,360021772260787 
712	 0,368025647882302 
713	 0,375784953312396 
714	 0,383142933622833 
715	 0,389701734601711 
716	 0,395553616592 
717	 0,401193103110558 
718	 0,406359094706083 
719	 0,411006155742425 
720	 0,415491549184489 
721	 0,419675553274386 
722	 0,423346618745858 
723	 0,426931678558529 
724	 0,430380717501204 
725	 0,43311585784927 
726	 0,435529158559324 
727	 0,437907282549118 
728	 0,44034942276967 
729	 0,442663807571742 
730	 0,44448970651314 
731	 0,446057807809837 
732	 0,447563169878006 
733	 0,449498398111906 
734	 0,451248296130269 
735	 0,452290326131007 
736	 0,453205277115826 
737	 0,454181480794046 
738	 0,455435629574863 
739	 0,456383112235913 
740	 0,456912491466764 
741	 0,457844478204007 
742	 0,458679544586026 
743	 0,458793928055671 
744	 0,459540508955401 
745	 0,460805324349421 
746	 0,461291866816914 
747	 0,461502926280904 
748	 0,461727825803222 
749	 0,462017672119294 
750	 0,462492952125167 
751	 0,463332516703256 
752	 0,463563037357469 
753	 0,463258102603294 
754	 0,463778529067705 
755	 0,464503793182775 
756	 0,46492618895747 
757	 0,464872047457071 
758	 0,46464657598868 
759	 0,464897702835578 
760	 0,465381711861127 
761	 0,465950502443144 
762	 0,466300512022716 
763	 0,466493026646901 
764	 0,466634259621407 
765	 0,467224471254053 
766	 0,467960066987703 
767	 0,467727179175777 
768	 0,467860859568472 
769	 0,468681370875684 
770	 0,468672115500233 
771	 0,468583310433113 
772	 0,469409683218391 
773	 0,469580676227631 
774	 0,469169715169424 
775	 0,469503557223852 
776	 0,469978393903358 
777	 0,470278519510229 
778	 0,470526943052939 
779	 0,470542722377486 
780	 0,470049655403375 
781	 0,469973165270996 
782	 0,470360202074082 
783	 0,470358768322446 
784	 0,47041804007402 
785	 0,47078202692138 
786	 0,470887985399993 
787	 0,470862806481956 
788	 0,471088943477459 
789	 0,471095067905489 
790	 0,47087288757891 
791	 0,470956224878588 
792	 0,471211553726455 
793	 0,47148708104339 
794	 0,47145439797955 
795	 0,471342575463167 
796	 0,471767908086978 
797	 0,472215470835148 
798	 0,472461314245546 
799	 0,472382273739205 
800	 0,472181208914624 
801	 0,472080413667636 
802	 0,472344575670496 
803	 0,472769755092131 
804	 0,47267656536175 
805	 0,472746352129403 
806	 0,4731230163674 
807	 0,473156435875036 
808	 0,473092078304521 
809	 0,473245142487833 
810	 0,473694580444 
811	 0,474251416323247 
812	 0,474379979396071 
813	 0,474334669926553 
814	 0,47430528444631 
815	 0,474747120600961 
816	 0,475185409045872 
817	 0,475030680758731 
818	 0,475053077122458 
819	 0,475318635762329 
820	 0,475483680512369 
821	 0,475576439525509 
822	 0,475647268042535 
823	 0,475970606847753 
824	 0,476386374933241 
825	 0,476652824438816 
826	 0,476667654771499 
827	 0,476557841777225 
828	 0,476785844497463 
829	 0,47714815760273 
830	 0,477469126465485 
831	 0,477350545253587 
832	 0,477112242030491 
833	 0,477242524582979 
834	 0,477692172524655 
835	 0,478184708241032 
836	 0,477848948680399 
837	 0,477627704401057 
838	 0,477984005653815 
839	 0,478266295727361 
840	 0,478298358356625 
841	 0,477947727936446 
842	 0,477853612683146 
843	 0,478191146665648 
844	 0,479008954094046 
845	 0,479292801487495 
846	 0,478661381930148 
847	 0,478795483101008 
848	 0,479292267843383 
849	 0,479319009560998 
850	 0,478857656877633 
851	 0,478181354840281 
852	 0,47814291623266 
853	 0,478503772406425 
854	 0,479029201498552 
855	 0,479086473541389 
856	 0,478951507099732 
857	 0,479106477597395 
858	 0,47921608411915 
859	 0,47925023198936 
860	 0,479329886517257 
861	 0,479537789998916 
862	 0,479903132079417 
863	 0,480282301612387 
864	 0,480650487107462 
865	 0,480999557811785 
866	 0,481138560860147 
867	 0,48106799326862 
868	 0,480856469464599 
869	 0,48104130300731 
870	 0,481724142517442 
871	 0,481751376309261 
872	 0,481603864314029 
873	 0,481965942591264 
874	 0,481856386561241 
875	 0,481466103349757 
876	 0,481952098095408 
877	 0,482400822766791 
878	 0,482505925410818 
879	 0,482883059213839 
880	 0,483338576912134 
881	 0,48360299215807 
882	 0,483479891839448 
883	 0,483156425060568 
884	 0,483180506704674 
885	 0,483473250054031 
886	 0,483841153744322 
887	 0,483414003196778 
888	 0,482910853813429 
889	 0,483066300261328 
890	 0,483841978032988 
891	 0,484543024666346 
892	 0,483626832191242 
893	 0,483316236234889 
894	 0,483998427340519 
895	 0,48390057412128 
896	 0,483471653056214 
897	 0,483206047562667 
898	 0,483936750746953 
899	 0,484880087519046 
900	 0,48443243688936 
901	 0,48395438696747 
902	 0,483987576077575 
903	 0,485042791177503 
904	 0,485648574325373 
905	 0,485017759960973 
906	 0,484801613704799 
907	 0,484824519100941 
908	 0,484542630595658 
909	 0,484682886820069 
910	 0,485178965571271 
911	 0,485215484393222 
912	 0,48558848392118 
913	 0,486438738659569 
914	 0,48635847210344 
915	 0,485783793001125 
916	 0,485368598031795 
917	 0,485301701840737 
918	 0,485682239629783 
919	 0,486746342227707 
920	 0,486896420192569 
921	 0,485898575046309 
922	 0,485791459839977 
923	 0,485558610366063 
924	 0,484464164053908 
925	 0,484591942175669 
926	 0,485392121328415 
927	 0,485288257201835 
928	 0,485373706642815 
929	 0,485436131742225 
930	 0,483507642025698 
931	 0,482391812388207 
932	 0,483459932184416 
933	 0,483912310132304 
934	 0,483392362178099 
935	 0,481944943474313 
936	 0,481907304576747 
937	 0,482868314945314 
938	 0,482193710104443 
939	 0,480688080083216 
940	 0,4789282883693 
941	 0,478096743239456 
942	 0,478361612694333 
943	 0,479515190469358 
944	 0,47869265437302 
945	 0,47685803749432 
946	 0,476707526464753 
947	 0,476790550880216 
948	 0,476542002435235 
949	 0,475466715277465 
950	 0,473963297985924 
951	 0,472494789166663 
952	 0,472297899993468 
953	 0,472104961008655 
954	 0,470321942225474 
955	 0,469042065162767 
956	 0,468630511626406 
957	 0,468968287276289 
958	 0,46834587984596 
959	 0,466502024644518 
960	 0,465245638523698 
961	 0,465314342007666 
962	 0,466782655946162 
963	 0,465846065058447 
964	 0,464059569286367 
965	 0,464592040506168 
966	 0,465661574192645 
967	 0,466349143218055 
968	 0,465187135815607 
969	 0,464153431608829 
970	 0,464105608840133 
971	 0,464611632075812 
972	 0,464388374233968 
973	 0,462653644270387 
974	 0,463841656551869 
975	 0,466054806904497 
976	 0,464571395859552 
977	 0,464049528408725 
978	 0,465146473392503 
979	 0,465624961265626 
980	 0,465682368960197 
981	 0,465425906065623 
982	 0,464963633956476 
983	 0,465326794787214 
984	 0,467332081024543 
985	 0,468487401604872 
986	 0,468312403253371 
987	 0,466714084735986 
988	 0,468347215772244 
989	 0,472094629465642 
990	 0,46838916953398 
991	 0,466684183956102 
992	 0,470841556244136 
993	 0,47178318161539 
994	 0,47037697137351 
995	 0,468676742852377 
996	 0,470765010298882 
997	 0,474327691791508 
998	 0,473288705890634 
999	 0,474273400419661 
1000	 0,477379152713869 
1001	 0,475979987287147 
1002	 0,474947337313976 
1003	 0,476483504045168 
1004	 0,478131397588686 
1005	 0,478977209960746 
1006	 0,478457195954855 
1007	 0,478102239213708 
1008	 0,478718469358108 
1009	 0,481130029815167 
1010	 0,48324369536939 
1011	 0,483807995520542 
1012	 0,480422132989729 
1013	 0,480533714926197 
1014	 0,485943307212401 
1015	 0,486978331958391 
1016	 0,486233872344421 
1017	 0,486333677528649 
1018	 0,485842915198667 
1019	 0,485593151744594 
1020	 0,486956581947446 
1021	 0,488860959419238 
1022	 0,490477742614999 
1023	 0,490165699134692 
1024	 0,490304434645415 
1025	 0,49125946601109 
1026	 0,490455419192666 
1027	 0,490554669502038 
1028	 0,49294943784414 
1029	 0,49392996012076 
1030	 0,494869131126769 
1031	 0,497531522674751 
1032	 0,497160907124885 
1033	 0,494269284682989 
1034	 0,491406947665179 
1035	 0,494098551820861 
1036	 0,500233321215022 
1037	 0,495610798918975 
1038	 0,494951821764456 
1039	 0,502158252837378 
1040	 0,500720894461917 
1041	 0,496583579943388 
1042	 0,495700411787113 
1043	 0,498772433799237 
1044	 0,501300660390144 
1045	 0,497404206795867 
1046	 0,499900594891308 
1047	 0,505633850239471 
1048	 0,50072136938786 
1049	 0,496189716264251 
1050	 0,49494058561552 
1051	 0,494072591086289 
1052	 0,497393591521049 
1053	 0,504203019463953 
1054	 0,498407259565586 
1055	 0,496258425521267 
1056	 0,509613526356744 
1057	 0,511722682652995 
1058	 0,504388396998183 
1059	 0,496575128648169 
1060	 0,506075574834176 
1061	 0,520798102196416 
1062	 0,504003356058334 
1063	 0,493128707756255 
1064	 0,498252861699302 
1065	 0,513741850176159 
1066	 0,513697844490119 
1067	 0,49214535104643 
1068	 0,488961888707256 
1069	 0,489478811542495 
1070	 0,484124371768194 
1071	 0,501512017111608 
1072	 0,516700989243186 
1073	 0,499176752704316 
1074	 0,491125572363121 
1075	 0,493367407265922 
