Wavelength	CAMFROU00024.asd
325	-4,45934192969851E-02 
326	-5,32867218537251E-02 
327	-9,66480751412532E-02 
328	-0,132559335733706 
329	 2,18381637095927E-02 
330	 0,119220144381738 
331	 2,89524178258072E-03 
332	-5,61058091880893E-02 
333	 1,08183733396237E-03 
334	 0,156033295860754 
335	 0,233847759213748 
336	 0,19357444472969 
337	 8,65036849322758E-02 
338	 4,84723325583044E-02 
339	 0,149421188393541 
340	 8,04936530804783E-02 
341	-9,79813217764368E-02 
342	-3,63244615420777E-02 
343	-2,23851692362976E-03 
344	-3,67316618051738E-02 
345	 7,06525734701379E-02 
346	 0,148515996459563 
347	 9,23102381675957E-02 
348	 4,86112114910866E-02 
349	 3,43916003950309E-02 
350	 3,18630293788254E-02 
351	 1,92411747769013E-02 
352	-2,80002788555978E-03 
353	 3,78356434785218E-02 
354	 7,85264167137036E-02 
355	 0,05423780945511 
356	 4,33858867452071E-02 
357	 4,58816907039325E-02 
358	 7,49748694436953E-03 
359	-5,04652849257687E-03 
360	 0,029826543064821 
361	 0,019085563557725 
362	-3,54227926352367E-03 
363	 2,15867079295243E-02 
364	 4,83483223072297E-02 
365	 0,060054366460975 
366	 3,16336821509762E-02 
367	 2,37917467135343E-03 
368	 1,37024919441702E-03 
369	 3,92762892243506E-02 
370	 7,51815486848912E-02 
371	 0,055131862803139 
372	 2,88803249519011E-02 
373	 1,34637042608168E-02 
374	 9,38610417339647E-03 
375	 1,87557525872612E-02 
376	 3,85093655749223E-02 
377	 0,043612354509259 
378	 3,52808323843282E-02 
379	 1,82315722886445E-02 
380	 2,02016714616046E-02 
381	 4,36924116053847E-02 
382	 4,83419989392397E-02 
383	 4,74968915646882E-02 
384	 0,054023323527781 
385	 4,43344592458396E-02 
386	 2,33710707107227E-02 
387	 1,62078523280535E-02 
388	 1,24102887348085E-02 
389	 9,96498561081359E-03 
390	 2,01244998880946E-02 
391	 3,12304066181597E-02 
392	 2,76601051146041E-02 
393	 2,76429866848906E-02 
394	 3,13461478052528E-02 
395	 2,62195096652131E-02 
396	 2,55140365835104E-02 
397	 3,28711241062243E-02 
398	 0,023585265163544 
399	 1,10282688004849E-02 
400	 1,91262355334055E-02 
401	 2,28022067849003E-02 
402	 1,94352087381266E-02 
403	 2,37992431236509E-02 
404	 2,91441371988165E-02 
405	 3,04543455027263E-02 
406	 2,46109914575418E-02 
407	 1,82593927137922E-02 
408	 2,55536462880326E-02 
409	 3,13782849028757E-02 
410	 0,030873668441099 
411	 2,43132846292299E-02 
412	 1,61823274958553E-02 
413	 1,12272428066325E-02 
414	 1,43991220503331E-02 
415	 2,23796622358893E-02 
416	 2,60376773116649E-02 
417	 2,76618953257622E-02 
418	 2,77626374150274E-02 
419	 2,48061610819842E-02 
420	 2,19089851859098E-02 
421	 2,30604143815321E-02 
422	 2,47243121713645E-02 
423	 0,025240541022349 
424	 2,21647592347749E-02 
425	 1,92320146195961E-02 
426	 1,88570491575197E-02 
427	 2,02820471635715E-02 
428	 2,12002590051011E-02 
429	 1,73994094809744E-02 
430	 0,017630154242214 
431	 2,21020807048077E-02 
432	 1,96971716021098E-02 
433	 0,017057167811632 
434	 2,00904043077375E-02 
435	 2,13822768644045E-02 
436	 1,99201900983081E-02 
437	 1,58563214436321E-02 
438	 1,53733834164358E-02 
439	 1,98431610714705E-02 
440	 0,020280224502942 
441	 1,91476510266007E-02 
442	 2,05259903194725E-02 
443	 2,34506756123498E-02 
444	 2,59196748538289E-02 
445	 2,16181848828281E-02 
446	 0,019466271517828 
447	 2,39213263355416E-02 
448	 2,09709380063994E-02 
449	 1,48672670314201E-02 
450	 1,68175243701813E-02 
451	 2,06156408159891E-02 
452	 2,32438015899969E-02 
453	 2,03018683603491E-02 
454	 1,67963463206001E-02 
455	 0,01755242592681 
456	 2,16354093374172E-02 
457	 2,59460792217406E-02 
458	 2,28609119515708E-02 
459	 2,15775624615034E-02 
460	 2,46740930135109E-02 
461	 2,14852620752968E-02 
462	 1,60598567072662E-02 
463	 1,49368590104268E-02 
464	 1,79161830440941E-02 
465	 2,24578312340302E-02 
466	 1,99060775495723E-02 
467	 1,77537278401647E-02 
468	 2,06062369581293E-02 
469	 2,20647359644199E-02 
470	 2,18012369243352E-02 
471	 2,10408247319224E-02 
472	 1,99032539428246E-02 
473	 1,88794026574976E-02 
474	 1,91337534999909E-02 
475	 2,06395401058129E-02 
476	 2,31326223962931E-02 
477	 2,29058697843842E-02 
478	 2,06974826417176E-02 
479	 2,05532345184239E-02 
480	 2,16888807481201E-02 
481	 2,33176904844024E-02 
482	 2,25399941878634E-02 
483	 2,05802971374607E-02 
484	 1,96093534837366E-02 
485	 2,06151360183009E-02 
486	 2,26835604960191E-02 
487	 2,10299811652195E-02 
488	 1,99828482874949E-02 
489	 2,25445905406463E-02 
490	 2,41061761309136E-02 
491	 2,36047227220748E-02 
492	 0,019987111993444 
493	 1,84363447309443E-02 
494	 2,01000833709395E-02 
495	 1,95030298776421E-02 
496	 1,85529724000559E-02 
497	 1,98094139271737E-02 
498	 1,96994078299762E-02 
499	 1,82337690788348E-02 
500	 1,79374807877895E-02 
501	 1,76710182618566E-02 
502	 1,70234668509559E-02 
503	 1,78780105350742E-02 
504	 1,94545433005599E-02 
505	 2,00935227240072E-02 
506	 2,01126157822649E-02 
507	 1,97699986284339E-02 
508	 1,98843042106907E-02 
509	 2,01212986044546E-02 
510	 2,01413725408968E-02 
511	 1,99357100596023E-02 
512	 1,97826798512338E-02 
513	 0,020603437042886 
514	 2,03968825333285E-02 
515	 1,87310108746398E-02 
516	 1,87874399763282E-02 
517	 1,98464317459821E-02 
518	 2,04796177327015E-02 
519	 2,05318834454159E-02 
520	 2,02266737886343E-02 
521	 2,07438204114295E-02 
522	 2,11278861356779E-02 
523	 2,07199860220305E-02 
524	 0,020305430003118 
525	 2,01063301023578E-02 
526	 2,03516182782194E-02 
527	 2,04285421525768E-02 
528	 0,020173703053584 
529	 2,00781173464774E-02 
530	 1,98801083043216E-02 
531	 1,92572239107655E-02 
532	 1,97360195317003E-02 
533	 2,08537140376445E-02 
534	 2,00524639789917E-02 
535	 1,93062307562208E-02 
536	 1,96612109353155E-02 
537	 1,93240934827709E-02 
538	 1,89902474691966E-02 
539	 2,05047857703869E-02 
540	 2,08085774578258E-02 
541	 1,93939557286942E-02 
542	 1,86084915742472E-02 
543	 0,018538144120829 
544	 1,91163946153177E-02 
545	 1,98657943752653E-02 
546	 2,04199533770241E-02 
547	 2,02060778102943E-02 
548	 0,019768099496388 
549	 1,94825543047982E-02 
550	 1,98219626904608E-02 
551	 2,04645425520149E-02 
552	 2,08738757190438E-02 
553	 0,020496872227655 
554	 1,96014757695006E-02 
555	 2,00372960032264E-02 
556	 0,020262880954027 
557	 1,91245868335772E-02 
558	 1,93883913875865E-02 
559	 2,05550540044739E-02 
560	 0,02015550267713 
561	 1,95844339934749E-02 
562	 1,93733681912501E-02 
563	 0,019293867702071 
564	 1,92610385711525E-02 
565	 1,91730563024166E-02 
566	 1,95702852593095E-02 
567	 2,03043746636236E-02 
568	 2,04549651863205E-02 
569	 2,02632122364052E-02 
570	 1,99677957682694E-02 
571	 2,01798772686945E-02 
572	 2,05556969980343E-02 
573	 2,00500746934459E-02 
574	 1,99691902560202E-02 
575	 2,06364361062728E-02 
576	 2,12226473907378E-02 
577	 2,13108901553265E-02 
578	 2,05496045412441E-02 
579	 2,08904946465039E-02 
580	 2,18872963249238E-02 
581	 0,020470844106731 
582	 1,98458705901151E-02 
583	 2,15265025834734E-02 
584	 2,18734348751372E-02 
585	 2,14451083477151E-02 
586	 0,022077514093114 
587	 2,26941516997627E-02 
588	 2,29952271841184E-02 
589	 2,30943768065635E-02 
590	 2,30947230995227E-02 
591	 2,31143906755916E-02 
592	 0,023647974490327 
593	 2,41902777048565E-02 
594	 2,30152427101219E-02 
595	 2,22174074865368E-02 
596	 2,26507326524795E-02 
597	 2,27164062575363E-02 
598	 2,26230021538209E-02 
599	 2,29335655069074E-02 
600	 0,023387778562481 
601	 2,37496492975159E-02 
602	 2,34701494066562E-02 
603	 2,30024278942087E-02 
604	 2,27356508909808E-02 
605	 2,26578069594857E-02 
606	 2,27362064118112E-02 
607	 2,29750436676095E-02 
608	 2,27049260144278E-02 
609	 2,18883148196334E-02 
610	 2,19355738240397E-02 
611	 2,23885361796964E-02 
612	 0,022533184924626 
613	 2,23170212066623E-02 
614	 2,18048698945636E-02 
615	 2,12634375718524E-02 
616	 2,09925545559706E-02 
617	 2,11630699696268E-02 
618	 2,13943225333847E-02 
619	 2,15345826740345E-02 
620	 2,14306617580806E-02 
621	 2,12368857985909E-02 
622	 2,10883071997999E-02 
623	 2,12828293496177E-02 
624	 2,16779240709111E-02 
625	 2,20810444179106E-02 
626	 2,18851114013053E-02 
627	 2,12286295060887E-02 
628	 2,08150949484573E-02 
629	 2,08935997940676E-02 
630	 2,14978099037828E-02 
631	 2,16233561339923E-02 
632	 2,16931665145787E-02 
633	 2,26440059752836E-02 
634	 2,28344865135754E-02 
635	 2,21755116530267E-02 
636	 2,23425236477952E-02 
637	 2,29405042916319E-02 
638	 2,35563579410723E-02 
639	 2,39829708972297E-02 
640	 2,40209640456191E-02 
641	 2,31663013548931E-02 
642	 2,30056742614033E-02 
643	 2,40225999453607E-02 
644	 2,47609555597036E-02 
645	 0,024793021506216 
646	 2,37706917403692E-02 
647	 2,32916685607602E-02 
648	 2,36649591877862E-02 
649	 2,44153012057786E-02 
650	 2,45766514371959E-02 
651	 2,36253769644475E-02 
652	 2,32113070357745E-02 
653	 2,33439014049891E-02 
654	 2,34931130696856E-02 
655	 2,36906243986466E-02 
656	 2,38099087979715E-02 
657	 2,35163922222048E-02 
658	 2,27251206001706E-02 
659	 2,14268064304548E-02 
660	 0,020929380154366 
661	 2,11688226995617E-02 
662	 2,11123724809103E-02 
663	 2,06846056887557E-02 
664	 2,00068134207217E-02 
665	 2,04457264968431E-02 
666	 2,12436381772327E-02 
667	 2,10071301362859E-02 
668	 2,04619919877004E-02 
669	 1,99116114302954E-02 
670	 1,96317127514958E-02 
671	 1,97880678773266E-02 
672	 2,03880508081356E-02 
673	 1,99386998066371E-02 
674	 1,90094194120414E-02 
675	 1,96734102339044E-02 
676	 2,00737894440625E-02 
677	 1,97038391568787E-02 
678	 1,98104038759837E-02 
679	 1,99646810826523E-02 
680	 1,95585810390321E-02 
681	 1,96062596162172E-02 
682	 0,020130871665554 
683	 2,04597802079535E-02 
684	 2,05377959044489E-02 
685	 2,03986713280698E-02 
686	 0,0206543968272 
687	 2,12066585567807E-02 
688	 2,17257953158306E-02 
689	 0,022256521219164 
690	 2,28120546427589E-02 
691	 2,34196228492965E-02 
692	 2,41946643209071E-02 
693	 2,52525697799008E-02 
694	 2,66775652174151E-02 
695	 0,028580724931484 
696	 3,12036969254285E-02 
697	 3,40623955414141E-02 
698	 3,69814648313384E-02 
699	 0,040285886037539 
700	 4,40359733638673E-02 
701	 4,82530962880014E-02 
702	 5,30474037316323E-02 
703	 5,82219597139281E-02 
704	 6,30939108377373E-02 
705	 0,068135315753835 
706	 7,35812366454517E-02 
707	 7,87975144892817E-02 
708	 8,39536374622963E-02 
709	 8,95172583861424E-02 
710	 9,50089325703315E-02 
711	 0,100306777547139 
712	 0,105616154859648 
713	 0,110876275023323 
714	 0,1160055699658 
715	 0,120904881625252 
716	 0,125430719884293 
717	 0,129308265169675 
718	 0,132978132725899 
719	 0,136642163861247 
720	 0,140272880222825 
721	 0,143590667709965 
722	 0,146258860706837 
723	 0,148949966265237 
724	 0,151785247844055 
725	 0,154553226304475 
726	 0,156948781552677 
727	 0,158841422718086 
728	 0,160834455142305 
729	 0,162746052270337 
730	 0,164089934186617 
731	 0,165392677139739 
732	 0,166768261647473 
733	 0,167875155245056 
734	 0,169105593786732 
735	 0,170740018015284 
736	 0,171741232594121 
737	 0,172220464391899 
738	 0,172898317116976 
739	 0,173699059929962 
740	 0,17459929203216 
741	 0,175461532388471 
742	 0,176191707124344 
743	 0,176703760793507 
744	 0,177020936336199 
745	 0,177301339981813 
746	 0,177978748972179 
747	 0,178613286665064 
748	 0,179007122886687 
749	 0,179553795224407 
750	 0,180238501276393 
751	 0,180983289283601 
752	 0,181390872609198 
753	 0,181500838636587 
754	 0,181943469668405 
755	 0,182357605557535 
756	 0,182484151022875 
757	 0,182485984854409 
758	 0,182633124544303 
759	 0,183452167690641 
760	 0,183965706764456 
761	 0,183911001391893 
762	 0,183713199732328 
763	 0,18381319275192 
764	 0,184551790342913 
765	 0,185010482180294 
766	 0,185053475253066 
767	 0,184743127792193 
768	 0,184936865180125 
769	 0,185785292436594 
770	 0,185847193950028 
771	 0,185628199689352 
772	 0,18586283536224 
773	 0,186131386375307 
774	 0,186339218315415 
775	 0,186398284440045 
776	 0,186829685225098 
777	 0,187741860847961 
778	 0,187933019092388 
779	 0,187604002150511 
780	 0,187247664769403 
781	 0,187310626353942 
782	 0,187780183387252 
783	 0,188053380533154 
784	 0,188248793870454 
785	 0,188452767108721 
786	 0,188787113221635 
787	 0,189017781157151 
788	 0,188660758915372 
789	 0,188848839575185 
790	 0,189637555917885 
791	 0,189729982735725 
792	 0,189636763835653 
793	 0,189754702787425 
794	 0,189421704842892 
795	 0,189051192970219 
796	 0,189758901088523 
797	 0,190247122617096 
798	 0,190171301617153 
799	 0,190230230413242 
800	 0,190212218442167 
801	 0,18994122999246 
802	 0,190221171469335 
803	 0,190820926940899 
804	 0,190725242179873 
805	 0,190840341966736 
806	 0,19139250232821 
807	 0,191755409829534 
808	 0,191916928032418 
809	 0,191923998794885 
810	 0,191954732281464 
811	 0,192132918573617 
812	 0,192699276539667 
813	 0,193062182063048 
814	 0,193023269193237 
815	 0,193149470045047 
816	 0,193262467763216 
817	 0,193109999165328 
818	 0,193337607159189 
819	 0,193845500579608 
820	 0,193890907276117 
821	 0,193901887040947 
822	 0,194082969197198 
823	 0,194377131320349 
824	 0,194671799225859 
825	 0,194832079320859 
826	 0,19530554069695 
827	 0,195959589860606 
828	 0,196022523262341 
829	 0,196127242585177 
830	 0,196565498050021 
831	 0,196998489161957 
832	 0,197087501011757 
833	 0,196442357484493 
834	 0,196559109927124 
835	 0,197382392096201 
836	 0,197380181036564 
837	 0,197416697370936 
838	 0,197891870780561 
839	 0,198242378142648 
840	 0,198304957275995 
841	 0,197949128859718 
842	 0,198018528039565 
843	 0,198499935172784 
844	 0,198567930349544 
845	 0,198502928038234 
846	 0,198524464550423 
847	 0,199077754240175 
848	 0,199640221071806 
849	 0,199426121523068 
850	 0,199396874369721 
851	 0,199673599428466 
852	 0,199807124765093 
853	 0,199921165013793 
854	 0,200032010668256 
855	 0,19979371581761 
856	 0,199630805644966 
857	 0,20015207501812 
858	 0,20002491410836 
859	 0,199374002120877 
860	 0,199700904054789 
861	 0,200023708183927 
862	 0,199931663784441 
863	 0,200237800037138 
864	 0,200768709444958 
865	 0,201195615656009 
866	 0,201695930829742 
867	 0,201995449598382 
868	 0,20104402672644 
869	 0,20085384705685 
870	 0,20207058826297 
871	 0,202089010259826 
872	 0,201787750879963 
873	 0,202473915307995 
874	 0,202654968105413 
875	 0,202450439810746 
876	 0,203129867770046 
877	 0,203866807015928 
878	 0,204291095828809 
879	 0,204520974388819 
880	 0,204418200656224 
881	 0,203911171553811 
882	 0,204548418962406 
883	 0,205731226649701 
884	 0,204940778952443 
885	 0,204663364478979 
886	 0,205563566033939 
887	 0,20613947120137 
888	 0,20640365230906 
889	 0,206459986736038 
890	 0,206535084924566 
891	 0,206524173792129 
892	 0,205989215169748 
893	 0,206280426744435 
894	 0,207380809278216 
895	 0,207082511617697 
896	 0,206724321786664 
897	 0,207374816475412 
898	 0,208346437768432 
899	 0,20880728065292 
900	 0,207459411076086 
901	 0,207102848070211 
902	 0,20812585164679 
903	 0,208642968385717 
904	 0,208844298759892 
905	 0,20884757364427 
906	 0,208668647294319 
907	 0,208688438679251 
908	 0,209406786502057 
909	 0,208949530981314 
910	 0,207667258478218 
911	 0,208054914809433 
912	 0,209111379434741 
913	 0,210134131438727 
914	 0,210110026124009 
915	 0,209181467246609 
916	 0,207766092842438 
917	 0,208067406751362 
918	 0,209449024796742 
919	 0,209090933930943 
920	 0,208671443518204 
921	 0,208729745316604 
922	 0,209146250907665 
923	 0,209223000929064 
924	 0,208444720832378 
925	 0,207545957747159 
926	 0,207259006175867 
927	 0,208685973041462 
928	 0,208816718043691 
929	 0,20732191136388 
930	 0,206415007112191 
931	 0,206292245195457 
932	 0,206826737568665 
933	 0,206173794500808 
934	 0,205105914083991 
935	 0,204869158914925 
936	 0,204357450999401 
937	 0,203857242418268 
938	 0,205065333745559 
939	 0,204905547800015 
940	 0,202663341609057 
941	 0,20131423357958 
942	 0,200681394966148 
943	 0,200373809063577 
944	 0,199305410820066 
945	 0,19851013785595 
946	 0,200324100695379 
947	 0,20044430959967 
948	 0,198161080407446 
949	 0,195773151662248 
950	 0,194037862710868 
951	 0,193353975622495 
952	 0,192702619958809 
953	 0,191996006672511 
954	 0,191270018310913 
955	 0,190649752850735 
956	 0,189933529666021 
957	 0,188560494351433 
958	 0,187039371211963 
959	 0,185708555988283 
960	 0,185015737411238 
961	 0,1849363621396 
962	 0,185214640755308 
963	 0,184048847401802 
964	 0,182804243195971 
965	 0,183897093406493 
966	 0,183891148985055 
967	 0,18241467272363 
968	 0,180922684369215 
969	 0,180671220919768 
970	 0,18208717634681 
971	 0,184128812480644 
972	 0,184878817249059 
973	 0,182946328473779 
974	 0,181631813761022 
975	 0,181737217246336 
976	 0,183574961196503 
977	 0,183922098439857 
978	 0,182675712662468 
979	 0,182959017820237 
980	 0,183567887176223 
981	 0,183728718065193 
982	 0,18247877121646 
983	 0,181523234832514 
984	 0,182627404669701 
985	 0,18472829181695 
986	 0,186547968432637 
987	 0,186066237101365 
988	 0,186945563794595 
989	 0,188535615306513 
990	 0,184045957269326 
991	 0,182350013865161 
992	 0,186997375473993 
993	 0,188602358587703 
994	 0,188608742453928 
995	 0,189284019404507 
996	 0,189241103048851 
997	 0,189227227136359 
998	 0,191061688802909 
999	 0,191661583762168 
1000	 0,190857940823075 
1001	 0,191267202425339 
1002	 0,192750628144121 
1003	 0,194999624355333 
1004	 0,196653925668776 
1005	 0,197344673596638 
1006	 0,196786013833464 
1007	 0,193550210468534 
1008	 0,191121147524394 
1009	 0,195746877908351 
1010	 0,201020099730326 
1011	 0,203907969335341 
1012	 0,201020226751931 
1013	 0,198016222607976 
1014	 0,197783493952199 
1015	 0,199936144621423 
1016	 0,20260817455212 
1017	 0,203900355781187 
1018	 0,201795840296312 
1019	 0,200016734715484 
1020	 0,204317640648055 
1021	 0,205399360145813 
1022	 0,20358740288296 
1023	 0,206183134104803 
1024	 0,208034469908519 
1025	 0,207765650268266 
1026	 0,207079430946231 
1027	 0,207290424122938 
1028	 0,209369220180623 
1029	 0,213922531825781 
1030	 0,216228062649843 
1031	 0,21154545070363 
1032	 0,211169745054426 
1033	 0,213046510722736 
1034	 0,208285684270127 
1035	 0,210053833971541 
1036	 0,218065356570902 
1037	 0,217408701250603 
1038	 0,21640179901234 
1039	 0,218273531856971 
1040	 0,220124616117733 
1041	 0,218667939571004 
1042	 0,21278026667929 
1043	 0,214956041621206 
1044	 0,219187839907596 
1045	 0,215321204833642 
1046	 0,216248769503034 
1047	 0,220883912969934 
1048	 0,219905326143574 
1049	 0,222543291721153 
1050	 0,228081380914272 
1051	 0,222678567610649 
1052	 0,217483799349735 
1053	 0,217727963034819 
1054	 0,217974406432745 
1055	 0,225333074567961 
1056	 0,241863681490315 
1057	 0,232513928592136 
1058	 0,214363811773656 
1059	 0,218281337624122 
1060	 0,220051030968126 
1061	 0,219188483163919 
1062	 0,226455305247286 
1063	 0,22391072571195 
1064	 0,213447008522903 
1065	 0,222029942672883 
1066	 0,224540393080566 
1067	 0,213148247750832 
1068	 0,21097010520386 
1069	 0,212918022668612 
1070	 0,215097720850597 
1071	 0,226868295708099 
1072	 0,235154518640692 
1073	 0,224863698522324 
1074	 0,218906050336437 
1075	 0,217968286343823 
