Wavelength	CAMFROU00012.asd
325	-2,17430057747263E-02 
326	-7,98053868636133E-03 
327	 9,99218792580346E-04 
328	 3,73985246336344E-02 
329	 0,210278185394486 
330	 0,281029124537342 
331	 9,91584724966265E-02 
332	 0,121669102685352 
333	 0,254473085568181 
334	 5,69642157915346E-02 
335	-3,62175650823105E-02 
336	 3,96125279958925E-02 
337	 2,57664578939349E-02 
338	 2,32799538982016E-02 
339	 0,104296468374658 
340	 7,60795893830869E-02 
341	-3,42468978627299E-02 
342	-4,41735287895764E-02 
343	-4,16835414515899E-02 
344	-4,15484456733696E-02 
345	 0,028080199660783 
346	 7,96453780839831E-02 
347	 6,63359824153133E-02 
348	 3,71641085260113E-02 
349	 1,32512084827694E-02 
350	 3,93574724817131E-02 
351	 0,038763145016148 
352	-8,77159696894555E-04 
353	 2,05545682190264E-02 
354	 5,89572492287232E-02 
355	 6,17544424956335E-02 
356	 6,89737035105792E-02 
357	 8,16887604988794E-02 
358	 7,93600201744954E-02 
359	 8,39932388548226E-02 
360	 9,44481632437692E-02 
361	 3,31125629399354E-02 
362	-3,29691955306859E-02 
363	 1,09964177032573E-02 
364	 5,27507447864945E-02 
365	 6,28468869130395E-02 
366	 2,86333429968021E-02 
367	 2,60512355880683E-03 
368	 1,77902148483348E-02 
369	 3,47589566240184E-02 
370	 4,56483028928415E-02 
371	 5,34172213867371E-02 
372	 4,22830274776654E-02 
373	 1,42191991657088E-02 
374	-8,09447460271188E-03 
375	-9,63213699039275E-03 
376	 1,72898353292456E-02 
377	 3,88808627209499E-02 
378	 4,59693604219449E-02 
379	 2,39895369003552E-02 
380	 1,76918131770401E-02 
381	 3,71884094009799E-02 
382	 4,23468604158262E-02 
383	 4,83852992327569E-02 
384	 6,81408462945952E-02 
385	 6,29745118309043E-02 
386	 3,44211260165643E-02 
387	 2,22030344147033E-04 
388	-3,11259385816497E-03 
389	 2,67785692361496E-02 
390	 2,48955205063789E-02 
391	 1,43036237133844E-02 
392	 2,81321475497591E-02 
393	 3,26997809485731E-02 
394	 2,72205199085034E-02 
395	 3,20893096948097E-02 
396	 0,027465380180095 
397	 8,72871771389619E-03 
398	 1,27708430026626E-02 
399	 3,06532910363343E-02 
400	 4,42481762644003E-02 
401	 3,95477292791364E-02 
402	 0,022578994950403 
403	 3,04925823830167E-02 
404	 3,69708982689122E-02 
405	 2,55792315611097E-02 
406	 1,92744300444613E-02 
407	 2,12766259175032E-02 
408	 3,21533451898621E-02 
409	 3,53762921808532E-02 
410	 2,88965720120602E-02 
411	 0,028092549331373 
412	 2,97623427699461E-02 
413	 3,00103314626921E-02 
414	 2,69524805951077E-02 
415	 2,42788620507225E-02 
416	 0,032214639203921 
417	 3,82282319179324E-02 
418	 3,74315990499849E-02 
419	 3,43937821626365E-02 
420	 3,08616735683155E-02 
421	 2,84379277680401E-02 
422	 3,23236910900087E-02 
423	 3,87963330959673E-02 
424	 3,19391254980053E-02 
425	 2,70037068003914E-02 
426	 3,21684228785312E-02 
427	 3,13895129404883E-02 
428	 2,81329565210339E-02 
429	 3,24146450257333E-02 
430	 3,48508650115897E-02 
431	 3,33774536676953E-02 
432	 3,13115152066467E-02 
433	 3,18664187903671E-02 
434	 3,70788117434131E-02 
435	 3,55665529813699E-02 
436	 2,89178784401063E-02 
437	 2,52959386997684E-02 
438	 2,75482130450055E-02 
439	 3,50689722637874E-02 
440	 3,62715641261763E-02 
441	 3,23969041543849E-02 
442	 2,64665039777578E-02 
443	 0,02619139932677 
444	 3,04317855159038E-02 
445	 2,82250455455161E-02 
446	 2,60490230243072E-02 
447	 2,76600117549796E-02 
448	 2,80453612971029E-02 
449	 0,02772947122439 
450	 0,028762192543686 
451	 3,15751393351038E-02 
452	 3,49869204985736E-02 
453	 3,34738535116396E-02 
454	 3,07365887635687E-02 
455	 3,05207783718797E-02 
456	 0,033837383577139 
457	 3,79923995899686E-02 
458	 3,52379322145932E-02 
459	 3,44808248255209E-02 
460	 3,80703604027878E-02 
461	 3,52796765962538E-02 
462	 2,94250026459072E-02 
463	 2,61089005352128E-02 
464	 0,027883676627969 
465	 0,032834810109096 
466	 3,17483413259887E-02 
467	 3,06122068822541E-02 
468	 3,30364627467515E-02 
469	 3,35557372823429E-02 
470	 3,26035779930765E-02 
471	 3,23942690246763E-02 
472	 3,31890452854589E-02 
473	 3,46336023134112E-02 
474	 3,41306233858776E-02 
475	 3,39594464270455E-02 
476	 3,63192839504889E-02 
477	 3,72414448909016E-02 
478	 3,61807235751755E-02 
479	 3,35408934341377E-02 
480	 3,31599889950553E-02 
481	 3,61397968019608E-02 
482	 3,61358867033393E-02 
483	 3,46480021963812E-02 
484	 3,49117863030572E-02 
485	 3,47234232594375E-02 
486	 3,39999385701876E-02 
487	 3,46089303007986E-02 
488	 3,46867100387748E-02 
489	 3,31094445886692E-02 
490	 3,38453319759348E-02 
491	 0,035914080586822 
492	 3,56225670116316E-02 
493	 3,54303839014428E-02 
494	 3,59472544955293E-02 
495	 0,035642332252683 
496	 3,59724597422809E-02 
497	 3,85977555860481E-02 
498	 3,89064914596903E-02 
499	 0,036854180326336 
500	 3,53333552736835E-02 
501	 3,54767396514764E-02 
502	 3,75217765762317E-02 
503	 3,74267369739125E-02 
504	 3,61620174584981E-02 
505	 3,63806112134428E-02 
506	 0,036281282024091 
507	 3,60848902816973E-02 
508	 3,93540203117755E-02 
509	 4,08923902438682E-02 
510	 3,63644052583612E-02 
511	 3,47575142697578E-02 
512	 0,036538131723674 
513	 0,038393059291111 
514	 3,91965786874192E-02 
515	 3,85458523715464E-02 
516	 3,82697589558204E-02 
517	 3,87373329295364E-02 
518	 4,01786109776248E-02 
519	 4,08322338753293E-02 
520	 4,05510742406432E-02 
521	 4,07012004784647E-02 
522	 4,09600737764008E-02 
523	 4,11210504844276E-02 
524	 4,18346090053336E-02 
525	 4,24122808301669E-02 
526	 4,08723114739558E-02 
527	 4,05311959467017E-02 
528	 4,20607271861998E-02 
529	 4,22890180013055E-02 
530	 4,18712186883817E-02 
531	 4,18304817263642E-02 
532	 4,21960987526767E-02 
533	 4,27237775100158E-02 
534	 4,26965107733775E-02 
535	 4,19747603456062E-02 
536	 4,07599435371899E-02 
537	 4,13464742926344E-02 
538	 4,29899788705161E-02 
539	 0,043835291761686 
540	 0,044202201104448 
541	 4,40227843864661E-02 
542	 4,26875757882308E-02 
543	 4,20181395181647E-02 
544	 4,36698889594279E-02 
545	 4,44021843712196E-02 
546	 4,39655673500786E-02 
547	 4,35678558134954E-02 
548	 4,35895582625222E-02 
549	 4,41856436161124E-02 
550	 4,46110339619241E-02 
551	 4,49394425318753E-02 
552	 4,54732956512966E-02 
553	 4,53547298872808E-02 
554	 4,47061108538966E-02 
555	 4,49692579644283E-02 
556	 4,54951154096373E-02 
557	 4,57292714339542E-02 
558	 0,046243401472399 
559	 4,66829441731721E-02 
560	 4,57356152532824E-02 
561	 4,58637504204834E-02 
562	 4,75747462557158E-02 
563	 4,73570547982839E-02 
564	 4,63740837643186E-02 
565	 4,65578265966549E-02 
566	 4,69193546907848E-02 
567	 4,72372390136599E-02 
568	 4,76480496344085E-02 
569	 0,047627055558744 
570	 4,69284469832909E-02 
571	 4,69270856519985E-02 
572	 4,74651395229112E-02 
573	 4,76123956641069E-02 
574	 4,84363537496176E-02 
575	 0,049932326376287 
576	 5,02708002472261E-02 
577	 4,99530079225714E-02 
578	 0,049713966768571 
579	 5,02152650899088E-02 
580	 5,11291948338118E-02 
581	 5,08640550141868E-02 
582	 5,05503716103098E-02 
583	 5,08206564873008E-02 
584	 5,11205283590244E-02 
585	 5,15790328656882E-02 
586	 5,25834498929225E-02 
587	 5,31885204177351E-02 
588	 5,31879497037446E-02 
589	 5,31650216091245E-02 
590	 5,31153674214127E-02 
591	 5,30390272724742E-02 
592	 5,34427681072674E-02 
593	 5,40581191884139E-02 
594	 5,39175056413817E-02 
595	 5,36009024624368E-02 
596	 0,053454601613903 
597	 0,053854696673748 
598	 5,43755263339082E-02 
599	 5,43286266525816E-02 
600	 5,43871754292813E-02 
601	 5,46199464157435E-02 
602	 0,054561593104056 
603	 5,44030729418583E-02 
604	 5,43332532024989E-02 
605	 5,46695800379067E-02 
606	 5,51275113988238E-02 
607	 5,49356165939346E-02 
608	 5,44337124869997E-02 
609	 5,39022365473245E-02 
610	 5,41874863167725E-02 
611	 5,45087751422404E-02 
612	 5,38315602926777E-02 
613	 5,36803663238947E-02 
614	 5,41034832383555E-02 
615	 5,39891492141123E-02 
616	 5,36723608909832E-02 
617	 5,33978161541202E-02 
618	 5,33109151986609E-02 
619	 0,053434544191477 
620	 5,38253545853378E-02 
621	 5,36440875025701E-02 
622	 0,052953564561536 
623	 5,34901988148808E-02 
624	 5,44759500895106E-02 
625	 5,49783933793806E-02 
626	 5,43799002838079E-02 
627	 5,33423272435156E-02 
628	 5,42007176907561E-02 
629	 5,51370811511711E-02 
630	 5,51936862753205E-02 
631	 5,46679500378525E-02 
632	 5,43721252690943E-02 
633	 0,05558702008268 
634	 5,61165753136268E-02 
635	 5,56785880949629E-02 
636	 5,60053461781133E-02 
637	 5,66009059126779E-02 
638	 0,056982812615318 
639	 5,70501905805172E-02 
640	 5,69890728640174E-02 
641	 5,73706240964244E-02 
642	 0,057579804721587 
643	 5,74287968776091E-02 
644	 5,74113145037699E-02 
645	 5,74253219257238E-02 
646	 5,72756789395879E-02 
647	 5,75621421264381E-02 
648	 5,81499077768221E-02 
649	 5,81576158537103E-02 
650	 5,76411371159881E-02 
651	 5,67455344010953E-02 
652	 5,63044871930968E-02 
653	 0,056474042047202 
654	 5,73566168976215E-02 
655	 5,76973785682654E-02 
656	 5,71535680388471E-02 
657	 5,66513668068052E-02 
658	 5,59601418992568E-02 
659	 5,48266541449254E-02 
660	 5,43254112422542E-02 
661	 5,44078254214169E-02 
662	 5,43023123544633E-02 
663	 5,37100728150227E-02 
664	 5,27069298231633E-02 
665	 5,31578866362885E-02 
666	 5,40548344335828E-02 
667	 5,35106950833712E-02 
668	 5,29734185493398E-02 
669	 5,28043387777564E-02 
670	 5,27251050886426E-02 
671	 0,052761198967176 
672	 5,28836622477033E-02 
673	 5,24182760234655E-02 
674	 5,18244080073722E-02 
675	 5,25061041904904E-02 
676	 5,31485280054504E-02 
677	 5,32606002715391E-02 
678	 5,31054812521618E-02 
679	 5,28469555305363E-02 
680	 5,26620802609581E-02 
681	 5,31672831406575E-02 
682	 5,41670854043991E-02 
683	 5,46325729856362E-02 
684	 5,47209423155708E-02 
685	 5,46160066854982E-02 
686	 0,055021998883835 
687	 5,58224524109534E-02 
688	 5,66264292855567E-02 
689	 5,74133987810054E-02 
690	 5,82471264871536E-02 
691	 5,95126350016205E-02 
692	 6,09096008339965E-02 
693	 6,21380273975773E-02 
694	 6,29748069896409E-02 
695	 6,38571098740569E-02 
696	 6,60207420183141E-02 
697	 6,81897492294324E-02 
698	 6,99084012267564E-02 
699	 7,19516680257155E-02 
700	 7,41555352762946E-02 
701	 7,62229707023814E-02 
702	 7,82491643114712E-02 
703	 8,01944102784786E-02 
704	 8,18348928193912E-02 
705	 8,36215609446205E-02 
706	 8,57830774429983E-02 
707	 0,087605214967266 
708	 8,93293293580979E-02 
709	 9,16517706553958E-02 
710	 0,093334372178527 
711	 9,42815929747841E-02 
712	 9,59116550171804E-02 
713	 9,77459696416351E-02 
714	 9,92776826664976E-02 
715	 0,100643436611315 
716	 0,101869671300799 
717	 0,103055084808139 
718	 0,103828776248434 
719	 0,104196365684889 
720	 0,105132803514222 
721	 0,106340207524771 
722	 0,107320878585297 
723	 0,108064896217637 
724	 0,10864045755184 
725	 0,109321929336335 
726	 0,109984015026947 
727	 0,110563119338044 
728	 0,111194557529593 
729	 0,11176945492278 
730	 0,112069541064087 
731	 0,112292982334012 
732	 0,112541457268929 
733	 0,112923118054587 
734	 0,113363346128694 
735	 0,113774813625579 
736	 0,113927732256229 
737	 0,11400038214319 
738	 0,11457135540494 
739	 0,114988997605524 
740	 0,115060888419943 
741	 0,115240591495097 
742	 0,115416374587638 
743	 0,115425336016225 
744	 0,115602565602377 
745	 0,116011352344455 
746	 0,116701217369523 
747	 0,116862648088399 
748	 0,116238009974239 
749	 0,116363924366483 
750	 0,11705333487069 
751	 0,117741200126192 
752	 0,117928429648648 
753	 0,117690542991619 
754	 0,117984005022873 
755	 0,118352197219299 
756	 0,118432537878187 
757	 0,118164650618119 
758	 0,117841134838602 
759	 0,118055618636316 
760	 0,11837128317487 
761	 0,118630741264787 
762	 0,118826740415382 
763	 0,118993231062882 
764	 0,119160891667345 
765	 0,119281156858983 
766	 0,119275070381775 
767	 0,118840763554549 
768	 0,119037565212511 
769	 0,120017482359406 
770	 0,119934468217325 
771	 0,119545641185232 
772	 0,119911967062628 
773	 0,120218408229446 
774	 0,120289110998529 
775	 0,120062520580723 
776	 0,120298071801746 
777	 0,121205812543877 
778	 0,121241206183644 
779	 0,120838731907991 
780	 0,120893297829732 
781	 0,120916895726059 
782	 0,120914258363179 
783	 0,121331076827819 
784	 0,121589321889704 
785	 0,121387516789304 
786	 0,12168316982315 
787	 0,122088273214551 
788	 0,12163545144676 
789	 0,121742319495405 
790	 0,122526913195162 
791	 0,122623796871504 
792	 0,122471097135614 
793	 0,122440456790117 
794	 0,122248869870218 
795	 0,12214278982103 
796	 0,122744121260857 
797	 0,123157759585766 
798	 0,123134954415783 
799	 0,123137205593078 
800	 0,123134234783748 
801	 0,12310943757982 
802	 0,123557684617128 
803	 0,124158277421994 
804	 0,123851789563913 
805	 0,123626546615272 
806	 0,123801385004561 
807	 0,123988779194993 
808	 0,124028845387182 
809	 0,123795894895026 
810	 0,123615935576804 
811	 0,123702273299652 
812	 0,124490423114455 
813	 0,124899182292272 
814	 0,124605100266074 
815	 0,124875226776003 
816	 0,125115555813878 
817	 0,124530776136184 
818	 0,124432793525652 
819	 0,124788084899273 
820	 0,124484033182673 
821	 0,124593531502071 
822	 0,125398387272695 
823	 0,125264380896448 
824	 0,124848749224471 
825	 0,125192219104299 
826	 0,125557568987312 
827	 0,12575661116418 
828	 0,125749075822731 
829	 0,125772853027447 
830	 0,125917100656394 
831	 0,125829438984712 
832	 0,125696945534419 
833	 0,125817577738277 
834	 0,126051984672767 
835	 0,126279643959845 
836	 0,126216938844286 
837	 0,126258730403314 
838	 0,126557170488571 
839	 0,126569376127692 
840	 0,126393746384851 
841	 0,126255493913581 
842	 0,126247991666108 
843	 0,126318958603896 
844	 0,126074398752516 
845	 0,126396638420565 
846	 0,127491168830965 
847	 0,127216537825922 
848	 0,126361948346637 
849	 0,126367321397557 
850	 0,126715171617685 
851	 0,127081811015352 
852	 0,126727647949309 
853	 0,12671001849965 
854	 0,127414875470633 
855	 0,127238021231105 
856	 0,126752320807158 
857	 0,126970629053712 
858	 0,126974329917787 
859	 0,126852444640888 
860	 0,127736986435357 
861	 0,127873319056849 
862	 0,12664633734594 
863	 0,12641828507258 
864	 0,127061072383819 
865	 0,128033262350873 
866	 0,12789944747691 
867	 0,126919278460188 
868	 0,127040008281029 
869	 0,127406965797992 
870	 0,127629341587776 
871	 0,127877878333824 
872	 0,12793393786425 
873	 0,127557194069554 
874	 0,127494135853791 
875	 0,127708909401031 
876	 0,127581781371507 
877	 0,127378417267829 
878	 0,127309109058559 
879	 0,127911287898566 
880	 0,128519011857285 
881	 0,1283985453929 
882	 0,128234380327054 
883	 0,128245472645733 
884	 0,128642713992186 
885	 0,128933124681882 
886	 0,128949292411783 
887	 0,129018612737584 
888	 0,128682552870691 
889	 0,12762912346382 
890	 0,127624109153005 
891	 0,12823834518434 
892	 0,127725598587443 
893	 0,127940876868955 
894	 0,129047541094422 
895	 0,129086916872891 
896	 0,128821205943864 
897	 0,128943413002871 
898	 0,129775172504553 
899	 0,13028539095221 
900	 0,128524617476263 
901	 0,127963354568264 
902	 0,128995038125639 
903	 0,129004877276484 
904	 0,128733040253038 
905	 0,128666512835603 
906	 0,128853855031954 
907	 0,128971551240346 
908	 0,128554788624676 
909	 0,128582810407255 
910	 0,129125774082564 
911	 0,129643952797697 
912	 0,129880641571722 
913	 0,129735281328108 
914	 0,129612494497673 
915	 0,129327947717597 
916	 0,128708177319627 
917	 0,129141376130041 
918	 0,130170817587329 
919	 0,129922933551339 
920	 0,12976543025894 
921	 0,129964463302346 
922	 0,129409095606457 
923	 0,129166960014609 
924	 0,130035803025053 
925	 0,130464555409141 
926	 0,130358807894307 
927	 0,130018644536589 
928	 0,129917060472553 
929	 0,130053495423627 
930	 0,129756419010749 
931	 0,129544184636524 
932	 0,129757495059045 
933	 0,130520228524 
934	 0,131105200770576 
935	 0,130614280870897 
936	 0,130108386442496 
937	 0,12991179660445 
938	 0,130345868088118 
939	 0,129854543327705 
940	 0,128206323133901 
941	 0,1274395953296 
942	 0,127655886689105 
943	 0,128730213035717 
944	 0,129653260253176 
945	 0,130196649659021 
946	 0,130341160560825 
947	 0,130589207779089 
948	 0,131004185671451 
949	 0,131282637740706 
950	 0,131018099128312 
951	 0,130155379937788 
952	 0,129935839390684 
953	 0,129966259535142 
954	 0,129635418488756 
955	 0,129795421165063 
956	 0,130330970560131 
957	 0,130619909223765 
958	 0,130274563899813 
959	 0,129232200925628 
960	 0,127719256985553 
961	 0,127731221969563 
962	 0,130294987141474 
963	 0,13090803817391 
964	 0,130353696047591 
965	 0,130851822704585 
966	 0,130126742087837 
967	 0,128436674693789 
968	 0,128160171390672 
969	 0,128174216544263 
970	 0,128247632031178 
971	 0,129833024855034 
972	 0,130776134730548 
973	 0,129237492127533 
974	 0,127735445786147 
975	 0,127337557897618 
976	 0,129090529989063 
977	 0,129783649857594 
978	 0,129113023338924 
979	 0,129427035757418 
980	 0,13033492764082 
981	 0,131171083146296 
982	 0,129204630121281 
983	 0,127180201843944 
984	 0,128015580681803 
985	 0,129400395372172 
986	 0,130622973726673 
987	 0,131180927518968 
988	 0,131709244729955 
989	 0,131957952583235 
990	 0,130211561600064 
991	 0,129518297164332 
992	 0,131073546665342 
993	 0,131400213670954 
994	 0,131108803133117 
995	 0,131171823142728 
996	 0,131863974250082 
997	 0,132445139810382 
998	 0,131319278177222 
999	 0,131721197495938 
1000	 0,133272161233106 
1001	 0,130841125066464 
1002	 0,13014192210158 
1003	 0,133138183120729 
1004	 0,133156279830214 
1005	 0,133027326445172 
1006	 0,135473723647484 
1007	 0,133324289409405 
1008	 0,130524534079372 
1009	 0,136116930888496 
1010	 0,13686481581861 
1011	 0,132422598883529 
1012	 0,133778275185296 
1013	 0,134913189599941 
1014	 0,134205876854541 
1015	 0,137477602450725 
1016	 0,139436170296918 
1017	 0,135848442753505 
1018	 0,131735192642802 
1019	 0,130666229514915 
1020	 0,136409624022251 
1021	 0,138258299479026 
1022	 0,136013456576269 
1023	 0,136784213004986 
1024	 0,137491017813925 
1025	 0,137180587248259 
1026	 0,135849081831367 
1027	 0,134342425170863 
1028	 0,13362416726312 
1029	 0,13581365446285 
1030	 0,137979192631681 
1031	 0,136783030135877 
1032	 0,138004148341923 
1033	 0,139089080696714 
1034	 0,132722070397239 
1035	 0,131083849414583 
1036	 0,135829665223902 
1037	 0,138958622292407 
1038	 0,140626547941479 
1039	 0,141372862109569 
1040	 0,145944581536555 
1041	 0,14466536571477 
1042	 0,132192093318979 
1043	 0,133085116360977 
1044	 0,138749324519933 
1045	 0,133376205461503 
1046	 0,138030907422535 
1047	 0,1474378313725 
1048	 0,139196292724054 
1049	 0,131717603390089 
1050	 0,130552113785337 
1051	 0,134605276911345 
1052	 0,136308635812246 
1053	 0,133100497174803 
1054	 0,133130568468736 
1055	 0,141175065076279 
1056	 0,157032704907927 
1057	 0,150146445683322 
1058	 0,134814324718789 
1059	 0,13730945058738 
1060	 0,138753511938537 
1061	 0,139736944779417 
1062	 0,150788754772655 
1063	 0,149813083202263 
1064	 0,13920110254298 
1065	 0,15389551653959 
1066	 0,155893785464457 
1067	 0,134987710116621 
1068	 0,135402533191366 
1069	 0,139740353843951 
1070	 0,13505425931639 
1071	 0,141731973329092 
1072	 0,150357640731589 
1073	 0,147566643478735 
1074	 0,138795948711398 
1075	 0,13124347683723 
