Wavelength	CAMFROU00379.asd
325	 0,107618425104123 
326	-7,92716008330562E-02 
327	-7,43673128281525E-02 
328	 0,121856699690422 
329	 0,238207419980188 
330	 0,197351382849003 
331	-5,22880096564996E-02 
332	-3,70246181182472E-02 
333	 0,155318220147119 
334	 7,42058128813046E-02 
335	 3,61585442148926E-02 
336	 8,43616936519037E-02 
337	 1,97438591144935E-02 
338	-1,25980072243118E-03 
339	 0,121843366803707 
340	 0,117146389561557 
341	 1,69865450518404E-03 
342	-0,03565848957558 
343	-5,27700910575667E-02 
344	-5,54976630933834E-02 
345	 3,78452628931467E-02 
346	 0,107556342319342 
347	 8,99321007955572E-02 
348	 5,96979790241414E-02 
349	 3,87223868184417E-02 
350	 6,10878398548837E-02 
351	 5,50983096113167E-02 
352	 1,06123968962313E-02 
353	 3,72396293542375E-02 
354	 7,05082308185972E-02 
355	 0,037441825551719 
356	 3,40374840495661E-02 
357	 5,34270716134455E-02 
358	 9,83296498534197E-03 
359	 1,32330290457553E-03 
360	 6,01058865900505E-02 
361	 7,27247996078744E-02 
362	 5,13991581820874E-02 
363	 2,40125738902481E-02 
364	 2,51686084730828E-02 
365	 4,86453914981018E-02 
366	 4,04623242246745E-02 
367	 2,37089733587246E-02 
368	 1,58381713238292E-02 
369	 2,98990951484487E-02 
370	 4,39243364768612E-02 
371	 2,31004941999429E-02 
372	 0,024786181140947 
373	 4,94328215287456E-02 
374	 2,37535750021667E-02 
375	 2,38643916922635E-04 
376	 2,18175272981771E-02 
377	 3,85677105948048E-02 
378	 4,63408519452035E-02 
379	 4,92940094878006E-02 
380	 5,38000338260545E-02 
381	 5,93588912112801E-02 
382	 5,39415025525824E-02 
383	 4,48606211318076E-02 
384	 3,97477030880746E-02 
385	 3,36314281050701E-02 
386	 2,60363455322289E-02 
387	 1,74515124910208E-02 
388	 2,00440400756395E-02 
389	 3,45350197371214E-02 
390	 4,58945695495801E-02 
391	 4,33549218575183E-02 
392	 1,56850698330819E-02 
393	 1,88139988598288E-02 
394	 0,046981383700243 
395	 4,73763479227779E-02 
396	 4,13579163505812E-02 
397	 3,95657031836482E-02 
398	 3,54039133302392E-02 
399	 2,97849944769594E-02 
400	 2,47687678016083E-02 
401	 2,18003077056312E-02 
402	 2,28648131311328E-02 
403	 3,38643750132764E-02 
404	 4,26742270704588E-02 
405	 4,14660563578288E-02 
406	 0,033970919416071 
407	 2,85505315212326E-02 
408	 4,14920509001862E-02 
409	 4,56267627786199E-02 
410	 3,60917924591627E-02 
411	 2,98567779191882E-02 
412	 0,024405417171772 
413	 0,017264987517505 
414	 1,96719388966966E-02 
415	 0,028661720274113 
416	 3,27495199454637E-02 
417	 3,76746154091595E-02 
418	 4,38034251702661E-02 
419	 4,12873074871032E-02 
420	 3,54203484517482E-02 
421	 3,39280044648718E-02 
422	 0,035406197234592 
423	 0,037497766743747 
424	 3,33916031466464E-02 
425	 3,00699866948034E-02 
426	 3,14043837613907E-02 
427	 3,06909180560826E-02 
428	 0,029502337149689 
429	 0,03238311253761 
430	 3,35060289428774E-02 
431	 3,19749382529649E-02 
432	 3,17515527679414E-02 
433	 3,29036184599947E-02 
434	 3,50976843361679E-02 
435	 3,49704408419578E-02 
436	 3,23930389365359E-02 
437	 2,78567531354042E-02 
438	 2,70585660532878E-02 
439	 3,14902999326448E-02 
440	 3,43851663444062E-02 
441	 3,48566185850419E-02 
442	 3,26621105545508E-02 
443	 3,43813043321184E-02 
444	 3,84945454446498E-02 
445	 3,39150544641064E-02 
446	 3,06958638895228E-02 
447	 3,43924899686798E-02 
448	 0,034019335535323 
449	 3,15824475578241E-02 
450	 0,033402203514553 
451	 3,70787867394761E-02 
452	 4,05230753382448E-02 
453	 3,81945778101801E-02 
454	 3,45497928785592E-02 
455	 3,40788215302011E-02 
456	 3,84498320876136E-02 
457	 4,37654394362186E-02 
458	 3,89124975934061E-02 
459	 3,55316833645045E-02 
460	 0,03791328213505 
461	 3,87502962310211E-02 
462	 3,76001701609786E-02 
463	 3,47672029090651E-02 
464	 3,59797183017415E-02 
465	 4,02161823252133E-02 
466	 3,85243962957109E-02 
467	 3,65999700203677E-02 
468	 3,80520377005531E-02 
469	 3,92871845139139E-02 
470	 0,039238303803894 
471	 3,65710319393368E-02 
472	 3,56744488242108E-02 
473	 3,78015505541867E-02 
474	 4,11649258132761E-02 
475	 4,35422956339847E-02 
476	 0,042887147242205 
477	 3,85563317073928E-02 
478	 3,36923293087855E-02 
479	 3,65908950794139E-02 
480	 4,13004524120459E-02 
481	 4,40395425292249E-02 
482	 4,03016736002928E-02 
483	 3,54773685994404E-02 
484	 3,81282108120511E-02 
485	 3,94078901556911E-02 
486	 3,78556917345327E-02 
487	 3,71800380833258E-02 
488	 3,79111601133507E-02 
489	 4,01318369531103E-02 
490	 4,07698198553993E-02 
491	 3,98444244556794E-02 
492	 3,83565098412622E-02 
493	 3,83656001877642E-02 
494	 4,00897193688285E-02 
495	 3,96393803963482E-02 
496	 3,95786660873505E-02 
497	 4,29998070988216E-02 
498	 4,25921432628004E-02 
499	 3,90683649722091E-02 
500	 3,97565713538215E-02 
501	 0,040722277899213 
502	 3,99836157665015E-02 
503	 4,04105515407695E-02 
504	 4,13021967925492E-02 
505	 4,08143828450727E-02 
506	 4,05791690039504E-02 
507	 4,12951096830564E-02 
508	 4,40523873320578E-02 
509	 4,55505239635378E-02 
510	 4,30759330092887E-02 
511	 4,23545007190033E-02 
512	 4,35843696487976E-02 
513	 4,42529390578132E-02 
514	 4,49026579724367E-02 
515	 4,55127280180707E-02 
516	 4,47577689549568E-02 
517	 4,43744590034766E-02 
518	 4,69420791493482E-02 
519	 4,79027641465152E-02 
520	 4,67689894102072E-02 
521	 4,62450177335498E-02 
522	 0,046652884729017 
523	 4,80430172726362E-02 
524	 4,86507195098726E-02 
525	 4,84108782396801E-02 
526	 4,77835846133743E-02 
527	 4,75732183010725E-02 
528	 4,80036612911917E-02 
529	 4,83421270952454E-02 
530	 4,83915495459333E-02 
531	 4,80137637211587E-02 
532	 4,84886169782586E-02 
533	 0,04957218134672 
534	 4,96819804036748E-02 
535	 4,91299048083655E-02 
536	 4,82420447790027E-02 
537	 4,79768631869188E-02 
538	 4,85917291688544E-02 
539	 5,04467195829379E-02 
540	 5,09787105579007E-02 
541	 4,96865817681195E-02 
542	 4,83650220072959E-02 
543	 4,80798695009283E-02 
544	 4,96616722427132E-02 
545	 5,07784572163951E-02 
546	 5,10281418042593E-02 
547	 5,08053572175846E-02 
548	 5,06311871151233E-02 
549	 5,08322413625222E-02 
550	 5,14874237753174E-02 
551	 5,20580947073647E-02 
552	 5,17048271272875E-02 
553	 5,15382458828561E-02 
554	 5,18000300767591E-02 
555	 5,20859958269924E-02 
556	 5,21323587197309E-02 
557	 0,051842326934483 
558	 0,053035574202626 
559	 5,46014730229182E-02 
560	 5,27818448278485E-02 
561	 5,17555644934789E-02 
562	 5,28926675908193E-02 
563	 5,33487712968347E-02 
564	 5,31831882800308E-02 
565	 5,28163740713085E-02 
566	 5,28361299699191E-02 
567	 5,32349877449598E-02 
568	 5,32733755023857E-02 
569	 0,05344369741185 
570	 5,40291239540525E-02 
571	 5,42576229842508E-02 
572	 5,42625022275784E-02 
573	 5,45340183631623E-02 
574	 5,52773959762974E-02 
575	 5,63587258247444E-02 
576	 5,66840467660773E-02 
577	 5,65873531448118E-02 
578	 0,056550545544204 
579	 0,057005212840618 
580	 0,05776703332849 
581	 5,78238734964623E-02 
582	 5,81593754684682E-02 
583	 5,92178225898298E-02 
584	 5,97851814047193E-02 
585	 6,01454926573516E-02 
586	 6,11145303380468E-02 
587	 6,17501772517808E-02 
588	 6,17927917261567E-02 
589	 6,14004067915003E-02 
590	 6,12585386756354E-02 
591	 6,19644562658227E-02 
592	 6,27573387829523E-02 
593	 6,32914207996791E-02 
594	 6,31222642697156E-02 
595	 6,28199065265759E-02 
596	 6,27214031090858E-02 
597	 0,062962014735098 
598	 6,34169685193138E-02 
599	 0,063894076857516 
600	 6,40269837669535E-02 
601	 6,37862174180692E-02 
602	 6,36261339721351E-02 
603	 6,31742022012989E-02 
604	 6,22381311424157E-02 
605	 6,21058751761378E-02 
606	 6,26532292806334E-02 
607	 6,31067054580261E-02 
608	 6,32225548113855E-02 
609	 6,28400704122101E-02 
610	 6,18917764642771E-02 
611	 6,12959033494832E-02 
612	 6,21415854658883E-02 
613	 6,23850832232099E-02 
614	 6,18198991431337E-02 
615	 6,15845839789213E-02 
616	 6,15062429033489E-02 
617	 6,14783233284366E-02 
618	 6,14667281883802E-02 
619	 6,14522969775651E-02 
620	 6,14282355547402E-02 
621	 6,13291481997405E-02 
622	 6,12139077989424E-02 
623	 6,14308537422535E-02 
624	 0,061820694374823 
625	 6,21782029934232E-02 
626	 6,19735370714776E-02 
627	 6,15352547605838E-02 
628	 6,21750568556545E-02 
629	 6,27867804581038E-02 
630	 0,062814945483027 
631	 6,25974771004686E-02 
632	 6,27320911445834E-02 
633	 6,41751450273913E-02 
634	 6,44488217428396E-02 
635	 6,34569416247437E-02 
636	 0,064033171204832 
637	 6,50700893572811E-02 
638	 0,065556554088888 
639	 6,59537602749497E-02 
640	 6,63063006498428E-02 
641	 6,66345805886431E-02 
642	 6,65620739845159E-02 
643	 6,61154125190396E-02 
644	 6,63855155710559E-02 
645	 0,066974124390538 
646	 6,72388373866196E-02 
647	 6,70794777517127E-02 
648	 0,066717080979458 
649	 6,70870567773499E-02 
650	 6,73283968210478E-02 
651	 0,066879523019058 
652	 6,62203840064861E-02 
653	 6,56870988953444E-02 
654	 6,58042342536836E-02 
655	 6,58579068026162E-02 
656	 6,55622270249303E-02 
657	 6,49751911934569E-02 
658	 6,40282493677375E-02 
659	 6,26830824605676E-02 
660	 6,16432942252315E-02 
661	 6,10216319816071E-02 
662	 6,06330464218682E-02 
663	 6,01243726086519E-02 
664	 5,94070434322091E-02 
665	 5,93514276037577E-02 
666	 5,95374745518976E-02 
667	 5,91702427779608E-02 
668	 5,87834776642718E-02 
669	 5,84756892524623E-02 
670	 5,79890375399599E-02 
671	 5,77066117103639E-02 
672	 5,79003161613554E-02 
673	 5,79502532489866E-02 
674	 5,78945073903652E-02 
675	 5,81598544162297E-02 
676	 5,81978329403872E-02 
677	 5,78701873995743E-02 
678	 5,75572911879252E-02 
679	 5,75700732521909E-02 
680	 5,82155616888671E-02 
681	 5,86882314153074E-02 
682	 5,88988708280295E-02 
683	 5,91990715621548E-02 
684	 0,059800145238184 
685	 6,08243926287497E-02 
686	 6,20798798071206E-02 
687	 6,33748848947244E-02 
688	 6,44339757315696E-02 
689	 0,065649991127593 
690	 6,71399322311992E-02 
691	 6,88000146371554E-02 
692	 7,05892369687179E-02 
693	 7,25072914551529E-02 
694	 7,50671699052536E-02 
695	 7,81606605922055E-02 
696	 8,13221871275457E-02 
697	 8,44225083703092E-02 
698	 8,74603463664719E-02 
699	 9,09777806491222E-02 
700	 9,46510319779175E-02 
701	 9,79991442479511E-02 
702	 0,101316854103054 
703	 0,104655552209466 
704	 0,107951619517942 
705	 0,111239300837855 
706	 0,114469050815279 
707	 0,117131476050614 
708	 0,11941657592563 
709	 0,121765542225592 
710	 0,124253657777673 
711	 0,126817639317178 
712	 0,128964217336253 
713	 0,131008370092422 
714	 0,133239388800375 
715	 0,135266188919558 
716	 0,136999638778818 
717	 0,138429958141951 
718	 0,139692950287722 
719	 0,140883219355729 
720	 0,142126175669467 
721	 0,143282427685268 
722	 0,144162578487891 
723	 0,145092374059793 
724	 0,146097849192209 
725	 0,146958724108993 
726	 0,147773775822762 
727	 0,148598216608145 
728	 0,14937401978064 
729	 0,14999403190195 
730	 0,150273009915895 
731	 0,150635040411714 
732	 0,151171533712774 
733	 0,151594241381764 
734	 0,152057833935567 
735	 0,152680285963117 
736	 0,153088001391581 
737	 0,153335190889094 
738	 0,153769793820756 
739	 0,153959765528246 
740	 0,153874676045684 
741	 0,154265525360833 
742	 0,154827294205112 
743	 0,155141813371571 
744	 0,155640009135585 
745	 0,156184240833955 
746	 0,156093737027804 
747	 0,155911310206692 
748	 0,155966814335251 
749	 0,156292088143168 
750	 0,156764025501197 
751	 0,157197649921714 
752	 0,157340613167348 
753	 0,157269689333003 
754	 0,157601052360267 
755	 0,157874452083292 
756	 0,157784508388944 
757	 0,157793817803429 
758	 0,1580548861267 
759	 0,158763396884187 
760	 0,159154070233774 
761	 0,15908312723658 
762	 0,159262168010657 
763	 0,159457374583343 
764	 0,159451416304948 
765	 0,15993657059837 
766	 0,160585966842364 
767	 0,160144851733637 
768	 0,160086730527443 
769	 0,160800661105402 
770	 0,160860628045283 
771	 0,160661363323362 
772	 0,160803999227624 
773	 0,161085976767326 
774	 0,161354627304889 
775	 0,161226793534617 
776	 0,161322190950959 
777	 0,161842232357776 
778	 0,161752686374247 
779	 0,161442125184175 
780	 0,161639433758369 
781	 0,161950921739025 
782	 0,162248478989006 
783	 0,162451501999365 
784	 0,162627310048872 
785	 0,162820322686393 
786	 0,163052318880649 
787	 0,163131901525285 
788	 0,162670568762084 
789	 0,162817738395558 
790	 0,163653260796369 
791	 0,16397167924291 
792	 0,16393084654207 
793	 0,163723674179421 
794	 0,163729044290367 
795	 0,163934040883044 
796	 0,164136444686409 
797	 0,164396789848447 
798	 0,164662869755881 
799	 0,164617781109318 
800	 0,164746190288752 
801	 0,165448790732269 
802	 0,165633402109957 
803	 0,165334355054656 
804	 0,165137199368969 
805	 0,165187616637541 
806	 0,165485258169977 
807	 0,16549131706563 
808	 0,165503867476745 
809	 0,165862902383261 
810	 0,166060020318156 
811	 0,166118694606688 
812	 0,166428834775913 
813	 0,166658071012079 
814	 0,16668552054945 
815	 0,166664752081946 
816	 0,166747554415894 
817	 0,167085269487127 
818	 0,167373889979052 
819	 0,16750455147704 
820	 0,167398187705951 
821	 0,167281110917479 
822	 0,167268829350028 
823	 0,167217198132891 
824	 0,167353803990526 
825	 0,167967386113788 
826	 0,168450572266423 
827	 0,168641961823097 
828	 0,168571307106351 
829	 0,168516831823138 
830	 0,168578977590695 
831	 0,168265804265303 
832	 0,167928168395108 
833	 0,168097634140478 
834	 0,168526565227515 
835	 0,16899536548294 
836	 0,169032871463864 
837	 0,169049571612649 
838	 0,169260428871655 
839	 0,169541988140989 
840	 0,169570861290232 
841	 0,168930264409833 
842	 0,168575548045757 
843	 0,168698471217178 
844	 0,168991722054811 
845	 0,169372315186322 
846	 0,169721952277623 
847	 0,169745846657081 
848	 0,169592452344585 
849	 0,169519012576708 
850	 0,169584078632661 
851	 0,169729910605885 
852	 0,169667783117754 
853	 0,169694622409007 
854	 0,169931881855229 
855	 0,170043956690582 
856	 0,170055794711938 
857	 0,170055703475716 
858	 0,169944292824938 
859	 0,169861166698268 
860	 0,170369153865917 
861	 0,17053465096185 
862	 0,170007750484443 
863	 0,16992732192478 
864	 0,170275349345795 
865	 0,170845237021925 
866	 0,170739799420813 
867	 0,170067582690696 
868	 0,169837636830369 
869	 0,169885969319257 
870	 0,17014188824273 
871	 0,170491197924714 
872	 0,170928556404838 
873	 0,171440087123819 
874	 0,171044254682239 
875	 0,170189105115078 
876	 0,17081636705574 
877	 0,171224450601794 
878	 0,170869298334915 
879	 0,171037826745917 
880	 0,17136439134188 
881	 0,171368803113309 
882	 0,171527085831807 
883	 0,171688429267108 
884	 0,171138515479488 
885	 0,171069428322415 
886	 0,171675665283521 
887	 0,171528876400125 
888	 0,171162183184214 
889	 0,171163118761331 
890	 0,171510814774043 
891	 0,171815457566863 
892	 0,171197663230036 
893	 0,170841394261591 
894	 0,171083787418422 
895	 0,171509173027994 
896	 0,171794063592894 
897	 0,171787038654102 
898	 0,172661192916244 
899	 0,173491377979113 
900	 0,172338728200881 
901	 0,171541138360856 
902	 0,171664487484489 
903	 0,17204510916556 
904	 0,172215445518217 
905	 0,172007238998198 
906	 0,172664243413715 
907	 0,173412050872842 
908	 0,172971340831332 
909	 0,172521306013213 
910	 0,172471815904583 
911	 0,173204523993037 
912	 0,173392662097854 
913	 0,172667329936413 
914	 0,173101172242975 
915	 0,173491711838369 
916	 0,172421576432811 
917	 0,172273267495363 
918	 0,172881551216068 
919	 0,172474757420859 
920	 0,172831203505927 
921	 0,174102471367395 
922	 0,174135399991924 
923	 0,173566596016737 
924	 0,173074168032332 
925	 0,17298259066485 
926	 0,173234068183272 
927	 0,173577792221482 
928	 0,174016101882107 
929	 0,174351920409219 
930	 0,173990689360456 
931	 0,173587075814066 
932	 0,173551952524563 
933	 0,173790724623087 
934	 0,173878822181332 
935	 0,173323733773952 
936	 0,173311685736444 
937	 0,173753000308669 
938	 0,173655064562429 
939	 0,173305276642653 
940	 0,172866635598519 
941	 0,172593275758722 
942	 0,172683959060751 
943	 0,173173472546056 
944	 0,172661047393272 
945	 0,171880280290982 
946	 0,172594382231281 
947	 0,173571672454574 
948	 0,174100934400641 
949	 0,172962163448556 
950	 0,172224669769196 
951	 0,172929309059691 
952	 0,17335687572127 
953	 0,173166806690134 
954	 0,1722367887894 
955	 0,171865786357858 
956	 0,172021352507806 
957	 0,171892805205561 
958	 0,171223387672455 
959	 0,17022048085077 
960	 0,170217396421516 
961	 0,171094030225621 
962	 0,1724032570538 
963	 0,17164345714318 
964	 0,170455460517917 
965	 0,171836251675835 
966	 0,17175399673765 
967	 0,170250954092607 
968	 0,170718535576912 
969	 0,170866686879048 
970	 0,170194791617086 
971	 0,171368158109386 
972	 0,172753250225594 
973	 0,172688358426064 
974	 0,171336188794401 
975	 0,170068092100996 
976	 0,171217888914589 
977	 0,172345106720788 
978	 0,172926859141958 
979	 0,17387499885481 
980	 0,173894254715662 
981	 0,172585818155094 
982	 0,171620964981838 
983	 0,170853900599486 
984	 0,170129500487741 
985	 0,17102778590627 
986	 0,172923880721659 
987	 0,174151471049377 
988	 0,174863893708949 
989	 0,174835515333285 
990	 0,173183535006817 
991	 0,172711828307293 
992	 0,174487891915018 
993	 0,175182574899309 
994	 0,174672132942248 
995	 0,173378063919349 
996	 0,17428370308907 
997	 0,176225115229315 
998	 0,175920265264828 
999	 0,174444219290829 
1000	 0,172756915292467 
1001	 0,173041864337773 
1002	 0,173757380159117 
1003	 0,174401956841104 
1004	 0,177166196439173 
1005	 0,178879529873075 
1006	 0,176683412087377 
1007	 0,174664620265578 
1008	 0,174696595272838 
1009	 0,178608912583205 
1010	 0,181307740498517 
1011	 0,181419306702082 
1012	 0,179625645927724 
1013	 0,178141793923682 
1014	 0,178349052200458 
1015	 0,181092177190669 
1016	 0,183001285798018 
1017	 0,181245945432494 
1018	 0,176484958332775 
1019	 0,175005985222222 
1020	 0,185318235415898 
1021	 0,187845160491055 
1022	 0,182430214359713 
1023	 0,182409399640623 
1024	 0,181731225583947 
1025	 0,179766267692319 
1026	 0,181567965242669 
1027	 0,183427610234947 
1028	 0,182981579248438 
1029	 0,182447375924313 
1030	 0,183716354670531 
1031	 0,18816833742218 
1032	 0,188103905397648 
1033	 0,183952982548956 
1034	 0,179465336242801 
1035	 0,179274708867143 
1036	 0,183426688719035 
1037	 0,186615620994093 
1038	 0,184711711378913 
1039	 0,178647153081381 
1040	 0,18468062915677 
1041	 0,19096066602794 
1042	 0,187815242990775 
1043	 0,186599274346989 
1044	 0,183863153211055 
1045	 0,173770755881282 
1046	 0,177810040229065 
1047	 0,191021674143105 
1048	 0,191044828178654 
1049	 0,18372721104026 
1050	 0,17575953247908 
1051	 0,188315126369828 
1052	 0,193006303549283 
1053	 0,18003591219751 
1054	 0,179569687414689 
1055	 0,187326301251412 
1056	 0,196365645836256 
1057	 0,198659762840572 
1058	 0,194112516385899 
1059	 0,185373573110049 
1060	 0,181256066640306 
1061	 0,183965511508395 
1062	 0,193928493259511 
1063	 0,189938621026943 
1064	 0,175582874045662 
1065	 0,188907824348748 
1066	 0,194830830953661 
1067	 0,182141532830234 
1068	 0,182606981989965 
1069	 0,185489457044567 
1070	 0,183041152025644 
1071	 0,191146860087113 
1072	 0,1968091608014 
1073	 0,184248116392549 
1074	 0,178543564291287 
1075	 0,179814463628322 
