Wavelength	CAMFROU00452.asd
325	 0,553098850996937 
326	 0,444971910603966 
327	 0,451040095925004 
328	 0,55028801272815 
329	 0,570315537907408 
330	 0,513105502260686 
331	 0,372071307783845 
332	 0,324245550683518 
333	 0,355211392099605 
334	 0,304237769834152 
335	 0,318368002190855 
336	 0,387480856563654 
337	 0,305119609934481 
338	 0,233468524069829 
339	 0,281601143868265 
340	 0,245179781136008 
341	 0,157976612980581 
342	 0,230368321672295 
343	 0,235256347005468 
344	 0,148595129270511 
345	 0,221348742124169 
346	 0,29445672527365 
347	 0,257236406629227 
348	 0,218388051318373 
349	 0,196343884817298 
350	 0,204842724125015 
351	 0,178926434263108 
352	 0,111885513892921 
353	 0,135052632631898 
354	 0,17815295636777 
355	 0,158691473118004 
356	 0,146475501687955 
357	 0,142836816128278 
358	 0,100131344370931 
359	 0,109716544192437 
360	 0,190067594887159 
361	 0,186556275477828 
362	 0,149102514259991 
363	 0,165471707312876 
364	 0,171885813390772 
365	 0,162234870755993 
366	 0,168412993522491 
367	 0,159372824053489 
368	 0,121263684240674 
369	 0,120770993610744 
370	 0,149325036807131 
371	 0,185155725305602 
372	 0,187777075335177 
373	 0,155626135180766 
374	 0,144737852871426 
375	 0,142164427122833 
376	 0,137500491097656 
377	 0,14214650431878 
378	 0,149328730024727 
379	 0,140066861285959 
380	 0,147476790475562 
381	 0,172345557250677 
382	 0,164798322442452 
383	 0,155298816315765 
384	 0,171735283054777 
385	 0,166038885890704 
386	 0,144705715875407 
387	 0,149402477162075 
388	 0,14959906390649 
389	 0,138931897450591 
390	 0,150638943002126 
391	 0,158095981420133 
392	 0,127089213587036 
393	 0,117681871101944 
394	 0,132747724722069 
395	 0,142723187798472 
396	 0,147406762869933 
397	 0,146243569201548 
398	 0,13966143097931 
399	 0,133678245299953 
400	 0,136688903141867 
401	 0,142968016111686 
402	 0,147893058252396 
403	 0,141269900275985 
404	 0,134337674194826 
405	 0,134585834506132 
406	 0,13692206042713 
407	 0,141186341138976 
408	 0,150154299298068 
409	 0,149155050105555 
410	 0,136705940507385 
411	 0,125517958164943 
412	 0,119328760878392 
413	 0,120892826247093 
414	 0,124405272789763 
415	 0,127166952889925 
416	 0,126071403171718 
417	 0,126946289435949 
418	 0,13092069042499 
419	 0,129668863372021 
420	 0,127025661091004 
421	 0,128727548144091 
422	 0,131126512488564 
423	 0,13196338105506 
424	 0,126130992043572 
425	 0,123256680529081 
426	 0,128188905667775 
427	 0,128390745301143 
428	 0,125211039217419 
429	 0,123763259432166 
430	 0,124249071281782 
431	 0,125996101089704 
432	 0,12503585527297 
433	 0,124586479326991 
434	 0,127253397471558 
435	 0,126168315054425 
436	 0,122210088280818 
437	 0,119876122734082 
438	 0,121980223237422 
439	 0,127795598203336 
440	 0,125000894568446 
441	 0,1204018090351 
442	 0,123806379100984 
443	 0,127765528716994 
444	 0,129212208764959 
445	 0,12368967439073 
446	 0,120605716705832 
447	 0,124961769649511 
448	 0,123750234652262 
449	 0,120438442911713 
450	 0,12473603835431 
451	 0,129592657505691 
452	 0,131895048858023 
453	 0,128294657068682 
454	 0,124977024548714 
455	 0,127573244219835 
456	 0,130700407350718 
457	 0,1325045222322 
458	 0,131079150161724 
459	 0,130408688109812 
460	 0,131581005801524 
461	 0,129467796524376 
462	 0,125891236412438 
463	 0,123799410497112 
464	 0,125811098514692 
465	 0,130219237031868 
466	 0,128785827413905 
467	 0,12713539135035 
468	 0,128804499609245 
469	 0,129790081336749 
470	 0,129826123881607 
471	 0,129493553384499 
472	 0,129316895134817 
473	 0,129354652091544 
474	 0,128471407263072 
475	 0,128521228630164 
476	 0,131184440239883 
477	 0,132302638409522 
478	 0,13166479068275 
479	 0,13114184436595 
480	 0,131287210515778 
481	 0,132034374518423 
482	 0,130508712186382 
483	 0,128530821326718 
484	 0,12918508171562 
485	 0,129583834278563 
486	 0,129271038914926 
487	 0,129812369500849 
488	 0,129578881245661 
489	 0,127644243194735 
490	 0,12821309499547 
491	 0,129707192704631 
492	 0,126538654857952 
493	 0,125630026530176 
494	 0,128347496194767 
495	 0,128055068884681 
496	 0,126890528884313 
497	 0,127780057106908 
498	 0,127697112678309 
499	 0,126360348392048 
500	 0,124703304009318 
501	 0,124112485131344 
502	 0,125289336674777 
503	 0,126634752608253 
504	 0,128006880485559 
505	 0,129758169106996 
506	 0,129906065969875 
507	 0,12872679952121 
508	 0,130220329931257 
509	 0,131494840838337 
510	 0,129989839082364 
511	 0,129730381953633 
512	 0,131076474069791 
513	 0,133252051182485 
514	 0,133777984459791 
515	 0,132031410783978 
516	 0,131897913408755 
517	 0,133066229313688 
518	 0,134549989005012 
519	 0,135099599020441 
520	 0,13458341412134 
521	 0,133918866166819 
522	 0,133827433946577 
523	 0,134693319436354 
524	 0,1348954309045 
525	 0,134388908685056 
526	 0,133563789505684 
527	 0,133375347432807 
528	 0,133945367737873 
529	 0,133829844652039 
530	 0,133155318801718 
531	 0,132213405824405 
532	 0,131758011601674 
533	 0,131982193198134 
534	 0,132967284251132 
535	 0,133287367155554 
536	 0,132280188116521 
537	 0,132133523900886 
538	 0,132620982019647 
539	 0,132783680757829 
540	 0,132713482860858 
541	 0,132420074562792 
542	 0,13189598223804 
543	 0,131717128292303 
544	 0,132404928082632 
545	 0,133253906283358 
546	 0,133806802355264 
547	 0,133249255793421 
548	 0,132855484474774 
549	 0,133165206327117 
550	 0,133117088810607 
551	 0,132832747679908 
552	 0,132645485973884 
553	 0,133130043324929 
554	 0,134092556324888 
555	 0,134130251477242 
556	 0,133762319313292 
557	 0,133453298306892 
558	 0,133035768388786 
559	 0,132492753906741 
560	 0,131744520399274 
561	 0,131254343645646 
562	 0,131104854905934 
563	 0,130430177746439 
564	 0,129728632725768 
565	 0,129739440064321 
566	 0,130237600600281 
567	 0,130956385433081 
568	 0,131283311730797 
569	 0,131292854032119 
570	 0,13113478050281 
571	 0,13165156189785 
572	 0,132733859731863 
573	 0,133850142344592 
574	 0,134988126932694 
575	 0,136056334103389 
576	 0,136889923050697 
577	 0,137633452299282 
578	 0,13846881174625 
579	 0,139820149598731 
580	 0,141430964619725 
581	 0,142233364459193 
582	 0,142910072953125 
583	 0,143879035764775 
584	 0,145132800100633 
585	 0,146610909907736 
586	 0,148245608860539 
587	 0,14936276656358 
588	 0,149961092872815 
589	 0,151160981549215 
590	 0,152175804134532 
591	 0,152281405325611 
592	 0,152803297578015 
593	 0,1535712268371 
594	 0,153379025562413 
595	 0,1530255234279 
596	 0,152986789623167 
597	 0,153763225963513 
598	 0,15457974595789 
599	 0,154237980220043 
600	 0,153664949197627 
601	 0,15320315976515 
602	 0,153091258757738 
603	 0,152882354257382 
604	 0,152247417691299 
605	 0,151690211332825 
606	 0,151319658901647 
607	 0,151232855857614 
608	 0,15084611073714 
609	 0,150035410522398 
610	 0,149577257846613 
611	 0,14922857392744 
612	 0,148609627736522 
613	 0,147903955612176 
614	 0,147241247045097 
615	 0,146883270700424 
616	 0,146591846310074 
617	 0,146216488908003 
618	 0,145871921384223 
619	 0,145621139174156 
620	 0,145582937319685 
621	 0,145360472908076 
622	 0,144994178161521 
623	 0,1453928347811 
624	 0,14581618862931 
625	 0,145487540386032 
626	 0,145442410334718 
627	 0,145736552938798 
628	 0,145812712760599 
629	 0,146109088501897 
630	 0,14681063649456 
631	 0,147591828318816 
632	 0,148222700002751 
633	 0,148403444725435 
634	 0,148720032733638 
635	 0,149321770349275 
636	 0,149972846090608 
637	 0,150690534960362 
638	 0,151510947195456 
639	 0,1527435561801 
640	 0,154050417756091 
641	 0,154450440165604 
642	 0,154932732409285 
643	 0,15581222028745 
644	 0,156424344863364 
645	 0,156786231173894 
646	 0,15700405098972 
647	 0,156877121164549 
648	 0,156558284126418 
649	 0,156779366643606 
650	 0,156640516066112 
651	 0,155589986151342 
652	 0,154469250771659 
653	 0,153501981777813 
654	 0,152881853923452 
655	 0,151938885243004 
656	 0,150564524842936 
657	 0,149588609031279 
658	 0,148243569075447 
659	 0,145748124349616 
660	 0,143700385243988 
661	 0,142229359069766 
662	 0,140544905525962 
663	 0,139012228849763 
664	 0,137843293952479 
665	 0,137243765521692 
666	 0,136726035700852 
667	 0,135504296458328 
668	 0,134548370363883 
669	 0,134027713761345 
670	 0,133360274053568 
671	 0,133011874999409 
672	 0,133270965591476 
673	 0,132911770098627 
674	 0,132061323251652 
675	 0,131481082816402 
676	 0,131307942765294 
677	 0,131575829231093 
678	 0,131967905262111 
679	 0,132184860464362 
680	 0,131929222556722 
681	 0,132041957234615 
682	 0,132673788911158 
683	 0,13357194318533 
684	 0,134505419068922 
685	 0,135456390633277 
686	 0,137412413847315 
687	 0,140125618729909 
688	 0,142903914344946 
689	 0,146202451042129 
690	 0,150104317675457 
691	 0,154324268752113 
692	 0,159234054996236 
693	 0,165162583056879 
694	 0,171815657683843 
695	 0,179108733054053 
696	 0,187033265008319 
697	 0,195428984777409 
698	 0,20427210595186 
699	 0,213961177532562 
700	 0,22412969475525 
701	 0,234252549718091 
702	 0,244587821652931 
703	 0,254950555948986 
704	 0,264646507884979 
705	 0,274134919153327 
706	 0,283632152600551 
707	 0,292488993210631 
708	 0,300871423461422 
709	 0,309234536781571 
710	 0,316990562865555 
711	 0,324107193007554 
712	 0,331333593335644 
713	 0,338079529817725 
714	 0,343804187315344 
715	 0,34936705816389 
716	 0,354768376199394 
717	 0,359600147928683 
718	 0,363932688811151 
719	 0,367859207915138 
720	 0,371834226524343 
721	 0,375518171231448 
722	 0,37843587549813 
723	 0,381438327713974 
724	 0,384478307571109 
725	 0,386580537830557 
726	 0,388583197799896 
727	 0,390967304482662 
728	 0,39307987185028 
729	 0,394754262854308 
730	 0,395822721505767 
731	 0,3971550270658 
732	 0,398918026796918 
733	 0,400480790507546 
734	 0,40181993171786 
735	 0,402927645217873 
736	 0,403706890994291 
737	 0,404312321430295 
738	 0,405134474977298 
739	 0,405918479537358 
740	 0,406566427623996 
741	 0,407066843933692 
742	 0,407553325520665 
743	 0,408174668060052 
744	 0,408538817427606 
745	 0,408682324263973 
746	 0,409013855082766 
747	 0,409252991399546 
748	 0,409311444132173 
749	 0,409599324949762 
750	 0,410164235666847 
751	 0,411025441234312 
752	 0,411284803503813 
753	 0,4109673240742 
754	 0,411198768970319 
755	 0,411611881976695 
756	 0,411899462213611 
757	 0,411894909599713 
758	 0,411766720343452 
759	 0,41190140350626 
760	 0,412137472432434 
761	 0,412433059209456 
762	 0,412811349796034 
763	 0,413208434458913 
764	 0,413552743397397 
765	 0,413738961414446 
766	 0,41368736660446 
767	 0,413119390631073 
768	 0,413199268431559 
769	 0,414148339593382 
770	 0,414211862864756 
771	 0,41391251165144 
772	 0,414041091622908 
773	 0,414281841057317 
774	 0,414505679084954 
775	 0,414462355230689 
776	 0,414634491699959 
777	 0,415180884129393 
778	 0,415348478417906 
779	 0,415245198720741 
780	 0,415160355069052 
781	 0,4150279937076 
782	 0,414915470885607 
783	 0,415071291667711 
784	 0,415160486632676 
785	 0,415007843011437 
786	 0,415163427000075 
787	 0,415407818501028 
788	 0,415212577179974 
789	 0,415033472292739 
790	 0,415095202546915 
791	 0,415766562739666 
792	 0,416129149220884 
793	 0,415534190539394 
794	 0,415320639980469 
795	 0,41557613648204 
796	 0,416024490735548 
797	 0,416119500311222 
798	 0,415776895649465 
799	 0,415696669958728 
800	 0,415740149852918 
801	 0,415747454937303 
802	 0,415848944490364 
803	 0,415935312924266 
804	 0,415664597646814 
805	 0,415461110537686 
806	 0,415520133587467 
807	 0,415901989095791 
808	 0,416333716184891 
809	 0,416525594114374 
810	 0,416725407557704 
811	 0,416904878657346 
812	 0,416837645340109 
813	 0,416823495938056 
814	 0,416964123406073 
815	 0,417000266006631 
816	 0,41700390847238 
817	 0,417093523612258 
818	 0,417663088744434 
819	 0,418380017290498 
820	 0,417943464989312 
821	 0,417830365638328 
822	 0,418579494822179 
823	 0,418755845365279 
824	 0,418566609272718 
825	 0,418467208094075 
826	 0,418632627974313 
827	 0,418963622558572 
828	 0,418892263006661 
829	 0,419148080086517 
830	 0,419930816666694 
831	 0,419923957501953 
832	 0,419494004699112 
833	 0,419335166017142 
834	 0,419792349110347 
835	 0,420557619700275 
836	 0,420295693445065 
837	 0,420008667615914 
838	 0,420209339954249 
839	 0,420368743414387 
840	 0,420468576078721 
841	 0,420563737906401 
842	 0,420404725894696 
843	 0,420112505247001 
844	 0,420260314212537 
845	 0,420511723443071 
846	 0,420681810884949 
847	 0,420914021731691 
848	 0,421031520513675 
849	 0,420780524830903 
850	 0,42087499445214 
851	 0,421194643355283 
852	 0,420622169487774 
853	 0,420504323668091 
854	 0,421350460106233 
855	 0,421239709381639 
856	 0,420814826636379 
857	 0,421231340954474 
858	 0,421387102204178 
859	 0,421289134307769 
860	 0,421902055608565 
861	 0,422118850874113 
862	 0,421521317126723 
863	 0,421388497000777 
864	 0,421693464910097 
865	 0,422198094174941 
866	 0,422027345731662 
867	 0,421401572053892 
868	 0,421681496058239 
869	 0,422044987089296 
870	 0,422183685724831 
871	 0,422769355054994 
872	 0,423258224891081 
873	 0,422964141607169 
874	 0,422650808225241 
875	 0,422617956748801 
876	 0,423192453030581 
877	 0,42370592060875 
878	 0,423829288847368 
879	 0,423644260364997 
880	 0,423321739197985 
881	 0,423069267321328 
882	 0,423330898296268 
883	 0,423860471656817 
884	 0,423759568055294 
885	 0,423663459448724 
886	 0,423854642536356 
887	 0,424616749928881 
888	 0,425073254307318 
889	 0,424460509454264 
890	 0,423960480255114 
891	 0,423788907306104 
892	 0,423871342107481 
893	 0,424224452251619 
894	 0,424657959520756 
895	 0,424421823853539 
896	 0,424171405842996 
897	 0,42444021818647 
898	 0,425053365720805 
899	 0,425426816510426 
900	 0,424590956474702 
901	 0,423938512118608 
902	 0,42397017133138 
903	 0,424850414023984 
904	 0,425510411234122 
905	 0,42533171881281 
906	 0,42524321366837 
907	 0,425276452999476 
908	 0,425308042787848 
909	 0,425563255064025 
910	 0,425873743686198 
911	 0,42557561005694 
912	 0,425117474631284 
913	 0,424958712532267 
914	 0,426484409509196 
915	 0,427671677368436 
916	 0,426307251915825 
917	 0,425602180264947 
918	 0,425931728544053 
919	 0,42655528589174 
920	 0,426878286923939 
921	 0,426637040657953 
922	 0,425969960996929 
923	 0,425579175927998 
924	 0,425961664007874 
925	 0,426030671022603 
926	 0,425811142144426 
927	 0,425656902901643 
928	 0,426021836958016 
929	 0,426580762073872 
930	 0,425619118825361 
931	 0,42474495553987 
932	 0,424829325145429 
933	 0,424759563854515 
934	 0,424470576130164 
935	 0,424050169713455 
936	 0,424102500264392 
937	 0,424386542222598 
938	 0,423863079058042 
939	 0,423070796197786 
940	 0,422415709871631 
941	 0,422789166200488 
942	 0,423170139290688 
943	 0,422666023809326 
944	 0,422280378795735 
945	 0,422242978302299 
946	 0,422694652032292 
947	 0,422602736090889 
948	 0,421632286706872 
949	 0,419669931957561 
950	 0,418622716856025 
951	 0,419286898745271 
952	 0,418870973373188 
953	 0,41807905527458 
954	 0,418075385757469 
955	 0,417710360820813 
956	 0,416953397775941 
957	 0,416378787314432 
958	 0,41530475717858 
959	 0,414041646087267 
960	 0,415064409165019 
961	 0,415728451161622 
962	 0,414210663828161 
963	 0,413404664013278 
964	 0,413863983790136 
965	 0,415742023048519 
966	 0,415487121305137 
967	 0,413379942258996 
968	 0,413300154911155 
969	 0,413646068894454 
970	 0,413877544061305 
971	 0,414770095641661 
972	 0,415140870960195 
973	 0,414039939178014 
974	 0,413399572407952 
975	 0,413466510890946 
976	 0,41404494070908 
977	 0,41414638709087 
978	 0,413743921630591 
979	 0,413833668267777 
980	 0,414158352987267 
981	 0,414515087015257 
982	 0,41446222762439 
983	 0,414530213913894 
984	 0,415160087081421 
985	 0,414311686803786 
986	 0,413294478097607 
987	 0,415277243693748 
988	 0,41719874173738 
989	 0,417879044874999 
990	 0,416491723976529 
991	 0,416326339991842 
992	 0,418552411847485 
993	 0,418531255319775 
994	 0,418287069765452 
995	 0,420077679716735 
996	 0,420138860327068 
997	 0,419462251330288 
998	 0,421269958264836 
999	 0,422249818947527 
1000	 0,421805267381773 
1001	 0,421271445774639 
1002	 0,421509137136316 
1003	 0,422795159080065 
1004	 0,423919560354934 
1005	 0,423964628986802 
1006	 0,422433692187657 
1007	 0,422207056585635 
1008	 0,423921937959949 
1009	 0,427695175557053 
1010	 0,428667937640121 
1011	 0,42654678415002 
1012	 0,424716642068262 
1013	 0,425871519422024 
1014	 0,430210116575166 
1015	 0,431381991031722 
1016	 0,431256757201579 
1017	 0,431533804284068 
1018	 0,42925710207172 
1019	 0,427940895717108 
1020	 0,433047212380588 
1021	 0,43345510795807 
1022	 0,430391615003545 
1023	 0,435407450857365 
1024	 0,436492264232252 
1025	 0,431909386956403 
1026	 0,432937589071953 
1027	 0,434044154125679 
1028	 0,432482437958546 
1029	 0,437206646071468 
1030	 0,44192372572764 
1031	 0,438872323436322 
1032	 0,437693756805222 
1033	 0,437681733671201 
1034	 0,433323514883063 
1035	 0,435806189823351 
1036	 0,443893359393756 
1037	 0,441676562103515 
1038	 0,437563491836944 
1039	 0,436208068856411 
1040	 0,441170649577581 
1041	 0,445389356588246 
1042	 0,443577400108366 
1043	 0,444155129147477 
1044	 0,445391079899853 
1045	 0,443618712035018 
1046	 0,445580268842551 
1047	 0,448733913544462 
1048	 0,443825496323802 
1049	 0,440025069540873 
1050	 0,440267500106184 
1051	 0,444211801010579 
1052	 0,447251590664002 
1053	 0,447694307684325 
1054	 0,449736507994561 
1055	 0,453715670248285 
1056	 0,459122346468712 
1057	 0,462663466589827 
1058	 0,459099374876582 
1059	 0,443427514111648 
1060	 0,443311229851683 
1061	 0,454685846964894 
1062	 0,454061924950753 
1063	 0,452105198725067 
1064	 0,450514586005466 
1065	 0,444524233264918 
1066	 0,441658563998188 
1067	 0,445635622855695 
1068	 0,456600158696627 
1069	 0,459150401092799 
1070	 0,445093308324924 
1071	 0,442354441697654 
1072	 0,448510462068009 
1073	 0,456001768090929 
1074	 0,456826361575904 
1075	 0,450831269796875 
