Wavelength	CAMFROU00430.asd
325	 0,224603899155669 
326	 0,295647456203294 
327	 0,254193993786676 
328	 0,161402141166172 
329	 0,261067384955112 
330	 0,274843262725124 
331	 1,44050377776386E-02 
332	 1,69890809044794E-02 
333	 0,211232128670858 
334	 0,17207240207657 
335	 7,92603032728251E-02 
336	 6,17237502545081E-03 
337	 4,59473764404918E-02 
338	 0,132262714806931 
339	 0,209805409939903 
340	 0,20378090440623 
341	 0,122836787903627 
342	 3,82032859840323E-02 
343	 2,21156635803605E-02 
344	 7,61340740293105E-02 
345	 0,111221890457427 
346	 0,121048698800432 
347	 0,118158561918996 
348	 9,95661520099283E-02 
349	 7,71911221996985E-02 
350	 9,50291202324295E-02 
351	 8,04171461732036E-02 
352	 2,39524604153007E-02 
353	 4,34965272799416E-02 
354	 8,36775405741856E-02 
355	 7,80458511686153E-02 
356	 0,078279713026435 
357	 8,26688062945038E-02 
358	 5,12565278152352E-02 
359	 4,57208587816827E-02 
360	 0,081279523295602 
361	 4,54791404635399E-02 
362	 1,32579701283429E-03 
363	 5,69054577681918E-02 
364	 7,53693161950851E-02 
365	 4,67601029320341E-02 
366	 5,19180119968793E-02 
367	 5,50090463446895E-02 
368	 3,63587761653015E-02 
369	 4,04125475305426E-02 
370	 5,82995105646413E-02 
371	 7,19584398433535E-02 
372	 5,86776794900983E-02 
373	 2,27423835064656E-02 
374	 1,06412943280572E-02 
375	 1,78285062842898E-02 
376	 3,59533735896361E-02 
377	 4,65763349973378E-02 
378	 4,97976783300522E-02 
379	 4,87178165636083E-02 
380	 5,87913435018357E-02 
381	 7,88704777778525E-02 
382	 8,14839995167193E-02 
383	 7,40590910082436E-02 
384	 6,54535604944636E-02 
385	 5,77163729833936E-02 
386	 4,88969577712301E-02 
387	 3,10312801573078E-02 
388	 2,97930558780922E-02 
389	 4,83790408916077E-02 
390	 5,43713608869909E-02 
391	 4,71893298695478E-02 
392	 2,94527714244002E-02 
393	 0,02539141278483 
394	 3,32511844010315E-02 
395	 3,07724010693486E-02 
396	 2,97624373925121E-02 
397	 3,56013452369424E-02 
398	 4,42316242030437E-02 
399	 4,81743091093002E-02 
400	 3,69097734660995E-02 
401	 2,66138418046644E-02 
402	 2,33575662400201E-02 
403	 3,16155600835963E-02 
404	 3,89995519022463E-02 
405	 3,79436920560585E-02 
406	 0,039559559977971 
407	 4,28950193937136E-02 
408	 4,28389178845286E-02 
409	 4,31672683327768E-02 
410	 4,24825946533175E-02 
411	 2,80680252600943E-02 
412	 1,77098831576031E-02 
413	 2,80359936107055E-02 
414	 3,80896252924039E-02 
415	 4,26787810402407E-02 
416	 0,039772725864761 
417	 0,040120171690171 
418	 4,58088674494221E-02 
419	 0,03991337665616 
420	 3,24610084015347E-02 
421	 3,79203405353976E-02 
422	 4,26783089323875E-02 
423	 0,042967752464605 
424	 3,64071997488309E-02 
425	 3,45847523508658E-02 
426	 4,25766828487809E-02 
427	 3,87373844355024E-02 
428	 2,96992800528937E-02 
429	 3,16627164627942E-02 
430	 3,74376660072844E-02 
431	 4,26262918772067E-02 
432	 3,83544526699883E-02 
433	 3,28025403083588E-02 
434	 3,34836323068318E-02 
435	 3,60946157897989E-02 
436	 3,84903324273656E-02 
437	 3,73162847441213E-02 
438	 3,62688772725503E-02 
439	 3,64308553254082E-02 
440	 3,45030789853161E-02 
441	 3,21484406676737E-02 
442	 3,17397954042009E-02 
443	 3,50094795687935E-02 
444	 3,95178192378713E-02 
445	 3,56932185777916E-02 
446	 0,033252021488531 
447	 3,75541566208491E-02 
448	 3,82406518033731E-02 
449	 3,61000216127304E-02 
450	 3,50570877614711E-02 
451	 3,53582433405682E-02 
452	 3,69928945850511E-02 
453	 3,89349841132723E-02 
454	 4,01095517570544E-02 
455	 3,97271394244635E-02 
456	 4,09837361700853E-02 
457	 4,26347931189103E-02 
458	 3,96032971128968E-02 
459	 3,72409568566753E-02 
460	 3,76703931279098E-02 
461	 0,038246243330488 
462	 3,79315657530229E-02 
463	 3,56892592810027E-02 
464	 3,58653486692204E-02 
465	 3,86362461554367E-02 
466	 4,06971680690194E-02 
467	 4,15956440120287E-02 
468	 4,12835399918924E-02 
469	 4,29580679925122E-02 
470	 4,46417151050139E-02 
471	 4,13813235266447E-02 
472	 3,92352340194415E-02 
473	 3,98444359283081E-02 
474	 4,03778681809307E-02 
475	 0,041347512120487 
476	 4,32049265010335E-02 
477	 4,11004256813862E-02 
478	 0,037021945178076 
479	 3,89470440438544E-02 
480	 4,20162582871323E-02 
481	 4,36088749623911E-02 
482	 4,28683084067008E-02 
483	 4,08764329911474E-02 
484	 0,039254237803466 
485	 4,01900889720613E-02 
486	 4,30886255819378E-02 
487	 4,33492468885814E-02 
488	 4,26712158292538E-02 
489	 4,24652697369815E-02 
490	 4,31675737118447E-02 
491	 4,36123084530858E-02 
492	 4,03771815150698E-02 
493	 4,00825972764697E-02 
494	 4,36826244253907E-02 
495	 4,25491760166719E-02 
496	 4,05225264167822E-02 
497	 4,25664350784091E-02 
498	 4,31487941044454E-02 
499	 4,19389167944928E-02 
500	 4,17139870700354E-02 
501	 0,041945921927372 
502	 4,22407187708248E-02 
503	 4,13693105476536E-02 
504	 4,10977086381179E-02 
505	 4,50341157735282E-02 
506	 4,60429620834762E-02 
507	 4,35088186476601E-02 
508	 4,50808652586854E-02 
509	 4,61946650963945E-02 
510	 4,28150344757749E-02 
511	 4,21960074131308E-02 
512	 4,44400647647438E-02 
513	 4,63416755086236E-02 
514	 4,73787028301461E-02 
515	 4,72758196327356E-02 
516	 4,66876786181285E-02 
517	 4,67250656922558E-02 
518	 4,88325379602712E-02 
519	 4,88654375392325E-02 
520	 4,68374383107834E-02 
521	 4,68347667623936E-02 
522	 4,76750810172898E-02 
523	 4,83883351128863E-02 
524	 0,04861807948086 
525	 4,85900555576701E-02 
526	 0,048996942052349 
527	 4,94619829602314E-02 
528	 4,98104017874575E-02 
529	 4,98471488273947E-02 
530	 4,97107017614779E-02 
531	 4,95803760567351E-02 
532	 5,00138830354643E-02 
533	 5,07533502804855E-02 
534	 0,050654356271911 
535	 5,01762452714351E-02 
536	 4,97299437748086E-02 
537	 5,02158325478356E-02 
538	 5,13588290101637E-02 
539	 5,25470766546432E-02 
540	 5,28904953455561E-02 
541	 5,21855066913555E-02 
542	 0,050918821528358 
543	 5,05329042858073E-02 
544	 5,22702266380529E-02 
545	 5,32347383623406E-02 
546	 5,32431497066095E-02 
547	 5,36326972009778E-02 
548	 5,39157045390779E-02 
549	 5,39533591232692E-02 
550	 5,43122483694565E-02 
551	 5,46797938751813E-02 
552	 5,44529029246475E-02 
553	 5,47106826376607E-02 
554	 5,54352863741403E-02 
555	 5,52387596573138E-02 
556	 5,49933731711223E-02 
557	 5,54397624958044E-02 
558	 5,62139395716066E-02 
559	 5,67588802491669E-02 
560	 5,57574031182993E-02 
561	 5,52784722212583E-02 
562	 5,59072267315068E-02 
563	 0,055447405231661 
564	 5,48390908669915E-02 
565	 5,55463370174268E-02 
566	 5,66205823711633E-02 
567	 5,75354455551851E-02 
568	 5,74958784387165E-02 
569	 5,70244602065884E-02 
570	 5,66291236392451E-02 
571	 5,73671919160033E-02 
572	 5,85826824229213E-02 
573	 5,84482692957317E-02 
574	 5,85414038609209E-02 
575	 5,92406367333806E-02 
576	 0,059567457601317 
577	 5,95978731972521E-02 
578	 5,95049074661573E-02 
579	 5,98017723048029E-02 
580	 6,03273545396227E-02 
581	 6,00793912061154E-02 
582	 6,02072127498759E-02 
583	 6,12270545817956E-02 
584	 6,15994805128079E-02 
585	 6,17930252847104E-02 
586	 6,30518692356531E-02 
587	 6,36462534862047E-02 
588	 0,063313942972052 
589	 6,33598787017812E-02 
590	 6,37257466240562E-02 
591	 6,42882573427663E-02 
592	 6,49280727543924E-02 
593	 6,53380024612636E-02 
594	 6,48022091838975E-02 
595	 6,41778637756195E-02 
596	 6,40075555535198E-02 
597	 6,47698150494083E-02 
598	 6,58021411464977E-02 
599	 6,60888303021114E-02 
600	 6,59106409192369E-02 
601	 6,54823328164004E-02 
602	 6,53249405221753E-02 
603	 6,53366428628207E-02 
604	 6,54224146698328E-02 
605	 6,55716885891983E-02 
606	 6,56664997816605E-02 
607	 6,54794362404314E-02 
608	 0,065084227226335 
609	 6,46502464487772E-02 
610	 6,49186342516795E-02 
611	 6,53054279453708E-02 
612	 6,50265481385335E-02 
613	 6,46007643166058E-02 
614	 6,42555217749105E-02 
615	 6,42677172528124E-02 
616	 0,064419295719092 
617	 6,45374381491774E-02 
618	 0,064425724230595 
619	 6,43274343104477E-02 
620	 6,48495385670201E-02 
621	 6,48362150190044E-02 
622	 6,41760937974445E-02 
623	 6,42692982638116E-02 
624	 6,47622329437681E-02 
625	 6,51866074724247E-02 
626	 6,51935391077175E-02 
627	 6,49109872491173E-02 
628	 6,49320692534852E-02 
629	 6,52000742005828E-02 
630	 6,56560986197915E-02 
631	 6,59812489400804E-02 
632	 6,62824543687957E-02 
633	 6,68406417775557E-02 
634	 0,066782961615158 
635	 6,62630966165772E-02 
636	 6,69810864791939E-02 
637	 6,78861731431667E-02 
638	 0,068067363421482 
639	 6,83495207287233E-02 
640	 6,86509819398413E-02 
641	 6,83436037148042E-02 
642	 6,82946319400546E-02 
643	 6,87846831087257E-02 
644	 6,91292784727867E-02 
645	 6,93556563261966E-02 
646	 6,95847713454706E-02 
647	 6,98948606281907E-02 
648	 7,01464177409207E-02 
649	 0,069839221940377 
650	 6,92719572349346E-02 
651	 6,87149137104327E-02 
652	 6,85544135996672E-02 
653	 6,87496973141176E-02 
654	 6,91229506716198E-02 
655	 6,92641948508609E-02 
656	 6,90270089269356E-02 
657	 6,86411658633197E-02 
658	 6,81289868706764E-02 
659	 6,75086964958327E-02 
660	 6,70283109379235E-02 
661	 6,65786105303704E-02 
662	 6,56430785670784E-02 
663	 6,47070213229421E-02 
664	 6,41559393425628E-02 
665	 6,47917153845852E-02 
666	 6,55376770657303E-02 
667	 6,46045424717574E-02 
668	 6,39325646029487E-02 
669	 6,38685033962297E-02 
670	 6,33125899704359E-02 
671	 6,32190777352692E-02 
672	 6,42173699272863E-02 
673	 6,41202057236797E-02 
674	 0,063372313818677 
675	 6,39946671687539E-02 
676	 6,46680654542823E-02 
677	 6,49056933538472E-02 
678	 6,48205473191397E-02 
679	 6,45514366704076E-02 
680	 6,42657322530279E-02 
681	 6,46874188241406E-02 
682	 6,56824220938142E-02 
683	 6,62631422253804E-02 
684	 6,66818434900131E-02 
685	 6,71233258156173E-02 
686	 6,78643543354719E-02 
687	 6,88108174500847E-02 
688	 6,97033681434117E-02 
689	 7,08397142344101E-02 
690	 7,22534616254345E-02 
691	 7,36938429851433E-02 
692	 0,075183943834811 
693	 7,67815505934415E-02 
694	 7,88989317989444E-02 
695	 8,14157815638217E-02 
696	 8,38732285923676E-02 
697	 0,086226772396274 
698	 8,85321999475409E-02 
699	 9,13093522065336E-02 
700	 9,44670046264351E-02 
701	 9,78135495738449E-02 
702	 0,100908834940124 
703	 0,103636394088149 
704	 0,106045116498528 
705	 0,108612127399022 
706	 0,111561554582832 
707	 0,113991298656121 
708	 0,11612379587186 
709	 0,11862697013121 
710	 0,120813013733608 
711	 0,122635230223969 
712	 0,124906372624547 
713	 0,126985749190268 
714	 0,128310996537754 
715	 0,130189189579854 
716	 0,13226702546884 
717	 0,132954388756218 
718	 0,13358467828717 
719	 0,134702150226765 
720	 0,135915809196989 
721	 0,13704957515308 
722	 0,137927687144018 
723	 0,138715750959539 
724	 0,139454987722097 
725	 0,140099967993 
726	 0,140779780131842 
727	 0,141574471192681 
728	 0,142431628081257 
729	 0,143183131287048 
730	 0,143573296479014 
731	 0,143685137487238 
732	 0,14372294701829 
733	 0,144342245533956 
734	 0,145154717850791 
735	 0,145780795252485 
736	 0,146166343965073 
737	 0,146377483362154 
738	 0,146613164976388 
739	 0,146854057032153 
740	 0,147123843445477 
741	 0,147523557960753 
742	 0,147901359375756 
743	 0,148077361175625 
744	 0,148131248636858 
745	 0,14815150157904 
746	 0,148336738764939 
747	 0,148523217587557 
748	 0,148622653253803 
749	 0,14860214555111 
750	 0,148805981907809 
751	 0,149778488190686 
752	 0,150226782381687 
753	 0,150041872611221 
754	 0,150290724900394 
755	 0,150763737950236 
756	 0,151206215042491 
757	 0,150729069298353 
758	 0,149987944394604 
759	 0,150605215520867 
760	 0,151046380111627 
761	 0,150969430501168 
762	 0,151243255057715 
763	 0,151708438504646 
764	 0,152161507347992 
765	 0,152443096621536 
766	 0,152530166277607 
767	 0,152421591089815 
768	 0,152537727675806 
769	 0,152962453855432 
770	 0,153044591619466 
771	 0,152984689810399 
772	 0,153081227361654 
773	 0,153044601023993 
774	 0,152939734203588 
775	 0,153080321958796 
776	 0,153553726276895 
777	 0,15428231087641 
778	 0,154469747878445 
779	 0,154253115054144 
780	 0,153968318833312 
781	 0,154045645394459 
782	 0,154515698929014 
783	 0,155005966690021 
784	 0,155247481968692 
785	 0,155115903492655 
786	 0,155241366598828 
787	 0,155450668009243 
788	 0,155243095282141 
789	 0,155337103887415 
790	 0,15580438549984 
791	 0,155999391130994 
792	 0,156081808726884 
793	 0,156197208816496 
794	 0,156361847489684 
795	 0,15652254543408 
796	 0,156511865999075 
797	 0,156825433830453 
798	 0,157451529930801 
799	 0,157490146526047 
800	 0,157430939124361 
801	 0,157742900003298 
802	 0,157752531659685 
803	 0,157579988006084 
804	 0,157846181840023 
805	 0,158094007633271 
806	 0,158145459548812 
807	 0,158012930640817 
808	 0,157821712252439 
809	 0,157726706173055 
810	 0,158177996876141 
811	 0,158871110790525 
812	 0,158696863275461 
813	 0,158582898843706 
814	 0,158893989338395 
815	 0,159347618422363 
816	 0,159506891293964 
817	 0,158920646533328 
818	 0,158733365362909 
819	 0,159005094572708 
820	 0,159000262759899 
821	 0,159274686652453 
822	 0,159908784897265 
823	 0,159708441233263 
824	 0,15937274439571 
825	 0,159931643805336 
826	 0,160510419857941 
827	 0,160801790157264 
828	 0,160478192294457 
829	 0,160500282111614 
830	 0,161175737640988 
831	 0,160846979992567 
832	 0,160190935627181 
833	 0,160356045716859 
834	 0,160881532839009 
835	 0,161394004848304 
836	 0,161062459139628 
837	 0,16071439651558 
838	 0,160801725901542 
839	 0,161002583380814 
840	 0,161190297808296 
841	 0,161237189984948 
842	 0,161363981817268 
843	 0,161532099634966 
844	 0,16140902274654 
845	 0,161348133662746 
846	 0,161550761896334 
847	 0,162008126603093 
848	 0,162195248927652 
849	 0,161407121192696 
850	 0,161210742519177 
851	 0,161653420449854 
852	 0,16137565713644 
853	 0,16154693338878 
854	 0,162510647685799 
855	 0,162034327705423 
856	 0,161308439882856 
857	 0,16225719187412 
858	 0,162482529945551 
859	 0,161899735704692 
860	 0,162237538574606 
861	 0,162351309895327 
862	 0,161819355272698 
863	 0,161887797757184 
864	 0,162357165887242 
865	 0,162791301472196 
866	 0,163214302942531 
867	 0,16335271363652 
868	 0,162298882105778 
869	 0,162048963073274 
870	 0,163215362007877 
871	 0,16302261581841 
872	 0,162490304710158 
873	 0,163106711427075 
874	 0,163089065753107 
875	 0,162682787870966 
876	 0,163820951860261 
877	 0,164369107017041 
878	 0,163627437857338 
879	 0,163197601564046 
880	 0,163105463420697 
881	 0,163247215846855 
882	 0,163867502437827 
883	 0,164473312717439 
884	 0,163639425461317 
885	 0,163144716670907 
886	 0,163546034663516 
887	 0,164084881410184 
888	 0,164145562296008 
889	 0,163294296184396 
890	 0,163020349386204 
891	 0,16322333724306 
892	 0,162957457330084 
893	 0,163506235332522 
894	 0,164753384878497 
895	 0,164449951738654 
896	 0,163611643859878 
897	 0,163230637035345 
898	 0,164252969130412 
899	 0,165454872626927 
900	 0,164391003047142 
901	 0,164005349203314 
902	 0,1646915351836 
903	 0,16450421222489 
904	 0,164432279434327 
905	 0,164928422688247 
906	 0,16447266144489 
907	 0,163854208801674 
908	 0,16441782857993 
909	 0,164849038990035 
910	 0,164979528377234 
911	 0,165404187612944 
912	 0,165541318948096 
913	 0,165260666842592 
914	 0,165535017646373 
915	 0,165827870184719 
916	 0,165495417744782 
917	 0,165474623149448 
918	 0,165861403966082 
919	 0,166446774807211 
920	 0,166830795702407 
921	 0,166800158447244 
922	 0,166360073831396 
923	 0,165450018312512 
924	 0,164258653071951 
925	 0,165027359296705 
926	 0,166603895273223 
927	 0,166280027928749 
928	 0,166149305657566 
929	 0,166588394857418 
930	 0,166847416207241 
931	 0,166697422379755 
932	 0,166156859803062 
933	 0,166386237295428 
934	 0,166705078223825 
935	 0,166117751131098 
936	 0,166231220318882 
937	 0,166838052357442 
938	 0,16638676973173 
939	 0,16562156407758 
940	 0,16496386686861 
941	 0,164943839069259 
942	 0,165289530134447 
943	 0,16567221848295 
944	 0,165708867086448 
945	 0,165580843144322 
946	 0,165754818112681 
947	 0,166135258350597 
948	 0,166486579389189 
949	 0,165971916216283 
950	 0,165968657150677 
951	 0,166958157539524 
952	 0,166550991363161 
953	 0,165528010643809 
954	 0,165132948264654 
955	 0,164959833382343 
956	 0,165297443235307 
957	 0,167327352560324 
958	 0,167306885488585 
959	 0,16470666858525 
960	 0,163483694490667 
961	 0,164287028317934 
962	 0,166914148374864 
963	 0,166321300845922 
964	 0,164670030628089 
965	 0,166334577001941 
966	 0,166382505463998 
967	 0,164764315836153 
968	 0,165091603806177 
969	 0,165932204915209 
970	 0,166713968026412 
971	 0,167781430945243 
972	 0,168105617520076 
973	 0,166912047350098 
974	 0,166025136515293 
975	 0,166099582249402 
976	 0,167655127702529 
977	 0,168585966372107 
978	 0,168375372682054 
979	 0,167563350573161 
980	 0,167167020089915 
981	 0,167448895545881 
982	 0,166282008667569 
983	 0,165669051287617 
984	 0,167492692605315 
985	 0,16699496620456 
986	 0,165789758204263 
987	 0,16866911533243 
988	 0,170576982309299 
989	 0,170229695044211 
990	 0,168565365643657 
991	 0,168058071107267 
992	 0,169648560807149 
993	 0,16999397721149 
994	 0,169771206358296 
995	 0,169989926226757 
996	 0,17063192728669 
997	 0,17103069607495 
998	 0,169855822659477 
999	 0,16948083006989 
1000	 0,170637693030427 
1001	 0,173532925505624 
1002	 0,174224262411529 
1003	 0,171377571258009 
1004	 0,169730150906234 
1005	 0,17019269375079 
1006	 0,172855200796693 
1007	 0,173302272573842 
1008	 0,172450154354741 
1009	 0,173383676129536 
1010	 0,175199581670739 
1011	 0,176889691055896 
1012	 0,1759196059633 
1013	 0,174833282214312 
1014	 0,175085834496537 
1015	 0,177874636778746 
1016	 0,17934751683288 
1017	 0,176440604332596 
1018	 0,171826686367306 
1019	 0,169716244115101 
1020	 0,175339914322965 
1021	 0,175896826835748 
1022	 0,172657481223403 
1023	 0,178486368510576 
1024	 0,181685444013092 
1025	 0,179365448646 
1026	 0,177158097407357 
1027	 0,177163151314932 
1028	 0,179922822880547 
1029	 0,178513394260821 
1030	 0,177630250565749 
1031	 0,183111631082948 
1032	 0,18830002992621 
1033	 0,188033833291736 
1034	 0,174876236478281 
1035	 0,171500890338644 
1036	 0,180325019579614 
1037	 0,183810408357169 
1038	 0,180992558966601 
1039	 0,174251144783687 
1040	 0,181105960552326 
1041	 0,187001639417705 
1042	 0,180517876774948 
1043	 0,177154874565967 
1044	 0,176618514192276 
1045	 0,175835847948543 
1046	 0,182709720645554 
1047	 0,192610044195916 
1048	 0,191933851741934 
1049	 0,183988129743721 
1050	 0,173638617094861 
1051	 0,176164101418943 
1052	 0,179104188853904 
1053	 0,177430033763577 
1054	 0,179535563093747 
1055	 0,18834186671966 
1056	 0,20247367993813 
1057	 0,194517115784332 
1058	 0,176877538038239 
1059	 0,173233278720025 
1060	 0,178407337665353 
1061	 0,186857391440878 
1062	 0,188242446842144 
1063	 0,185970976162023 
1064	 0,182215517012762 
1065	 0,180849704906034 
1066	 0,180664609989334 
1067	 0,181831991144676 
1068	 0,18795980315569 
1069	 0,191413218455299 
1070	 0,188287264025133 
1071	 0,19620748878719 
1072	 0,204263684032188 
1073	 0,198055848262736 
1074	 0,193161943720552 
1075	 0,189552309228044 
