Wavelength	CAMFROU00063.asd
325	-6,53316551154135E-02 
326	-0,024274138504349 
327	-3,94309903166615E-02 
328	-0,058254288242755 
329	 0,117433348754964 
330	 0,206855434817796 
331	 3,07601646615385E-02 
332	 9,23107786662081E-03 
333	 0,12228015519892 
334	 0,105730778461266 
335	 0,100411021320698 
336	 0,117770863025947 
337	 4,28458583606663E-02 
338	 3,92483370812253E-03 
339	 8,21255300324854E-02 
340	 9,69408086319468E-02 
341	 5,76426372744792E-02 
342	 7,86599077041204E-02 
343	 6,27800907482979E-02 
344	 2,57199750612047E-03 
345	 3,03902284877759E-02 
346	 7,11245335385245E-02 
347	 6,87484648785016E-02 
348	 5,02063927016072E-02 
349	 3,02760018711991E-02 
350	 4,68186407515929E-02 
351	 4,69383043341448E-02 
352	 0,021777210261533 
353	 4,20319163479589E-02 
354	 5,96531380720786E-02 
355	 2,19376714109432E-02 
356	 2,42460726251694E-02 
357	 5,78671232810156E-02 
358	 3,50889113828286E-02 
359	 3,18559154275627E-02 
360	 7,27609845526325E-02 
361	 6,91750561613276E-02 
362	 4,68295818232808E-02 
363	 5,21013368362784E-02 
364	 6,41923437347022E-02 
365	 7,16111741289393E-02 
366	 4,76500421424246E-02 
367	 2,38482339353976E-02 
368	 2,31560882305703E-02 
369	 0,053893695657501 
370	 7,81748637141379E-02 
371	 4,27898837139035E-02 
372	 1,97784276728945E-02 
373	 2,75137772419154E-02 
374	 4,50957470277255E-02 
375	 5,57753291968388E-02 
376	 4,71170511847103E-02 
377	 4,43140959684076E-02 
378	 4,81083695084972E-02 
379	 5,26163696057351E-02 
380	 6,00075955662521E-02 
381	 6,74725121477489E-02 
382	 6,35706664973819E-02 
383	 6,07262336075895E-02 
384	 6,93479332662979E-02 
385	 6,26252681823596E-02 
386	 4,31089217620523E-02 
387	 2,92612049136911E-02 
388	 2,85655735438853E-02 
389	 4,25063599912229E-02 
390	 6,84892648852437E-02 
391	 8,18604174203344E-02 
392	 0,052337096695703 
393	 0,038560918430791 
394	 4,68543051085594E-02 
395	 5,60658426652394E-02 
396	 6,36662689986493E-02 
397	 6,72087496532862E-02 
398	 6,57424823509295E-02 
399	 5,96866009918436E-02 
400	 0,049413787834565 
401	 4,36372891151563E-02 
402	 4,47327899296229E-02 
403	 5,11385825562224E-02 
404	 0,060032592125322 
405	 6,81174350702848E-02 
406	 6,05006456892816E-02 
407	 4,64479484285517E-02 
408	 4,76643606799305E-02 
409	 5,48277202258225E-02 
410	 6,17747127773665E-02 
411	 0,054388672827976 
412	 0,043467541091262 
413	 4,03331645611166E-02 
414	 4,58388527936572E-02 
415	 0,055099914649671 
416	 5,68591733472036E-02 
417	 0,05780184957918 
418	 0,059564580994472 
419	 5,57207760271881E-02 
420	 5,07836360276935E-02 
421	 5,10509134523094E-02 
422	 5,42485772097927E-02 
423	 0,057728573410582 
424	 5,48825778545027E-02 
425	 5,27772489803061E-02 
426	 5,51147120217584E-02 
427	 5,37802329912136E-02 
428	 5,07037913002799E-02 
429	 5,08021839886389E-02 
430	 5,37339244450653E-02 
431	 5,75683837399025E-02 
432	 5,48504094257448E-02 
433	 5,12816173606932E-02 
434	 5,19975468328502E-02 
435	 5,18660230058236E-02 
436	 5,04290256361403E-02 
437	 0,048102654704541 
438	 4,96708815993233E-02 
439	 5,54856159388937E-02 
440	 0,0554694460062 
441	 5,21611676019239E-02 
442	 0,049913158940005 
443	 5,03794183665402E-02 
444	 5,21758190806838E-02 
445	 4,83142831126074E-02 
446	 0,047191708864533 
447	 5,29118209545305E-02 
448	 5,21689047921707E-02 
449	 4,82822888056825E-02 
450	 5,07931767964174E-02 
451	 5,31408006106114E-02 
452	 5,35344486536266E-02 
453	 0,053229294773263 
454	 5,28098406290552E-02 
455	 0,052962511319726 
456	 0,056727409821549 
457	 0,062038729373384 
458	 6,27935355337629E-02 
459	 6,09280058211102E-02 
460	 5,76689886361319E-02 
461	 5,55219187947366E-02 
462	 5,41156029433918E-02 
463	 5,25079876539831E-02 
464	 5,27598596810686E-02 
465	 5,45102487524943E-02 
466	 5,48972191306481E-02 
467	 0,055026048092765 
468	 5,56304373401961E-02 
469	 0,056575465088294 
470	 5,72271792669287E-02 
471	 5,63143276473773E-02 
472	 5,59930664739238E-02 
473	 0,056640097546985 
474	 5,61293874437133E-02 
475	 5,61631444496859E-02 
476	 5,83292760374124E-02 
477	 5,81133688407435E-02 
478	 5,63538444316056E-02 
479	 5,80660515981305E-02 
480	 5,96044182635498E-02 
481	 5,92313294831622E-02 
482	 5,74963031571341E-02 
483	 5,59245950869386E-02 
484	 5,65985004926589E-02 
485	 5,77684890456389E-02 
486	 5,82655748449564E-02 
487	 0,055713991136953 
488	 5,34787086253172E-02 
489	 5,40703972956928E-02 
490	 5,57331398650338E-02 
491	 0,057065491105222 
492	 5,56152866068986E-02 
493	 0,05416503071823 
494	 5,38982415615606E-02 
495	 5,49765167914506E-02 
496	 0,056821355711152 
497	 5,87132762924743E-02 
498	 5,78011007368799E-02 
499	 5,47442987241195E-02 
500	 5,32265174759729E-02 
501	 5,33783231812121E-02 
502	 5,50354624695482E-02 
503	 5,58511863905254E-02 
504	 5,59870023826476E-02 
505	 5,63705250579701E-02 
506	 0,056440013736291 
507	 5,64606386344962E-02 
508	 5,83561244463361E-02 
509	 5,94096321765539E-02 
510	 5,73755258821472E-02 
511	 5,74790164229308E-02 
512	 5,96047425632376E-02 
513	 6,09930253518493E-02 
514	 6,13554236144566E-02 
515	 6,06601882007249E-02 
516	 6,01543549161398E-02 
517	 6,01956407997828E-02 
518	 6,10609189290389E-02 
519	 6,14547465788722E-02 
520	 6,13048661014536E-02 
521	 6,16992226573542E-02 
522	 6,23684726613422E-02 
523	 6,30712997037274E-02 
524	 6,37199786263708E-02 
525	 0,063840945136564 
526	 6,23033348318958E-02 
527	 6,12053489735368E-02 
528	 6,13510624257729E-02 
529	 6,25268192449575E-02 
530	 6,32866639134341E-02 
531	 6,20711193041899E-02 
532	 6,21581655120088E-02 
533	 6,33057155115011E-02 
534	 6,21810826160742E-02 
535	 6,14063484493084E-02 
536	 6,23149795220733E-02 
537	 6,22521576530036E-02 
538	 6,16699816150758E-02 
539	 6,20794532167159E-02 
540	 6,23526355183117E-02 
541	 6,21422696315319E-02 
542	 6,13458516174307E-02 
543	 6,11736741530496E-02 
544	 6,27000301197389E-02 
545	 6,36028352573916E-02 
546	 6,34849478862072E-02 
547	 6,26385013987402E-02 
548	 6,20344849317533E-02 
549	 6,21690295343719E-02 
550	 6,24584279929405E-02 
551	 6,28611229006892E-02 
552	 6,34603677904702E-02 
553	 6,35404859331329E-02 
554	 6,31024691034819E-02 
555	 6,30680654881051E-02 
556	 6,30859189192862E-02 
557	 6,28630618196311E-02 
558	 6,28258467159962E-02 
559	 6,27290607469975E-02 
560	 6,16481285059556E-02 
561	 6,11992632112763E-02 
562	 6,17564543588016E-02 
563	 6,11691052238772E-02 
564	 6,02731432276179E-02 
565	 0,060405232853358 
566	 6,07456340731889E-02 
567	 6,10862605503196E-02 
568	 0,061471158079893 
569	 6,17764540127635E-02 
570	 6,19300019068332E-02 
571	 6,21373467095302E-02 
572	 0,062444338665721 
573	 6,28031850799701E-02 
574	 6,36419078839919E-02 
575	 6,49097481945521E-02 
576	 6,55480132186703E-02 
577	 6,59668740053824E-02 
578	 6,67117658169365E-02 
579	 0,067686926673394 
580	 6,85628311028633E-02 
581	 6,83187887304725E-02 
582	 0,068319932150093 
583	 6,93528406394863E-02 
584	 7,08848683769785E-02 
585	 0,072308368780089 
586	 7,27006299679838E-02 
587	 7,31872142092922E-02 
588	 7,39786865647652E-02 
589	 7,42928823807963E-02 
590	 7,46486219646124E-02 
591	 7,55243487259999E-02 
592	 0,076303024511182 
593	 7,66612848139742E-02 
594	 7,60183242952717E-02 
595	 7,55706483762492E-02 
596	 7,58972824908997E-02 
597	 7,65458586333839E-02 
598	 7,70988588698364E-02 
599	 7,70578077702785E-02 
600	 7,64010861552578E-02 
601	 7,55062191240505E-02 
602	 7,57807040821972E-02 
603	 7,60610683388414E-02 
604	 7,54909779949655E-02 
605	 7,56804656176592E-02 
606	 0,076100411950467 
607	 7,47897142433741E-02 
608	 7,34682242048501E-02 
609	 7,28282368631141E-02 
610	 7,26722040759796E-02 
611	 7,26633200422166E-02 
612	 7,24057754330103E-02 
613	 7,16901493230033E-02 
614	 7,08475538872603E-02 
615	 7,12214256780465E-02 
616	 7,13690794962686E-02 
617	 7,04486724409972E-02 
618	 6,97623936536201E-02 
619	 6,95443517007433E-02 
620	 6,99174722605519E-02 
621	 6,98517438394924E-02 
622	 6,93068672587668E-02 
623	 7,00026709502454E-02 
624	 0,070876182972848 
625	 7,07441117090353E-02 
626	 6,98550556448143E-02 
627	 6,89164496725553E-02 
628	 6,97610300154745E-02 
629	 7,08033914128683E-02 
630	 7,11887387480505E-02 
631	 7,11566456489172E-02 
632	 7,12739707733235E-02 
633	 7,24386854011383E-02 
634	 7,31162184328684E-02 
635	 7,31368781787507E-02 
636	 7,38064702928342E-02 
637	 7,46751466761429E-02 
638	 7,53438586696342E-02 
639	 7,62488479445063E-02 
640	 7,71378886611624E-02 
641	 7,71945466580915E-02 
642	 7,72757166625856E-02 
643	 7,77208380314082E-02 
644	 7,82373920241796E-02 
645	 7,87327550382812E-02 
646	 0,079128737771597 
647	 7,89241588198335E-02 
648	 7,83370916308948E-02 
649	 7,85965356516602E-02 
650	 0,078765640263007 
651	 7,81558607510308E-02 
652	 7,65285227508769E-02 
653	 7,48310181873965E-02 
654	 7,50364473176064E-02 
655	 7,50803281758929E-02 
656	 0,074273260198554 
657	 7,30736429389814E-02 
658	 7,15820704844847E-02 
659	 6,99019172379269E-02 
660	 6,84005791071893E-02 
661	 6,71675127577055E-02 
662	 6,61496884077555E-02 
663	 6,51080454202383E-02 
664	 6,40060408003374E-02 
665	 6,35725766890802E-02 
666	 6,33711603912801E-02 
667	 6,26171283551239E-02 
668	 6,16922649689182E-02 
669	 6,08203368335191E-02 
670	 6,03768415056603E-02 
671	 6,02472229292974E-02 
672	 0,060272486624621 
673	 5,97980135475657E-02 
674	 5,91658199387566E-02 
675	 5,95733496573224E-02 
676	 5,95854265141788E-02 
677	 5,89113488245217E-02 
678	 5,91297341252136E-02 
679	 5,95454280734631E-02 
680	 5,92012511885949E-02 
681	 5,92123268155825E-02 
682	 5,97277876124945E-02 
683	 6,02872366007445E-02 
684	 6,11491073745807E-02 
685	 6,24240304831425E-02 
686	 6,37514148760352E-02 
687	 6,50998662118751E-02 
688	 0,066445176327178 
689	 6,86216124779557E-02 
690	 0,071744880089891 
691	 7,49633025604567E-02 
692	 7,85506434959393E-02 
693	 8,28171996514208E-02 
694	 8,81595336423909E-02 
695	 9,44830814072332E-02 
696	 0,101382844070663 
697	 0,108678527791593 
698	 0,116407298208031 
699	 0,12536956828798 
700	 0,135282036543792 
701	 0,145664838811469 
702	 0,156101815600407 
703	 0,166387860700148 
704	 0,176363368773968 
705	 0,186555008451995 
706	 0,197182691529209 
707	 0,207275683095606 
708	 0,216763688358338 
709	 0,225727011914569 
710	 0,234635532651017 
711	 0,24350427268205 
712	 0,251598038896148 
713	 0,259308996679523 
714	 0,266984266260761 
715	 0,273960822906985 
716	 0,280199627380095 
717	 0,285999920087267 
718	 0,291228847672867 
719	 0,295942135545308 
720	 0,300703651098632 
721	 0,305316388047623 
722	 0,309468599468474 
723	 0,313259976989194 
724	 0,316700565702099 
725	 0,319686137764722 
726	 0,322496795491686 
727	 0,325313871846482 
728	 0,328006566608932 
729	 0,330321021330311 
730	 0,331827202224634 
731	 0,333366309499028 
732	 0,335168100953155 
733	 0,336902387062548 
734	 0,338480299009728 
735	 0,339837221903253 
736	 0,341073345885721 
737	 0,342196080228214 
738	 0,343106824687303 
739	 0,344235470022867 
740	 0,345627301548598 
741	 0,346513417410185 
742	 0,347187022485761 
743	 0,348056393548392 
744	 0,348669983332044 
745	 0,349109723740751 
746	 0,349930107648295 
747	 0,350649154699561 
748	 0,351087745212014 
749	 0,351934231365769 
750	 0,352908292071952 
751	 0,353479157661572 
752	 0,353683400036678 
753	 0,353730215487289 
754	 0,354336281729923 
755	 0,355077413405694 
756	 0,355613153482099 
757	 0,355917104808458 
758	 0,35610208941353 
759	 0,356406518284331 
760	 0,356720461065573 
761	 0,35704616300683 
762	 0,357550899430403 
763	 0,357960038166167 
764	 0,358037319719182 
765	 0,358316767540559 
766	 0,358766387834965 
767	 0,358990734574847 
768	 0,359382093154338 
769	 0,359988847542912 
770	 0,360162693544079 
771	 0,360246573108891 
772	 0,360695992305212 
773	 0,360928507965458 
774	 0,360896166584361 
775	 0,360749683566388 
776	 0,361181443549718 
777	 0,36236778648032 
778	 0,362785624870049 
779	 0,362746068349313 
780	 0,362974986102672 
781	 0,36303308694867 
782	 0,362990594237737 
783	 0,363467802707958 
784	 0,363779525674968 
785	 0,363561692973002 
786	 0,363860123107112 
787	 0,364322341905504 
788	 0,364029270345934 
789	 0,364161418025438 
790	 0,364878797570904 
791	 0,365311580643976 
792	 0,365538018769934 
793	 0,365627648850311 
794	 0,365378497760685 
795	 0,365258430734994 
796	 0,366395640915153 
797	 0,366809433803093 
798	 0,366171627341328 
799	 0,366439045295336 
800	 0,366953327729123 
801	 0,367027907304108 
802	 0,367212057389385 
803	 0,367486074800896 
804	 0,367566936731559 
805	 0,367570996892829 
806	 0,367640332235936 
807	 0,368312159108461 
808	 0,368898148629337 
809	 0,368670139875941 
810	 0,368728162350698 
811	 0,369136720974597 
812	 0,369439558555017 
813	 0,369509077725823 
814	 0,369380581476257 
815	 0,369671165195909 
816	 0,370220006226783 
817	 0,370762688186869 
818	 0,371292882166537 
819	 0,371643653886018 
820	 0,371311889875652 
821	 0,371362730854397 
822	 0,372131748718221 
823	 0,372111993538118 
824	 0,371886905718875 
825	 0,372384367338192 
826	 0,372971675628084 
827	 0,373376927237021 
828	 0,373204241619794 
829	 0,373211986069946 
830	 0,373707602958166 
831	 0,373784817576629 
832	 0,373762022806996 
833	 0,374194269653531 
834	 0,374793477176191 
835	 0,375306858690722 
836	 0,375187528761743 
837	 0,374992908717166 
838	 0,375091111979021 
839	 0,375707290952983 
840	 0,376244840728277 
841	 0,375852367605913 
842	 0,375854691750247 
843	 0,376395825435243 
844	 0,376756732605893 
845	 0,37707292726739 
846	 0,377376898084668 
847	 0,377442645437196 
848	 0,377543191062548 
849	 0,378087522770407 
850	 0,377957310410258 
851	 0,377246287910457 
852	 0,377138345547196 
853	 0,377477282072796 
854	 0,378080535104295 
855	 0,378279393528377 
856	 0,378170422584837 
857	 0,378008758981014 
858	 0,378291395143124 
859	 0,379011673429525 
860	 0,379822642990311 
861	 0,379934268451011 
862	 0,379117248374323 
863	 0,378818467312833 
864	 0,379180936305773 
865	 0,380133151588739 
866	 0,380477985747735 
867	 0,380070757358492 
868	 0,379366018358666 
869	 0,379359425803147 
870	 0,380347070963303 
871	 0,380703147546766 
872	 0,380851678675428 
873	 0,38145550201334 
874	 0,381037365928123 
875	 0,380129366804957 
876	 0,381271979229336 
877	 0,381741779870503 
878	 0,380804233152525 
879	 0,38134166046767 
880	 0,382264225877838 
881	 0,382191499446063 
882	 0,382004678895161 
883	 0,381992734519695 
884	 0,38249107987876 
885	 0,382861868468816 
886	 0,382848643717792 
887	 0,382491424776461 
888	 0,382314996049525 
889	 0,382769077707518 
890	 0,383217638419403 
891	 0,383387778668358 
892	 0,382910148686133 
893	 0,382953446237056 
894	 0,383648466333058 
895	 0,383639109998339 
896	 0,383681427338034 
897	 0,384300764954169 
898	 0,384322272074839 
899	 0,383978246472223 
900	 0,384013868212678 
901	 0,383699387508347 
902	 0,38324162967225 
903	 0,384079157862868 
904	 0,385183227686754 
905	 0,385721748772233 
906	 0,384844978967788 
907	 0,3837454183179 
908	 0,384225366705242 
909	 0,384741201862669 
910	 0,384886670126602 
911	 0,384643910959377 
912	 0,384390058805488 
913	 0,384398217586803 
914	 0,385095039501253 
915	 0,385468934816744 
916	 0,384462059897326 
917	 0,384020800108521 
918	 0,384296798115806 
919	 0,384660538484807 
920	 0,384740293583564 
921	 0,384370675405453 
922	 0,383665830120719 
923	 0,383152323547154 
924	 0,38323978038877 
925	 0,383471381751843 
926	 0,383661599471249 
927	 0,383652663326744 
928	 0,383330377295599 
929	 0,382667969226797 
930	 0,381609525785088 
931	 0,380986863012933 
932	 0,38122230925301 
933	 0,381588430991565 
934	 0,381520400393433 
935	 0,380469508084284 
936	 0,379761569026384 
937	 0,379566907062038 
938	 0,379481430869769 
939	 0,379027952034878 
940	 0,37814581408667 
941	 0,377743161199535 
942	 0,377213593796428 
943	 0,376049436090894 
944	 0,375077814932733 
945	 0,374617072811458 
946	 0,374996762667856 
947	 0,374913579438806 
948	 0,374050870837796 
949	 0,372901055835949 
950	 0,371715555538433 
951	 0,370590880617148 
952	 0,368890936161874 
953	 0,367320374326026 
954	 0,366721861146918 
955	 0,365307442950295 
956	 0,363579260059624 
957	 0,363858578577295 
958	 0,363734417027449 
959	 0,36256820881338 
960	 0,361608436741497 
961	 0,360790474082424 
962	 0,360064599821041 
963	 0,359414217719633 
964	 0,359497653519611 
965	 0,361258292936032 
966	 0,361969455705644 
967	 0,361139602029727 
968	 0,359581744500977 
969	 0,358407828503011 
970	 0,358314548951046 
971	 0,359790078489013 
972	 0,360630721506026 
973	 0,359095054473401 
974	 0,359092762201003 
975	 0,35991879770854 
976	 0,359108499627291 
977	 0,358699735996613 
978	 0,358952103960199 
979	 0,358700238792361 
980	 0,35918164883825 
981	 0,360491214523067 
982	 0,359455981171911 
983	 0,358331094841153 
984	 0,359583133437575 
985	 0,361711971659525 
986	 0,362877591467507 
987	 0,360046552752103 
988	 0,359935893933067 
989	 0,362713262178855 
990	 0,361220131257247 
991	 0,360181326569462 
992	 0,361884739122082 
993	 0,364383042009471 
994	 0,364879284056853 
995	 0,36127215764852 
996	 0,362071770317343 
997	 0,365261977040464 
998	 0,363759388416397 
999	 0,364301934326347 
1000	 0,367372418481534 
1001	 0,367865713756763 
1002	 0,367661467817183 
1003	 0,367655675971091 
1004	 0,367313342868922 
1005	 0,367455796481098 
1006	 0,36862163289374 
1007	 0,367409729534416 
1008	 0,365576281274926 
1009	 0,367197704134718 
1010	 0,369074255132442 
1011	 0,370483740640854 
1012	 0,372379426629567 
1013	 0,372015489153334 
1014	 0,369612358599412 
1015	 0,37301474703937 
1016	 0,37669569557488 
1017	 0,37576304538606 
1018	 0,373152006934284 
1019	 0,371893396447117 
1020	 0,375667971370826 
1021	 0,379015953362091 
1022	 0,380980485566121 
1023	 0,383270207244949 
1024	 0,38120988794584 
1025	 0,37531300075996 
1026	 0,374271772881857 
1027	 0,376715724563704 
1028	 0,380811483950076 
1029	 0,381665829868503 
1030	 0,3818186056564 
1031	 0,384696250197399 
1032	 0,386660051844305 
1033	 0,384938363428051 
1034	 0,375178633296531 
1035	 0,375527407459935 
1036	 0,385871830493196 
1037	 0,385443689215945 
1038	 0,381227237389367 
1039	 0,378053901264016 
1040	 0,385196294306094 
1041	 0,390767683663563 
1042	 0,385831594379958 
1043	 0,385397285931405 
1044	 0,384429511118457 
1045	 0,374233597288655 
1046	 0,378868482866708 
1047	 0,391326254255183 
1048	 0,383035359430524 
1049	 0,374382389419901 
1050	 0,372048346536935 
1051	 0,377174412693284 
1052	 0,381701015340785 
1053	 0,382115394593308 
1054	 0,382736587672401 
1055	 0,388871682173204 
1056	 0,401627993942064 
1057	 0,394584584461472 
1058	 0,378039907634171 
1059	 0,372593909761866 
1060	 0,377710578233119 
1061	 0,384982450589837 
1062	 0,374800379380507 
1063	 0,372421284589758 
1064	 0,381738247911369 
1065	 0,389242879854723 
1066	 0,389060130469635 
1067	 0,379434316585193 
1068	 0,368617103980317 
1069	 0,363439075687159 
1070	 0,36919344192981 
1071	 0,388988290710691 
1072	 0,400892851156575 
1073	 0,381343487206595 
1074	 0,369467479047681 
1075	 0,371592890974785 
