Wavelength	CAMFROU00434.asd
325	 0,202034389062053 
326	 0,19605698384641 
327	 6,65697727231437E-02 
328	-0,06706559278227 
329	 4,41162696306472E-02 
330	 0,150144058011676 
331	 9,49593755159907E-02 
332	 0,101920155905196 
333	 0,155391427184756 
334	 0,11894302062676 
335	 0,110163629452829 
336	 0,13978249515328 
337	 0,10531528424902 
338	 9,74445860382085E-02 
339	 0,173083095168957 
340	 0,151190196419023 
341	 0,051386914779515 
342	 3,20073962063103E-02 
343	 1,70259829961076E-02 
344	-6,26859907938702E-03 
345	 4,16063148526728E-02 
346	 9,34590870476046E-02 
347	 0,108686602084018 
348	 7,30221301709167E-02 
349	 1,84489838349187E-02 
350	 5,94098375617724E-02 
351	 7,56249036158433E-02 
352	 3,75652023512116E-02 
353	 3,22564511235075E-02 
354	 4,58907763799862E-02 
355	 5,43989220105382E-02 
356	 6,93163817138432E-02 
357	 7,96911884026989E-02 
358	 4,20063815851689E-02 
359	 3,06907600611233E-02 
360	 7,04871654384403E-02 
361	 6,31966985708148E-02 
362	 3,73046661073805E-02 
363	 4,58631499545401E-02 
364	 4,75052100088116E-02 
365	 3,60807357684322E-02 
366	 2,23444396064916E-02 
367	 1,67666378637763E-02 
368	 0,025585472662967 
369	 3,80425460283164E-02 
370	 4,71772909951852E-02 
371	 4,86452121954731E-02 
372	 4,97902606279185E-02 
373	 4,87078565654882E-02 
374	 2,61408491762722E-02 
375	 1,28496816617035E-02 
376	 3,17358726051566E-02 
377	 3,73006286726297E-02 
378	 3,39517182677807E-02 
379	 4,45294050015132E-02 
380	 5,11516373077782E-02 
381	 4,86094775963923E-02 
382	 0,043530079106504 
383	 4,57264219976084E-02 
384	 6,14104560256193E-02 
385	 5,45996491388019E-02 
386	 3,10423947244228E-02 
387	 2,10489845376907E-02 
388	 3,26945034225746E-02 
389	 5,94664446247257E-02 
390	 5,93263965805033E-02 
391	 4,34675961664149E-02 
392	 2,98241398608205E-02 
393	 0,027357650331454 
394	 0,03140411848865 
395	 0,01979263045652 
396	 1,60175331501387E-02 
397	 2,89886879641445E-02 
398	 3,29662652368273E-02 
399	 3,26917454589586E-02 
400	 3,95132801256051E-02 
401	 4,09145979899275E-02 
402	 3,69896184081445E-02 
403	 4,00948791563247E-02 
404	 0,040356742874552 
405	 3,22732542935015E-02 
406	 3,06775740856035E-02 
407	 3,41639927668654E-02 
408	 3,47911638228116E-02 
409	 4,09664476315326E-02 
410	 4,97639641038601E-02 
411	 3,82400984814484E-02 
412	 0,023914652719653 
413	 2,44756496209557E-02 
414	 3,16916104293357E-02 
415	 3,98571053632245E-02 
416	 4,01218789640585E-02 
417	 3,93384413683209E-02 
418	 3,97101408748996E-02 
419	 3,66617663840164E-02 
420	 0,033514189137783 
421	 3,48503750105267E-02 
422	 3,81879686118049E-02 
423	 0,04071933061605 
424	 3,54067462914621E-02 
425	 3,13794476409902E-02 
426	 3,36637062447121E-02 
427	 3,33155586760084E-02 
428	 3,14802175676997E-02 
429	 3,19910056295946E-02 
430	 3,53979598693145E-02 
431	 3,99574006185102E-02 
432	 3,79673753815573E-02 
433	 3,49675271122998E-02 
434	 3,59850830642997E-02 
435	 3,67662810783134E-02 
436	 3,61947444992973E-02 
437	 3,26575396595402E-02 
438	 3,27348727754164E-02 
439	 3,76236770414486E-02 
440	 3,70031677605847E-02 
441	 0,034195620846201 
442	 3,45020304268464E-02 
443	 0,036194425667981 
444	 3,76346144762692E-02 
445	 3,43521364253696E-02 
446	 3,24289446524356E-02 
447	 3,50698901918302E-02 
448	 3,37483637314411E-02 
449	 3,14529715250398E-02 
450	 3,60112625291724E-02 
451	 3,91730269974605E-02 
452	 3,87858998310983E-02 
453	 3,77921857059792E-02 
454	 0,036634342058759 
455	 3,57986951266195E-02 
456	 3,83339709953734E-02 
457	 4,23193254959744E-02 
458	 4,13420869020633E-02 
459	 4,09239563734521E-02 
460	 4,23925332025565E-02 
461	 3,85278641225695E-02 
462	 3,35362738448815E-02 
463	 0,03370479411401 
464	 3,66497825119601E-02 
465	 0,040265924357353 
466	 3,97617566084468E-02 
467	 3,88472919056308E-02 
468	 3,99467177764638E-02 
469	 4,10728781889524E-02 
470	 4,19426192886678E-02 
471	 4,26843928557242E-02 
472	 4,24788690764489E-02 
473	 4,13304585925795E-02 
474	 4,02725413507197E-02 
475	 4,04969020046133E-02 
476	 4,29177180387229E-02 
477	 4,37203020038173E-02 
478	 4,26410313719973E-02 
479	 4,10509173265737E-02 
480	 0,040956850685205 
481	 4,29103587703914E-02 
482	 4,32069726090167E-02 
483	 4,25222879924307E-02 
484	 4,24605422111635E-02 
485	 4,24794428482648E-02 
486	 4,21448950320231E-02 
487	 3,97308815616707E-02 
488	 3,94807816741282E-02 
489	 4,40006799679769E-02 
490	 4,54198687913074E-02 
491	 4,39457155032197E-02 
492	 4,30372382671594E-02 
493	 4,25741529041491E-02 
494	 4,26790371803795E-02 
495	 4,30597034708336E-02 
496	 4,36868311465011E-02 
497	 4,45367151843241E-02 
498	 4,39845037907997E-02 
499	 4,25128865490146E-02 
500	 4,26306419944663E-02 
501	 4,32270628506308E-02 
502	 4,36360345830649E-02 
503	 4,36371695645867E-02 
504	 4,41000660465834E-02 
505	 4,69002124282025E-02 
506	 0,046516540783702 
507	 4,30909680151627E-02 
508	 4,49405518465364E-02 
509	 4,70322887017364E-02 
510	 4,48006998720392E-02 
511	 4,46341467818411E-02 
512	 4,63997043771455E-02 
513	 4,65865879743326E-02 
514	 4,68800762820078E-02 
515	 0,047740832309355 
516	 4,74995559486308E-02 
517	 4,72885650619754E-02 
518	 4,89090943810983E-02 
519	 4,92971031268759E-02 
520	 4,83496335758993E-02 
521	 4,85965407393551E-02 
522	 4,95646043349918E-02 
523	 5,07727767967135E-02 
524	 5,12663717475274E-02 
525	 5,11455120462786E-02 
526	 5,09093230334245E-02 
527	 5,11833782061755E-02 
528	 5,21165815634253E-02 
529	 5,32484919343812E-02 
530	 5,33789665480665E-02 
531	 5,12669230337464E-02 
532	 5,05690138577243E-02 
533	 5,16681397237628E-02 
534	 5,30258059920446E-02 
535	 5,34349366839099E-02 
536	 5,23691989527259E-02 
537	 5,21289170947617E-02 
538	 5,27710814053429E-02 
539	 0,053801277007747 
540	 5,47294208258574E-02 
541	 5,51072716757534E-02 
542	 5,38773836369376E-02 
543	 5,30488609884307E-02 
544	 5,44935047821577E-02 
545	 0,054900831547343 
546	 5,41913395176781E-02 
547	 5,40174254936022E-02 
548	 5,43358279240441E-02 
549	 5,51155641442275E-02 
550	 5,59542256251217E-02 
551	 5,65848001074925E-02 
552	 5,66950000587432E-02 
553	 5,69836633264488E-02 
554	 5,74802908169175E-02 
555	 5,73867719056462E-02 
556	 5,73311547227161E-02 
557	 0,057803738674846 
558	 5,80843120042843E-02 
559	 5,78441929235645E-02 
560	 5,63450994346804E-02 
561	 5,60402875157956E-02 
562	 5,75518714665106E-02 
563	 5,77732015879048E-02 
564	 5,74927410614338E-02 
565	 5,81276729418909E-02 
566	 5,81660808896519E-02 
567	 0,057738596586995 
568	 0,058687358743622 
569	 5,94227949409595E-02 
570	 5,89552268591849E-02 
571	 5,92122873179749E-02 
572	 6,00273457750713E-02 
573	 6,03385070009472E-02 
574	 6,09468659794466E-02 
575	 0,061919476002968 
576	 6,23221142373996E-02 
577	 6,21963999761224E-02 
578	 6,16992992242381E-02 
579	 6,21096526746241E-02 
580	 6,31248028050909E-02 
581	 6,27018358477578E-02 
582	 6,26457300833122E-02 
583	 6,38055411119177E-02 
584	 6,41812063986595E-02 
585	 6,41961711450697E-02 
586	 6,50892724103562E-02 
587	 6,56280818440171E-02 
588	 6,55451506357057E-02 
589	 6,53246805770718E-02 
590	 6,54582923330587E-02 
591	 6,63325867701122E-02 
592	 6,69492751388568E-02 
593	 6,71630038524445E-02 
594	 6,72161219082196E-02 
595	 6,70444783119801E-02 
596	 0,066809305582825 
597	 6,76418174608287E-02 
598	 6,86744537033955E-02 
599	 6,84716881337194E-02 
600	 6,81110589884889E-02 
601	 6,79550422538685E-02 
602	 6,81972174009266E-02 
603	 6,82973343329763E-02 
604	 6,78538538923103E-02 
605	 6,73913937225426E-02 
606	 6,71720134250167E-02 
607	 6,76436223021029E-02 
608	 6,78377008430905E-02 
609	 6,74979412252796E-02 
610	 6,76004340121685E-02 
611	 6,78120017016836E-02 
612	 0,067628298522206 
613	 6,73992836004478E-02 
614	 6,73047023387518E-02 
615	 6,76960787393752E-02 
616	 6,78545853513691E-02 
617	 6,73691155844931E-02 
618	 0,067017509322048 
619	 6,68696623975952E-02 
620	 6,68097391714236E-02 
621	 6,68527900356759E-02 
622	 6,69605810848515E-02 
623	 6,70021542050611E-02 
624	 6,69510740427883E-02 
625	 6,68109217317949E-02 
626	 6,71401001889571E-02 
627	 6,77620685322128E-02 
628	 6,78352855401382E-02 
629	 6,77299978352017E-02 
630	 6,77116652770409E-02 
631	 6,82508397128544E-02 
632	 6,89855663702634E-02 
633	 6,92629024447409E-02 
634	 6,92398389786056E-02 
635	 6,91105590130962E-02 
636	 6,94445590529747E-02 
637	 7,00294560036708E-02 
638	 7,06340442052576E-02 
639	 0,070971790629307 
640	 7,09972553222978E-02 
641	 7,06670582534186E-02 
642	 7,07243366193825E-02 
643	 7,14377588173665E-02 
644	 7,23230645783186E-02 
645	 7,28361099853058E-02 
646	 7,23613360581367E-02 
647	 7,20859084196071E-02 
648	 7,22771441504689E-02 
649	 0,072764772075922 
650	 7,27177725080875E-02 
651	 7,16900667286742E-02 
652	 7,10250254056564E-02 
653	 7,09668687047272E-02 
654	 0,071643664359555 
655	 7,16669105979239E-02 
656	 7,07843305428884E-02 
657	 7,05413291344087E-02 
658	 7,02132600269993E-02 
659	 6,90096547442307E-02 
660	 6,84645264558358E-02 
661	 0,068472614721717 
662	 6,77262484343585E-02 
663	 0,066939964964136 
664	 6,65436148479169E-02 
665	 0,066913088158639 
666	 6,73924514429273E-02 
667	 6,69173697360789E-02 
668	 0,06643322745149 
669	 6,62049202930563E-02 
670	 6,60995165743939E-02 
671	 6,61381877541725E-02 
672	 6,63091530636906E-02 
673	 6,63253568919491E-02 
674	 0,066149077589728 
675	 0,065716285009588 
676	 6,58305662196379E-02 
677	 6,66356018076509E-02 
678	 6,70522820145638E-02 
679	 6,71346124340668E-02 
680	 6,70693231668272E-02 
681	 6,73212539954249E-02 
682	 6,78676444946815E-02 
683	 6,82274434370961E-02 
684	 6,84779159686927E-02 
685	 6,87381241444451E-02 
686	 6,95320273038651E-02 
687	 7,07358204047064E-02 
688	 7,20178247373414E-02 
689	 7,32285260409556E-02 
690	 7,44006773374189E-02 
691	 7,59599185895358E-02 
692	 7,77297951075115E-02 
693	 7,95386449878237E-02 
694	 0,081464245058598 
695	 8,36163016564411E-02 
696	 8,62515913034724E-02 
697	 0,089033452041228 
698	 9,18023665713834E-02 
699	 9,45673952108193E-02 
700	 9,75064640970802E-02 
701	 0,100837895417483 
702	 0,103990163017039 
703	 0,106867390517022 
704	 0,10969480714515 
705	 0,11252637476835 
706	 0,115354643467094 
707	 0,117822960547557 
708	 0,120066333124533 
709	 0,122432016000897 
710	 0,124540666856206 
711	 0,126363404044564 
712	 0,128291989138669 
713	 0,130195890449318 
714	 0,131944650610514 
715	 0,133766219529319 
716	 0,135516265247075 
717	 0,136783109933183 
718	 0,137655165303848 
719	 0,138290912962989 
720	 0,13934856118733 
721	 0,140593894590376 
722	 0,141645170231203 
723	 0,142491811674205 
724	 0,143215200436373 
725	 0,144169738182277 
726	 0,144857168520085 
727	 0,145059358395843 
728	 0,145684940495655 
729	 0,146448001146238 
730	 0,146595725716834 
731	 0,146860945000599 
732	 0,147440885119854 
733	 0,148138795942593 
734	 0,148842670014417 
735	 0,149433911578062 
736	 0,149630694701321 
737	 0,149588340422407 
738	 0,149750897839494 
739	 0,150203136638051 
740	 0,150906217795405 
741	 0,151353946361148 
742	 0,151660058521501 
743	 0,15200573681294 
744	 0,152012695924542 
745	 0,151825833396527 
746	 0,152145580101064 
747	 0,1523596615639 
748	 0,152223319421652 
749	 0,152413897046693 
750	 0,152974008120322 
751	 0,153871567153481 
752	 0,154062773061198 
753	 0,15359611869211 
754	 0,153896546473779 
755	 0,154239654209167 
756	 0,154131865548684 
757	 0,154257466692404 
758	 0,154590250680609 
759	 0,154872477596296 
760	 0,155119516998847 
761	 0,155323614289247 
762	 0,155512690192004 
763	 0,155602083850584 
764	 0,155546553598539 
765	 0,155957587952468 
766	 0,156581227909273 
767	 0,156394526429573 
768	 0,156503556601585 
769	 0,157184755599605 
770	 0,157356031722554 
771	 0,157182853592347 
772	 0,156982885573051 
773	 0,157340496421563 
774	 0,158007294032286 
775	 0,157713292047043 
776	 0,1576881711697 
777	 0,158437180333459 
778	 0,158760564904902 
779	 0,158657057069449 
780	 0,158328911905218 
781	 0,15813771474048 
782	 0,158255635707259 
783	 0,158852884453402 
784	 0,159243931502675 
785	 0,159059343889042 
786	 0,159366964178803 
787	 0,159836097968834 
788	 0,159587063023486 
789	 0,15966966005268 
790	 0,160183087495994 
791	 0,160154421201553 
792	 0,160062558996839 
793	 0,16029219466031 
794	 0,160491829418418 
795	 0,160601876829212 
796	 0,160597926276697 
797	 0,160730221412562 
798	 0,161055526014786 
799	 0,161358117276721 
800	 0,161704679222902 
801	 0,162128031531693 
802	 0,162044580609523 
803	 0,161667587499466 
804	 0,161816411885089 
805	 0,161923604412918 
806	 0,161866955980481 
807	 0,162092152793338 
808	 0,162396933228045 
809	 0,162543217705471 
810	 0,162821287112318 
811	 0,163127008008039 
812	 0,162986177229866 
813	 0,163002256266123 
814	 0,163381401041722 
815	 0,163708166428755 
816	 0,163770152109956 
817	 0,163389912034974 
818	 0,163475832785036 
819	 0,163970804254183 
820	 0,164029691151898 
821	 0,164092327919809 
822	 0,164275660375028 
823	 0,16395653923493 
824	 0,163697219278628 
825	 0,164268862074377 
826	 0,164795548005026 
827	 0,165051821822458 
828	 0,165023496524745 
829	 0,165214167119658 
830	 0,165745939534387 
831	 0,165478694129113 
832	 0,16497098822714 
833	 0,165135929793361 
834	 0,165605959369382 
835	 0,166057820202517 
836	 0,165780301494921 
837	 0,165321551265395 
838	 0,165084714240548 
839	 0,165564588490644 
840	 0,166094208399727 
841	 0,165676840428762 
842	 0,165586541357392 
843	 0,165965834671197 
844	 0,166157580471161 
845	 0,166324640448117 
846	 0,166527030699031 
847	 0,166650573551535 
848	 0,166617049546544 
849	 0,166340140913446 
850	 0,166294950006657 
851	 0,16649979654921 
852	 0,166540680187838 
853	 0,166694006787256 
854	 0,167050245603614 
855	 0,167214837593804 
856	 0,167207797994955 
857	 0,167123979975234 
858	 0,166822778033737 
859	 0,166540809748979 
860	 0,167150457138694 
861	 0,167460002537079 
862	 0,166989122621217 
863	 0,166999293561116 
864	 0,167411668357555 
865	 0,167934581602776 
866	 0,168086053231568 
867	 0,167864048573884 
868	 0,167712269560913 
869	 0,167434329923013 
870	 0,167067463531301 
871	 0,167223556606139 
872	 0,167836777570137 
873	 0,168706283849327 
874	 0,168373012023245 
875	 0,167358280077651 
876	 0,168196553001072 
877	 0,168776011690868 
878	 0,168329662283158 
879	 0,167924161959718 
880	 0,167717288079306 
881	 0,167786422761112 
882	 0,167963480648152 
883	 0,168182442033799 
884	 0,168385751718968 
885	 0,168672449347287 
886	 0,168943022944646 
887	 0,168576384980465 
888	 0,168065752480152 
889	 0,167931301806503 
890	 0,168298200583917 
891	 0,168735729357637 
892	 0,16820368868261 
893	 0,168171481932625 
894	 0,168840636596663 
895	 0,168874325453457 
896	 0,168538279885981 
897	 0,168203564045848 
898	 0,169135040367236 
899	 0,170065351215544 
900	 0,168383525180378 
901	 0,167665025626607 
902	 0,168532006415237 
903	 0,169123262593941 
904	 0,169505298663054 
905	 0,169721530492069 
906	 0,170004281978798 
907	 0,17017102833213 
908	 0,16993020339316 
909	 0,169622432949888 
910	 0,169346133780965 
911	 0,169022179578127 
912	 0,169018056431853 
913	 0,169486673945029 
914	 0,170331917479833 
915	 0,170528687293675 
916	 0,169131535091828 
917	 0,169352078477085 
918	 0,170721528757405 
919	 0,17030486228585 
920	 0,17002597393689 
921	 0,170430054330776 
922	 0,17102394866569 
923	 0,171023260724219 
924	 0,16996679159922 
925	 0,169843835953198 
926	 0,170289018470745 
927	 0,170019023659878 
928	 0,170190626349939 
929	 0,170853903189226 
930	 0,170960653867214 
931	 0,171380101150794 
932	 0,172345299756322 
933	 0,171866777739889 
934	 0,170777166072445 
935	 0,170424770760184 
936	 0,170589041151942 
937	 0,170987648633333 
938	 0,170962003970996 
939	 0,170699022233198 
940	 0,170218185368543 
941	 0,169194923064143 
942	 0,168736364401512 
943	 0,169747140050007 
944	 0,171031126144209 
945	 0,171967857167261 
946	 0,171886150203112 
947	 0,171408062498784 
948	 0,170926278721734 
949	 0,171164750216747 
950	 0,170705187967939 
951	 0,169233034368256 
952	 0,17038385617632 
953	 0,172011708038157 
954	 0,171183276942281 
955	 0,170512523551917 
956	 0,170197333435113 
957	 0,169244600662447 
958	 0,168793059093403 
959	 0,16902982653536 
960	 0,168648321614139 
961	 0,169266145405885 
962	 0,17165206915223 
963	 0,171275596918222 
964	 0,170034447052251 
965	 0,171740809526326 
966	 0,172309936250174 
967	 0,1713008008916 
968	 0,170493402881699 
969	 0,170182590501054 
970	 0,170530992395552 
971	 0,171289414911965 
972	 0,171727853043317 
973	 0,171217679062064 
974	 0,170013032857192 
975	 0,169180979387698 
976	 0,17046599870904 
977	 0,171378053816065 
978	 0,171346092054522 
979	 0,170925628924971 
980	 0,171321609230688 
981	 0,172674479535187 
982	 0,172032723805392 
983	 0,170461788401244 
984	 0,169495706224572 
985	 0,171174319512721 
986	 0,173530606979775 
987	 0,172018908899686 
988	 0,172207033026777 
989	 0,174223202712881 
990	 0,172198521960268 
991	 0,172045476434721 
992	 0,175742103607323 
993	 0,175288918277658 
994	 0,173099438679309 
995	 0,172551147748444 
996	 0,174953843612059 
997	 0,177769263698249 
998	 0,175631233924814 
999	 0,173637872498014 
1000	 0,173419139900383 
1001	 0,175048953272146 
1002	 0,176360010709342 
1003	 0,176452045043265 
1004	 0,177265836284225 
1005	 0,178788838646063 
1006	 0,180469571769402 
1007	 0,177667938895069 
1008	 0,173503760118478 
1009	 0,174818204519473 
1010	 0,176399745355009 
1011	 0,177135091334074 
1012	 0,178209295456552 
1013	 0,178536910718518 
1014	 0,178237938394194 
1015	 0,180749379899718 
1016	 0,182106917460647 
1017	 0,179333691442098 
1018	 0,177872055027412 
1019	 0,178313448051516 
1020	 0,180169096859917 
1021	 0,181235474090884 
1022	 0,181247931022328 
1023	 0,181065104876459 
1024	 0,181984003105918 
1025	 0,183391216198739 
1026	 0,180028062580814 
1027	 0,178692249595019 
1028	 0,182721971140784 
1029	 0,181160465313411 
1030	 0,17850723328763 
1031	 0,181077008965807 
1032	 0,184308116347161 
1033	 0,18562350732358 
1034	 0,181817756777045 
1035	 0,180862446619077 
1036	 0,183892221536728 
1037	 0,185622792516915 
1038	 0,186192907720439 
1039	 0,186060150711013 
1040	 0,188514484545197 
1041	 0,188415122667514 
1042	 0,182453860359897 
1043	 0,180086868762274 
1044	 0,180322493922832 
1045	 0,17999951800566 
1046	 0,182729288580336 
1047	 0,187135859351221 
1048	 0,188863075792631 
1049	 0,186416443102309 
1050	 0,181225366854432 
1051	 0,18147682487344 
1052	 0,17998286819033 
1053	 0,175553253790882 
1054	 0,18239612817944 
1055	 0,194333237736366 
1056	 0,202892124513074 
1057	 0,190268346121342 
1058	 0,172344318474113 
1059	 0,175366496552205 
1060	 0,189190883379274 
1061	 0,202683439491574 
1062	 0,19604163457875 
1063	 0,188364323179319 
1064	 0,187130277458443 
1065	 0,196566544163975 
1066	 0,198998203408322 
1067	 0,18929472223395 
1068	 0,189001633752948 
1069	 0,187166481566758 
1070	 0,17851825175487 
1071	 0,193652087045222 
1072	 0,211097770605537 
1073	 0,202228339750324 
1074	 0,182129663574067 
1075	 0,164475793523565 
