Wavelength	CAMFROU00374.asd
325	 8,79281751540917E-02 
326	 2,38147324944434E-02 
327	-5,81036644078266E-02 
328	-8,72280811611242E-02 
329	 0,147678666208748 
330	 0,289259854754994 
331	 0,109005710771894 
332	-3,29865589086636E-03 
333	-1,16968577912623E-02 
334	-0,083232073159949 
335	-6,15587647168533E-02 
336	 5,17249010738029E-02 
337	 8,05532611049183E-02 
338	 0,095475806554236 
339	 0,152226518520783 
340	 0,129552428927103 
341	 5,79530690012993E-02 
342	 0,092248869806398 
343	 8,61829015597456E-02 
344	 2,13188377813905E-02 
345	 0,052881731941211 
346	 9,94691568333548E-02 
347	 0,100470839976853 
348	 8,99630578746198E-02 
349	 7,70466240449088E-02 
350	 8,10432325644629E-02 
351	 5,77163930173746E-02 
352	 8,77777414990959E-03 
353	 5,85527610041713E-02 
354	 0,122180297067215 
355	 0,107131793731989 
356	 8,65032833517744E-02 
357	 7,21444193263365E-02 
358	 5,07416578811876E-02 
359	 5,17514164004404E-02 
360	 7,65005764309384E-02 
361	 0,041212737131431 
362	-3,56033369402073E-03 
363	 2,94247387848872E-02 
364	 6,35998713232723E-02 
365	 7,61911774790645E-02 
366	 4,63505108020045E-02 
367	 2,37162439912417E-02 
368	 3,90532251959625E-02 
369	 5,12062023828929E-02 
370	 5,78299709522104E-02 
371	 0,068358184170175 
372	 7,53488572062305E-02 
373	 6,87694204350953E-02 
374	 1,42931147230998E-02 
375	-2,38975773494225E-02 
376	 5,40253104879272E-03 
377	 2,65661772897166E-02 
378	 3,38961031625443E-02 
379	 0,037119951649132 
380	 3,94222125298873E-02 
381	 4,10822417721264E-02 
382	 3,49534842288703E-02 
383	 3,29686499178025E-02 
384	 4,50368569882918E-02 
385	 5,20395093825225E-02 
386	 5,02646012237668E-02 
387	 3,70728999629949E-02 
388	 2,80506668214843E-02 
389	 2,84989837302852E-02 
390	 2,72561983313207E-02 
391	 2,63262256733477E-02 
392	 2,92152294515548E-02 
393	 3,05136700184882E-02 
394	 3,03149550084671E-02 
395	 3,34977740344122E-02 
396	 3,14644529666185E-02 
397	 2,28046030951777E-02 
398	 2,86007768033808E-02 
399	 3,90721576765752E-02 
400	 3,64285067281273E-02 
401	 3,35630668406974E-02 
402	 3,24947694417823E-02 
403	 2,81665601832713E-02 
404	 2,45054558295407E-02 
405	 2,43619647389433E-02 
406	 2,91535493844136E-02 
407	 3,64861686066289E-02 
408	 4,23314566502423E-02 
409	 4,22776948013825E-02 
410	 3,61088057273466E-02 
411	 0,027846556346461 
412	 2,43422393107017E-02 
413	 3,12230015735569E-02 
414	 3,41223848185342E-02 
415	 3,32707413699038E-02 
416	 3,69980862247084E-02 
417	 3,90361548487996E-02 
418	 3,68710745521649E-02 
419	 3,04909574558866E-02 
420	 2,62891953873075E-02 
421	 3,21454033422725E-02 
422	 3,86012897597138E-02 
423	 4,15473721349499E-02 
424	 3,52578869192359E-02 
425	 3,18069582665581E-02 
426	 3,74863411181243E-02 
427	 3,81790696483669E-02 
428	 3,48541132852799E-02 
429	 3,21679890377347E-02 
430	 3,24048995075493E-02 
431	 3,54024801692671E-02 
432	 3,67976542960556E-02 
433	 3,66754415775175E-02 
434	 0,035353497487603 
435	 3,42444096555012E-02 
436	 3,29486939862285E-02 
437	 2,88615357206383E-02 
438	 2,84507602916882E-02 
439	 3,30526670981138E-02 
440	 3,36320930672888E-02 
441	 3,23234898956386E-02 
442	 3,28240564099676E-02 
443	 3,51248653723211E-02 
444	 0,037345055141 
445	 3,28499900868675E-02 
446	 2,96443866044133E-02 
447	 3,21687962752321E-02 
448	 3,09843001972118E-02 
449	 0,028873844013186 
450	 3,33620813444082E-02 
451	 0,038258192480887 
452	 4,07288599810849E-02 
453	 3,78991399933182E-02 
454	 3,45102090291541E-02 
455	 3,50771795822002E-02 
456	 3,89155354209176E-02 
457	 4,26047233641406E-02 
458	 3,72920870017881E-02 
459	 3,45444406434626E-02 
460	 3,83331232003501E-02 
461	 3,94999045158262E-02 
462	 3,73009483434335E-02 
463	 3,18976998895009E-02 
464	 3,29894477128719E-02 
465	 3,96879587073177E-02 
466	 3,98374648674995E-02 
467	 3,86022829226986E-02 
468	 3,92260904363479E-02 
469	 3,83648415094001E-02 
470	 3,66807189982539E-02 
471	 3,59544900514935E-02 
472	 3,74453460636333E-02 
473	 4,04647270576036E-02 
474	 3,97042897660366E-02 
475	 3,80860046672646E-02 
476	 3,87118045376876E-02 
477	 3,99341925880788E-02 
478	 4,09631886717152E-02 
479	 4,05301968695878E-02 
480	 4,02721627539268E-02 
481	 4,05564096542918E-02 
482	 3,79358208710729E-02 
483	 3,55621474812713E-02 
484	 3,85636845158738E-02 
485	 0,039664347353517 
486	 0,038010083609072 
487	 3,83850010912201E-02 
488	 3,92163434207111E-02 
489	 3,92967162443674E-02 
490	 0,039460568969726 
491	 3,96850072038022E-02 
492	 3,96096508880862E-02 
493	 3,97004718766364E-02 
494	 4,01255918189397E-02 
495	 4,07383059917352E-02 
496	 0,041641998151576 
497	 4,29253565685037E-02 
498	 4,16486739302583E-02 
499	 3,87341000043167E-02 
500	 3,88255353595247E-02 
501	 3,98029052650981E-02 
502	 4,03724009748859E-02 
503	 4,02648301355799E-02 
504	 4,01956042515508E-02 
505	 4,16368434564882E-02 
506	 4,16409813222122E-02 
507	 4,02977313372357E-02 
508	 4,22103301924999E-02 
509	 4,36098716297825E-02 
510	 4,12161571248401E-02 
511	 0,04080827410664 
512	 4,25424736843501E-02 
513	 4,40924418476292E-02 
514	 4,45493049636267E-02 
515	 4,37911828529619E-02 
516	 4,45065320570301E-02 
517	 4,55989449902994E-02 
518	 4,51667625734139E-02 
519	 4,50886955121453E-02 
520	 4,55047675653322E-02 
521	 4,50073361799228E-02 
522	 4,48748017245571E-02 
523	 4,59005638263405E-02 
524	 4,61245040206203E-02 
525	 4,56775361114522E-02 
526	 4,53889243593815E-02 
527	 4,60850100330235E-02 
528	 4,76613272225405E-02 
529	 4,78355802957681E-02 
530	 4,72171902575911E-02 
531	 4,67172369105333E-02 
532	 4,74396892273744E-02 
533	 4,88031923265917E-02 
534	 4,81388365292114E-02 
535	 4,72953157453407E-02 
536	 4,73532896234475E-02 
537	 4,75670252066196E-02 
538	 4,78053005425387E-02 
539	 4,79743540776202E-02 
540	 4,85632056357743E-02 
541	 4,92854980156503E-02 
542	 4,80115703918831E-02 
543	 4,71689967052572E-02 
544	 4,90764794698926E-02 
545	 5,01340046546721E-02 
546	 5,00029540010211E-02 
547	 4,99551006114435E-02 
548	 0,049678409800184 
549	 4,92561318733691E-02 
550	 4,99897418626604E-02 
551	 5,11051040968115E-02 
552	 5,12147454597272E-02 
553	 5,09790757545096E-02 
554	 5,07549493662064E-02 
555	 5,12090885012001E-02 
556	 5,17184552013959E-02 
557	 5,17560932311539E-02 
558	 5,16984240974262E-02 
559	 5,15770268331381E-02 
560	 5,12293266138066E-02 
561	 5,12557560534573E-02 
562	 5,16900234641234E-02 
563	 5,10790501188181E-02 
564	 5,02971784811481E-02 
565	 5,06359474600352E-02 
566	 5,15927054541971E-02 
567	 5,26203607127728E-02 
568	 5,23755986680375E-02 
569	 5,18723547675234E-02 
570	 5,18772328836985E-02 
571	 5,23974211271602E-02 
572	 5,31132180227744E-02 
573	 5,32904046020808E-02 
574	 5,36573621025542E-02 
575	 5,43754633276876E-02 
576	 5,49391104579748E-02 
577	 5,52941241644534E-02 
578	 5,54368651481684E-02 
579	 5,62059477064224E-02 
580	 5,71465774065331E-02 
581	 5,61087472746109E-02 
582	 5,55481560642117E-02 
583	 5,67770180411871E-02 
584	 5,81240797494892E-02 
585	 5,90336234337861E-02 
586	 5,89483189856891E-02 
587	 5,88188806709997E-02 
588	 5,90778574545851E-02 
589	 6,01102338542236E-02 
590	 0,060972104968658 
591	 6,08227003910433E-02 
592	 6,11304624812276E-02 
593	 0,061683401708171 
594	 6,10373188640694E-02 
595	 6,04890462168354E-02 
596	 6,06808482640976E-02 
597	 6,14184951214065E-02 
598	 6,22460467968608E-02 
599	 0,062545263828474 
600	 6,27634068262306E-02 
601	 6,29440561452838E-02 
602	 6,28810474244719E-02 
603	 6,23851595720008E-02 
604	 6,14204119424631E-02 
605	 6,12905899528483E-02 
606	 6,17199253904384E-02 
607	 6,15057369157104E-02 
608	 6,10339429166421E-02 
609	 6,05169503267858E-02 
610	 6,03888403432744E-02 
611	 6,06297791834894E-02 
612	 6,11539587237289E-02 
613	 0,061155426685522 
614	 6,05694910986406E-02 
615	 5,98466385477988E-02 
616	 5,96358316964808E-02 
617	 6,02251281520089E-02 
618	 6,00805074535773E-02 
619	 5,95314409422655E-02 
620	 0,0597009346885 
621	 5,97969717206397E-02 
622	 5,96421653638981E-02 
623	 5,95492954160553E-02 
624	 5,98352555420285E-02 
625	 6,07350141108273E-02 
626	 6,03324003359237E-02 
627	 5,91487448926958E-02 
628	 5,99282720922946E-02 
629	 6,08699704857225E-02 
630	 6,10514414209556E-02 
631	 6,09028082475236E-02 
632	 6,08412553015616E-02 
633	 6,14616896044475E-02 
634	 6,20453376910225E-02 
635	 6,24069135307112E-02 
636	 6,27859004243609E-02 
637	 0,063043747993867 
638	 6,31003756221648E-02 
639	 6,35761250745024E-02 
640	 6,42364907591366E-02 
641	 6,41225508286471E-02 
642	 6,43922418236093E-02 
643	 6,53324557356254E-02 
644	 6,56848282661193E-02 
645	 6,56651433325737E-02 
646	 0,065709867448493 
647	 6,55058273770698E-02 
648	 6,51868260255081E-02 
649	 6,54599744843118E-02 
650	 6,55288062674937E-02 
651	 6,49062065762129E-02 
652	 6,43590790028175E-02 
653	 6,40009281072146E-02 
654	 6,38099854038707E-02 
655	 0,063587462030437 
656	 6,32683182494555E-02 
657	 6,30734478111536E-02 
658	 6,24335327884909E-02 
659	 6,08250234045728E-02 
660	 6,02577753266724E-02 
661	 6,04790320849805E-02 
662	 5,93890853249207E-02 
663	 5,83445764913764E-02 
664	 5,80405080989578E-02 
665	 5,82958545569271E-02 
666	 5,85252603552235E-02 
667	 5,78777401306309E-02 
668	 5,71309719683499E-02 
669	 5,65721564632121E-02 
670	 0,056324120863145 
671	 5,62001275416462E-02 
672	 0,056041669786001 
673	 5,58315069460664E-02 
674	 5,57907857402495E-02 
675	 5,66087812662382E-02 
676	 5,67294953019761E-02 
677	 5,58822595696733E-02 
678	 5,61545654278852E-02 
679	 5,67640956557541E-02 
680	 5,65938077565531E-02 
681	 5,68884215379583E-02 
682	 5,76808590188162E-02 
683	 0,058146987987395 
684	 5,86157606977073E-02 
685	 5,92594124501213E-02 
686	 5,97908218097235E-02 
687	 6,04887104888533E-02 
688	 6,18792107649065E-02 
689	 6,36007296893317E-02 
690	 6,54488675107675E-02 
691	 6,71006583234881E-02 
692	 0,068871145944886 
693	 7,10427152811433E-02 
694	 7,32174216888519E-02 
695	 7,56291795830168E-02 
696	 7,91531735137821E-02 
697	 8,24489747662028E-02 
698	 8,50848066443553E-02 
699	 8,82499462343353E-02 
700	 9,16713227206376E-02 
701	 0,094850077863715 
702	 9,83679037633599E-02 
703	 0,10207648071026 
704	 0,105054506471796 
705	 0,107899267194218 
706	 0,110942502622342 
707	 0,113572837879667 
708	 0,11600779430715 
709	 0,118797796428688 
710	 0,121356456504039 
711	 0,12359045092723 
712	 0,125993403891985 
713	 0,128178715492758 
714	 0,129809075558673 
715	 0,131710673866601 
716	 0,133659082430577 
717	 0,134651933482564 
718	 0,135485133893004 
719	 0,136537957040675 
720	 0,137850069053356 
721	 0,139237541495432 
722	 0,14046332394174 
723	 0,141151854923543 
724	 0,14152000251593 
725	 0,142550442721243 
726	 0,143811587988445 
727	 0,144948502114498 
728	 0,145389715127866 
729	 0,145504540061978 
730	 0,146107962912065 
731	 0,146518496953689 
732	 0,146698887364317 
733	 0,14733715164746 
734	 0,148083511009439 
735	 0,148597410085663 
736	 0,148827701245754 
737	 0,148905819038419 
738	 0,149170988961983 
739	 0,14948331058614 
740	 0,149799969818828 
741	 0,150103146141495 
742	 0,150507304106083 
743	 0,151139281258009 
744	 0,151746113682881 
745	 0,152116228168421 
746	 0,151842102306082 
747	 0,151459874987458 
748	 0,151341513078391 
749	 0,151731173808277 
750	 0,152393760635477 
751	 0,152942398172248 
752	 0,153095125082255 
753	 0,15291034566815 
754	 0,152933722529282 
755	 0,153209977835243 
756	 0,153710466566262 
757	 0,153860182546642 
758	 0,1538214583569 
759	 0,154132482386041 
760	 0,154329592764759 
761	 0,154358363838639 
762	 0,154683166301002 
763	 0,155020722670116 
764	 0,155097537756336 
765	 0,155231933336292 
766	 0,155415087554289 
767	 0,155409843786012 
768	 0,155693179911012 
769	 0,156310611035295 
770	 0,156379226685593 
771	 0,156159527722606 
772	 0,15605647672494 
773	 0,156346332288602 
774	 0,156841271693114 
775	 0,156690551508947 
776	 0,156782618387902 
777	 0,157455296290603 
778	 0,157661498624928 
779	 0,157511844625932 
780	 0,157341067528138 
781	 0,15737630468802 
782	 0,157643610628113 
783	 0,157924551879939 
784	 0,158188384611921 
785	 0,158415981235265 
786	 0,158726506424717 
787	 0,158893663485294 
788	 0,15845737950024 
789	 0,158474878935596 
790	 0,159078000977825 
791	 0,159399985752243 
792	 0,15933083896634 
793	 0,158884948668051 
794	 0,158993768408526 
795	 0,15951158208263 
796	 0,15976191322151 
797	 0,160055692293311 
798	 0,160418498340592 
799	 0,160589950485697 
800	 0,160694511440979 
801	 0,160848154077513 
802	 0,16080494920801 
803	 0,160675676817978 
804	 0,160871608587905 
805	 0,160889363842689 
806	 0,160687218162473 
807	 0,161108745173497 
808	 0,161561773005301 
809	 0,161379437483448 
810	 0,161239254785845 
811	 0,161303468978947 
812	 0,161612468712941 
813	 0,161894690638145 
814	 0,162035834133607 
815	 0,162213421287152 
816	 0,162314204315546 
817	 0,162202499457654 
818	 0,162417892055186 
819	 0,162788734425895 
820	 0,162363253930502 
821	 0,162226104771506 
822	 0,162805170943426 
823	 0,163256809243218 
824	 0,163427602703366 
825	 0,163248868182731 
826	 0,163403857445177 
827	 0,163781989221895 
828	 0,163413770459231 
829	 0,163225130365959 
830	 0,163608202190022 
831	 0,163751461485508 
832	 0,163555454823202 
833	 0,163016341646038 
834	 0,163431576298469 
835	 0,164523681429343 
836	 0,164238532772035 
837	 0,163999359420784 
838	 0,164509512916364 
839	 0,165000283912698 
840	 0,16509045302019 
841	 0,164386969195186 
842	 0,164089456238459 
843	 0,164320478347864 
844	 0,164329415510663 
845	 0,164274118259886 
846	 0,164322840602 
847	 0,165152614318677 
848	 0,165875724605411 
849	 0,165182902024283 
850	 0,164763901131635 
851	 0,16489070408978 
852	 0,164950607566726 
853	 0,164809027150412 
854	 0,164488244807363 
855	 0,164756371544428 
856	 0,165238049838025 
857	 0,165308651116757 
858	 0,165496386783652 
859	 0,165788094247803 
860	 0,165830306883461 
861	 0,165408520175079 
862	 0,164625110742739 
863	 0,16485312460285 
864	 0,165571677448495 
865	 0,165907139421496 
866	 0,166049718773186 
867	 0,165951447893848 
868	 0,165310256895231 
869	 0,165185515184526 
870	 0,165922211146448 
871	 0,166114232939887 
872	 0,16617387247404 
873	 0,166723214116536 
874	 0,166511237542006 
875	 0,165816250684903 
876	 0,166231609780324 
877	 0,16657619776842 
878	 0,166427990997739 
879	 0,166361547369828 
880	 0,166503035449506 
881	 0,166912403197934 
882	 0,16705659511308 
883	 0,166912307820097 
884	 0,166709520704248 
885	 0,166607134332741 
886	 0,166688734453563 
887	 0,166983189287315 
888	 0,167038020112805 
889	 0,166511633625995 
890	 0,166653850200833 
891	 0,167047916929862 
892	 0,166176213367878 
893	 0,166220435433733 
894	 0,167395720603934 
895	 0,167326296412452 
896	 0,166980161092699 
897	 0,167205951719282 
898	 0,168061480433127 
899	 0,168731614548278 
900	 0,167768892418568 
901	 0,166970814788713 
902	 0,166908271647261 
903	 0,167519946050561 
904	 0,168063406615074 
905	 0,168006749279123 
906	 0,167247528375669 
907	 0,166613460550329 
908	 0,16725108743803 
909	 0,167700870033624 
910	 0,167642311540559 
911	 0,16720726424804 
912	 0,167325641203969 
913	 0,168335786374242 
914	 0,169403397767622 
915	 0,169631263548935 
916	 0,168268956297824 
917	 0,167996705637874 
918	 0,16862322405506 
919	 0,168102511525579 
920	 0,168017924928375 
921	 0,168672377702857 
922	 0,168960597933022 
923	 0,168767239445364 
924	 0,168129037360916 
925	 0,167935415361052 
926	 0,168131267367404 
927	 0,168310994259442 
928	 0,168716016900556 
929	 0,169222027548062 
930	 0,169245343255644 
931	 0,16910948495728 
932	 0,169063355176233 
933	 0,169519097194409 
934	 0,169427940844351 
935	 0,16752463865258 
936	 0,167845229492015 
937	 0,169912509895121 
938	 0,169931653298247 
939	 0,168717534531338 
940	 0,167032373776076 
941	 0,167243031034672 
942	 0,168372007196181 
943	 0,169270164072621 
944	 0,168901974403122 
945	 0,16806564779945 
946	 0,168587046261651 
947	 0,169248919521848 
948	 0,169449716515075 
949	 0,168343549026543 
950	 0,167268089038487 
951	 0,167027749757889 
952	 0,167222095831897 
953	 0,167298972004928 
954	 0,166686905870833 
955	 0,166415248495089 
956	 0,166586134720372 
957	 0,166887005955809 
958	 0,167143083936134 
959	 0,167116274957021 
960	 0,166055716232383 
961	 0,165726456112704 
962	 0,167240554239976 
963	 0,168026631508281 
964	 0,167946946956777 
965	 0,167402600360474 
966	 0,167835877363122 
967	 0,168574728350573 
968	 0,166149805414223 
969	 0,164391790048683 
970	 0,16485305320509 
971	 0,166165801580571 
972	 0,166950727825699 
973	 0,166201797107475 
974	 0,166391826658486 
975	 0,167008570717064 
976	 0,166385256525504 
977	 0,165811731107923 
978	 0,16562837521494 
979	 0,165554788053592 
980	 0,166521252058407 
981	 0,168351336788495 
982	 0,167352849213313 
983	 0,166035698398815 
984	 0,167153620483894 
985	 0,168453459374063 
986	 0,169543974791445 
987	 0,17051304465704 
988	 0,170944714424227 
989	 0,170407706051251 
990	 0,167463971203169 
991	 0,166962513323805 
992	 0,170384738343145 
993	 0,169854855050639 
994	 0,167847803353938 
995	 0,167660646182753 
996	 0,168466003013445 
997	 0,169717762713494 
998	 0,170589671100204 
999	 0,170781384940021 
1000	 0,170560573083548 
1001	 0,171382210374215 
1002	 0,171560235776509 
1003	 0,170930217114688 
1004	 0,173900761335103 
1005	 0,176158844300687 
1006	 0,173531317530704 
1007	 0,170128313870233 
1008	 0,168957232256822 
1009	 0,173825158882874 
1010	 0,17653033253011 
1011	 0,175576762307618 
1012	 0,173920131582923 
1013	 0,174162835435262 
1014	 0,176693676999638 
1015	 0,176434637939753 
1016	 0,174235008868408 
1017	 0,171523240465614 
1018	 0,171010358966094 
1019	 0,173580597292733 
1020	 0,179453852177688 
1021	 0,1793605587679 
1022	 0,175009693080903 
1023	 0,177759294547271 
1024	 0,180878016736327 
1025	 0,181856866766352 
1026	 0,179810042754537 
1027	 0,179057731533454 
1028	 0,181667064853847 
1029	 0,180168247663352 
1030	 0,178156353540506 
1031	 0,180486346661566 
1032	 0,183877258672121 
1033	 0,18405010393741 
1034	 0,173763097111343 
1035	 0,172775433744623 
1036	 0,182385771461012 
1037	 0,184791124162686 
1038	 0,183969958811114 
1039	 0,181970579053839 
1040	 0,181488691186661 
1041	 0,180509690848438 
1042	 0,178115736699237 
1043	 0,182888820617657 
1044	 0,18620030809516 
1045	 0,175793483182837 
1046	 0,176542168508096 
1047	 0,186720328491174 
1048	 0,189546772381219 
1049	 0,183680167032908 
1050	 0,173058434130697 
1051	 0,177175214456927 
1052	 0,17866439217494 
1053	 0,171195215357 
1054	 0,170450493284203 
1055	 0,178818448065757 
1056	 0,194037538418273 
1057	 0,190522407858695 
1058	 0,178334872035145 
1059	 0,177234320168674 
1060	 0,179390804678979 
1061	 0,179682585779026 
1062	 0,169150406537018 
1063	 0,170491278286352 
1064	 0,185610871195012 
1065	 0,197480351523458 
1066	 0,196794588795688 
1067	 0,1825180768673 
1068	 0,176061100564417 
1069	 0,175668197771836 
1070	 0,178798981800483 
1071	 0,185866214959813 
1072	 0,186396861817977 
1073	 0,170193450420363 
1074	 0,16748004297458 
1075	 0,175727183426221 
