Wavelength	CAMFROU00692.asd
325	 0,421760292139566 
326	 0,412822240501234 
327	 0,319099613029813 
328	 0,215001581434281 
329	 0,504048887513872 
330	 0,66975105480679 
331	 0,370124065522994 
332	 0,11367036368326 
333	 5,63667076083803E-02 
334	 0,202415086713234 
335	 0,255598129274586 
336	 0,173835680709613 
337	 0,183546917728574 
338	 0,244272269659163 
339	 0,30965784142413 
340	 0,239083196245321 
341	 8,75260509770751E-02 
342	 0,112731033510142 
343	 0,127121252509127 
344	 0,0897177582794 
345	 0,10524883434475 
346	 0,131519897167206 
347	 0,135754696951405 
348	 0,124214541031778 
349	 0,114688913145174 
350	 0,165134439832447 
351	 0,163413153529153 
352	 9,30548189512382E-02 
353	 0,103951531964696 
354	 0,135750129512646 
355	 0,112432396805577 
356	 9,78604162162391E-02 
357	 0,09430789124268 
358	 6,39664599014392E-02 
359	 7,32912462634265E-02 
360	 0,132363145969248 
361	 0,109411673766353 
362	 0,063601545940702 
363	 9,68929527131094E-02 
364	 0,116245436871477 
365	 0,105689142109387 
366	 7,96749268803748E-02 
367	 7,66755312455432E-02 
368	 0,115231779897546 
369	 0,117502319927297 
370	 0,100204926186781 
371	 0,10652000996359 
372	 0,102441536310365 
373	 8,27162731373343E-02 
374	 5,81262852280517E-02 
375	 5,92900807094703E-02 
376	 0,10240870837205 
377	 0,112164600476658 
378	 9,58574132980062E-02 
379	 8,54708196608655E-02 
380	 8,89428571303706E-02 
381	 0,103794365326326 
382	 0,096107337471254 
383	 0,093131696521527 
384	 0,117756541572195 
385	 0,10688987869849 
386	 7,22198720223565E-02 
387	 7,56633700723413E-02 
388	 8,71412240542304E-02 
389	 9,26716111837314E-02 
390	 8,81737840917376E-02 
391	 8,00918105716987E-02 
392	 7,72665336512726E-02 
393	 7,68928632446266E-02 
394	 7,90171827390148E-02 
395	 0,086757752155086 
396	 8,95629271800204E-02 
397	 0,082578696133569 
398	 7,19249090065222E-02 
399	 0,063286611726801 
400	 6,41427459103764E-02 
401	 6,42063766292182E-02 
402	 0,0620434952421 
403	 6,33158847626346E-02 
404	 6,41837009278731E-02 
405	 6,26644878560534E-02 
406	 6,65278123049824E-02 
407	 0,072736042526662 
408	 7,37622946167215E-02 
409	 7,06010202311538E-02 
410	 6,42934497989496E-02 
411	 5,75596502897527E-02 
412	 5,23756195021702E-02 
413	 5,07937882204349E-02 
414	 5,75958111054024E-02 
415	 6,72771901762391E-02 
416	 6,54373371785605E-02 
417	 6,46085943188707E-02 
418	 6,78097118461713E-02 
419	 6,08121395829841E-02 
420	 5,29912941406632E-02 
421	 5,77151635646373E-02 
422	 5,90528680825581E-02 
423	 5,51958211054604E-02 
424	 5,19058681358201E-02 
425	 5,23075277371745E-02 
426	 5,74433283448394E-02 
427	 5,90398598882388E-02 
428	 5,76959046205605E-02 
429	 5,64477539709816E-02 
430	 5,57969806993327E-02 
431	 5,57182350659654E-02 
432	 5,46046893362076E-02 
433	 5,33810565147855E-02 
434	 5,29635188853384E-02 
435	 5,36893772419496E-02 
436	 5,42487559653652E-02 
437	 5,06244969663089E-02 
438	 5,00331093293811E-02 
439	 5,44047421154947E-02 
440	 5,63379100931789E-02 
441	 5,63121040849849E-02 
442	 5,57957542321375E-02 
443	 5,75752907093943E-02 
444	 5,99037942510194E-02 
445	 5,41300305918625E-02 
446	 4,99406737061548E-02 
447	 5,27565820806339E-02 
448	 0,051742390260985 
449	 4,93531582760604E-02 
450	 5,28408359721217E-02 
451	 5,71592567449361E-02 
452	 5,98189777032948E-02 
453	 5,77746406130613E-02 
454	 5,43246586839037E-02 
455	 5,29230992967949E-02 
456	 5,75307688777489E-02 
457	 6,44280685566871E-02 
458	 6,24470798644259E-02 
459	 5,86990571072597E-02 
460	 5,67541569248398E-02 
461	 5,87131609403005E-02 
462	 6,02051326713879E-02 
463	 5,51724126184096E-02 
464	 5,39725042345469E-02 
465	 5,74698718137248E-02 
466	 5,92208238605907E-02 
467	 5,95633164135419E-02 
468	 5,87446156072802E-02 
469	 5,74462966707377E-02 
470	 5,61235093760535E-02 
471	 5,51367514577275E-02 
472	 5,53546265317798E-02 
473	 5,66888689967197E-02 
474	 5,71902042525267E-02 
475	 0,05769330972143 
476	 5,90388325665445E-02 
477	 5,89344574866847E-02 
478	 5,77268077973968E-02 
479	 0,057603955924753 
480	 5,77905402755168E-02 
481	 0,057850991773745 
482	 5,73207715642983E-02 
483	 5,63480423500921E-02 
484	 5,51697543139915E-02 
485	 0,055430574968486 
486	 5,66932641694444E-02 
487	 5,53109943261644E-02 
488	 5,46537622359107E-02 
489	 5,70306240330263E-02 
490	 5,87358478361422E-02 
491	 5,85331547048747E-02 
492	 5,45183686080447E-02 
493	 5,33434455497366E-02 
494	 5,63403217047445E-02 
495	 5,61120807710313E-02 
496	 0,055165485111215 
497	 5,68863608085415E-02 
498	 0,056378544610812 
499	 5,37125381738397E-02 
500	 5,21987549588764E-02 
501	 5,18357956639185E-02 
502	 5,26050210548612E-02 
503	 5,37496975608937E-02 
504	 0,055145484694229 
505	 5,69719049728789E-02 
506	 5,75770547945205E-02 
507	 5,69133405377524E-02 
508	 5,72614710762316E-02 
509	 5,72467693083325E-02 
510	 0,055741982886391 
511	 5,65885424630593E-02 
512	 5,90415816883566E-02 
513	 5,93381075571567E-02 
514	 5,95327514749974E-02 
515	 6,02935420866055E-02 
516	 6,01314872937872E-02 
517	 5,98991902587812E-02 
518	 6,09596557751644E-02 
519	 6,14577152602969E-02 
520	 6,12265001575366E-02 
521	 6,15425194405287E-02 
522	 6,18017340258414E-02 
523	 6,15879046614581E-02 
524	 6,14698552562679E-02 
525	 6,13741838960774E-02 
526	 6,08634157339582E-02 
527	 6,06612321746173E-02 
528	 6,08821515681949E-02 
529	 6,06746342269517E-02 
530	 6,02764485064738E-02 
531	 6,00359904709718E-02 
532	 0,060628172666232 
533	 6,17475753770012E-02 
534	 6,21211870942166E-02 
535	 0,061784837150285 
536	 0,060882554813657 
537	 6,04651621258811E-02 
538	 6,05264324949178E-02 
539	 6,07661970835282E-02 
540	 6,08706595603221E-02 
541	 6,06438164413866E-02 
542	 5,96774318811996E-02 
543	 5,93486263931783E-02 
544	 6,08990287682455E-02 
545	 6,17799147951142E-02 
546	 6,15994907543902E-02 
547	 0,060742516952115 
548	 6,04211886928261E-02 
549	 6,11449009283164E-02 
550	 6,16387592331677E-02 
551	 6,17228539506394E-02 
552	 6,13519568202472E-02 
553	 0,061330357350781 
554	 6,17082810187797E-02 
555	 6,16120045206989E-02 
556	 0,061432594543842 
557	 6,14961812048147E-02 
558	 6,15871642012433E-02 
559	 6,13038618113416E-02 
560	 5,95258571281409E-02 
561	 5,87053975262851E-02 
562	 5,95658849700245E-02 
563	 5,97407549644919E-02 
564	 5,91603207985471E-02 
565	 5,80271152523835E-02 
566	 5,81487147836033E-02 
567	 5,94301496544994E-02 
568	 5,97672275068045E-02 
569	 5,96530659095436E-02 
570	 5,95229903821851E-02 
571	 0,060085876051859 
572	 6,11286611038709E-02 
573	 6,18528549256998E-02 
574	 0,063138897122717 
575	 6,49095648659891E-02 
576	 6,52319365523699E-02 
577	 6,53368506071379E-02 
578	 6,67287875651888E-02 
579	 0,06816531080013 
580	 6,91860064687257E-02 
581	 6,92596151096494E-02 
582	 6,95357754871396E-02 
583	 7,06417078003891E-02 
584	 7,17239939987791E-02 
585	 7,28006695455496E-02 
586	 7,41506880620696E-02 
587	 0,075022724448253 
588	 7,53626959778875E-02 
589	 7,60977317383078E-02 
590	 7,66871914858073E-02 
591	 7,66610237791977E-02 
592	 0,077552019784163 
593	 0,078974312984575 
594	 7,91121699085877E-02 
595	 7,88893499809365E-02 
596	 7,87480524750614E-02 
597	 7,86795917471917E-02 
598	 7,86627671005667E-02 
599	 7,86421321396008E-02 
600	 7,87577646955724E-02 
601	 7,88153090241273E-02 
602	 7,78978149455837E-02 
603	 0,077163125208557 
604	 7,74716685359332E-02 
605	 7,76057975250862E-02 
606	 7,72450215596975E-02 
607	 0,076122871988514 
608	 7,50829590147971E-02 
609	 7,44621658732991E-02 
610	 7,38611969392895E-02 
611	 7,34484916727428E-02 
612	 7,34599241314169E-02 
613	 7,27239053032298E-02 
614	 7,14524604380468E-02 
615	 7,13699288990974E-02 
616	 7,13665513028819E-02 
617	 7,07712873619197E-02 
618	 7,03657982848437E-02 
619	 7,01095251691226E-02 
620	 6,96709302100911E-02 
621	 6,95455844593627E-02 
622	 6,98197006466551E-02 
623	 7,01339435578472E-02 
624	 7,01868368459763E-02 
625	 6,97349629277893E-02 
626	 6,97696694441921E-02 
627	 7,03214049524958E-02 
628	 7,08263999331692E-02 
629	 0,071248544200793 
630	 7,15021855024129E-02 
631	 7,12431685290254E-02 
632	 7,11279233143664E-02 
633	 7,22836262456487E-02 
634	 7,29391205660797E-02 
635	 7,29044573017953E-02 
636	 7,36755974268123E-02 
637	 7,48054887799491E-02 
638	 7,58632353490484E-02 
639	 7,69217311083138E-02 
640	 7,77812509810429E-02 
641	 7,79407859025186E-02 
642	 7,81312230276799E-02 
643	 7,86566660268909E-02 
644	 0,079327961796935 
645	 7,98081056742535E-02 
646	 0,079694866720654 
647	 7,96137630476617E-02 
648	 7,96764461432886E-02 
649	 7,97692274780216E-02 
650	 7,92982459047071E-02 
651	 7,79423964674313E-02 
652	 7,65996031284205E-02 
653	 7,56220157114368E-02 
654	 0,075415026358184 
655	 7,50757678460693E-02 
656	 7,41768183098728E-02 
657	 0,072544104191473 
658	 7,05113061022562E-02 
659	 0,06845549105472 
660	 6,65874725927954E-02 
661	 6,50830421192453E-02 
662	 6,42938349530484E-02 
663	 0,063119383876316 
664	 6,12050043519462E-02 
665	 0,060412869254606 
666	 6,01985248132994E-02 
667	 5,93641771906821E-02 
668	 5,88871694115647E-02 
669	 5,88133069312936E-02 
670	 5,82975501067646E-02 
671	 5,77382723823997E-02 
672	 5,74413428614723E-02 
673	 5,68084461335679E-02 
674	 5,62288560221537E-02 
675	 5,69796167031388E-02 
676	 0,057236614979777 
677	 5,65387387679882E-02 
678	 5,64907385281707E-02 
679	 5,67158915902653E-02 
680	 5,66194245878836E-02 
681	 5,71274717239736E-02 
682	 5,80578517260848E-02 
683	 5,80176138227613E-02 
684	 5,86012979281828E-02 
685	 6,06012680300324E-02 
686	 6,21575888622626E-02 
687	 6,35698006603356E-02 
688	 6,57958769819895E-02 
689	 6,84834992632198E-02 
690	 7,16412285330141E-02 
691	 7,55571354389927E-02 
692	 8,01901575800243E-02 
693	 8,55063111794139E-02 
694	 9,16489936186707E-02 
695	 9,88108525784569E-02 
696	 0,10739507207414 
697	 0,116884377223503 
698	 0,12703138557423 
699	 0,137875870874092 
700	 0,149524669284635 
701	 0,162086042755022 
702	 0,175228872637177 
703	 0,18856190975801 
704	 0,201298794791159 
705	 0,213885328528762 
706	 0,226562267229477 
707	 0,239066103696526 
708	 0,251216310988541 
709	 0,262729715052315 
710	 0,27356121501436 
711	 0,283784413655577 
712	 0,293785944763953 
713	 0,303455489447329 
714	 0,312642017878966 
715	 0,321129371426128 
716	 0,328871147882189 
717	 0,335910589067998 
718	 0,342481379505745 
719	 0,348680691384816 
720	 0,354396598099057 
721	 0,359602429147703 
722	 0,364288073813439 
723	 0,368800873964089 
724	 0,373092042628573 
725	 0,376581548638596 
726	 0,379849177610863 
727	 0,383226364640823 
728	 0,38611369138873 
729	 0,388656090871973 
730	 0,391249539236283 
731	 0,393721422533777 
732	 0,396024697622326 
733	 0,398178037859346 
734	 0,400042053549266 
735	 0,401521468287998 
736	 0,402983146529494 
737	 0,404420435391396 
738	 0,405613592113051 
739	 0,406709770333992 
740	 0,407779626959392 
741	 0,408933711574337 
742	 0,409813685306438 
743	 0,410024662575706 
744	 0,410719079332621 
745	 0,411790030470622 
746	 0,412003412741038 
747	 0,412265715870941 
748	 0,413028146755815 
749	 0,413828923702359 
750	 0,414480737289795 
751	 0,414794877372507 
752	 0,414942502076614 
753	 0,415111786628629 
754	 0,415773140382696 
755	 0,416398655465506 
756	 0,416599034069242 
757	 0,4165884595798 
758	 0,416630753126993 
759	 0,417197106105236 
760	 0,417603009546225 
761	 0,417729247248604 
762	 0,418143113007342 
763	 0,418738791722686 
764	 0,419370313550136 
765	 0,41981044285017 
766	 0,420001989628397 
767	 0,419864772376455 
768	 0,420065295682664 
769	 0,420769658891611 
770	 0,42113151260996 
771	 0,421352191833104 
772	 0,421751535512082 
773	 0,42203364732102 
774	 0,422149976213954 
775	 0,422080343726612 
776	 0,422367236531295 
777	 0,423155813875626 
778	 0,423320734757921 
779	 0,423110273201459 
780	 0,423078680265126 
781	 0,423124155879057 
782	 0,4232382217983 
783	 0,423407627058063 
784	 0,423579248024262 
785	 0,423729060021572 
786	 0,42400850813348 
787	 0,42426557187862 
788	 0,424196411030615 
789	 0,424157627519384 
790	 0,424238816173311 
791	 0,424281990945995 
792	 0,424434853857678 
793	 0,424784880397484 
794	 0,424898197107426 
795	 0,424982941101086 
796	 0,425697938513665 
797	 0,426008965031362 
798	 0,425752284361096 
799	 0,425987322287048 
800	 0,426231113814856 
801	 0,426036126115621 
802	 0,426372223242591 
803	 0,426995461894898 
804	 0,426841606049668 
805	 0,426551835413678 
806	 0,426457201746862 
807	 0,426992489179861 
808	 0,427579701539959 
809	 0,427594064565976 
810	 0,427810479725288 
811	 0,428224374528786 
812	 0,428382968423701 
813	 0,428455001095791 
814	 0,428557322776159 
815	 0,428980824484595 
816	 0,429348517792474 
817	 0,429206683740306 
818	 0,429374464967813 
819	 0,429762367645922 
820	 0,429437467737313 
821	 0,429556905556916 
822	 0,430476197774627 
823	 0,430682187572963 
824	 0,43051374444492 
825	 0,43060865867631 
826	 0,43135272050337 
827	 0,432362322275239 
828	 0,432124287020258 
829	 0,431705358085171 
830	 0,431688319418311 
831	 0,431897285356071 
832	 0,432217595849004 
833	 0,43250551657644 
834	 0,432810735137371 
835	 0,433010595937502 
836	 0,432648541110557 
837	 0,432564411747065 
838	 0,433132436906024 
839	 0,433520643299728 
840	 0,433459651696544 
841	 0,432731561828883 
842	 0,432408142558029 
843	 0,432719243027533 
844	 0,433380366408875 
845	 0,433936512064483 
846	 0,434100058652588 
847	 0,433948263601445 
848	 0,433869425383828 
849	 0,434375832960292 
850	 0,434763866620534 
851	 0,434772603810322 
852	 0,434142624469516 
853	 0,433828329547454 
854	 0,434265486287616 
855	 0,434433968911625 
856	 0,434470188586955 
857	 0,434716498181025 
858	 0,434847175585113 
859	 0,434936614608398 
860	 0,435512971578965 
861	 0,435870879768093 
862	 0,435703794976883 
863	 0,435560359736815 
864	 0,435784378321945 
865	 0,436706028762689 
866	 0,437051524470028 
867	 0,436780644188674 
868	 0,436736872087164 
869	 0,437010833656794 
870	 0,437622402665762 
871	 0,438232792672511 
872	 0,438741735832213 
873	 0,439064856223978 
874	 0,438603315577187 
875	 0,437950509872083 
876	 0,439257930853842 
877	 0,439908136931086 
878	 0,439066291884991 
879	 0,438901020258987 
880	 0,439085539277804 
881	 0,439085333638882 
882	 0,43894032951192 
883	 0,438849618391593 
884	 0,439328529882244 
885	 0,439953741777765 
886	 0,440427732315064 
887	 0,440255660363843 
888	 0,439699402728588 
889	 0,43912303125412 
890	 0,439549267734827 
891	 0,440191537160499 
892	 0,438808312856256 
893	 0,438404094815807 
894	 0,439447156848919 
895	 0,439318061143802 
896	 0,439049380025922 
897	 0,43949465745065 
898	 0,440246145901992 
899	 0,440725466494776 
900	 0,440040842625925 
901	 0,439413637033768 
902	 0,43924563546273 
903	 0,439456493196198 
904	 0,439829168723012 
905	 0,440216755966305 
906	 0,440768558868078 
907	 0,441189183764247 
908	 0,441065456515067 
909	 0,440838810397505 
910	 0,440684789258802 
911	 0,44074977988395 
912	 0,44069119713923 
913	 0,440590554357342 
914	 0,442146499167041 
915	 0,443042377255923 
916	 0,440831415410318 
917	 0,440948421531058 
918	 0,442893484195733 
919	 0,442623752732654 
920	 0,441623571796621 
921	 0,440595778999053 
922	 0,440603059061695 
923	 0,44081901317499 
924	 0,440505997766949 
925	 0,439953619504786 
926	 0,439488518858069 
927	 0,439585375548903 
928	 0,440343930456583 
929	 0,441084149790117 
930	 0,439312371986292 
931	 0,437745802798105 
932	 0,437758906739006 
933	 0,436690590129893 
934	 0,435458749689931 
935	 0,435546765701904 
936	 0,435401587420494 
937	 0,434887642421827 
938	 0,434703615097498 
939	 0,434156648209066 
940	 0,433137010533087 
941	 0,432479124867231 
942	 0,43188689452782 
943	 0,431055329043966 
944	 0,429959031443222 
945	 0,429020087843283 
946	 0,429060996937309 
947	 0,428168105240253 
948	 0,426181812980409 
949	 0,424657428803926 
950	 0,42337603347327 
951	 0,422306922653445 
952	 0,42199003005587 
953	 0,421405910306993 
954	 0,419372969431962 
955	 0,418044482978051 
956	 0,417346089383771 
957	 0,415830980801227 
958	 0,414387044599136 
959	 0,413335533017886 
960	 0,412709630374858 
961	 0,412119775176887 
962	 0,411322783751212 
963	 0,410905066436106 
964	 0,410893757521995 
965	 0,411194023580098 
966	 0,411308736718225 
967	 0,410890732351097 
968	 0,40937968797919 
969	 0,407781283646719 
970	 0,406917732101675 
971	 0,408253504057298 
972	 0,40987433575081 
973	 0,409959896398206 
974	 0,409443017103933 
975	 0,408846720404712 
976	 0,408807112489188 
977	 0,409440591666276 
978	 0,410412715384114 
979	 0,41048028198085 
980	 0,41048256887822 
981	 0,410800244456049 
982	 0,41109273481943 
983	 0,411043323598579 
984	 0,41050206792223 
985	 0,411452754703037 
986	 0,412881021405797 
987	 0,412120175275259 
988	 0,412336873710571 
989	 0,413787833969555 
990	 0,413916562283423 
991	 0,414210367779047 
992	 0,41543723747258 
993	 0,417432123523797 
994	 0,41844101668788 
995	 0,417080017052696 
996	 0,419152988933493 
997	 0,422884911300794 
998	 0,422777928146437 
999	 0,423491532919564 
1000	 0,425008074303163 
1001	 0,422134253763751 
1002	 0,4216215347156 
1003	 0,425883374522094 
1004	 0,427604470638753 
1005	 0,427987015475715 
1006	 0,428732344070546 
1007	 0,42866269053964 
1008	 0,428912106482464 
1009	 0,431683629374537 
1010	 0,433299954801077 
1011	 0,433278238171603 
1012	 0,433635545097297 
1013	 0,433369095685644 
1014	 0,432820739741084 
1015	 0,435796694683464 
1016	 0,43841144873126 
1017	 0,43758719473796 
1018	 0,438089861869565 
1019	 0,439002337737296 
1020	 0,43800836552396 
1021	 0,440565007482691 
1022	 0,445868857975198 
1023	 0,448371900627007 
1024	 0,44740755454652 
1025	 0,44381982239771 
1026	 0,442390227174771 
1027	 0,443818192313577 
1028	 0,447693436600405 
1029	 0,44808513510275 
1030	 0,448543298768775 
1031	 0,453518951416491 
1032	 0,455509005686705 
1033	 0,453944447303669 
1034	 0,450548263598959 
1035	 0,452079098315448 
1036	 0,458000970809932 
1037	 0,458564808541774 
1038	 0,457714541540662 
1039	 0,457294976797132 
1040	 0,457736736601958 
1041	 0,457235053474945 
1042	 0,455141182570691 
1043	 0,459967775340431 
1044	 0,462598634847712 
1045	 0,450262623495195 
1046	 0,451444778896687 
1047	 0,462607967877728 
1048	 0,460379728191775 
1049	 0,456583015400102 
1050	 0,455337515418636 
1051	 0,458740203636087 
1052	 0,464903478567795 
1053	 0,471790685556275 
1054	 0,472822998943289 
1055	 0,47456633260899 
1056	 0,480925278773414 
1057	 0,471314216036813 
1058	 0,457000631754288 
1059	 0,457865779484617 
1060	 0,460754486996582 
1061	 0,464685439685573 
1062	 0,473949002504884 
1063	 0,477165120436893 
1064	 0,473828284992543 
1065	 0,476526263276639 
1066	 0,474714116960297 
1067	 0,466514427533744 
1068	 0,46854942870632 
1069	 0,468238838862468 
1070	 0,458516727651295 
1071	 0,465748434672181 
1072	 0,474299842647361 
1073	 0,463487292113689 
1074	 0,454906550195161 
1075	 0,454987050313908 
