Wavelength	CAMFROU00748.asd
325	-3,96884132737674E-02 
326	 0,129416860638093 
327	 0,133531965917555 
328	 3,58043110856946E-02 
329	 0,102049563038042 
330	 0,152979357080424 
331	 7,26998912505053E-02 
332	 0,111308858510303 
333	 0,199364454458444 
334	 7,51506271394106E-02 
335	-4,99316538355301E-03 
336	 3,7180315678585E-04 
337	-7,31593382358838E-02 
338	-4,81796515823861E-02 
339	 0,178236955299815 
340	 0,158032676332649 
341	-0,054250560259507 
342	-6,71832519802872E-02 
343	-7,44910687592873E-02 
344	-0,105944188391079 
345	 1,07788447276268E-02 
346	 0,11741597021763 
347	 0,123034524101928 
348	 9,06888911374003E-02 
349	 4,81927335100577E-02 
350	 0,056933239276472 
351	 5,11600418251527E-02 
352	 1,67295709594839E-02 
353	 2,89071018208857E-02 
354	 4,99563136448338E-02 
355	 0,0354747877159 
356	 3,83093034659251E-02 
357	 4,85553000557349E-02 
358	-4,53856095604692E-03 
359	-8,86504810996796E-03 
360	 6,38246177425381E-02 
361	 0,028291886703023 
362	-3,77030672070157E-02 
363	 3,15035607857534E-03 
364	 2,01144103948417E-02 
365	 1,62503555292242E-03 
366	 0,016543000383927 
367	 2,57822221849369E-02 
368	 9,2974777306427E-03 
369	 2,74465244772306E-02 
370	 6,08372130038598E-02 
371	 7,70512687609529E-02 
372	 5,10825053033331E-02 
373	-3,52063533293144E-03 
374	 6,0125036439416E-04 
375	 2,58457706344024E-02 
376	 3,53763909484535E-02 
377	 0,03334017531256 
378	 2,66630980307473E-02 
379	 2,77660674348358E-02 
380	 0,035317197926559 
381	 4,49613725108036E-02 
382	 4,13544966610625E-02 
383	 3,40176848651425E-02 
384	 3,24523571538822E-02 
385	 2,72399017118086E-02 
386	 2,13307185610554E-02 
387	 0,028184430303514 
388	 3,34938183547313E-02 
389	 3,27945099719541E-02 
390	 3,66119959363868E-02 
391	 4,04019687619974E-02 
392	 3,75149034016254E-02 
393	 2,61570066220344E-02 
394	 0,013453767666066 
395	 2,05687795014778E-02 
396	 3,05744129971326E-02 
397	 3,37211892517581E-02 
398	 3,04416542492122E-02 
399	 2,51808377209305E-02 
400	 2,43327913745289E-02 
401	 2,55050145766927E-02 
402	 2,82299431848183E-02 
403	 3,33308686920843E-02 
404	 3,66478692297155E-02 
405	 3,52771181047371E-02 
406	 2,64327445497738E-02 
407	 1,90920079748127E-02 
408	 3,24087650920728E-02 
409	 3,93896008322659E-02 
410	 0,033326053716765 
411	 2,17689498476724E-02 
412	 1,52248384273843E-02 
413	 2,25209759249899E-02 
414	 2,47034387535585E-02 
415	 2,17529676288728E-02 
416	 2,27720178942822E-02 
417	 2,51118067233094E-02 
418	 2,74418629170928E-02 
419	 2,80900085880437E-02 
420	 2,75911615420566E-02 
421	 2,67988553273777E-02 
422	 0,028795177428973 
423	 0,03182818221649 
424	 2,73903155799582E-02 
425	 2,53196615658909E-02 
426	 3,04976011412253E-02 
427	 2,97758534465768E-02 
428	 2,58765218363752E-02 
429	 2,64900501617483E-02 
430	 2,83968438807142E-02 
431	 2,95513363666659E-02 
432	 2,47058894082024E-02 
433	 2,19519538789583E-02 
434	 2,79437630924301E-02 
435	 2,96959923725896E-02 
436	 2,62058387792499E-02 
437	 2,01269150969065E-02 
438	 1,90799275094742E-02 
439	 2,48327497793328E-02 
440	 0,026446305888973 
441	 0,024799471309573 
442	 2,23144935436944E-02 
443	 2,42943729426247E-02 
444	 2,86753156076888E-02 
445	 2,36864453573281E-02 
446	 1,94295861011227E-02 
447	 2,18458873539747E-02 
448	 0,022783105238635 
449	 2,22862186662366E-02 
450	 2,22035841147012E-02 
451	 2,54437427213694E-02 
452	 3,10903456682759E-02 
453	 0,031724839894686 
454	 0,027793508537017 
455	 2,08138606693946E-02 
456	 2,41246691508933E-02 
457	 3,37389121457094E-02 
458	 3,26313020644088E-02 
459	 2,98352344473637E-02 
460	 0,028641086993201 
461	 2,55396581436496E-02 
462	 2,15194547899607E-02 
463	 1,81350433315396E-02 
464	 1,85429083679735E-02 
465	 2,21441723505154E-02 
466	 2,44647094515959E-02 
467	 2,43668336730879E-02 
468	 2,16637781629116E-02 
469	 2,22123236695626E-02 
470	 2,46367822547302E-02 
471	 2,44295053657333E-02 
472	 2,48313707178263E-02 
473	 2,64103784010809E-02 
474	 2,70862562828737E-02 
475	 2,74176239111312E-02 
476	 2,80329297039501E-02 
477	 2,84115883922013E-02 
478	 2,77450257992516E-02 
479	 2,35397890188594E-02 
480	 2,18701381124284E-02 
481	 0,024831447997006 
482	 2,51742351297952E-02 
483	 2,40169718736222E-02 
484	 2,42033049687665E-02 
485	 2,37997776963739E-02 
486	 2,30523544610304E-02 
487	 2,44596510571608E-02 
488	 2,64954342612687E-02 
489	 2,79313664330774E-02 
490	 2,94087173851355E-02 
491	 2,96705051180865E-02 
492	 2,51661666686675E-02 
493	 2,31770879726264E-02 
494	 2,54072173227985E-02 
495	 2,51373581684091E-02 
496	 2,46458392108349E-02 
497	 2,69846019985378E-02 
498	 0,027267841466241 
499	 2,51028456216808E-02 
500	 2,23493233775768E-02 
501	 2,15614376072375E-02 
502	 2,37204021744745E-02 
503	 2,35153574825319E-02 
504	 2,23757428630994E-02 
505	 2,41551739546035E-02 
506	 2,46650849945392E-02 
507	 2,36348131318616E-02 
508	 0,025856168284958 
509	 2,68370761029497E-02 
510	 2,27729696576358E-02 
511	 2,16360289533247E-02 
512	 2,36443031159745E-02 
513	 2,55053118840663E-02 
514	 2,60522023150154E-02 
515	 2,48974005997285E-02 
516	 2,39948887027193E-02 
517	 2,40079531129991E-02 
518	 2,55294377279098E-02 
519	 2,62981006038346E-02 
520	 0,025900453334323 
521	 2,52208396711646E-02 
522	 0,025081331398545 
523	 2,59229341158662E-02 
524	 2,57223157313629E-02 
525	 2,50468061185599E-02 
526	 2,61097289655653E-02 
527	 2,60387623904474E-02 
528	 2,45009948026686E-02 
529	 2,53602019346463E-02 
530	 2,66209775047344E-02 
531	 2,57347217841933E-02 
532	 2,58201969271605E-02 
533	 2,68906123190546E-02 
534	 2,69438779144545E-02 
535	 2,59556939636667E-02 
536	 2,41749083642304E-02 
537	 2,37692402111033E-02 
538	 2,45559300968447E-02 
539	 2,56883531411176E-02 
540	 2,63629882591655E-02 
541	 2,60731089745008E-02 
542	 2,39750683106357E-02 
543	 2,27597447979017E-02 
544	 0,024909089020706 
545	 2,63604661966107E-02 
546	 2,63837920800466E-02 
547	 2,54532494162608E-02 
548	 2,46320963357461E-02 
549	 0,024532968280408 
550	 2,49118190010293E-02 
551	 2,55269738267305E-02 
552	 2,60895588895576E-02 
553	 0,026185243601105 
554	 2,58523402073551E-02 
555	 2,58184201010681E-02 
556	 2,58606752806579E-02 
557	 0,025773428733164 
558	 2,55577646505854E-02 
559	 2,52844487565415E-02 
560	 2,50875759404738E-02 
561	 2,51169574306532E-02 
562	 2,53541035767695E-02 
563	 2,52865571815147E-02 
564	 2,50220368782367E-02 
565	 2,47596277629138E-02 
566	 0,025131317200603 
567	 2,58186916092336E-02 
568	 2,51387789367948E-02 
569	 2,42420188673088E-02 
570	 2,39866912935974E-02 
571	 2,42700307941223E-02 
572	 2,47714172663878E-02 
573	 2,48285847952584E-02 
574	 2,48656955486797E-02 
575	 2,50601402299922E-02 
576	 2,56327433913142E-02 
577	 2,59875854540159E-02 
578	 2,54756193145382E-02 
579	 2,56752538465049E-02 
580	 2,63920621996846E-02 
581	 2,57331276940062E-02 
582	 2,54448933261401E-02 
583	 0,026385851886505 
584	 2,69294491125898E-02 
585	 2,69964752998598E-02 
586	 2,68252144718288E-02 
587	 2,67518293967063E-02 
588	 2,69016013275071E-02 
589	 2,71901335116059E-02 
590	 2,74257211396066E-02 
591	 2,74573155415664E-02 
592	 2,78794579120812E-02 
593	 2,84201094856739E-02 
594	 2,80056696147548E-02 
595	 2,76341416905478E-02 
596	 0,027747194346072 
597	 0,027809388254553 
598	 2,80223765181625E-02 
599	 0,028797051659326 
600	 2,87882693170161E-02 
601	 2,80563014941724E-02 
602	 2,85441816240674E-02 
603	 2,86053942919403E-02 
604	 2,71068787718644E-02 
605	 2,69444067256381E-02 
606	 2,77691428812443E-02 
607	 2,75502987293677E-02 
608	 2,69604550328856E-02 
609	 2,64169394916594E-02 
610	 2,70742368808249E-02 
611	 2,78485079267965E-02 
612	 0,027307604783079 
613	 2,68824199656502E-02 
614	 2,68005742742526E-02 
615	 2,65630672722414E-02 
616	 2,64285855962252E-02 
617	 2,64738695639246E-02 
618	 2,57800047920413E-02 
619	 0,025000190055141 
620	 2,57237336347252E-02 
621	 2,60182549626529E-02 
622	 2,55199981809715E-02 
623	 2,57338040932254E-02 
624	 2,63988600558627E-02 
625	 2,71213010915063E-02 
626	 2,70435081546381E-02 
627	 2,64011061827406E-02 
628	 2,64454884646138E-02 
629	 2,66575366512893E-02 
630	 0,026746575893093 
631	 2,64670111792829E-02 
632	 2,63172676405723E-02 
633	 2,71911310996546E-02 
634	 2,72670301795881E-02 
635	 2,65302456973971E-02 
636	 2,73065339496864E-02 
637	 2,81857279309083E-02 
638	 2,79864768080922E-02 
639	 2,83133660205561E-02 
640	 2,89245863923185E-02 
641	 2,84909481206523E-02 
642	 2,79135492021875E-02 
643	 2,76856726404615E-02 
644	 2,83697993248609E-02 
645	 2,91666091222278E-02 
646	 2,89921420763058E-02 
647	 2,87617667259033E-02 
648	 2,86803875261401E-02 
649	 2,86117031455029E-02 
650	 2,85348415782166E-02 
651	 2,84091724254925E-02 
652	 2,79622861078569E-02 
653	 2,75464655741803E-02 
654	 0,027960221032016 
655	 2,83230630994639E-02 
656	 2,82898443687396E-02 
657	 2,79387523441851E-02 
658	 2,71181046711956E-02 
659	 2,57413455296508E-02 
660	 2,56009541196014E-02 
661	 2,63610465282202E-02 
662	 2,58766554700204E-02 
663	 2,52449718446762E-02 
664	 2,50539043209395E-02 
665	 2,54458893888781E-02 
666	 2,58792049611995E-02 
667	 2,55001760582278E-02 
668	 2,50641134883397E-02 
669	 0,024780026234433 
670	 2,45078079165654E-02 
671	 2,44123692528586E-02 
672	 2,45730575274757E-02 
673	 2,42722736093134E-02 
674	 2,37701616184632E-02 
675	 2,39910876434541E-02 
676	 2,42837130184359E-02 
677	 2,44339352059687E-02 
678	 2,46893721342907E-02 
679	 2,48163148716166E-02 
680	 2,45344736645942E-02 
681	 2,48413023512599E-02 
682	 2,55229966838914E-02 
683	 2,50450232328801E-02 
684	 2,47944469796686E-02 
685	 2,55323259984103E-02 
686	 2,62833275024597E-02 
687	 2,68681867406578E-02 
688	 2,72060720340896E-02 
689	 2,77154239828747E-02 
690	 2,84787692232181E-02 
691	 0,029107847954806 
692	 3,00578015156203E-02 
693	 3,17175544021351E-02 
694	 3,34220254716441E-02 
695	 3,53045476666737E-02 
696	 3,80204228780726E-02 
697	 4,11379984488751E-02 
698	 4,44533332726973E-02 
699	 4,78141514155499E-02 
700	 0,051724875440226 
701	 5,68261596333587E-02 
702	 6,18636859550273E-02 
703	 6,66041368361377E-02 
704	 0,071407500408692 
705	 7,66725140312355E-02 
706	 8,25330865504566E-02 
707	 8,78841888182355E-02 
708	 9,28652926539775E-02 
709	 9,80226180926277E-02 
710	 0,103216792882612 
711	 0,108309681549654 
712	 0,112832160359944 
713	 0,117261631494372 
714	 0,122017433647207 
715	 0,126429670187113 
716	 0,130330616094333 
717	 0,133680738417686 
718	 0,13674424067259 
719	 0,139700240685484 
720	 0,142752112171606 
721	 0,145766114005547 
722	 0,148552151388501 
723	 0,15097726444449 
724	 0,153079932686118 
725	 0,15510081455914 
726	 0,156922397557255 
727	 0,158515482393965 
728	 0,160149133912633 
729	 0,161796129997304 
730	 0,16336183431575 
731	 0,164587196979732 
732	 0,165528953628532 
733	 0,16678360813879 
734	 0,168122566239507 
735	 0,169291342749138 
736	 0,169861542120894 
737	 0,170175479664868 
738	 0,171343857413855 
739	 0,172078198090827 
740	 0,172117254404021 
741	 0,172936098543518 
742	 0,173890065860552 
743	 0,174112146726711 
744	 0,174167844272197 
745	 0,174339616528657 
746	 0,175113478930672 
747	 0,175667832392949 
748	 0,175633987181263 
749	 0,175796876084361 
750	 0,176267038030837 
751	 0,177069195019695 
752	 0,177631042406067 
753	 0,177837846509586 
754	 0,177973892501788 
755	 0,178179455381478 
756	 0,17851941341519 
757	 0,178546297274269 
758	 0,178452644051642 
759	 0,178786895699521 
760	 0,1789368640168 
761	 0,178834132714686 
762	 0,179107616182087 
763	 0,179550108106244 
764	 0,179931418390918 
765	 0,18026482283301 
766	 0,180527044050586 
767	 0,180641293374938 
768	 0,180948117610033 
769	 0,181456880658603 
770	 0,181339961884413 
771	 0,18111149047546 
772	 0,181446410897271 
773	 0,181999751245901 
774	 0,182437880596713 
775	 0,181940550601955 
776	 0,18179102337109 
777	 0,1825347492873 
778	 0,18284552035171 
779	 0,182885790285241 
780	 0,183122671679007 
781	 0,183133496836086 
782	 0,182987326423767 
783	 0,183307093131239 
784	 0,183566075712676 
785	 0,183474168151895 
786	 0,183759714129167 
787	 0,184105391500316 
788	 0,183753024304016 
789	 0,183646740657138 
790	 0,183993070913802 
791	 0,184404855591187 
792	 0,184558789679844 
793	 0,184253845338276 
794	 0,184152598600333 
795	 0,184300213340771 
796	 0,184552400557043 
797	 0,184620921332534 
798	 0,184498224540009 
799	 0,184724019364173 
800	 0,184992045549888 
801	 0,185014286869089 
802	 0,185310780937133 
803	 0,185681570460967 
804	 0,185326943566275 
805	 0,185227710884826 
806	 0,185659270094804 
807	 0,185979268345811 
808	 0,186092641023278 
809	 0,185963721424077 
810	 0,185860476859531 
811	 0,185996557213364 
812	 0,186848049854688 
813	 0,187259493843533 
814	 0,186876465670519 
815	 0,186891736434134 
816	 0,187212239481656 
817	 0,187594583173706 
818	 0,188023656221038 
819	 0,188382951263039 
820	 0,188347833123423 
821	 0,188592233439536 
822	 0,189292808790559 
823	 0,189307454166879 
824	 0,189130714326036 
825	 0,189532778406799 
826	 0,189950831014756 
827	 0,190155562212603 
828	 0,189791668713322 
829	 0,189777709710983 
830	 0,190449154012196 
831	 0,190542392837123 
832	 0,190212826626478 
833	 0,189867521746785 
834	 0,190293680372667 
835	 0,191228621980738 
836	 0,191102715313815 
837	 0,190949669029147 
838	 0,191282895348621 
839	 0,191515182886971 
840	 0,191648859340428 
841	 0,191777545235995 
842	 0,191639670227425 
843	 0,191300418559 
844	 0,191086543027134 
845	 0,191329098105048 
846	 0,192085091671098 
847	 0,192412605524433 
848	 0,19231566044679 
849	 0,191979551251157 
850	 0,191662736012791 
851	 0,191515521230114 
852	 0,191644004178152 
853	 0,192076881996151 
854	 0,192648556627003 
855	 0,192178330638012 
856	 0,191622150417735 
857	 0,192432442748314 
858	 0,192886753809042 
859	 0,192781407503097 
860	 0,192955134504449 
861	 0,192837952960091 
862	 0,192321486494424 
863	 0,192579062812464 
864	 0,193317914899069 
865	 0,193981569960417 
866	 0,194037975647566 
867	 0,193635624403778 
868	 0,193604469967184 
869	 0,194056353725843 
870	 0,194910193483638 
871	 0,195245907329239 
872	 0,195237396490278 
873	 0,195210454488527 
874	 0,194909542158077 
875	 0,194667171602255 
876	 0,195578620264966 
877	 0,196195887859215 
878	 0,196015960146182 
879	 0,196029131767495 
880	 0,19641658437161 
881	 0,19723692255561 
882	 0,19759581040351 
883	 0,19744939087643 
884	 0,197109711767942 
885	 0,197376450705667 
886	 0,198242735237196 
887	 0,197899658628333 
888	 0,197369384348069 
889	 0,197668374642665 
890	 0,197905677693491 
891	 0,197875752562483 
892	 0,197404243244692 
893	 0,197548876767787 
894	 0,198415278855505 
895	 0,198813275639459 
896	 0,198790179001758 
897	 0,198502773592469 
898	 0,198801306651588 
899	 0,199278432262642 
900	 0,198963961402863 
901	 0,198665226686726 
902	 0,198684480260744 
903	 0,199214431312895 
904	 0,199711003228317 
905	 0,199827110584542 
906	 0,199784727103005 
907	 0,19985304346063 
908	 0,200362619216977 
909	 0,200183384661133 
910	 0,199576100607513 
911	 0,200329391543763 
912	 0,200675071036409 
913	 0,200102734578868 
914	 0,201070607062557 
915	 0,201703376080309 
916	 0,199903300479738 
917	 0,199851548329924 
918	 0,201203103498829 
919	 0,200854669241524 
920	 0,200658783586124 
921	 0,201098859849873 
922	 0,201645226041924 
923	 0,201395568144203 
924	 0,199873009881334 
925	 0,199789252526527 
926	 0,200750644948084 
927	 0,201251638200348 
928	 0,201180347680816 
929	 0,200625239119767 
930	 0,200307573320028 
931	 0,199722406332971 
932	 0,19881746896591 
933	 0,199430406447129 
934	 0,19973037863614 
935	 0,197297366810985 
936	 0,197720431877584 
937	 0,200173588578072 
938	 0,198720570247355 
939	 0,197296976205495 
940	 0,197140609077916 
941	 0,196450374739535 
942	 0,196315527969283 
943	 0,197451050033264 
944	 0,196180322053719 
945	 0,193753307919173 
946	 0,193603792893338 
947	 0,193124921496164 
948	 0,192198644171439 
949	 0,193238562199816 
950	 0,193431234906539 
951	 0,19136071530408 
952	 0,189167929944221 
953	 0,187810447599066 
954	 0,188050038617074 
955	 0,187869712584931 
956	 0,187338292606007 
957	 0,188077671703306 
958	 0,187358799378018 
959	 0,184850259407899 
960	 0,183473519847036 
961	 0,183506804586848 
962	 0,184766606652419 
963	 0,184653908292817 
964	 0,183829798609679 
965	 0,183910747742391 
966	 0,183932001308172 
967	 0,183875814993892 
968	 0,184511932869985 
969	 0,184204374757183 
970	 0,182831299552466 
971	 0,183862278597329 
972	 0,184573467707387 
973	 0,182600322576743 
974	 0,182131797338318 
975	 0,182929223286079 
976	 0,18323551108572 
977	 0,184383154644001 
978	 0,185939746000909 
979	 0,185461190987003 
980	 0,184575066516842 
981	 0,184154777556563 
982	 0,183809575452498 
983	 0,184301472247353 
984	 0,186167085152252 
985	 0,186269488362627 
986	 0,185532110187513 
987	 0,186845287953511 
988	 0,188721768402037 
989	 0,189830017429789 
990	 0,18694238878787 
991	 0,185167324049816 
992	 0,18687504135541 
993	 0,188143372226096 
994	 0,188945957501484 
995	 0,189649766645506 
996	 0,19132603815338 
997	 0,192909314373339 
998	 0,191958443343327 
999	 0,191980332256479 
1000	 0,193426331488352 
1001	 0,194002930413848 
1002	 0,194270229815649 
1003	 0,194674478622052 
1004	 0,196276634884731 
1005	 0,197536713550786 
1006	 0,196921884931754 
1007	 0,194616337656606 
1008	 0,193700346142002 
1009	 0,199314492455886 
1010	 0,203936077577788 
1011	 0,204916684283972 
1012	 0,200966880107897 
1013	 0,198199496428227 
1014	 0,199168067533673 
1015	 0,200530910432072 
1016	 0,201048005762743 
1017	 0,200214137078158 
1018	 0,201809171355367 
1019	 0,205140563071947 
1020	 0,208120900585144 
1021	 0,206652933551276 
1022	 0,202371906889737 
1023	 0,202679528863178 
1024	 0,203819929937631 
1025	 0,204726348893868 
1026	 0,206176284602389 
1027	 0,207724852731447 
1028	 0,209080389604218 
1029	 0,210327701112915 
1030	 0,212946483429273 
1031	 0,217935350992111 
1032	 0,214272572854734 
1033	 0,206394479594455 
1034	 0,206837248166054 
1035	 0,210406128366347 
1036	 0,214491093444289 
1037	 0,215263013320654 
1038	 0,215229141514804 
1039	 0,215778880166075 
1040	 0,217922138958082 
1041	 0,219123219671739 
1042	 0,217293169874631 
1043	 0,213488728547201 
1044	 0,209423171382913 
1045	 0,207342803253715 
1046	 0,212255475825643 
1047	 0,219791106891372 
1048	 0,217383087951476 
1049	 0,216874699480072 
1050	 0,219767906380217 
1051	 0,216839501172357 
1052	 0,216553782472328 
1053	 0,221302312138176 
1054	 0,218601053053686 
1055	 0,217606668436817 
1056	 0,224862672400354 
1057	 0,222229523520038 
1058	 0,214982450055342 
1059	 0,2142659455051 
1060	 0,216005170750781 
1061	 0,219028129228351 
1062	 0,222457015702138 
1063	 0,223053976251717 
1064	 0,222531875118654 
1065	 0,232080313201808 
1066	 0,233849458866231 
1067	 0,222011144418521 
1068	 0,212800929306276 
1069	 0,207540370483594 
1070	 0,20837986560848 
1071	 0,229015023835531 
1072	 0,243276153107057 
1073	 0,221466751151624 
1074	 0,209033840546173 
1075	 0,210681671930674 
