Wavelength	CAMFROU00400.asd
325	 6,59312758957848E-02 
326	 4,07690019076288E-02 
327	 8,89232054938866E-02 
328	 0,199085004488717 
329	 0,29878604333005 
330	 0,286829213022413 
331	 0,093111772844511 
332	 5,57762301894363E-02 
333	 0,144209730028713 
334	 9,04444921623363E-02 
335	 7,10304335200754E-02 
336	 0,103894638067332 
337	 4,84113491102432E-02 
338	 6,57332385604459E-02 
339	 0,252087440713627 
340	 0,227324280415658 
341	 3,82964622991132E-02 
342	 2,98433790634084E-02 
343	-1,84059108628452E-02 
344	-0,128876973031611 
345	-2,75371945596306E-03 
346	 0,128806748179744 
347	 0,115502541536745 
348	 9,32194989995271E-02 
349	 8,51956962420084E-02 
350	 0,100813236918712 
351	 8,73755251543707E-02 
352	 3,82438098028332E-02 
353	 4,28930108799669E-02 
354	 6,26485529378107E-02 
355	 4,89804138395685E-02 
356	 5,21704601497045E-02 
357	 6,99559742883736E-02 
358	 6,67299454658172E-02 
359	 6,60049701581002E-02 
360	 7,52121198362801E-02 
361	 6,62712653541085E-02 
362	 4,86482647886849E-02 
363	 4,14720400161763E-02 
364	 2,37123235939969E-02 
365	 1,3996328352739E-03 
366	 1,67970861843365E-02 
367	 3,66786632103198E-02 
368	 3,82793713476401E-02 
369	 2,56427876629942E-02 
370	 2,02205443476185E-02 
371	 5,46272964035273E-02 
372	 5,65622090006674E-02 
373	 1,92522781151686E-02 
374	 8,31114140069176E-03 
375	 1,41536827783032E-02 
376	 2,59285857209816E-02 
377	 4,40579603358184E-02 
378	 5,47070148461917E-02 
379	 2,24226269375478E-02 
380	 1,78556991002007E-02 
381	 5,34433743522881E-02 
382	 6,08319391230093E-02 
383	 5,30030360538835E-02 
384	 0,045676365821531 
385	 3,68554984184777E-02 
386	 2,61589592870473E-02 
387	 1,06266189712594E-02 
388	 1,54185189485674E-02 
389	 0,04090392418508 
390	 4,38274244224935E-02 
391	 3,18700548717554E-02 
392	 1,85231033140299E-02 
393	 1,64931457628432E-02 
394	 2,58317936357899E-02 
395	 4,02236614817366E-02 
396	 4,05969215556688E-02 
397	 2,19520094988838E-02 
398	 2,08488653296529E-02 
399	 0,028142450985538 
400	 0,024233289933931 
401	 2,26628025249182E-02 
402	 2,49662287755417E-02 
403	 2,43787061532152E-02 
404	 2,53697978987283E-02 
405	 3,01983075418391E-02 
406	 2,90871838194153E-02 
407	 2,55008587618974E-02 
408	 2,97312482600364E-02 
409	 3,06062903462991E-02 
410	 2,53593588905617E-02 
411	 1,51278915271741E-02 
412	 1,12861165550915E-02 
413	 2,33808229774673E-02 
414	 2,63445838690291E-02 
415	 2,08189963379956E-02 
416	 0,019931215104824 
417	 2,21746627939704E-02 
418	 2,59443422438125E-02 
419	 2,40087078457731E-02 
420	 2,05532187768322E-02 
421	 2,17034825058727E-02 
422	 0,023653329182299 
423	 2,47588621380828E-02 
424	 2,24635289760787E-02 
425	 2,09638612819337E-02 
426	 2,26822136626312E-02 
427	 0,024881831553062 
428	 2,58032764913602E-02 
429	 2,29134128749407E-02 
430	 2,15465239228881E-02 
431	 2,23067266601605E-02 
432	 1,96676540382636E-02 
433	 1,80893135736778E-02 
434	 2,13280091408967E-02 
435	 0,022282293637645 
436	 2,05111707947243E-02 
437	 1,75467573295524E-02 
438	 1,85446682172506E-02 
439	 2,40327470721413E-02 
440	 2,30437423863706E-02 
441	 1,99813406548229E-02 
442	 2,15649383308723E-02 
443	 0,022417177470827 
444	 2,09621132116744E-02 
445	 0,01550472052393 
446	 1,32355329677898E-02 
447	 0,017805867089746 
448	 1,77781558942413E-02 
449	 1,57715957633038E-02 
450	 1,96363863116571E-02 
451	 2,36328969374204E-02 
452	 2,57015277622357E-02 
453	 2,56248219944879E-02 
454	 2,36706614118856E-02 
455	 2,04789782678632E-02 
456	 2,22847426932609E-02 
457	 2,66564551113287E-02 
458	 2,38084734867554E-02 
459	 2,20171483476478E-02 
460	 2,39858109248138E-02 
461	 2,32206581735603E-02 
462	 2,08004880813024E-02 
463	 1,89101611634171E-02 
464	 1,94485785239271E-02 
465	 2,18576404206984E-02 
466	 2,22629253892344E-02 
467	 2,27326369058916E-02 
468	 2,42788689140735E-02 
469	 0,023177307872014 
470	 2,07078481985448E-02 
471	 2,02856184130475E-02 
472	 1,97310955956441E-02 
473	 0,019111054276342 
474	 2,18152850215485E-02 
475	 2,45284972005444E-02 
476	 2,39601929954503E-02 
477	 2,28674449316552E-02 
478	 2,20061826960419E-02 
479	 2,17854896474306E-02 
480	 2,14878718745682E-02 
481	 2,07950976363276E-02 
482	 1,99538106193763E-02 
483	 1,94138273640833E-02 
484	 1,97040581871354E-02 
485	 2,19180590020839E-02 
486	 0,024758279280404 
487	 2,23993478794296E-02 
488	 2,03885737935673E-02 
489	 2,26436013966384E-02 
490	 2,35082105384965E-02 
491	 2,27931840197136E-02 
492	 0,022313476946912 
493	 0,02108212747694 
494	 0,019318499934986 
495	 1,92147803082655E-02 
496	 2,06231628366673E-02 
497	 2,31040320134366E-02 
498	 2,31270375320551E-02 
499	 2,06667427835115E-02 
500	 0,017871901726406 
501	 1,72908998998086E-02 
502	 1,99992152224424E-02 
503	 2,17191100938654E-02 
504	 2,20180817491618E-02 
505	 2,12339151240859E-02 
506	 2,04691857630183E-02 
507	 2,03795160577458E-02 
508	 2,21167040179678E-02 
509	 2,25686014992007E-02 
510	 0,01926886271369 
511	 1,94717405137891E-02 
512	 2,23937185447647E-02 
513	 2,23712872980149E-02 
514	 2,21012131229422E-02 
515	 2,25348828577785E-02 
516	 2,23395951397452E-02 
517	 2,22541108711476E-02 
518	 2,35039531757208E-02 
519	 2,30338784958758E-02 
520	 2,10157769508789E-02 
521	 2,07814644602581E-02 
522	 2,19240607102062E-02 
523	 2,38118122953786E-02 
524	 0,023511649750261 
525	 2,17789459525603E-02 
526	 2,13333360980006E-02 
527	 2,10851596183977E-02 
528	 2,10006401594097E-02 
529	 0,022645916117372 
530	 2,38558659889648E-02 
531	 2,21367213047649E-02 
532	 2,20323810938216E-02 
533	 2,34321011120782E-02 
534	 2,25532909759478E-02 
535	 2,14723744676719E-02 
536	 2,13956483607142E-02 
537	 2,14715177911342E-02 
538	 2,18428184508606E-02 
539	 2,30728955666181E-02 
540	 2,36154423995424E-02 
541	 2,29619568314608E-02 
542	 2,12028818578475E-02 
543	 2,01462673371241E-02 
544	 2,14323850808624E-02 
545	 0,022427183506021 
546	 2,25919708662365E-02 
547	 2,20876673933844E-02 
548	 2,16367517123936E-02 
549	 2,16365494703916E-02 
550	 2,18798365107059E-02 
551	 2,21696760813007E-02 
552	 2,22285874129465E-02 
553	 2,26280821526675E-02 
554	 2,32385401391445E-02 
555	 2,29330493577753E-02 
556	 0,022430530565842 
557	 2,23484752740874E-02 
558	 2,23980867750101E-02 
559	 2,23040241555075E-02 
560	 2,13111520351774E-02 
561	 2,12165255878323E-02 
562	 2,24246960329475E-02 
563	 2,25540405034775E-02 
564	 2,20374628070649E-02 
565	 0,02173414428177 
566	 2,18438298211056E-02 
567	 2,21530067593325E-02 
568	 2,15765281589346E-02 
569	 2,10949166523187E-02 
570	 0,021394055852224 
571	 2,19649403206492E-02 
572	 2,25895435894343E-02 
573	 2,30106855909594E-02 
574	 2,33225013377151E-02 
575	 2,35718366487223E-02 
576	 2,38568642913519E-02 
577	 2,41951398445333E-02 
578	 2,45927080187703E-02 
579	 2,50590668471878E-02 
580	 2,53823735396586E-02 
581	 2,48783440127229E-02 
582	 2,45679741212546E-02 
583	 2,50193958307377E-02 
584	 0,025521162010708 
585	 2,61724751140828E-02 
586	 2,74079441422853E-02 
587	 2,77531609810542E-02 
588	 2,70666590105685E-02 
589	 2,69312686280938E-02 
590	 2,70083094008214E-02 
591	 2,69505035888066E-02 
592	 0,027554266836341 
593	 0,028458137716533 
594	 2,83720980084197E-02 
595	 2,78755539932235E-02 
596	 2,73825051411743E-02 
597	 2,77159700900061E-02 
598	 2,84108659923114E-02 
599	 0,028651719395455 
600	 2,87548779041895E-02 
601	 2,86972006490951E-02 
602	 2,81499553275942E-02 
603	 2,75252659158718E-02 
604	 2,71763903175321E-02 
605	 2,71356122765093E-02 
606	 2,72525192183901E-02 
607	 2,72177305070787E-02 
608	 2,67852741599601E-02 
609	 2,60989849218542E-02 
610	 2,66615336908515E-02 
611	 0,027297537440983 
612	 0,026433635767771 
613	 2,58044347629116E-02 
614	 2,56892907927909E-02 
615	 2,55178505265072E-02 
616	 2,52581786201116E-02 
617	 2,48988125302804E-02 
618	 2,45579182390351E-02 
619	 2,44020456284383E-02 
620	 2,47384860797241E-02 
621	 2,49163880314624E-02 
622	 2,48197788080342E-02 
623	 2,50809418152466E-02 
624	 2,54434875523115E-02 
625	 2,55927215291549E-02 
626	 2,50783924426093E-02 
627	 2,43494608108542E-02 
628	 2,49597433379919E-02 
629	 2,56730397603749E-02 
630	 2,58848126531747E-02 
631	 2,62357070615405E-02 
632	 2,66033867471083E-02 
633	 2,66941711802006E-02 
634	 2,65518692642295E-02 
635	 2,64356146014827E-02 
636	 2,73249645126651E-02 
637	 2,81635292887279E-02 
638	 2,80883175840652E-02 
639	 2,83885768266972E-02 
640	 2,89245527565623E-02 
641	 2,87012897730021E-02 
642	 2,86312912840266E-02 
643	 2,90441380233352E-02 
644	 2,95561302879669E-02 
645	 2,98693152512771E-02 
646	 2,96553567188732E-02 
647	 2,96208372668811E-02 
648	 2,98233644051462E-02 
649	 2,97670706927708E-02 
650	 2,96881482894794E-02 
651	 2,96855236348437E-02 
652	 2,91203589886196E-02 
653	 2,83742709964294E-02 
654	 2,83964384412332E-02 
655	 2,84294279753497E-02 
656	 2,81902069237735E-02 
657	 2,77685563382821E-02 
658	 2,67952443111588E-02 
659	 2,49702326510551E-02 
660	 2,43771695972583E-02 
661	 2,47588231651927E-02 
662	 2,39934850215277E-02 
663	 2,30065246800295E-02 
664	 2,23901345151478E-02 
665	 0,023006540339743 
666	 2,37767040776355E-02 
667	 0,022899402999987 
668	 2,19659738551504E-02 
669	 2,14493626357664E-02 
670	 0,021203569899963 
671	 2,12613832535784E-02 
672	 2,15615345823579E-02 
673	 2,09999975053969E-02 
674	 2,02384343167778E-02 
675	 2,14417718757912E-02 
676	 2,22181307824431E-02 
677	 2,18361520163573E-02 
678	 2,16461035477243E-02 
679	 2,15438818706768E-02 
680	 2,12833235693986E-02 
681	 2,14960706258654E-02 
682	 2,20873915334394E-02 
683	 2,22678198014927E-02 
684	 2,24476809312454E-02 
685	 2,29066547001916E-02 
686	 0,023865472943489 
687	 2,48917501607636E-02 
688	 2,51377891047616E-02 
689	 2,58736586878504E-02 
690	 2,73641863098608E-02 
691	 2,88117330740466E-02 
692	 3,05602885727718E-02 
693	 0,032924465525179 
694	 3,54512511408923E-02 
695	 3,83098275947948E-02 
696	 4,21530082266059E-02 
697	 4,63480033858625E-02 
698	 5,06830015270921E-02 
699	 5,56161162796049E-02 
700	 6,09893319671608E-02 
701	 6,65389092616439E-02 
702	 7,25502137759281E-02 
703	 7,87620255562362E-02 
704	 8,41468434902013E-02 
705	 8,95806633307202E-02 
706	 9,55654924499969E-02 
707	 0,101407312167709 
708	 0,106942538894949 
709	 0,112030248878214 
710	 0,117051929024398 
711	 0,121976476586596 
712	 0,126032107939725 
713	 0,129977936563613 
714	 0,134493611539631 
715	 0,13863642078121 
716	 0,142237194986808 
717	 0,145413805255073 
718	 0,14822468365955 
719	 0,150718323625011 
720	 0,152919754629934 
721	 0,155008950363951 
722	 0,157200863799146 
723	 0,159288112781324 
724	 0,161217626942418 
725	 0,162975997515971 
726	 0,164609259910574 
727	 0,166136223169923 
728	 0,167414352773229 
729	 0,168495178366217 
730	 0,169503223001957 
731	 0,170381793597026 
732	 0,171207664092022 
733	 0,172344196145721 
734	 0,173374316692662 
735	 0,173942543363342 
736	 0,174468070325977 
737	 0,174975345690092 
738	 0,175285792956297 
739	 0,175680656466997 
740	 0,176282570285038 
741	 0,17709273245515 
742	 0,177825767915037 
743	 0,178165824071581 
744	 0,178510639706549 
745	 0,178873468246456 
746	 0,179020261199823 
747	 0,178978152600187 
748	 0,178847429958426 
749	 0,179138133659209 
750	 0,179767216130891 
751	 0,180527124263492 
752	 0,180812522249431 
753	 0,180674126430091 
754	 0,181062407733796 
755	 0,181466311244399 
756	 0,181499796458769 
757	 0,181258836124293 
758	 0,181054739190649 
759	 0,181466486269346 
760	 0,181961891732457 
761	 0,182361876787252 
762	 0,182786031525104 
763	 0,183044822888457 
764	 0,182985476428797 
765	 0,183103540487947 
766	 0,183307150745738 
767	 0,182978087475751 
768	 0,183229804834657 
769	 0,184220501862696 
770	 0,184082352866064 
771	 0,183649583421759 
772	 0,18407397403808 
773	 0,184649381896667 
774	 0,185007439465445 
775	 0,184427550200957 
776	 0,18437538204469 
777	 0,185399480286319 
778	 0,185500304380725 
779	 0,185072757043347 
780	 0,185026786096228 
781	 0,185091717007887 
782	 0,18525588098273 
783	 0,18566591807785 
784	 0,185955249814939 
785	 0,185914973986127 
786	 0,18602914441236 
787	 0,186156719350926 
788	 0,185897653561221 
789	 0,185977525706789 
790	 0,186418606090802 
791	 0,186338543411692 
792	 0,186207153545531 
793	 0,18637895606057 
794	 0,186213204906628 
795	 0,185981071459326 
796	 0,186493061026371 
797	 0,186875745280932 
798	 0,186915089910631 
799	 0,187159029326022 
800	 0,187318661535201 
801	 0,187140853825387 
802	 0,187319143187512 
803	 0,187695241599445 
804	 0,187513975943735 
805	 0,187376303404126 
806	 0,187473955312687 
807	 0,187578841528932 
808	 0,187642365944162 
809	 0,187642257015057 
810	 0,187898494518216 
811	 0,188353158612659 
812	 0,18867402918997 
813	 0,188923250104406 
814	 0,189119983921359 
815	 0,189325829294241 
816	 0,189400677238675 
817	 0,189189050246835 
818	 0,189244574749504 
819	 0,189542686128253 
820	 0,189552730269504 
821	 0,189806408248308 
822	 0,190424607518798 
823	 0,190496693982532 
824	 0,190391975502738 
825	 0,190695829276565 
826	 0,19101456282415 
827	 0,191206345773489 
828	 0,191053025228583 
829	 0,191270942447976 
830	 0,192022950959822 
831	 0,191675768838951 
832	 0,190986108150258 
833	 0,191206869390619 
834	 0,191936679350176 
835	 0,19276614552583 
836	 0,192686957559767 
837	 0,192672961559042 
838	 0,193169707452249 
839	 0,193356982237253 
840	 0,193142196755214 
841	 0,192534397072709 
842	 0,192293872825065 
843	 0,192481821432278 
844	 0,19250051648109 
845	 0,19268835255122 
846	 0,19315702840461 
847	 0,193461165173564 
848	 0,193430124092193 
849	 0,192916735045368 
850	 0,192720180221784 
851	 0,193009658346266 
852	 0,193583912654099 
853	 0,194051366199829 
854	 0,194099792971454 
855	 0,193360011287302 
856	 0,192556774021054 
857	 0,192702207562899 
858	 0,193001139074375 
859	 0,193347721441302 
860	 0,194190103504671 
861	 0,1943833230813 
862	 0,19356797214046 
863	 0,19362688791869 
864	 0,194211049172445 
865	 0,19459145522412 
866	 0,194742588806305 
867	 0,194671402549832 
868	 0,194448222775781 
869	 0,194479431704154 
870	 0,194948127282757 
871	 0,195678623042121 
872	 0,195981864439567 
873	 0,195126759795306 
874	 0,194824398684107 
875	 0,19527580015768 
876	 0,195871070337975 
877	 0,196327988462849 
878	 0,196521074389022 
879	 0,196746533741672 
880	 0,197041225696255 
881	 0,197403172026212 
882	 0,197566045374411 
883	 0,197550937108223 
884	 0,197517466602592 
885	 0,197721635014449 
886	 0,198174591061372 
887	 0,198388077983369 
888	 0,198371939336136 
889	 0,198206950145554 
890	 0,19847640561565 
891	 0,198789929278457 
892	 0,197995787481562 
893	 0,197628208947834 
894	 0,19818543776063 
895	 0,199540432107931 
896	 0,200100212757114 
897	 0,198894835015462 
898	 0,199240779217593 
899	 0,200137276354909 
900	 0,198830626272474 
901	 0,198552116106399 
902	 0,199702781371466 
903	 0,200145202641967 
904	 0,200431365891847 
905	 0,200810429793172 
906	 0,200557967569614 
907	 0,200074101790543 
908	 0,200029065567368 
909	 0,200133204475573 
910	 0,200361747192932 
911	 0,200889777100927 
912	 0,201102677943764 
913	 0,200850587223057 
914	 0,201242712327931 
915	 0,201529571065451 
916	 0,200854466167786 
917	 0,20083276697313 
918	 0,201409907488714 
919	 0,201671657968626 
920	 0,201429703052595 
921	 0,200785003555636 
922	 0,200695471496413 
923	 0,200789780174552 
924	 0,20074674263057 
925	 0,200941161777831 
926	 0,201314859035314 
927	 0,20169822102141 
928	 0,201611348863594 
929	 0,201134653057092 
930	 0,201115738194099 
931	 0,201188104781389 
932	 0,201120090762931 
933	 0,20103158492181 
934	 0,200457614312177 
935	 0,198872447965582 
936	 0,198296742882827 
937	 0,198725004841321 
938	 0,198788301502589 
939	 0,198676645658334 
940	 0,198376470472405 
941	 0,197699285226027 
942	 0,197295188999601 
943	 0,197662644064787 
944	 0,197740085804332 
945	 0,197389024096053 
946	 0,196706644510482 
947	 0,196138186211984 
948	 0,195838846285194 
949	 0,195882679903872 
950	 0,195238093272545 
951	 0,193593697617357 
952	 0,193002108716202 
953	 0,193113693991246 
954	 0,193198997878271 
955	 0,192816830654911 
956	 0,191948730136464 
957	 0,190812969564446 
958	 0,190222752954055 
959	 0,190046962992286 
960	 0,187903202140367 
961	 0,1869467414341 
962	 0,189148305772061 
963	 0,189420748005786 
964	 0,188725546357309 
965	 0,189630753588879 
966	 0,189391566374588 
967	 0,188011004976025 
968	 0,1874386290409 
969	 0,187693289660876 
970	 0,18874740316127 
971	 0,190370207530739 
972	 0,190684529868046 
973	 0,18843681127483 
974	 0,188700126693012 
975	 0,190292131621835 
976	 0,189482771144107 
977	 0,189614398138726 
978	 0,190717340379673 
979	 0,189615604118804 
980	 0,189525533134669 
981	 0,191361562424088 
982	 0,190481483881054 
983	 0,18909728952622 
984	 0,189664013852594 
985	 0,188970445242161 
986	 0,188182706847648 
987	 0,190562677069074 
988	 0,192854136878544 
989	 0,193672387356944 
990	 0,191654862419404 
991	 0,191481668576762 
992	 0,194691797964711 
993	 0,194281595430921 
994	 0,192296212549271 
995	 0,191743055713515 
996	 0,19537387768089 
997	 0,199807320743769 
998	 0,197549133967228 
999	 0,196740066334446 
1000	 0,198445574303163 
1001	 0,197488122538604 
1002	 0,197002695598989 
1003	 0,198357729092203 
1004	 0,199739132100158 
1005	 0,201464309774178 
1006	 0,203495831196798 
1007	 0,20004045236257 
1008	 0,195446072686556 
1009	 0,198963276515973 
1010	 0,202892505928489 
1011	 0,204630985852195 
1012	 0,202938539278707 
1013	 0,201247112464063 
1014	 0,201326333776073 
1015	 0,203033455764512 
1016	 0,204304986492614 
1017	 0,203724162108062 
1018	 0,205079280141475 
1019	 0,206825578158806 
1020	 0,205893671573213 
1021	 0,205798172984645 
1022	 0,207165648666061 
1023	 0,20957614593356 
1024	 0,210427234673396 
1025	 0,208657015949021 
1026	 0,203558866926109 
1027	 0,203232016443862 
1028	 0,211333499893127 
1029	 0,213759349832808 
1030	 0,211506394607908 
1031	 0,208205570766709 
1032	 0,211678273118088 
1033	 0,21674874484671 
1034	 0,209823812728471 
1035	 0,211498566003246 
1036	 0,221732423639504 
1037	 0,218238624558914 
1038	 0,214844517411666 
1039	 0,21686628134756 
1040	 0,21837013804166 
1041	 0,217299370317147 
1042	 0,213067096335938 
1043	 0,21337866511238 
1044	 0,214362753887654 
1045	 0,209729689963483 
1046	 0,212725106260408 
1047	 0,221811842816567 
1048	 0,227284017345565 
1049	 0,222786094971038 
1050	 0,210419443821285 
1051	 0,207438080090843 
1052	 0,209437515738308 
1053	 0,213816200978434 
1054	 0,218539335382316 
1055	 0,222185685644603 
1056	 0,223635868987449 
1057	 0,221327481362656 
1058	 0,216836178899407 
1059	 0,213220023919026 
1060	 0,21969842765679 
1061	 0,229020638830404 
1062	 0,220138579268639 
1063	 0,216046900818614 
1064	 0,221426259229777 
1065	 0,227496387925573 
1066	 0,226914730584606 
1067	 0,218399671780262 
1068	 0,215755106245927 
1069	 0,217835424252861 
1070	 0,222362040971346 
1071	 0,225394662306143 
1072	 0,225124126012078 
1073	 0,220097923802657 
1074	 0,208555546524185 
1075	 0,198598330070331 
