Wavelength	CAMFROU00274.asd
325	 8,78039294068076E-02 
326	 0,087589037260015 
327	 0,209527096996893 
328	 0,378052248032792 
329	 0,359801770554526 
330	 0,286292367623097 
331	 0,235673250471153 
332	 0,159908864242112 
333	 0,134584360265389 
334	 0,325440513332239 
335	 0,370417324749338 
336	 0,219385993643937 
337	 0,106937215811126 
338	 9,09183456435073E-02 
339	 0,180327367761459 
340	 0,163875520679003 
341	 6,55551583114607E-02 
342	 7,20111569891799E-02 
343	 7,77987720556507E-02 
344	 6,11693229234989E-02 
345	 8,06343228236265E-02 
346	 0,114063452104025 
347	 0,145931251535121 
348	 9,77613774105821E-02 
349	 1,87171890430896E-02 
350	 0,113958697375852 
351	 0,141530718577873 
352	 5,29110847747491E-02 
353	 8,78449796438253E-02 
354	 0,137449644710085 
355	 7,19191800835588E-02 
356	 5,34620390271613E-02 
357	 8,33844063053315E-02 
358	 6,37654154510015E-02 
359	 7,14090202219337E-02 
360	 0,123842153023241 
361	 0,104369887581471 
362	 5,89892407630525E-02 
363	 6,89372710872228E-02 
364	 8,41232499265703E-02 
365	 8,81605676775876E-02 
366	 5,95086853690232E-02 
367	 4,56310489565244E-02 
368	 7,32886766874563E-02 
369	 8,16087031100343E-02 
370	 7,82818033504437E-02 
371	 9,14596609726488E-02 
372	 9,35917366693603E-02 
373	 7,85075026120061E-02 
374	 0,049904765093797 
375	 4,34927318530578E-02 
376	 8,14335848667001E-02 
377	 9,15022618004405E-02 
378	 7,80836077518767E-02 
379	 6,73714017126321E-02 
380	 6,43254433551251E-02 
381	 7,14259911420564E-02 
382	 8,27479015172148E-02 
383	 9,10720978517589E-02 
384	 8,95211213995316E-02 
385	 7,31838227400995E-02 
386	 5,06509642034514E-02 
387	 4,69097149159405E-02 
388	 6,09846537062226E-02 
389	 8,32138691078315E-02 
390	 7,67199599369255E-02 
391	 5,62089715968956E-02 
392	 4,39340113874154E-02 
393	 5,17057653795414E-02 
394	 0,07104007401971 
395	 0,070451153920092 
396	 6,31777029056141E-02 
397	 0,056881798213953 
398	 5,14444145882698E-02 
399	 0,050332938055733 
400	 0,058926811772553 
401	 5,96022803090489E-02 
402	 5,34984508740115E-02 
403	 6,39676530133712E-02 
404	 6,86160189182064E-02 
405	 5,45100094781285E-02 
406	 4,93064981787969E-02 
407	 5,31574412174867E-02 
408	 5,83249319555975E-02 
409	 6,07482242756128E-02 
410	 5,83063260589754E-02 
411	 4,82946667968599E-02 
412	 4,15475790859292E-02 
413	 4,79003279104118E-02 
414	 5,35015474350387E-02 
415	 5,54163618440631E-02 
416	 5,30472342936241E-02 
417	 5,51048442516033E-02 
418	 6,23320202856922E-02 
419	 5,55953966122348E-02 
420	 4,75487734628887E-02 
421	 5,62391823886541E-02 
422	 6,04171204338329E-02 
423	 5,68906497939142E-02 
424	 5,11608069133426E-02 
425	 4,85042858685655E-02 
426	 5,16137920940878E-02 
427	 5,30164078615772E-02 
428	 5,24389718163352E-02 
429	 5,11079738469376E-02 
430	 5,17374078578693E-02 
431	 5,40805117514249E-02 
432	 5,32435324408541E-02 
433	 5,14812467101742E-02 
434	 5,09646974852038E-02 
435	 5,06038366580642E-02 
436	 5,03863163501426E-02 
437	 5,03736046748336E-02 
438	 5,22272788544889E-02 
439	 5,57012244033146E-02 
440	 5,59952818585813E-02 
441	 0,053282317832283 
442	 4,83941452957515E-02 
443	 4,74822071556738E-02 
444	 5,01457288831776E-02 
445	 4,95361493518361E-02 
446	 4,86249457749708E-02 
447	 4,91016431130036E-02 
448	 4,86465232327623E-02 
449	 4,79624805003335E-02 
450	 4,85788180778822E-02 
451	 5,27012838932286E-02 
452	 5,84292007677594E-02 
453	 5,45428818449234E-02 
454	 4,98210497660889E-02 
455	 5,25872585482012E-02 
456	 5,68326300028035E-02 
457	 0,059718591817496 
458	 5,69186305509607E-02 
459	 5,55453715724568E-02 
460	 5,77125603282524E-02 
461	 5,55008662600345E-02 
462	 5,10822960577011E-02 
463	 4,82305885842381E-02 
464	 4,91014948313594E-02 
465	 5,25416785869297E-02 
466	 5,25584970639564E-02 
467	 5,16155909866499E-02 
468	 5,15124507547846E-02 
469	 5,31002608914597E-02 
470	 5,45923539133436E-02 
471	 5,20310967922678E-02 
472	 5,11341856077071E-02 
473	 5,31663446559361E-02 
474	 5,43128644670654E-02 
475	 5,53859782969119E-02 
476	 5,72471287250368E-02 
477	 5,65605099249648E-02 
478	 5,37097038846285E-02 
479	 5,10410532339511E-02 
480	 5,10667352255217E-02 
481	 5,42367323201562E-02 
482	 0,054228944784069 
483	 5,31385624971494E-02 
484	 5,51562313838748E-02 
485	 5,51123376767299E-02 
486	 5,27135759283236E-02 
487	 0,051898663556421 
488	 0,052613684629468 
489	 5,45145034415959E-02 
490	 5,49846366277227E-02 
491	 5,41133494293247E-02 
492	 5,31714384462236E-02 
493	 5,23234850209877E-02 
494	 5,16569783006096E-02 
495	 5,03941205673203E-02 
496	 5,03110920641959E-02 
497	 5,33442420600913E-02 
498	 5,37772510800472E-02 
499	 0,051408328017106 
500	 4,95725503541408E-02 
501	 0,049198006665562 
502	 0,050724057396068 
503	 5,24645566932634E-02 
504	 5,39254772023394E-02 
505	 0,054880338217782 
506	 5,43997322612551E-02 
507	 5,30737149649777E-02 
508	 5,46996255167738E-02 
509	 5,59554414580666E-02 
510	 5,39187713459821E-02 
511	 5,29769376159289E-02 
512	 5,37607985441635E-02 
513	 5,57083597942692E-02 
514	 5,73850646171396E-02 
515	 5,79336829003988E-02 
516	 5,68154518417082E-02 
517	 0,05579132952536 
518	 0,057308645368216 
519	 5,84164821578867E-02 
520	 5,85072184714707E-02 
521	 5,83494361051453E-02 
522	 5,85123783420486E-02 
523	 5,93474812633305E-02 
524	 6,00992370869995E-02 
525	 6,04041334396758E-02 
526	 0,059702043912846 
527	 5,91448104429206E-02 
528	 0,059188700456834 
529	 5,97261631431943E-02 
530	 6,01333694547362E-02 
531	 5,97356887039399E-02 
532	 6,01060721850754E-02 
533	 6,09514724624768E-02 
534	 6,01933587461915E-02 
535	 5,94278500962339E-02 
536	 5,95349477960215E-02 
537	 5,94136770325939E-02 
538	 5,91592428975801E-02 
539	 5,92163739826675E-02 
540	 5,92993995605773E-02 
541	 5,91887753001734E-02 
542	 5,81445414817016E-02 
543	 0,057758985463427 
544	 5,94782404360092E-02 
545	 6,01280596648654E-02 
546	 5,96463841374024E-02 
547	 5,98173283951348E-02 
548	 0,059891152839513 
549	 5,96731374933019E-02 
550	 6,01458349844474E-02 
551	 6,10087965317211E-02 
552	 6,16945446476663E-02 
553	 6,13859584482889E-02 
554	 6,03461600669339E-02 
555	 6,07201991132329E-02 
556	 6,10440697415389E-02 
557	 6,01573544651953E-02 
558	 5,99913429236341E-02 
559	 6,02202086809641E-02 
560	 5,90387934443502E-02 
561	 5,83899915926454E-02 
562	 5,88497864885517E-02 
563	 5,87960620601554E-02 
564	 5,83578339619319E-02 
565	 5,78958517317293E-02 
566	 5,81222622553191E-02 
567	 5,88643155245396E-02 
568	 5,87946347632298E-02 
569	 5,86348940556611E-02 
570	 5,89221720854009E-02 
571	 5,96789151772123E-02 
572	 6,05397309985311E-02 
573	 6,05720719076249E-02 
574	 6,15634161543646E-02 
575	 6,37049269805154E-02 
576	 6,45400574203356E-02 
577	 6,46926385749049E-02 
578	 6,50770559274704E-02 
579	 6,59894291441863E-02 
580	 6,72942739276401E-02 
581	 6,82801018844617E-02 
582	 6,91635957219146E-02 
583	 7,00127223499924E-02 
584	 7,05225954339297E-02 
585	 7,08896043357356E-02 
586	 7,14780788226848E-02 
587	 7,23936207360617E-02 
588	 7,34551936732476E-02 
589	 7,37120367215841E-02 
590	 7,38168748393904E-02 
591	 7,44199183660162E-02 
592	 7,54622612585997E-02 
593	 7,63749006654927E-02 
594	 7,55968675953597E-02 
595	 7,50102362782468E-02 
596	 7,54527585572939E-02 
597	 7,59433147134919E-02 
598	 7,63120975800581E-02 
599	 0,076490034624634 
600	 7,63135029666936E-02 
601	 7,58924029363433E-02 
602	 0,075860712258477 
603	 7,56228943792967E-02 
604	 7,47751886811103E-02 
605	 7,44331193728397E-02 
606	 7,44396349253615E-02 
607	 7,40216466434043E-02 
608	 7,30440728510001E-02 
609	 7,17295187914927E-02 
610	 7,17706154024977E-02 
611	 7,20857794702317E-02 
612	 7,11828923572598E-02 
613	 7,05538518380942E-02 
614	 7,02776718743545E-02 
615	 6,93022599291602E-02 
616	 6,86183684510387E-02 
617	 6,87714538132911E-02 
618	 6,85232530998396E-02 
619	 6,81122020115821E-02 
620	 6,84196635435137E-02 
621	 6,84261041170712E-02 
622	 6,79438038632564E-02 
623	 6,76938430942853E-02 
624	 0,0679649301228 
625	 6,89347609602685E-02 
626	 6,87384274942263E-02 
627	 6,77437278972728E-02 
628	 6,81973780946586E-02 
629	 6,90680607795708E-02 
630	 0,069723257742283 
631	 6,95465298633234E-02 
632	 6,92285979343391E-02 
633	 7,00204146401743E-02 
634	 7,05084677036566E-02 
635	 7,05613495711753E-02 
636	 7,14156658243771E-02 
637	 7,23701970868506E-02 
638	 7,28499889655576E-02 
639	 7,38718761373259E-02 
640	 7,51117604057818E-02 
641	 7,53028601806883E-02 
642	 7,55004482032668E-02 
643	 0,076094421992889 
644	 7,67445741911571E-02 
645	 7,71208689068628E-02 
646	 0,076849912517984 
647	 7,63089221673787E-02 
648	 7,58433997313871E-02 
649	 7,63028842212303E-02 
650	 7,62941285934258E-02 
651	 7,49847205656882E-02 
652	 7,39043114700982E-02 
653	 7,32864677030171E-02 
654	 7,31749462643972E-02 
655	 7,24732325767354E-02 
656	 0,070942638401247 
657	 6,96247797918834E-02 
658	 6,81409661805701E-02 
659	 6,60825461345483E-02 
660	 6,47776368280371E-02 
661	 6,39969661386122E-02 
662	 6,21824970306262E-02 
663	 6,04152229812931E-02 
664	 5,92640872998594E-02 
665	 5,85767718734201E-02 
666	 0,058088427632623 
667	 5,74184371824001E-02 
668	 5,68281647736718E-02 
669	 5,63362301351189E-02 
670	 5,57212767957692E-02 
671	 5,52676458370199E-02 
672	 5,51626740363178E-02 
673	 5,47484009594243E-02 
674	 5,42056994670071E-02 
675	 5,43027313147087E-02 
676	 5,41487294791169E-02 
677	 5,36253225265907E-02 
678	 5,40289628781801E-02 
679	 5,46053405270101E-02 
680	 5,43576035930883E-02 
681	 5,45637391922785E-02 
682	 5,52778868662119E-02 
683	 5,56474601171876E-02 
684	 5,61421819609728E-02 
685	 5,70778581252807E-02 
686	 0,058570236375641 
687	 6,04106227842569E-02 
688	 6,21852352519765E-02 
689	 6,43868461185953E-02 
690	 6,71693466253206E-02 
691	 7,04087425638023E-02 
692	 7,41949934571186E-02 
693	 7,86131274846119E-02 
694	 8,36054633576751E-02 
695	 8,93388208938527E-02 
696	 9,62912649617708E-02 
697	 0,103733484822178 
698	 0,111446673294722 
699	 0,120165803401342 
700	 0,129673863336072 
701	 0,139593699069025 
702	 0,149399676509351 
703	 0,159007200613903 
704	 0,168742699391985 
705	 0,178553699118235 
706	 0,188326254610591 
707	 0,197607498548009 
708	 0,206415704508485 
709	 0,21484506274632 
710	 0,223292579261578 
711	 0,231695179659942 
712	 0,239149162807373 
713	 0,246123254833704 
714	 0,253058817255495 
715	 0,259429871336971 
716	 0,265307781518118 
717	 0,27126863866857 
718	 0,276312748358222 
719	 0,28023345183197 
720	 0,28454235059612 
721	 0,288875156676923 
722	 0,292588824408671 
723	 0,296130689005491 
724	 0,299440552976495 
725	 0,301889116086981 
726	 0,304325449566075 
727	 0,307190812688541 
728	 0,30936479907431 
729	 0,311018389903497 
730	 0,312719755910174 
731	 0,314407830293331 
732	 0,316097139277098 
733	 0,317816866573562 
734	 0,319373917661508 
735	 0,32060797796815 
736	 0,321687797878394 
737	 0,322685171368672 
738	 0,323661311847628 
739	 0,324656532841579 
740	 0,325669588258488 
741	 0,326583659707129 
742	 0,327396407628181 
743	 0,328118492132291 
744	 0,32860720737264 
745	 0,329001255058313 
746	 0,329837488418096 
747	 0,330468694083349 
748	 0,330647920804058 
749	 0,331231249886643 
750	 0,332161315411133 
751	 0,333219046566726 
752	 0,333573851929363 
753	 0,333344907788736 
754	 0,333983038663928 
755	 0,334589457961173 
756	 0,33456752099649 
757	 0,334918943857792 
758	 0,335562023976154 
759	 0,336025151180984 
760	 0,336407875846666 
761	 0,336763853908513 
762	 0,337272337722125 
763	 0,337748301537421 
764	 0,338011175907464 
765	 0,338151619329521 
766	 0,338234779342763 
767	 0,33830522323513 
768	 0,338704134943277 
769	 0,339475889832361 
770	 0,34004139829512 
771	 0,340249918208432 
772	 0,340014040580398 
773	 0,340098201939323 
774	 0,340540878171229 
775	 0,340822849035718 
776	 0,341170690728251 
777	 0,3416440349575 
778	 0,341931606508603 
779	 0,342005064209591 
780	 0,341875076301961 
781	 0,341885778068885 
782	 0,342166885386864 
783	 0,342823548796959 
784	 0,343202180136663 
785	 0,342952480757504 
786	 0,343087932337715 
787	 0,343394878566529 
788	 0,343210493984907 
789	 0,34324968514791 
790	 0,343620016536706 
791	 0,343806065760079 
792	 0,344060739033739 
793	 0,344542842445332 
794	 0,344632379006522 
795	 0,344459824513146 
796	 0,3445043528642 
797	 0,344715259933469 
798	 0,345010772016654 
799	 0,345004598881941 
800	 0,344998300015093 
801	 0,345282998707085 
802	 0,345644187402307 
803	 0,345906418811193 
804	 0,345670209854806 
805	 0,345792951385058 
806	 0,346437540245456 
807	 0,346517453178738 
808	 0,346609705501262 
809	 0,347364175528878 
810	 0,347640406514666 
811	 0,347504164012158 
812	 0,347805803893001 
813	 0,348187701507257 
814	 0,34850007826081 
815	 0,348734945226931 
816	 0,348867066556599 
817	 0,348888873420165 
818	 0,349463440297965 
819	 0,350302564299769 
820	 0,350073000081506 
821	 0,349939517539979 
822	 0,350365994720078 
823	 0,350457818725988 
824	 0,350484384631259 
825	 0,350891735329404 
826	 0,351517262404547 
827	 0,352132532456652 
828	 0,352199401458842 
829	 0,352082997278707 
830	 0,35199405519997 
831	 0,35188738798106 
832	 0,351925530132116 
833	 0,352312819107703 
834	 0,35304856178836 
835	 0,353751248089151 
836	 0,353259385530391 
837	 0,352771893818676 
838	 0,352927076940244 
839	 0,353120050723738 
840	 0,353284591749571 
841	 0,353416702955948 
842	 0,353704823818544 
843	 0,354125174425247 
844	 0,354484201873332 
845	 0,354603221815345 
846	 0,354475215953504 
847	 0,354869885588978 
848	 0,355215170049506 
849	 0,354605392329134 
850	 0,354317687846129 
851	 0,354536516996692 
852	 0,354737573007723 
853	 0,354797326503279 
854	 0,354675745698597 
855	 0,354657977685656 
856	 0,354914224957149 
857	 0,355613237426955 
858	 0,355523990978611 
859	 0,354771369496249 
860	 0,354752884785359 
861	 0,355045141715701 
862	 0,355360379223792 
863	 0,355221900177559 
864	 0,355039449743471 
865	 0,355404695271571 
866	 0,355986841861138 
867	 0,356571726781058 
868	 0,356772133532042 
869	 0,357001802236176 
870	 0,357422796236279 
871	 0,357749765331437 
872	 0,357884808026837 
873	 0,357757934243053 
874	 0,357695066073012 
875	 0,357867541117188 
876	 0,358563916120972 
877	 0,358963165072439 
878	 0,358809793260283 
879	 0,35885296249407 
880	 0,359280843167471 
881	 0,360187470352748 
882	 0,360969444782006 
883	 0,361312930008472 
884	 0,360669110813043 
885	 0,360670117804783 
886	 0,361636828177328 
887	 0,361766296506262 
888	 0,361468435563296 
889	 0,361278776537802 
890	 0,361709608770372 
891	 0,36236604503988 
892	 0,362124497081006 
893	 0,362182347092247 
894	 0,362740539477057 
895	 0,362883576532878 
896	 0,3628769376486 
897	 0,3629958650109 
898	 0,363668734379235 
899	 0,364233957340417 
900	 0,363423061920506 
901	 0,362620995514602 
902	 0,362436440519811 
903	 0,363380909819282 
904	 0,364447271798139 
905	 0,364942970778919 
906	 0,365093091831785 
907	 0,364891822271256 
908	 0,364318532293904 
909	 0,364332947816263 
910	 0,364840480426483 
911	 0,364697755327645 
912	 0,364552713293102 
913	 0,364691423837518 
914	 0,364976080750233 
915	 0,365030070392641 
916	 0,364520180165826 
917	 0,364894623645224 
918	 0,365702129249391 
919	 0,364948444539168 
920	 0,364876280993303 
921	 0,365812599580539 
922	 0,365430953477597 
923	 0,364663215950629 
924	 0,364354124085534 
925	 0,363921308177489 
926	 0,363588185546056 
927	 0,363861566003211 
928	 0,364524101500543 
929	 0,364962006790525 
930	 0,363275975742251 
931	 0,361761141640111 
932	 0,361728574337584 
933	 0,361973098309719 
934	 0,361874277276525 
935	 0,360867935263377 
936	 0,360816957833297 
937	 0,361500279041217 
938	 0,361289040681176 
939	 0,359735325069993 
940	 0,357236553864128 
941	 0,356794045660855 
942	 0,356927322485581 
943	 0,356189921652609 
944	 0,355455382911071 
945	 0,354817433135163 
946	 0,354212434085293 
947	 0,353971232656181 
948	 0,353759706520243 
949	 0,352050211114667 
950	 0,350384610374982 
951	 0,349586093322051 
952	 0,348528516285206 
953	 0,347634749165556 
954	 0,347440523170052 
955	 0,345484060933924 
956	 0,342730699925574 
957	 0,343132559914128 
958	 0,342268995656282 
959	 0,339586042428394 
960	 0,33985930641325 
961	 0,340832687217491 
962	 0,340570120472809 
963	 0,339024327873124 
964	 0,337794974025591 
965	 0,339272656191782 
966	 0,339193107135666 
967	 0,337546099699984 
968	 0,337875361644109 
969	 0,338017595524539 
970	 0,337276810398864 
971	 0,336927634072358 
972	 0,337011980032267 
973	 0,337421914134742 
974	 0,337325220434056 
975	 0,337091002883784 
976	 0,337638304267844 
977	 0,338295967339453 
978	 0,338711485102527 
979	 0,338219792443038 
980	 0,338599937987125 
981	 0,340297823273072 
982	 0,340568948300218 
983	 0,339232279558662 
984	 0,336815357631553 
985	 0,339021373304277 
986	 0,343232694470045 
987	 0,34243229297134 
988	 0,341577456866901 
989	 0,341879499809352 
990	 0,342397714016886 
991	 0,343159498475479 
992	 0,343920400173596 
993	 0,343340147928227 
994	 0,343020094062079 
995	 0,344591498672798 
996	 0,346014650332436 
997	 0,346490211626791 
998	 0,345217118637365 
999	 0,3452154815626 
1000	 0,346799978619095 
1001	 0,34743535292687 
1002	 0,348606629455976 
1003	 0,35060884170413 
1004	 0,350878765977907 
1005	 0,350445094096503 
1006	 0,350564619897338 
1007	 0,351233263808168 
1008	 0,352596989946539 
1009	 0,354836076352331 
1010	 0,355987844135201 
1011	 0,355754048961282 
1012	 0,3549241236218 
1013	 0,355196402754162 
1014	 0,357364358464165 
1015	 0,361029978248636 
1016	 0,363319020037678 
1017	 0,361849856723986 
1018	 0,357093813128814 
1019	 0,353706517488631 
1020	 0,358175011303359 
1021	 0,363264401881152 
1022	 0,366681746811276 
1023	 0,367217506744792 
1024	 0,366416416668919 
1025	 0,365602080943188 
1026	 0,367367969017904 
1027	 0,369349652864819 
1028	 0,369781202353096 
1029	 0,368331481481638 
1030	 0,368346521870927 
1031	 0,373152934739333 
1032	 0,374315988517471 
1033	 0,370707728077083 
1034	 0,36318113590405 
1035	 0,365136052411793 
1036	 0,375159128498356 
1037	 0,372530041478715 
1038	 0,37101617583104 
1039	 0,375174175644334 
1040	 0,374862123175994 
1041	 0,37420169636183 
1042	 0,376524788203699 
1043	 0,377103647215108 
1044	 0,375414788420089 
1045	 0,371843666404107 
1046	 0,370383695892377 
1047	 0,371992578699006 
1048	 0,376554684214062 
1049	 0,376870104614638 
1050	 0,373929452962633 
1051	 0,382038000033258 
1052	 0,384225390390008 
1053	 0,375940419238777 
1054	 0,381927726974084 
1055	 0,391638898683055 
1056	 0,393854163234821 
1057	 0,384068607211066 
1058	 0,37550159614506 
1059	 0,386752989365781 
1060	 0,388845007242224 
1061	 0,38204020181379 
1062	 0,381648886583062 
1063	 0,380588783252122 
1064	 0,378796674017795 
1065	 0,382508756151747 
1066	 0,385336681991714 
1067	 0,383233258131607 
1068	 0,371768115777649 
1069	 0,36540535912607 
1070	 0,374159561353158 
1071	 0,386641616069578 
1072	 0,390026699921659 
1073	 0,373228067427976 
1074	 0,374066289892624 
1075	 0,381719284004011 
