Wavelength	CAMFROU00093.asd
325	-0,110162761928942 
326	-3,33222492518245E-02 
327	 9,28328761150373E-02 
328	 0,242841214413735 
329	 0,407491506276982 
330	 0,425766960537817 
331	 0,188076842051323 
332	 0,0888659616542 
333	 0,16743534056185 
334	 0,267998837928987 
335	 0,301792581785216 
336	 0,247751476147057 
337	 0,14598987946783 
338	 0,115467189735442 
339	 0,217270440956461 
340	 0,200586157686976 
341	 9,41846371175193E-02 
342	 0,118292291178614 
343	 0,106186701147682 
344	 3,75703246022984E-02 
345	 9,40804705184344E-02 
346	 0,168011751048565 
347	 0,1852719923067 
348	 0,17054087484074 
349	 0,149223972139924 
350	 0,196907151807394 
351	 0,186273469820728 
352	 0,101172517192418 
353	 0,137023230379882 
354	 0,184562092615073 
355	 0,117683201452942 
356	 0,122674557450531 
357	 0,189167578807967 
358	 0,174240391721452 
359	 0,168241270965531 
360	 0,200700429546887 
361	 0,15768794495381 
362	 0,10780480994101 
363	 0,167610760083635 
364	 0,19560317216107 
365	 0,180908446025324 
366	 0,206152570128241 
367	 0,218283403662721 
368	 0,187901036559821 
369	 0,1803358594172 
370	 0,190239146870399 
371	 0,195199888376352 
372	 0,189320440525966 
373	 0,176031766646572 
374	 0,18093499602121 
375	 0,187348651442258 
376	 0,182088960398799 
377	 0,185969381265784 
378	 0,19588682847476 
379	 0,201830513820481 
380	 0,193044943638538 
381	 0,174487795124771 
382	 0,18428027006383 
383	 0,202023903718819 
384	 0,206384898150632 
385	 0,203701688574659 
386	 0,198884696395748 
387	 0,203371450961043 
388	 0,203484225193246 
389	 0,197304446273186 
390	 0,205351272999099 
391	 0,209626437190878 
392	 0,187160871575259 
393	 0,186447638724253 
394	 0,206126901538365 
395	 0,213037699655767 
396	 0,208496642302973 
397	 0,196051773569143 
398	 0,194849402740797 
399	 0,197469780025997 
400	 0,189279646168302 
401	 0,189689652094687 
402	 0,199129761667827 
403	 0,201545901968826 
404	 0,200734505109936 
405	 0,200340350977971 
406	 0,20808409580401 
407	 0,217263303364266 
408	 0,212313401571441 
409	 0,207500314483491 
410	 0,206449049437773 
411	 0,205216676187924 
412	 0,202468627281402 
413	 0,197691541258158 
414	 0,201634292904658 
415	 0,209879791398009 
416	 0,206433982186501 
417	 0,208020748356176 
418	 0,218127002405293 
419	 0,21634563847515 
420	 0,208616953057919 
421	 0,204826727300212 
422	 0,203747653567672 
423	 0,205094916081421 
424	 0,208416019714408 
425	 0,211454973896973 
426	 0,212493941306221 
427	 0,210658183695385 
428	 0,2078264956072 
429	 0,206987197893463 
430	 0,20960362524435 
431	 0,213851371786769 
432	 0,210221363815813 
433	 0,205938463927582 
434	 0,207623936673499 
435	 0,211529469406492 
436	 0,213709376773069 
437	 0,204770579520508 
438	 0,202339116841846 
439	 0,211176059918987 
440	 0,212826182658677 
441	 0,210514039904489 
442	 0,210372376614806 
443	 0,212135196295926 
444	 0,214198359612997 
445	 0,210433911050463 
446	 0,209226118885935 
447	 0,21458818745821 
448	 0,212208643125222 
449	 0,206513896635051 
450	 0,20894868486234 
451	 0,215028863545715 
452	 0,221173681142662 
453	 0,218367197560935 
454	 0,213582017615834 
455	 0,213674618291863 
456	 0,21742823091942 
457	 0,221839292166211 
458	 0,219419421016613 
459	 0,219291785953627 
460	 0,223513220300329 
461	 0,218472218707075 
462	 0,21188527803513 
463	 0,215481792055167 
464	 0,218021671019129 
465	 0,217679543670051 
466	 0,218794713463581 
467	 0,218874107021151 
468	 0,216834134162784 
469	 0,218789261428803 
470	 0,221775961075404 
471	 0,21802851898234 
472	 0,216601487630265 
473	 0,21946023742861 
474	 0,220917314664031 
475	 0,221640184328468 
476	 0,22253115792265 
477	 0,222040485822103 
478	 0,220378686778032 
479	 0,218327393318968 
480	 0,219007622685056 
481	 0,222895461983841 
482	 0,22231639617123 
483	 0,21981286045557 
484	 0,220300198442371 
485	 0,221348128909576 
486	 0,221917649464799 
487	 0,220288248280629 
488	 0,219451405960692 
489	 0,221382956596064 
490	 0,2218435282871 
491	 0,220723914461395 
492	 0,219308292047694 
493	 0,218264318286186 
494	 0,21796597853772 
495	 0,218139517159567 
496	 0,219057414957109 
497	 0,220989753509009 
498	 0,220406435612145 
499	 0,21773543340833 
500	 0,21640512939575 
501	 0,21709668816525 
502	 0,219811722788272 
503	 0,220990083537106 
504	 0,220966899317012 
505	 0,221172021371029 
506	 0,221825025074182 
507	 0,22308119142852 
508	 0,225395588391247 
509	 0,226056668488941 
510	 0,222967845241054 
511	 0,222625091504635 
512	 0,22488890936914 
513	 0,226042517583265 
514	 0,226953619983101 
515	 0,227743222924382 
516	 0,227185454064011 
517	 0,227219894503044 
518	 0,230723777346465 
519	 0,231225334601773 
520	 0,228801574305779 
521	 0,230356304867594 
522	 0,23165641458273 
523	 0,229835608788005 
524	 0,229106194564561 
525	 0,229632255723384 
526	 0,230424780682898 
527	 0,230320340403126 
528	 0,229327285635248 
529	 0,230275113687165 
530	 0,231422988641064 
531	 0,230592954696492 
532	 0,230376699128014 
533	 0,230727623748039 
534	 0,229547550444602 
535	 0,228425508081561 
536	 0,228341266042766 
537	 0,228999727753897 
538	 0,229956416168413 
539	 0,2305623788239 
540	 0,230783535846236 
541	 0,23063100200909 
542	 0,230250420112733 
543	 0,23021352117426 
544	 0,231013934923188 
545	 0,231563163767037 
546	 0,231707833590979 
547	 0,231730227986321 
548	 0,231644493115736 
549	 0,231537414068774 
550	 0,231792051779099 
551	 0,232210308739343 
552	 0,232414062052424 
553	 0,232757401640365 
554	 0,233207461618362 
555	 0,233389173660596 
556	 0,233063946682833 
557	 0,232103596833042 
558	 0,231298498285898 
559	 0,230807548095333 
560	 0,230555226178374 
561	 0,230519775907215 
562	 0,230583452302169 
563	 0,230178404631847 
564	 0,229804946252601 
565	 0,230176920718652 
566	 0,230562939806897 
567	 0,23076224579194 
568	 0,230818369213063 
569	 0,230768252596421 
570	 0,230757764948628 
571	 0,231899290898781 
572	 0,233520504296751 
573	 0,233705555484194 
574	 0,234598469477989 
575	 0,236602292204971 
576	 0,237728924429684 
577	 0,238384822435181 
578	 0,239201368978344 
579	 0,240961668036693 
580	 0,243184904488057 
581	 0,243854012590099 
582	 0,244174050698248 
583	 0,244854978694117 
584	 0,245660226763235 
585	 0,246656261834616 
586	 0,248042028307266 
587	 0,248755279326901 
588	 0,248783714617434 
589	 0,24970752151806 
590	 0,250630159482367 
591	 0,250715152100216 
592	 0,251493868705004 
593	 0,252743953655389 
594	 0,25310176655241 
595	 0,25310188194093 
596	 0,253031169143751 
597	 0,253066475562016 
598	 0,253474449919684 
599	 0,254654970335022 
600	 0,254482826168764 
601	 0,25303916460356 
602	 0,253212545364008 
603	 0,253350551223837 
604	 0,252235222281032 
605	 0,252042354786435 
606	 0,252387464401329 
607	 0,251436430528214 
608	 0,250448217574392 
609	 0,24982876270912 
610	 0,248986902111281 
611	 0,24838205772126 
612	 0,248610805820111 
613	 0,2485211797337 
614	 0,247835749755321 
615	 0,246580707506112 
616	 0,245882220288256 
617	 0,246342296702436 
618	 0,246284306703018 
619	 0,245799492692308 
620	 0,245559875714111 
621	 0,245515585097775 
622	 0,245641839928338 
623	 0,245778743479392 
624	 0,24586784091116 
625	 0,245867343279032 
626	 0,245869960213288 
627	 0,246025244509317 
628	 0,246761959114995 
629	 0,247189749735301 
630	 0,246936759392607 
631	 0,246889505323213 
632	 0,247396397255304 
633	 0,248856948866274 
634	 0,249848523641371 
635	 0,250155916428794 
636	 0,250905863303892 
637	 0,251755196766593 
638	 0,252416660185548 
639	 0,253461923385319 
640	 0,254621889253152 
641	 0,254970494393577 
642	 0,25536330837395 
643	 0,256056462260982 
644	 0,256357623944973 
645	 0,256567635343192 
646	 0,257152432113108 
647	 0,25724477573756 
648	 0,256807370126891 
649	 0,256578545000296 
650	 0,256086803274386 
651	 0,255019127877975 
652	 0,253406095433758 
653	 0,252014431199596 
654	 0,252449646794313 
655	 0,252085076999349 
656	 0,250306688188525 
657	 0,249032017507208 
658	 0,2476223499527 
659	 0,245360521378759 
660	 0,243861704486596 
661	 0,242962713303645 
662	 0,241162931752767 
663	 0,239108454808039 
664	 0,237289392342777 
665	 0,236719257251512 
666	 0,236566420155838 
667	 0,235366486406392 
668	 0,234214832924841 
669	 0,233427312782362 
670	 0,23295136350456 
671	 0,232666235482222 
672	 0,232435626150544 
673	 0,23185369199697 
674	 0,231222520094772 
675	 0,231518970099658 
676	 0,231486925282815 
677	 0,230841992579025 
678	 0,230823919493697 
679	 0,231011364579237 
680	 0,23079662909308 
681	 0,231188440483618 
682	 0,232189931636988 
683	 0,233004734897019 
684	 0,23397479713422 
685	 0,23536164941336 
686	 0,237529025930826 
687	 0,240135455566954 
688	 0,24245278022998 
689	 0,245534357029187 
690	 0,249587181774996 
691	 0,253937046291746 
692	 0,258793029795835 
693	 0,264349412922833 
694	 0,2702316692531 
695	 0,276762498295436 
696	 0,285116184097574 
697	 0,293278337846404 
698	 0,300586112035885 
699	 0,308692720946957 
700	 0,317715040769975 
701	 0,327570625818278 
702	 0,336953322868893 
703	 0,345532871460398 
704	 0,353524849119692 
705	 0,361668721354312 
706	 0,370296396566357 
707	 0,377948353121299 
708	 0,384919752372505 
709	 0,392146807366407 
710	 0,398809798058234 
711	 0,404769974637302 
712	 0,410568618634635 
713	 0,416050617253019 
714	 0,421056904400885 
715	 0,425842570112143 
716	 0,430359447980618 
717	 0,434375213113139 
718	 0,438078204371589 
719	 0,441539899299954 
720	 0,444729991677639 
721	 0,447537300922439 
722	 0,449832864143151 
723	 0,45205901827538 
724	 0,454311478909564 
725	 0,456402131940531 
726	 0,458510823059061 
727	 0,460646934400967 
728	 0,461907220185254 
729	 0,462698650382355 
730	 0,463948366899751 
731	 0,465207075677005 
732	 0,466400651765907 
733	 0,467780929828955 
734	 0,46887389431394 
735	 0,469314418844442 
736	 0,469937067631733 
737	 0,47079719318628 
738	 0,471647890589243 
739	 0,472282340068668 
740	 0,472665867199978 
741	 0,473171227323078 
742	 0,473770654042343 
743	 0,474391662127425 
744	 0,474972512810119 
745	 0,475479814497005 
746	 0,475900530195645 
747	 0,476188746125972 
748	 0,476385738037011 
749	 0,476918062676627 
750	 0,477632594596487 
751	 0,478240087945221 
752	 0,478287899545842 
753	 0,47797122730357 
754	 0,478532519370997 
755	 0,479183246201501 
756	 0,479329733792091 
757	 0,479210108601176 
758	 0,479090935650892 
759	 0,479447272896704 
760	 0,479667802758662 
761	 0,479673970985117 
762	 0,480083808974264 
763	 0,480643776193459 
764	 0,481064228209455 
765	 0,48108158265865 
766	 0,480855146540919 
767	 0,480858513568794 
768	 0,481308271151398 
769	 0,482072084827606 
770	 0,481796827531755 
771	 0,481207894903209 
772	 0,481289699147309 
773	 0,481681364642614 
774	 0,482138091181796 
775	 0,482122274514775 
776	 0,482249509059215 
777	 0,482789043803201 
778	 0,48326495484662 
779	 0,483473887017813 
780	 0,483213353158284 
781	 0,482829834722955 
782	 0,482619104729379 
783	 0,483213050373052 
784	 0,483663331769318 
785	 0,48341203626708 
786	 0,483460833843926 
787	 0,483764316836275 
788	 0,484000321034295 
789	 0,48403744435806 
790	 0,483905888769185 
791	 0,483938269364984 
792	 0,484134207976373 
793	 0,484436049776368 
794	 0,484291916711822 
795	 0,483978478777916 
796	 0,484273112771262 
797	 0,484704840250528 
798	 0,485048218851853 
799	 0,48506050413037 
800	 0,484944617011082 
801	 0,484910547079885 
802	 0,484951294544501 
803	 0,485002410288657 
804	 0,484836624684063 
805	 0,484932357641398 
806	 0,485406920046569 
807	 0,485860550750272 
808	 0,486108427689674 
809	 0,48601043177616 
810	 0,486059313960979 
811	 0,486276593136705 
812	 0,486382361030355 
813	 0,486541783611583 
814	 0,486822386606402 
815	 0,487284115098665 
816	 0,487468790026601 
817	 0,486871406861186 
818	 0,486725477597628 
819	 0,487084564831406 
820	 0,487168514835836 
821	 0,487302881061306 
822	 0,487620406386563 
823	 0,488100879590201 
824	 0,488314469670934 
825	 0,487745730479843 
826	 0,487758020518117 
827	 0,488364910930578 
828	 0,488522864679029 
829	 0,488401218342957 
830	 0,48814654771545 
831	 0,488232319489924 
832	 0,488447374961097 
833	 0,488427683089593 
834	 0,488686403480228 
835	 0,489109914899555 
836	 0,488957470603263 
837	 0,48865383666471 
838	 0,488485000650933 
839	 0,488659335776131 
840	 0,4889591811426 
841	 0,489042447671261 
842	 0,489209367244875 
843	 0,489554734034412 
844	 0,490231925562298 
845	 0,490484012000246 
846	 0,490009678851631 
847	 0,489929267214835 
848	 0,490032505618871 
849	 0,489838652325396 
850	 0,489648154510854 
851	 0,489620581217442 
852	 0,490046341333994 
853	 0,490377922582078 
854	 0,490317797259539 
855	 0,490098186177687 
856	 0,490006984702052 
857	 0,490385096981576 
858	 0,49035533956622 
859	 0,490026419404867 
860	 0,490510303004986 
861	 0,490864121632087 
862	 0,490669100609617 
863	 0,490631254160049 
864	 0,490740043855239 
865	 0,490881766491439 
866	 0,491026911226473 
867	 0,490997730132526 
868	 0,490138957636634 
869	 0,490195826206322 
870	 0,491632939440103 
871	 0,49171039676478 
872	 0,491159483250687 
873	 0,491167321450936 
874	 0,491077392205755 
875	 0,491014422506065 
876	 0,491833130917567 
877	 0,491731477212444 
878	 0,490373575480721 
879	 0,490481154905148 
880	 0,491436750301749 
881	 0,492285750821911 
882	 0,492472278885471 
883	 0,492099043227583 
884	 0,491707043934153 
885	 0,492046913241562 
886	 0,493085218173499 
887	 0,493026030612934 
888	 0,492401642349343 
889	 0,491880242519629 
890	 0,492044236693391 
891	 0,492502895324257 
892	 0,492093947438528 
893	 0,491990477351989 
894	 0,49243003749374 
895	 0,492753618458733 
896	 0,492715802180736 
897	 0,4922737061309 
898	 0,492795237346413 
899	 0,493693536665447 
900	 0,493573524201813 
901	 0,493124531297141 
902	 0,492702237580815 
903	 0,492799122476776 
904	 0,493262595044003 
905	 0,493814356483968 
906	 0,493234835172276 
907	 0,492489190361307 
908	 0,493131161602924 
909	 0,493172874547708 
910	 0,492591250044796 
911	 0,492919995524849 
912	 0,493120357115874 
913	 0,492919138476281 
914	 0,493952481334204 
915	 0,494267847501844 
916	 0,491831581230971 
917	 0,491925025791164 
918	 0,494061266655626 
919	 0,494359818789648 
920	 0,493617848021366 
921	 0,49237609966687 
922	 0,49233561256174 
923	 0,492310437869044 
924	 0,49141580416334 
925	 0,491759721691685 
926	 0,492748082922912 
927	 0,492742984280457 
928	 0,492718100272427 
929	 0,492701855913737 
930	 0,491820480461622 
931	 0,491138318643837 
932	 0,491188925255984 
933	 0,490984073656193 
934	 0,490382957054336 
935	 0,489393785876567 
936	 0,489296108972196 
937	 0,489945858219738 
938	 0,49024939082043 
939	 0,489495332933394 
940	 0,487829723028554 
941	 0,487572678839343 
942	 0,488131160538118 
943	 0,488680396956502 
944	 0,487679915482459 
945	 0,486084315470159 
946	 0,486168235926967 
947	 0,485846443842557 
948	 0,48490467361239 
949	 0,484918427495021 
950	 0,484185483273271 
951	 0,482157993450352 
952	 0,482075443010603 
953	 0,482329127058763 
954	 0,480675412437658 
955	 0,479572358645712 
956	 0,479192902669732 
957	 0,478520666462569 
958	 0,478629095051427 
959	 0,479403133608935 
960	 0,478749335957255 
961	 0,477774472530066 
962	 0,477346056438904 
963	 0,476626905317311 
964	 0,476207310805812 
965	 0,477093386591508 
966	 0,476756262694803 
967	 0,475495877866112 
968	 0,47647702520701 
969	 0,476723015886745 
970	 0,475341132196822 
971	 0,474718457849099 
972	 0,474746377582179 
973	 0,475181020459404 
974	 0,476078702109954 
975	 0,476944862669865 
976	 0,47699373091056 
977	 0,476237116894507 
978	 0,475063872256018 
979	 0,474451076667383 
980	 0,475579405025094 
981	 0,478033069447974 
982	 0,475747743319394 
983	 0,473456425332139 
984	 0,476095942118518 
985	 0,477425252592961 
986	 0,47708357566593 
987	 0,47656414426698 
988	 0,476898565198257 
989	 0,477812589512546 
990	 0,476713437083647 
991	 0,476791692280047 
992	 0,47905688265936 
993	 0,47859441244366 
994	 0,478122012186418 
995	 0,480596570367874 
996	 0,481790388305217 
997	 0,481628767146451 
998	 0,481561542042291 
999	 0,480153237783973 
1000	 0,478010039991327 
1001	 0,478237980249798 
1002	 0,479665315564218 
1003	 0,481436562337886 
1004	 0,482492366993155 
1005	 0,482748735292906 
1006	 0,482243616826996 
1007	 0,480525968166454 
1008	 0,479349381438475 
1009	 0,481786968549293 
1010	 0,483017419315982 
1011	 0,482404037657163 
1012	 0,482115640064864 
1013	 0,484069222641696 
1014	 0,488195597541138 
1015	 0,489224905299121 
1016	 0,488853312620392 
1017	 0,488685050363434 
1018	 0,486737562571825 
1019	 0,48545572216274 
1020	 0,48863785700784 
1021	 0,492040855405456 
1022	 0,49373490849986 
1023	 0,491141645289468 
1024	 0,489834119363248 
1025	 0,490926345624068 
1026	 0,489232164373736 
1027	 0,489392829304111 
1028	 0,493623706988541 
1029	 0,494690149405097 
1030	 0,493272190652577 
1031	 0,491329435027369 
1032	 0,491643228093733 
1033	 0,491831288803592 
1034	 0,485548033165943 
1035	 0,489364688223893 
1036	 0,500887992501441 
1037	 0,493941713823966 
1038	 0,487777034299445 
1039	 0,490369041440661 
1040	 0,495045536398427 
1041	 0,498642232846435 
1042	 0,498723316534366 
1043	 0,49629983480914 
1044	 0,492588965982369 
1045	 0,489199267875965 
1046	 0,489155972355465 
1047	 0,492310407698571 
1048	 0,496840730440834 
1049	 0,495862093371261 
1050	 0,489325874102194 
1051	 0,486288505441303 
1052	 0,487567251036158 
1053	 0,492352981059356 
1054	 0,492642208617485 
1055	 0,493573624010148 
1056	 0,498751968676435 
1057	 0,495651081519381 
1058	 0,490585258046488 
1059	 0,494578708115379 
1060	 0,497460587263204 
1061	 0,498063652445535 
1062	 0,498933802965329 
1063	 0,49641049733519 
1064	 0,492728149826633 
1065	 0,499678710942557 
1066	 0,501730125343502 
1067	 0,494058359966003 
1068	 0,492444896873185 
1069	 0,491425988414165 
1070	 0,487167416632149 
1071	 0,487763122838408 
1072	 0,487912573615609 
1073	 0,481075467497833 
1074	 0,479895062844517 
1075	 0,481735428476576 
