Wavelength	CAMFROU00383.asd
325	-0,22132489182517 
326	-0,118373615219027 
327	-2,16085605799103E-02 
328	 2,04787752350586E-02 
329	 4,60548536979272E-02 
330	 0,03079172556679 
331	-4,51538150575347E-02 
332	-6,61794629295274E-02 
333	-2,18075631003994E-02 
334	 3,70018567873789E-02 
335	 9,41264793580418E-02 
336	 0,119968485256234 
337	 1,52489634874937E-02 
338	-4,83050862863511E-02 
339	 3,57289018626917E-02 
340	 2,06875176681755E-02 
341	-7,03337141063316E-02 
342	-0,045646502080183 
343	-3,11507302425109E-02 
344	-4,41130735591287E-02 
345	 1,72974855381361E-02 
346	 7,34207026611099E-02 
347	 7,81028187952991E-02 
348	 4,77005643534302E-02 
349	 5,5221165341234E-03 
350	 2,49428148227022E-02 
351	 0,014382967571244 
352	-0,041350049373325 
353	-1,34882581049585E-02 
354	 2,56148951140871E-02 
355	-6,88829407435344E-03 
356	 6,29326753911831E-03 
357	 5,18022223163091E-02 
358	 1,58558924587316E-02 
359	 1,05228938836778E-03 
360	 4,26203034990186E-02 
361	 1,07672754880148E-02 
362	-3,44580842323437E-02 
363	 1,15568506764489E-02 
364	 4,36717624515714E-02 
365	 4,26146040725381E-02 
366	 0,027154720343318 
367	 3,16608082146962E-03 
368	-2,01673725696328E-02 
369	-4,91579542875772E-03 
370	 3,09234610640245E-02 
371	 6,17885036486488E-02 
372	 5,33738578657883E-02 
373	 8,57164456557347E-03 
374	-0,01389966751495 
375	-7,40284166830155E-03 
376	 2,52008475203451E-02 
377	 3,35094704395796E-02 
378	 2,10537932760469E-02 
379	 5,12626686454577E-03 
380	 6,41864680922848E-03 
381	 2,58622717466547E-02 
382	 2,77153312623252E-02 
383	 1,61618805686602E-02 
384	-7,06569220555994E-04 
385	 3,92843960878829E-03 
386	 2,08584148227064E-02 
387	 9,34958169773398E-03 
388	 7,34692410620487E-03 
389	 2,53712520293793E-02 
390	 4,31302046737919E-02 
391	 4,65142335187712E-02 
392	 1,98738381429753E-02 
393	 1,55666832819317E-02 
394	 3,05868175237094E-02 
395	 2,05914609774886E-02 
396	 1,05522310344086E-02 
397	 1,23312543568367E-02 
398	 1,32733224222586E-02 
399	 1,39974820349774E-02 
400	 1,78091566944112E-02 
401	 1,45128450752518E-02 
402	 6,05690838789781E-03 
403	 8,61575943358459E-03 
404	 1,33147371788445E-02 
405	 1,42105792240028E-02 
406	 1,60137175056227E-02 
407	 1,89838761227321E-02 
408	 2,29151519410561E-02 
409	 2,36167840282009E-02 
410	 2,03704499947568E-02 
411	 1,54570858091236E-02 
412	 1,18684962349806E-02 
413	 1,22990100441397E-02 
414	 1,44722484107881E-02 
415	 1,72989410772741E-02 
416	 1,99187011009102E-02 
417	 2,18571369382935E-02 
418	 2,25023482206012E-02 
419	 1,96725210152743E-02 
420	 1,71457606486463E-02 
421	 0,019832483616337 
422	 2,26089795305652E-02 
423	 0,023285451145159 
424	 1,88283219574071E-02 
425	 1,51397278598555E-02 
426	 1,58500398191133E-02 
427	 1,82527202064362E-02 
428	 1,98451347547882E-02 
429	 1,67483514238089E-02 
430	 1,58223163919531E-02 
431	 1,82917603568873E-02 
432	 1,98926573151805E-02 
433	 2,05596023401736E-02 
434	 2,03010078078492E-02 
435	 1,81138491055743E-02 
436	 1,48992430032417E-02 
437	 1,26639579340351E-02 
438	 1,28621064955149E-02 
439	 1,54557843462316E-02 
440	 1,59266580647237E-02 
441	 1,60581230789374E-02 
442	 1,86037374661969E-02 
443	 0,018587586136844 
444	 1,59301693549552E-02 
445	 1,38954994378253E-02 
446	 1,42561713737076E-02 
447	 1,74233254884263E-02 
448	 1,63858910529619E-02 
449	 1,33049771638839E-02 
450	 1,37897911311868E-02 
451	 1,66770912199262E-02 
452	 2,02677172967106E-02 
453	 1,86452545512039E-02 
454	 1,62690221720013E-02 
455	 1,73935799012579E-02 
456	 1,90911615761103E-02 
457	 1,99976226651806E-02 
458	 1,78815942873883E-02 
459	 1,68421855707875E-02 
460	 1,81872994079812E-02 
461	 1,80577253599063E-02 
462	 1,58365832845869E-02 
463	 1,11753345832572E-02 
464	 1,14372446734539E-02 
465	 1,59724283202277E-02 
466	 1,54301721174771E-02 
467	 1,49234686609843E-02 
468	 1,75028377680659E-02 
469	 1,86052416826153E-02 
470	 1,81114585851999E-02 
471	 1,69656166568753E-02 
472	 1,62648500157721E-02 
473	 1,66730435549985E-02 
474	 1,90409068675308E-02 
475	 2,06157204421049E-02 
476	 1,88542320630636E-02 
477	 1,78295683123048E-02 
478	 1,80267454222095E-02 
479	 0,018197652890599 
480	 1,87093376284791E-02 
481	 1,94068253700347E-02 
482	 1,84518140662937E-02 
483	 1,70177955165565E-02 
484	 1,70677497031142E-02 
485	 1,74996915358304E-02 
486	 1,76366798270432E-02 
487	 1,58254041117715E-02 
488	 1,51787473884215E-02 
489	 1,77761584661743E-02 
490	 1,97206752667746E-02 
491	 2,00011401816508E-02 
492	 1,77035938567221E-02 
493	 1,63223635389511E-02 
494	 1,69526774309513E-02 
495	 1,75528360895841E-02 
496	 1,78080048698151E-02 
497	 1,75544807417895E-02 
498	 1,68976928058701E-02 
499	 1,60331884441693E-02 
500	 1,52279282036149E-02 
501	 1,51414607120182E-02 
502	 1,60123316849001E-02 
503	 1,63588173609978E-02 
504	 1,67219930744446E-02 
505	 1,85438736710606E-02 
506	 1,90463746003493E-02 
507	 1,79319663086962E-02 
508	 1,78758988855924E-02 
509	 1,76871444353246E-02 
510	 1,63180827510656E-02 
511	 1,61625368317792E-02 
512	 1,72437456405795E-02 
513	 1,85833420995329E-02 
514	 1,93054868767712E-02 
515	 1,89900636739739E-02 
516	 1,80241627380739E-02 
517	 1,73299512332965E-02 
518	 1,80610648070404E-02 
519	 1,87958323381412E-02 
520	 1,92643418908029E-02 
521	 2,01344370636528E-02 
522	 2,05087732843336E-02 
523	 1,98514545958515E-02 
524	 1,97468887410357E-02 
525	 0,020016773735322 
526	 0,019625829654069 
527	 1,93874279476338E-02 
528	 1,94530651799339E-02 
529	 1,90949018983359E-02 
530	 1,86503140095648E-02 
531	 1,85577925265601E-02 
532	 1,86901413218297E-02 
533	 1,89732989413476E-02 
534	 1,93813907913465E-02 
535	 1,93211304554431E-02 
536	 1,85762767323789E-02 
537	 1,84613614400417E-02 
538	 1,88834913477336E-02 
539	 1,93508684930416E-02 
540	 1,96846369550008E-02 
541	 1,96607303120156E-02 
542	 1,86719001203053E-02 
543	 1,79134756930496E-02 
544	 1,85192091231651E-02 
545	 1,90012860157775E-02 
546	 1,90736411786089E-02 
547	 0,018826640849256 
548	 1,87528311849833E-02 
549	 1,90590148000348E-02 
550	 1,92389186486737E-02 
551	 1,92942208453214E-02 
552	 0,019318982999238 
553	 1,93945684346913E-02 
554	 1,95841272414268E-02 
555	 2,01328338510083E-02 
556	 2,01657091297789E-02 
557	 0,019073093497438 
558	 1,87217099424952E-02 
559	 1,90154047610396E-02 
560	 1,87206021187786E-02 
561	 1,89133667684156E-02 
562	 1,97306915448087E-02 
563	 1,94245619296615E-02 
564	 1,87354527517696E-02 
565	 1,88272498180953E-02 
566	 1,92906442460189E-02 
567	 1,97698661126146E-02 
568	 1,93416087377099E-02 
569	 1,90486418936179E-02 
570	 1,95375637147629E-02 
571	 1,94524768628128E-02 
572	 0,019067986818136 
573	 1,93950281590573E-02 
574	 2,00658531418934E-02 
575	 2,07966229637697E-02 
576	 2,07910293232642E-02 
577	 2,06570117628863E-02 
578	 2,11298708496058E-02 
579	 2,15706262458464E-02 
580	 2,16555236161018E-02 
581	 0,020707074516748 
582	 2,04560013527791E-02 
583	 2,17015024553194E-02 
584	 2,21369765721397E-02 
585	 2,20668091690629E-02 
586	 2,25968842868061E-02 
587	 2,29639740228813E-02 
588	 2,30243684769425E-02 
589	 2,31535956640333E-02 
590	 2,32660399679697E-02 
591	 2,32896128636241E-02 
592	 2,36885871956757E-02 
593	 2,42327205116024E-02 
594	 2,41400160614686E-02 
595	 2,35190691191707E-02 
596	 2,27122190572303E-02 
597	 2,35980636858532E-02 
598	 2,50291867852946E-02 
599	 2,50455633495295E-02 
600	 2,46571548608927E-02 
601	 2,41642361571435E-02 
602	 2,36291795851204E-02 
603	 2,32444203797213E-02 
604	 2,31492044628425E-02 
605	 2,31323143428404E-02 
606	 2,31003295218461E-02 
607	 2,29758028402369E-02 
608	 0,022653321269751 
609	 2,21869101602874E-02 
610	 0,022061374270909 
611	 2,22492460285646E-02 
612	 2,26548208124919E-02 
613	 2,27964516233783E-02 
614	 2,25864519467777E-02 
615	 2,21978138008912E-02 
616	 2,19439002925474E-02 
617	 2,19728806698166E-02 
618	 2,15544440091169E-02 
619	 2,10529252084424E-02 
620	 2,14665191591151E-02 
621	 2,11998869316529E-02 
622	 2,02515304234878E-02 
623	 2,12928247856639E-02 
624	 2,26794993036396E-02 
625	 2,25818302830235E-02 
626	 2,15853174263417E-02 
627	 2,04292283968434E-02 
628	 0,020781385833855 
629	 2,16019996171958E-02 
630	 2,22447050662771E-02 
631	 2,22205529713343E-02 
632	 2,20379011323374E-02 
633	 2,26468673080308E-02 
634	 2,29241731693569E-02 
635	 0,022657503305501 
636	 2,22901223608023E-02 
637	 2,24255817378658E-02 
638	 2,34823175541107E-02 
639	 0,024208918146356 
640	 2,43850711059885E-02 
641	 2,41149213810845E-02 
642	 2,37269476146172E-02 
643	 2,35339021456725E-02 
644	 2,43247631711542E-02 
645	 2,49938737305033E-02 
646	 2,40407717072702E-02 
647	 2,38994193149619E-02 
648	 2,47597499502772E-02 
649	 2,50816078540932E-02 
650	 2,48839608157815E-02 
651	 2,42576073062346E-02 
652	 2,40192207753494E-02 
653	 2,40404566173544E-02 
654	 2,37664679517339E-02 
655	 2,35152122754316E-02 
656	 0,023381246226048 
657	 2,34732520046203E-02 
658	 2,30393292363953E-02 
659	 2,13836018753304E-02 
660	 2,07628654517593E-02 
661	 2,10470222229491E-02 
662	 2,03300914122927E-02 
663	 1,95597495134803E-02 
664	 1,92665635629795E-02 
665	 1,97843603397168E-02 
666	 2,02638882623437E-02 
667	 1,93099316451812E-02 
668	 1,91424658383154E-02 
669	 1,99169489043114E-02 
670	 0,019548808056591 
671	 1,91447214444395E-02 
672	 0,019548564449027 
673	 1,93302505236328E-02 
674	 1,87704658204813E-02 
675	 1,91764953632303E-02 
676	 0,01934988898717 
677	 1,89734274652547E-02 
678	 1,89234841143742E-02 
679	 1,88533080112552E-02 
680	 1,82864894076264E-02 
681	 1,86426859764378E-02 
682	 1,97197515265473E-02 
683	 1,98099665703593E-02 
684	 1,96972291877294E-02 
685	 0,019859498722075 
686	 2,02342631618769E-02 
687	 0,020674719543028 
688	 2,08766057589677E-02 
689	 2,15970526675253E-02 
690	 2,28976596449588E-02 
691	 0,0239199434727 
692	 2,50589067203725E-02 
693	 2,66829478858637E-02 
694	 2,83610146047905E-02 
695	 3,02534767652678E-02 
696	 3,29807285842487E-02 
697	 3,58958129517513E-02 
698	 3,87574851520826E-02 
699	 4,18778750665504E-02 
700	 4,53703369462461E-02 
701	 4,93308903105589E-02 
702	 5,34163346587537E-02 
703	 5,73983790715122E-02 
704	 6,08418274123998E-02 
705	 6,45993891915641E-02 
706	 0,069086394975822 
707	 7,29114867475203E-02 
708	 7,63311850673109E-02 
709	 8,01641260755855E-02 
710	 8,41559813572238E-02 
711	 8,80846291128269E-02 
712	 9,13487440876018E-02 
713	 0,094266475637309 
714	 9,71619911867212E-02 
715	 9,99876042614618E-02 
716	 0,102725632075185 
717	 0,105411398860372 
718	 0,1076066048823 
719	 0,109252084433848 
720	 0,111253704018248 
721	 0,113293609321404 
722	 0,114863141925083 
723	 0,116259050882162 
724	 0,117580307353571 
725	 0,118918309767598 
726	 0,120025985941231 
727	 0,12082043248121 
728	 0,121929585036345 
729	 0,123118320462721 
730	 0,123830835013998 
731	 0,124273862578546 
732	 0,124622561608103 
733	 0,125327954305715 
734	 0,126064590431161 
735	 0,12653649866289 
736	 0,126914007620352 
737	 0,12726236368294 
738	 0,127670282271127 
739	 0,12801722080775 
740	 0,128304648176051 
741	 0,128849122501836 
742	 0,129246382892209 
743	 0,129027392476397 
744	 0,129317611838966 
745	 0,129970720951563 
746	 0,129716151848103 
747	 0,129328878176011 
748	 0,12926327893891 
749	 0,129517336255843 
750	 0,130040957594198 
751	 0,130774648587789 
752	 0,130914788724797 
753	 0,130522495680844 
754	 0,130795357928622 
755	 0,131079144872969 
756	 0,130902682304524 
757	 0,130595694302182 
758	 0,130457756634302 
759	 0,131025385218028 
760	 0,131245375164914 
761	 0,130945202203015 
762	 0,131144706745832 
763	 0,131408387783931 
764	 0,131302172549157 
765	 0,131320340771686 
766	 0,131446954591786 
767	 0,131343535549143 
768	 0,131542229987015 
769	 0,132075438330178 
770	 0,131842556659959 
771	 0,131427609300037 
772	 0,131612987691301 
773	 0,13178833689508 
774	 0,131778503700555 
775	 0,131395763001415 
776	 0,131439283106764 
777	 0,132181349118355 
778	 0,132326813798307 
779	 0,132160922497262 
780	 0,132327843650831 
781	 0,132263058545593 
782	 0,13200301517807 
783	 0,132193533368501 
784	 0,132306494490165 
785	 0,132059146804325 
786	 0,13221285241047 
787	 0,132529513036544 
788	 0,132385552707062 
789	 0,132427831851558 
790	 0,132751913797011 
791	 0,132960767464356 
792	 0,132940354419042 
793	 0,132645153490971 
794	 0,132496470315063 
795	 0,132546147175071 
796	 0,132716313376254 
797	 0,133026262389049 
798	 0,133350373003394 
799	 0,133135763663348 
800	 0,13295393006232 
801	 0,133334345721558 
802	 0,133622731477746 
803	 0,133716017043195 
804	 0,133678316167679 
805	 0,133628864536137 
806	 0,133650147711862 
807	 0,13390192944896 
808	 0,13393475975265 
809	 0,133315536021031 
810	 0,133306219646042 
811	 0,13385766902934 
812	 0,134071362787545 
813	 0,134194520574673 
814	 0,134305149373717 
815	 0,134436877935688 
816	 0,134389169353277 
817	 0,133946633456878 
818	 0,133980308242856 
819	 0,134490004424265 
820	 0,134896488692496 
821	 0,134978277735797 
822	 0,134680910647424 
823	 0,13450767880994 
824	 0,13463497945041 
825	 0,135194463333845 
826	 0,135459097017293 
827	 0,13530651461793 
828	 0,134898679841638 
829	 0,135009063192862 
830	 0,135827627541461 
831	 0,135612712774472 
832	 0,134951136773003 
833	 0,134896952104082 
834	 0,135260671792135 
835	 0,135739753913251 
836	 0,135452262913051 
837	 0,135198972901549 
838	 0,135436004017185 
839	 0,136059345319793 
840	 0,136548165473259 
841	 0,136213501922243 
842	 0,135971108372347 
843	 0,136015304689456 
844	 0,136102920588284 
845	 0,136310817818481 
846	 0,136624997748649 
847	 0,136736370201295 
848	 0,136675204192212 
849	 0,136541314311914 
850	 0,136523788301202 
851	 0,136562178175458 
852	 0,136212303041623 
853	 0,136098902770673 
854	 0,136505954426839 
855	 0,136873352200995 
856	 0,137053720027441 
857	 0,136948718683801 
858	 0,136606080618433 
859	 0,136363860745122 
860	 0,137335065062092 
861	 0,137570530458114 
862	 0,136382633109629 
863	 0,136493534814199 
864	 0,137284891431554 
865	 0,137574568234417 
866	 0,137627597246379 
867	 0,137577326694161 
868	 0,13773315546112 
869	 0,13784493572534 
870	 0,137860225192404 
871	 0,1382333802549 
872	 0,138590084613772 
873	 0,138448133552884 
874	 0,138150872746212 
875	 0,137991090580211 
876	 0,138595030635444 
877	 0,138955566731327 
878	 0,138758221710828 
879	 0,138904376342373 
880	 0,1393336989273 
881	 0,139864626199235 
882	 0,139826738971971 
883	 0,139373108692129 
884	 0,139239866011486 
885	 0,13936436285976 
886	 0,139698617540889 
887	 0,140043403115323 
888	 0,139996508702344 
889	 0,13930907350248 
890	 0,139575491926963 
891	 0,140232154619822 
892	 0,139318296335575 
893	 0,139036209661154 
894	 0,139885166918518 
895	 0,14077029089631 
896	 0,141021649223493 
897	 0,140339479262745 
898	 0,140961759585476 
899	 0,141958668229838 
900	 0,141046765435276 
901	 0,1405323505959 
902	 0,140830179404977 
903	 0,140819365783932 
904	 0,140907948052918 
905	 0,14129818364089 
906	 0,141630776980528 
907	 0,141581744720812 
908	 0,140784092887129 
909	 0,141174898817003 
910	 0,142569637233636 
911	 0,142857795889122 
912	 0,142639050736432 
913	 0,142343776820428 
914	 0,14305052084018 
915	 0,143271405127576 
916	 0,141444676106074 
917	 0,141432640700586 
918	 0,142808039757588 
919	 0,142382828028571 
920	 0,142368637031061 
921	 0,143201223659773 
922	 0,143460911723301 
923	 0,143075866997759 
924	 0,142174599242147 
925	 0,142027084316871 
926	 0,142488202602534 
927	 0,142903846004715 
928	 0,142955363104804 
929	 0,142571538846238 
930	 0,14199030572173 
931	 0,141458940412992 
932	 0,141195733079577 
933	 0,141569916244993 
934	 0,141715506421672 
935	 0,140553410051869 
936	 0,140144255586219 
937	 0,140720811200538 
938	 0,14164955575367 
939	 0,142102683994851 
940	 0,141643844158231 
941	 0,140145627800858 
942	 0,139259975579172 
943	 0,140232102050328 
944	 0,140118876747649 
945	 0,139161429569465 
946	 0,138737837693116 
947	 0,138463430038266 
948	 0,138285103944472 
949	 0,138285721375005 
950	 0,138237827634967 
951	 0,137923820089455 
952	 0,136879173227075 
953	 0,135882852391971 
954	 0,135886785656208 
955	 0,136074943716559 
956	 0,136273554364671 
957	 0,13665633763485 
958	 0,136113539202516 
959	 0,134616600918341 
960	 0,133885794084169 
961	 0,133773778883058 
962	 0,134009790422083 
963	 0,133615818904882 
964	 0,133469834006017 
965	 0,135088702325085 
966	 0,135369756172236 
967	 0,13415527242139 
968	 0,13345412385133 
969	 0,133280336220571 
970	 0,13376945897427 
971	 0,135366750263746 
972	 0,135931224952982 
973	 0,133887123815797 
974	 0,134011175211195 
975	 0,135417755684962 
976	 0,135009190234243 
977	 0,135325299352008 
978	 0,136367962519439 
979	 0,135777047909907 
980	 0,135569101452585 
981	 0,136351297445008 
982	 0,135437984064856 
983	 0,133988942923105 
984	 0,133556749231485 
985	 0,135794381747747 
986	 0,138434919157846 
987	 0,136551037137272 
988	 0,136465672614979 
989	 0,138410344545687 
990	 0,136061086612296 
991	 0,134974755064985 
992	 0,137438897510492 
993	 0,138104767494591 
994	 0,138340531950266 
995	 0,1398603664055 
996	 0,140509469563387 
997	 0,139780924130652 
998	 0,13726952324387 
999	 0,138745959483812 
1000	 0,143832841597605 
1001	 0,144856309799271 
1002	 0,144632320997383 
1003	 0,14453597575734 
1004	 0,144154764820734 
1005	 0,143731299417752 
1006	 0,143434328237828 
1007	 0,142067086931839 
1008	 0,141562775099104 
1009	 0,145594171475731 
1010	 0,147166961895 
1011	 0,14572947339313 
1012	 0,145990323352104 
1013	 0,147397371002931 
1014	 0,149163363266682 
1015	 0,147963508853053 
1016	 0,146902614898263 
1017	 0,148366385575993 
1018	 0,147348395697027 
1019	 0,146883671528272 
1020	 0,152238549680425 
1021	 0,152624895594476 
1022	 0,14912736835488 
1023	 0,15248366600434 
1024	 0,152785375619341 
1025	 0,149286212814957 
1026	 0,154149848518692 
1027	 0,157402502828711 
1028	 0,153586093614882 
1029	 0,15503517219765 
1030	 0,15837788006932 
1031	 0,158330682811496 
1032	 0,15846644394509 
1033	 0,15758641636096 
1034	 0,152019857505566 
1035	 0,148894758820656 
1036	 0,150398976251471 
1037	 0,155739086482833 
1038	 0,158306873154014 
1039	 0,156163162313637 
1040	 0,157558147472729 
1041	 0,15766984369702 
1042	 0,153117482745622 
1043	 0,152778216436395 
1044	 0,153184736327263 
1045	 0,148388299714228 
1046	 0,15034905282064 
1047	 0,157767046719297 
1048	 0,162030369044922 
1049	 0,156668621450495 
1050	 0,14651758129531 
1051	 0,16009141293322 
1052	 0,168525151662826 
1053	 0,160886294699656 
1054	 0,161498002176119 
1055	 0,168372679294993 
1056	 0,176654087289848 
1057	 0,173461617526394 
1058	 0,164982595788742 
1059	 0,163011873968313 
1060	 0,165757574425577 
1061	 0,167640103594545 
1062	 0,15631186212599 
1063	 0,153359189104036 
1064	 0,160987186810569 
1065	 0,16203994600445 
1066	 0,16272559096129 
1067	 0,164980211360295 
1068	 0,165183907084495 
1069	 0,163890087416173 
1070	 0,162616689179971 
1071	 0,168110111573667 
1072	 0,172456377320384 
1073	 0,166297557196379 
1074	 0,164623549428231 
1075	 0,167601511213587 
