Wavelength	CAMFROU00878.asd
325	 8,81820686376724E-02 
326	 7,95428691436672E-02 
327	 0,127267772468797 
328	 0,214876983581837 
329	 0,308328531813499 
330	 0,328017934413139 
331	 0,215597296635598 
332	 4,39400452812885E-02 
333	-4,31297906549861E-02 
334	 0,179555128901464 
335	 0,254604217867269 
336	 0,115993732461071 
337	 0,068253446353962 
338	 8,35631454660808E-02 
339	 0,118774824709321 
340	 0,081248062886784 
341	 9,0339120501574E-04 
342	 2,60653592722885E-02 
343	 4,47688657640927E-02 
344	 3,93906208315585E-02 
345	 8,67763425188472E-02 
346	 0,137312025476914 
347	 0,163067370498191 
348	 0,109297273633978 
349	 1,95737824211238E-02 
350	 7,43074556541547E-02 
351	 7,22018732177288E-02 
352	-2,38368588858307E-02 
353	 2,86120123104008E-02 
354	 0,10102914227834 
355	 4,54476548969063E-02 
356	 3,13045370594112E-02 
357	 6,57366411498464E-02 
358	 6,70893036646831E-02 
359	 0,082542877244394 
360	 0,117327471060345 
361	 7,78972144341053E-02 
362	 0,023367849392348 
363	 5,42409632334172E-02 
364	 7,87020434423822E-02 
365	 7,89988746727164E-02 
366	 6,83037478215221E-02 
367	 5,77769202159937E-02 
368	 5,50239288189238E-02 
369	 5,19109701930627E-02 
370	 5,97583661613147E-02 
371	 0,1027364989184 
372	 9,69447329670426E-02 
373	 0,038184234144299 
374	 1,66779267745011E-02 
375	 2,60185312613771E-02 
376	 5,28133271569237E-02 
377	 5,74252579557745E-02 
378	 0,046113177608142 
379	 4,05969323453475E-02 
380	 0,04954380714429 
381	 6,89859401987997E-02 
382	 6,46494474012397E-02 
383	 5,69215484469722E-02 
384	 6,50849156837387E-02 
385	 6,46034577326955E-02 
386	 5,63941776617742E-02 
387	 5,32716824240489E-02 
388	 5,54361018036249E-02 
389	 6,14941222952819E-02 
390	 6,66557998017858E-02 
391	 0,064268033190813 
392	 0,047206068421821 
393	 4,58645896998273E-02 
394	 5,85189775456412E-02 
395	 6,14396928596224E-02 
396	 5,74123574827482E-02 
397	 4,92347517352125E-02 
398	 4,39785524098004E-02 
399	 4,45773858621085E-02 
400	 5,44462733393781E-02 
401	 5,84145825251126E-02 
402	 5,39965483767045E-02 
403	 4,67628911630765E-02 
404	 4,72097267502634E-02 
405	 5,97159887108989E-02 
406	 5,59029053451046E-02 
407	 4,44108152414859E-02 
408	 5,16216798791283E-02 
409	 5,44852915950522E-02 
410	 4,81003758076276E-02 
411	 4,07346328483234E-02 
412	 3,72585205826435E-02 
413	 4,14739685478191E-02 
414	 4,26562310836325E-02 
415	 4,12133076249049E-02 
416	 4,34846767880591E-02 
417	 4,65014055906457E-02 
418	 4,85991127874765E-02 
419	 4,81229396475478E-02 
420	 4,47832230156401E-02 
421	 3,84103466186285E-02 
422	 4,12418237419859E-02 
423	 5,00818844318997E-02 
424	 4,51859853582762E-02 
425	 4,13118948122592E-02 
426	 4,64458448766601E-02 
427	 4,66948606282164E-02 
428	 4,36778724361462E-02 
429	 4,30426826937577E-02 
430	 4,55089684449304E-02 
431	 4,98796335678427E-02 
432	 5,00994056533378E-02 
433	 4,86879673045872E-02 
434	 4,80886738952126E-02 
435	 0,047562068346541 
436	 4,60106414167437E-02 
437	 3,95065780175812E-02 
438	 3,95039068446423E-02 
439	 4,83992659919913E-02 
440	 5,08345931696956E-02 
441	 4,80590617038089E-02 
442	 4,34970910450842E-02 
443	 4,36405078389044E-02 
444	 4,78767473746091E-02 
445	 4,84080542425947E-02 
446	 4,70213240569985E-02 
447	 4,49893685181024E-02 
448	 4,29914430718971E-02 
449	 4,21239128208069E-02 
450	 4,40350754719137E-02 
451	 4,68257850463679E-02 
452	 4,90739143124924E-02 
453	 4,83133834297311E-02 
454	 4,59393097297462E-02 
455	 4,36240780626391E-02 
456	 4,58123319003573E-02 
457	 5,00340123644949E-02 
458	 4,74055890702564E-02 
459	 4,57697408820833E-02 
460	 4,76860302665661E-02 
461	 0,046789200854986 
462	 4,45731928796637E-02 
463	 4,37510638566052E-02 
464	 4,45623374721407E-02 
465	 0,046324370186776 
466	 4,64606112585365E-02 
467	 4,60242690382718E-02 
468	 4,58555478013608E-02 
469	 4,68525238673151E-02 
470	 4,81878734765027E-02 
471	 4,81020796005963E-02 
472	 4,70278959652334E-02 
473	 4,59035352815221E-02 
474	 4,84927141813292E-02 
475	 5,07348415878228E-02 
476	 4,87008000323471E-02 
477	 4,84034279626192E-02 
478	 4,94167613284573E-02 
479	 4,66707174501018E-02 
480	 4,57251631525906E-02 
481	 4,82966845477027E-02 
482	 0,047113602653129 
483	 4,45250549318863E-02 
484	 4,50562819048346E-02 
485	 4,61420512841097E-02 
486	 4,68890144825515E-02 
487	 4,64875008245622E-02 
488	 4,64056539639913E-02 
489	 4,76724081146692E-02 
490	 4,91627912872955E-02 
491	 4,95143899091362E-02 
492	 4,55774029126674E-02 
493	 4,44379088623142E-02 
494	 4,72871937647716E-02 
495	 4,51479784046661E-02 
496	 4,30421812145102E-02 
497	 4,72052786154474E-02 
498	 4,93862959353219E-02 
499	 4,80844146120157E-02 
500	 4,45424254697597E-02 
501	 4,20649935115501E-02 
502	 0,042535877881138 
503	 4,35912178304266E-02 
504	 0,045003425949212 
505	 4,72075970160895E-02 
506	 4,73652411383084E-02 
507	 4,56189157262242E-02 
508	 4,67404702291621E-02 
509	 4,75590576914539E-02 
510	 0,045295569931969 
511	 4,51898889734362E-02 
512	 4,71711118389704E-02 
513	 4,85539233829825E-02 
514	 4,95124062806567E-02 
515	 0,049826312904296 
516	 4,81880913608067E-02 
517	 4,67608645347716E-02 
518	 0,048654152394673 
519	 4,93564526197479E-02 
520	 0,0482981548903 
521	 4,78528502950486E-02 
522	 4,82150293650688E-02 
523	 4,93202890745571E-02 
524	 4,91210296659941E-02 
525	 4,80584222682596E-02 
526	 4,77976124785118E-02 
527	 4,79402426374494E-02 
528	 4,83437943788086E-02 
529	 4,87355694739499E-02 
530	 4,90610838611479E-02 
531	 4,92927112299449E-02 
532	 4,91280294902814E-02 
533	 4,86961046234305E-02 
534	 4,85302866711393E-02 
535	 4,86494621899055E-02 
536	 4,89829343073166E-02 
537	 4,87887172041132E-02 
538	 4,83692740960281E-02 
539	 0,048460657365963 
540	 4,86894792653338E-02 
541	 4,87545803901976E-02 
542	 0,047707620920645 
543	 4,70616680137105E-02 
544	 4,82545806021092E-02 
545	 4,93434635514466E-02 
546	 4,98439021914681E-02 
547	 4,96714195412082E-02 
548	 4,93206683251559E-02 
549	 4,90946870150391E-02 
550	 4,89873327658105E-02 
551	 4,92034341542841E-02 
552	 0,050087133704453 
553	 5,02844832560966E-02 
554	 4,96357078073935E-02 
555	 4,92310153878914E-02 
556	 4,90221955927895E-02 
557	 4,89836679126565E-02 
558	 4,97713311742016E-02 
559	 5,04995460419235E-02 
560	 4,85347180259698E-02 
561	 4,73483691721694E-02 
562	 4,81327163244408E-02 
563	 4,86848875463024E-02 
564	 4,86386096828583E-02 
565	 4,77929228302359E-02 
566	 4,76871998296168E-02 
567	 4,83584325187818E-02 
568	 4,83688020333036E-02 
569	 4,82385747900975E-02 
570	 0,048359358908284 
571	 4,88112189445009E-02 
572	 4,94268570128669E-02 
573	 4,97265925794219E-02 
574	 5,06567380235023E-02 
575	 5,22213386098866E-02 
576	 5,27289453217153E-02 
577	 5,26610302553683E-02 
578	 5,27144598903143E-02 
579	 5,34430410650866E-02 
580	 5,45205245590302E-02 
581	 5,43876681477532E-02 
582	 5,45598564366523E-02 
583	 5,57338722636612E-02 
584	 5,60768978130358E-02 
585	 5,60819649614474E-02 
586	 5,70631970361748E-02 
587	 5,76661476534987E-02 
588	 5,76787791381956E-02 
589	 5,79929119500494E-02 
590	 5,86927675941785E-02 
591	 5,97787503317088E-02 
592	 6,06635545081708E-02 
593	 6,10980970636599E-02 
594	 6,08307601173658E-02 
595	 6,02900741552213E-02 
596	 5,98214960531063E-02 
597	 5,99643872582654E-02 
598	 6,05201419574111E-02 
599	 6,11299235580953E-02 
600	 6,11106156598123E-02 
601	 6,05480773282277E-02 
602	 6,07015130215964E-02 
603	 6,07829619103726E-02 
604	 0,0601932280851 
605	 0,059705070329086 
606	 5,93865769502607E-02 
607	 5,90920867286907E-02 
608	 5,86453137083617E-02 
609	 5,80064686510388E-02 
610	 5,73663952870426E-02 
611	 5,69802549190727E-02 
612	 5,71230487928421E-02 
613	 5,71022899401512E-02 
614	 5,67997564599199E-02 
615	 5,65127467575958E-02 
616	 5,61252947238387E-02 
617	 5,55942479147909E-02 
618	 5,51033378172503E-02 
619	 5,48587428396124E-02 
620	 5,52452311450092E-02 
621	 5,53144834710803E-02 
622	 5,49217865133251E-02 
623	 5,50641853153843E-02 
624	 5,54746750396318E-02 
625	 5,57929322015282E-02 
626	 0,055350103896626 
627	 5,45277749369064E-02 
628	 5,47273315397694E-02 
629	 5,56855412862442E-02 
630	 5,70123963810009E-02 
631	 5,69040539937587E-02 
632	 5,62418343908196E-02 
633	 5,68096527459219E-02 
634	 5,72298139150365E-02 
635	 5,73126554166967E-02 
636	 5,78935267510214E-02 
637	 5,86322343373256E-02 
638	 5,92038776095374E-02 
639	 0,059527829504962 
640	 0,059740309538652 
641	 6,02537692650829E-02 
642	 0,060640835908256 
643	 6,08231392460376E-02 
644	 6,14553183414104E-02 
645	 6,21087199478594E-02 
646	 6,21691600454511E-02 
647	 6,18262202631715E-02 
648	 6,13415519749283E-02 
649	 6,14197644825505E-02 
650	 6,14951649322557E-02 
651	 6,11445833155446E-02 
652	 6,02101708762744E-02 
653	 5,91325844881007E-02 
654	 5,88665894857982E-02 
655	 5,82584383015636E-02 
656	 5,72142623045534E-02 
657	 5,74115063486536E-02 
658	 5,71453646789266E-02 
659	 5,46772489192124E-02 
660	 5,33944531608525E-02 
661	 5,32007729975405E-02 
662	 5,15335814280976E-02 
663	 0,049889223262644 
664	 4,90763780930079E-02 
665	 0,049210663573977 
666	 4,94360322412407E-02 
667	 4,84167288970426E-02 
668	 4,76532512650714E-02 
669	 4,74298416476214E-02 
670	 4,70365339966767E-02 
671	 4,66999151036625E-02 
672	 0,0465860202136 
673	 4,63055532515124E-02 
674	 4,59515942898375E-02 
675	 4,59222946126221E-02 
676	 0,045836967341111 
677	 4,56771006461986E-02 
678	 0,04621167998025 
679	 4,66265886167425E-02 
680	 4,59215863580246E-02 
681	 4,63209342874249E-02 
682	 0,047671249263745 
683	 4,77091085334088E-02 
684	 4,77490243626443E-02 
685	 4,85482210421025E-02 
686	 4,94971832533286E-02 
687	 5,06664323202403E-02 
688	 5,22929990314549E-02 
689	 5,42938216649716E-02 
690	 5,65718382593971E-02 
691	 5,87895072506195E-02 
692	 6,14196753469702E-02 
693	 6,48848933667733E-02 
694	 6,87414133564017E-02 
695	 7,31396832328922E-02 
696	 0,078630942490076 
697	 8,48530232168909E-02 
698	 9,16409230982006E-02 
699	 9,90403693358687E-02 
700	 0,106868074636231 
701	 0,114883119693096 
702	 0,123313738403443 
703	 0,132030280866203 
704	 0,140500967947958 
705	 0,148944450764146 
706	 0,157435606442198 
707	 0,165555335673993 
708	 0,173388072512569 
709	 0,181191968124315 
710	 0,188543394823729 
711	 0,19535794049805 
712	 0,201936856722677 
713	 0,20816175816769 
714	 0,213909377214758 
715	 0,219294264629644 
716	 0,224348028368089 
717	 0,22915719705789 
718	 0,233407079976767 
719	 0,23705906550262 
720	 0,240778381426232 
721	 0,244320792165108 
722	 0,247302555688193 
723	 0,25015271346802 
724	 0,25296059105369 
725	 0,255598141911225 
726	 0,258077116059525 
727	 0,260381119323873 
728	 0,262271131335479 
729	 0,263874836118181 
730	 0,265459208727913 
731	 0,267071544142892 
732	 0,268703495050858 
733	 0,270150570198215 
734	 0,271633336617632 
735	 0,273289338921948 
736	 0,274251858405506 
737	 0,274691559023289 
738	 0,275356672399465 
739	 0,276265275364778 
740	 0,27740275142498 
741	 0,278462721694656 
742	 0,279292897929036 
743	 0,279768305253588 
744	 0,280354180115701 
745	 0,281098697235047 
746	 0,281854040681243 
747	 0,282155509309487 
748	 0,281900070035318 
749	 0,282232275016831 
750	 0,283100493836178 
751	 0,284213349544846 
752	 0,284918095125082 
753	 0,285140800289071 
754	 0,285454308598509 
755	 0,285866729215143 
756	 0,286363799173224 
757	 0,286748984334445 
758	 0,287062157588434 
759	 0,287444457612739 
760	 0,287873883862459 
761	 0,288332583163545 
762	 0,28874273966832 
763	 0,289178798187341 
764	 0,289706692294307 
765	 0,290172406619422 
766	 0,290590680240117 
767	 0,29106041576836 
768	 0,291670134357198 
769	 0,29233715886156 
770	 0,292355334745731 
771	 0,292316919392148 
772	 0,292966327422756 
773	 0,293450309903929 
774	 0,293574704432408 
775	 0,293285407859505 
776	 0,293453976812719 
777	 0,294410350245689 
778	 0,2949160380776 
779	 0,295097132434035 
780	 0,295357468153057 
781	 0,295599623985435 
782	 0,295819319653904 
783	 0,296020937490068 
784	 0,296271401607477 
785	 0,296612772835746 
786	 0,297012953850485 
787	 0,297362149538866 
788	 0,297478706672773 
789	 0,297632283516576 
790	 0,297911600178702 
791	 0,298323105743961 
792	 0,298620071752671 
793	 0,298619386260506 
794	 0,298521963434964 
795	 0,298602972802725 
796	 0,299402244564085 
797	 0,299882408063968 
798	 0,299800605531085 
799	 0,299878206381999 
800	 0,300155217520638 
801	 0,300606945130339 
802	 0,300822639796339 
803	 0,300823513334426 
804	 0,300834762837601 
805	 0,301102517650604 
806	 0,301641125569642 
807	 0,301878881169472 
808	 0,302095531332232 
809	 0,302617693079579 
810	 0,303015497452043 
811	 0,303289509699972 
812	 0,303694727020182 
813	 0,3041258582787 
814	 0,304538670501728 
815	 0,304980568171532 
816	 0,305212908556553 
817	 0,304983984442778 
818	 0,305352862369944 
819	 0,306227719255859 
820	 0,306613894037201 
821	 0,306718022920435 
822	 0,306719833636421 
823	 0,30721642540655 
824	 0,307811016446779 
825	 0,307923277722563 
826	 0,308456036998563 
827	 0,309243382317524 
828	 0,309034093102497 
829	 0,309026295981161 
830	 0,30971505515554 
831	 0,309920764435404 
832	 0,309838972476792 
833	 0,309906731587502 
834	 0,310269557118457 
835	 0,310824769921039 
836	 0,311115128507979 
837	 0,311211621017026 
838	 0,311200245494616 
839	 0,311423912820374 
840	 0,311730031781627 
841	 0,311846090193324 
842	 0,312081374786258 
843	 0,312376370187118 
844	 0,312202945939994 
845	 0,312441690343508 
846	 0,313402507887559 
847	 0,313605891371788 
848	 0,313458659020797 
849	 0,313770522486148 
850	 0,313918772425695 
851	 0,31382671575085 
852	 0,313676210739967 
853	 0,313785697720829 
854	 0,314268013704434 
855	 0,314590094815481 
856	 0,31468306655364 
857	 0,314550315721505 
858	 0,314756541713863 
859	 0,31531438197334 
860	 0,315791025440518 
861	 0,316084607315199 
862	 0,316161928407694 
863	 0,316226803204973 
864	 0,316531330210169 
865	 0,317342095922976 
866	 0,317565557008618 
867	 0,31735629061557 
868	 0,318081081649069 
869	 0,318584126918446 
870	 0,31846634532343 
871	 0,318821065584762 
872	 0,319561754545545 
873	 0,320427420618287 
874	 0,32046050748676 
875	 0,319988743290947 
876	 0,3206364488416 
877	 0,321117233899445 
878	 0,321049627253101 
879	 0,321490286053948 
880	 0,322158344427387 
881	 0,322644370629658 
882	 0,322669705965828 
883	 0,322442977560789 
884	 0,322621573422312 
885	 0,323126402012271 
886	 0,323740852418185 
887	 0,323529855694747 
888	 0,322974802293081 
889	 0,322644107810348 
890	 0,323117155929901 
891	 0,323866049053828 
892	 0,323467559969393 
893	 0,323287609133323 
894	 0,323710422464886 
895	 0,324323234294503 
896	 0,324886890878443 
897	 0,325240377645073 
898	 0,325792511623913 
899	 0,326132882994938 
900	 0,325425296310357 
901	 0,324998761916977 
902	 0,325368006160281 
903	 0,326850522117291 
904	 0,328000397851833 
905	 0,327910112087335 
906	 0,327277295895407 
907	 0,326831511027587 
908	 0,327439072949684 
909	 0,327722465489316 
910	 0,32764253344684 
911	 0,328308458127744 
912	 0,32852903599128 
913	 0,327990385536912 
914	 0,328356968399891 
915	 0,329145613442192 
916	 0,32963679568067 
917	 0,329748623713639 
918	 0,329616582234356 
919	 0,329682142135246 
920	 0,329560321363161 
921	 0,329341657261602 
922	 0,330136630515198 
923	 0,330450082912392 
924	 0,329222248819446 
925	 0,329175395598549 
926	 0,329832775444357 
927	 0,329522186898016 
928	 0,329514422743863 
929	 0,329984142448929 
930	 0,330327595946129 
931	 0,330451713605191 
932	 0,330195256230027 
933	 0,328901923718024 
934	 0,327668747061284 
935	 0,327931950944823 
936	 0,328817100415976 
937	 0,329375311468936 
938	 0,327501428542963 
939	 0,326191441321604 
940	 0,326416280912944 
941	 0,326478557901123 
942	 0,326302981897019 
943	 0,325861902621682 
944	 0,324698164474502 
945	 0,323654553206131 
946	 0,324397786224784 
947	 0,324500936738734 
948	 0,323556895451189 
949	 0,322992807811487 
950	 0,321960151244644 
951	 0,32013582638022 
952	 0,318532150319893 
953	 0,31748249643358 
954	 0,317203728806261 
955	 0,31705513715734 
956	 0,316956821039456 
957	 0,31736932068407 
958	 0,316178577401179 
959	 0,313540197836517 
960	 0,313636060090126 
961	 0,314758342874567 
962	 0,315254705527327 
963	 0,313806656154324 
964	 0,312198751962675 
965	 0,313389508118857 
966	 0,313963206198061 
967	 0,313236564680517 
968	 0,311661994852922 
969	 0,311501234482478 
970	 0,313410876778951 
971	 0,315195530719559 
972	 0,315252315947146 
973	 0,312704279881862 
974	 0,312529382223012 
975	 0,314126611778873 
976	 0,314825312140845 
977	 0,314270001197108 
978	 0,313326621123855 
979	 0,315697876197667 
980	 0,317280431177503 
981	 0,316268234199867 
982	 0,315276379113891 
983	 0,314788374740066 
984	 0,315110891657613 
985	 0,316280961616583 
986	 0,317814167434675 
987	 0,318870847462973 
988	 0,319456730829174 
989	 0,319537558294314 
990	 0,319061954052737 
991	 0,318882296742883 
992	 0,319424058841071 
993	 0,320077387953072 
994	 0,320710605075903 
995	 0,321354357294646 
996	 0,323800428336881 
997	 0,326572783365328 
998	 0,326261959901879 
999	 0,326429658179218 
1000	 0,327718838083307 
1001	 0,328432656556376 
1002	 0,329472423054774 
1003	 0,331071255333114 
1004	 0,331892259944581 
1005	 0,332620937519791 
1006	 0,333794542839985 
1007	 0,332090753643619 
1008	 0,330426164896783 
1009	 0,334811565398113 
1010	 0,337381029173287 
1011	 0,337179408984872 
1012	 0,338715761819356 
1013	 0,338827954336549 
1014	 0,337118553163485 
1015	 0,338724946710034 
1016	 0,340813280642577 
1017	 0,340768446274778 
1018	 0,339332976460882 
1019	 0,339585149818394 
1020	 0,345608515358374 
1021	 0,347476858248623 
1022	 0,345547305686886 
1023	 0,347663569804356 
1024	 0,349978347877139 
1025	 0,350805395291474 
1026	 0,347974665026537 
1027	 0,347377463238871 
1028	 0,351969155642842 
1029	 0,352807513586573 
1030	 0,352377203787387 
1031	 0,354482347524561 
1032	 0,355341937315193 
1033	 0,353479795707511 
1034	 0,347097770104947 
1035	 0,347971918876755 
1036	 0,356526719667132 
1037	 0,361253452111423 
1038	 0,360874063259278 
1039	 0,356655256507912 
1040	 0,360474759147767 
1041	 0,361640445610515 
1042	 0,353002307812762 
1043	 0,354950031200591 
1044	 0,361674718315281 
1045	 0,361590378378241 
1046	 0,361782675385443 
1047	 0,363152727499138 
1048	 0,364886880096813 
1049	 0,361772067711914 
1050	 0,355038403733488 
1051	 0,35559182628692 
1052	 0,361422991327307 
1053	 0,369364368109892 
1054	 0,366669420559234 
1055	 0,36386687186229 
1056	 0,369698329312484 
1057	 0,373499217257925 
1058	 0,370200361564565 
1059	 0,356116544589676 
1060	 0,354338234296396 
1061	 0,364123256495269 
1062	 0,371782156145883 
1063	 0,372798287495373 
1064	 0,370133595779422 
1065	 0,382612975503489 
1066	 0,386820503997094 
1067	 0,376301497732016 
1068	 0,379326527053333 
1069	 0,37861476903788 
1070	 0,363319005940317 
1071	 0,36087209795322 
1072	 0,363643185485805 
1073	 0,359114073132581 
1074	 0,352208253087761 
1075	 0,349027863995325 
