Wavelength	CAMFROU00789.asd
325	 0,15921282216112 
326	 0,327530233290747 
327	 0,321730283596461 
328	 0,1732421319651 
329	 0,183600657358814 
330	 0,232356940143087 
331	 0,245961749785063 
332	 0,340641389390422 
333	 0,455795150440462 
334	 0,451886470714547 
335	 0,416099476130781 
336	 0,352383081185875 
337	 0,145829490685421 
338	 4,25114572785759E-02 
339	 0,184966690950093 
340	 0,176674943036099 
341	 6,53109985263213E-02 
342	 0,18959360040115 
343	 0,211528067614993 
344	 8,35950776831682E-02 
345	 8,74031845121015E-02 
346	 0,157047960468085 
347	 0,224370235919553 
348	 0,210720856710396 
349	 0,138889755184781 
350	 0,140976911068731 
351	 0,112700601615421 
352	 3,70330823338802E-02 
353	 0,073665678589172 
354	 0,123822594737534 
355	 7,57726994774827E-02 
356	 5,29243521968852E-02 
357	 6,43804021380546E-02 
358	 5,87133855675303E-02 
359	 8,20001743677985E-02 
360	 0,133347281387263 
361	 9,59928765445489E-02 
362	 4,31765687193752E-02 
363	 0,097289328541641 
364	 0,110345888638684 
365	 7,10946028134306E-02 
366	 6,24631323742247E-02 
367	 6,70883633526564E-02 
368	 7,40282743059182E-02 
369	 9,17716360521496E-02 
370	 0,106156738689268 
371	 9,99547511534526E-02 
372	 8,57776870139426E-02 
373	 6,83628391488834E-02 
374	 4,26833592020359E-02 
375	 4,40622562928302E-02 
376	 9,18718084362811E-02 
377	 0,103831420649269 
378	 0,08500247443769 
379	 0,062837186293128 
380	 5,91038193286621E-02 
381	 7,69130604262297E-02 
382	 8,05223527580791E-02 
383	 7,98020120054018E-02 
384	 8,48160297553307E-02 
385	 8,38184756507328E-02 
386	 7,47547539686479E-02 
387	 5,39943694265667E-02 
388	 5,30315910825067E-02 
389	 7,54940438589014E-02 
390	 7,67311027182974E-02 
391	 6,44503376906008E-02 
392	 5,24642318360991E-02 
393	 5,60727032331662E-02 
394	 7,11688660306074E-02 
395	 7,58216848740832E-02 
396	 7,65638828046774E-02 
397	 7,62917033186675E-02 
398	 7,24461978161565E-02 
399	 0,064167970734416 
400	 0,049839013531281 
401	 4,78565324703672E-02 
402	 5,78616139770007E-02 
403	 6,09341017567309E-02 
404	 6,05035540034007E-02 
405	 5,91343762801898E-02 
406	 5,36043101684512E-02 
407	 5,03757936390463E-02 
408	 6,40747515399523E-02 
409	 6,94799932931664E-02 
410	 6,04792297382029E-02 
411	 4,41555151100627E-02 
412	 3,44836785639423E-02 
413	 4,35725159608579E-02 
414	 5,13689660934734E-02 
415	 5,43112507439738E-02 
416	 5,51822968227564E-02 
417	 5,29135943926863E-02 
418	 0,048380449785669 
419	 4,80910370561984E-02 
420	 4,88516091166976E-02 
421	 4,58460110899968E-02 
422	 4,69769699312648E-02 
423	 5,08890854871904E-02 
424	 4,71107427738711E-02 
425	 4,54343719474758E-02 
426	 0,050532735918647 
427	 4,75901106739827E-02 
428	 4,21655865539303E-02 
429	 4,77347503827183E-02 
430	 5,00515457899455E-02 
431	 4,61498062372721E-02 
432	 4,22614410350057E-02 
433	 4,04229140494189E-02 
434	 4,20626697236288E-02 
435	 4,38259761584571E-02 
436	 4,41805847060508E-02 
437	 4,04705326111442E-02 
438	 4,01035434361932E-02 
439	 4,48550551034323E-02 
440	 4,55205498900311E-02 
441	 4,42071031056791E-02 
442	 4,45863941995652E-02 
443	 4,63004025871552E-02 
444	 4,77434036484995E-02 
445	 4,32304283441969E-02 
446	 4,09637329640892E-02 
447	 0,045106384978058 
448	 4,29328154285287E-02 
449	 3,89175653396918E-02 
450	 4,46958491068532E-02 
451	 4,92678248173099E-02 
452	 4,93036868693203E-02 
453	 4,65977666060572E-02 
454	 4,37630389440206E-02 
455	 4,31762305011562E-02 
456	 4,42029981450336E-02 
457	 4,59738304866122E-02 
458	 4,68116399249741E-02 
459	 4,71244248288857E-02 
460	 0,046745762421177 
461	 0,044063645378681 
462	 0,041001446734059 
463	 4,01729854970298E-02 
464	 4,23444558926646E-02 
465	 4,57802714522401E-02 
466	 4,37815888566285E-02 
467	 0,0428982130123 
468	 4,68159148143085E-02 
469	 4,71486076740477E-02 
470	 0,044639975215538 
471	 4,27931605455005E-02 
472	 4,30027955162453E-02 
473	 4,55114741091524E-02 
474	 4,86411178231314E-02 
475	 4,97446383177601E-02 
476	 4,66192870026615E-02 
477	 0,044803232733317 
478	 0,044900167113363 
479	 4,47945825404804E-02 
480	 4,57514829703326E-02 
481	 4,77330558225888E-02 
482	 4,70535083104412E-02 
483	 4,49493964870422E-02 
484	 4,37236987847747E-02 
485	 4,42353762241926E-02 
486	 4,57661136463575E-02 
487	 4,43884495840222E-02 
488	 4,32715926286917E-02 
489	 0,044699568004341 
490	 4,60547679111762E-02 
491	 4,65706554715348E-02 
492	 4,55204581110564E-02 
493	 4,43717059479701E-02 
494	 4,39509794173213E-02 
495	 4,52395178825439E-02 
496	 4,65774312095982E-02 
497	 4,60566132905415E-02 
498	 4,55729568223698E-02 
499	 4,56781567949821E-02 
500	 4,66910817592861E-02 
501	 4,75231207520431E-02 
502	 4,75744033855411E-02 
503	 0,047362668719396 
504	 0,047771742286721 
505	 5,03406524801553E-02 
506	 5,12323824139797E-02 
507	 5,03723920569244E-02 
508	 5,30276741589158E-02 
509	 5,53897241274371E-02 
510	 5,40737742458137E-02 
511	 0,054189335234275 
512	 5,58909749277519E-02 
513	 5,68954493250892E-02 
514	 5,83219529094031E-02 
515	 6,03131684834159E-02 
516	 6,08171067004282E-02 
517	 6,11413122556171E-02 
518	 0,063384606858786 
519	 6,47274402899209E-02 
520	 6,48617710902139E-02 
521	 6,54241500266201E-02 
522	 6,63059848728879E-02 
523	 6,73177287693286E-02 
524	 6,73435917868305E-02 
525	 6,70224781314546E-02 
526	 6,82650082499927E-02 
527	 6,90029021224669E-02 
528	 6,88161379516219E-02 
529	 6,95508881380457E-02 
530	 7,05145101424786E-02 
531	 7,07748506592761E-02 
532	 7,08741539810843E-02 
533	 0,070951327805072 
534	 7,10665252131941E-02 
535	 7,10819950799013E-02 
536	 7,09558311247113E-02 
537	 7,09256310857197E-02 
538	 7,12921179396445E-02 
539	 7,26668221773555E-02 
540	 7,30059931276739E-02 
541	 7,19966371250188E-02 
542	 7,14069674326007E-02 
543	 7,14450447199048E-02 
544	 7,21801205828169E-02 
545	 7,28959670445054E-02 
546	 7,32796076119996E-02 
547	 7,30122423988041E-02 
548	 7,25449562721979E-02 
549	 7,22742960979432E-02 
550	 0,073165780891957 
551	 7,42176400457148E-02 
552	 0,073706405441581 
553	 7,37625581607638E-02 
554	 7,45210431519009E-02 
555	 7,40496895435846E-02 
556	 7,31066709683443E-02 
557	 7,24377215727099E-02 
558	 7,28790455352508E-02 
559	 7,35148158267161E-02 
560	 7,14533936192291E-02 
561	 7,03608273956681E-02 
562	 7,13225549388789E-02 
563	 7,11466522589182E-02 
564	 7,01375263170742E-02 
565	 6,90702592612254E-02 
566	 6,92479493841557E-02 
567	 7,03305911562505E-02 
568	 6,98137442807707E-02 
569	 6,89861156593261E-02 
570	 6,87993376228086E-02 
571	 6,91163041342278E-02 
572	 6,97036426307206E-02 
573	 7,00490352500332E-02 
574	 7,06985100380516E-02 
575	 7,16721183880579E-02 
576	 7,21790450444611E-02 
577	 7,23463467037373E-02 
578	 0,07240226066913 
579	 7,31784657634285E-02 
580	 7,43626018016076E-02 
581	 0,074374131551376 
582	 7,41761214960821E-02 
583	 7,43984172199762E-02 
584	 7,53305150612419E-02 
585	 7,64820502339656E-02 
586	 7,69552871080069E-02 
587	 7,71552493529687E-02 
588	 0,077198355030579 
589	 7,69536464460115E-02 
590	 7,71635866209197E-02 
591	 7,84312402359576E-02 
592	 7,90610574069734E-02 
593	 7,89283201776352E-02 
594	 7,86989739900411E-02 
595	 7,83766750000705E-02 
596	 7,80959061948314E-02 
597	 0,078397431289611 
598	 7,89040691645917E-02 
599	 7,90020609114281E-02 
600	 7,86620495187822E-02 
601	 7,79897579459163E-02 
602	 7,74942776287559E-02 
603	 7,68875694840784E-02 
604	 7,60190593856102E-02 
605	 7,59966852961432E-02 
606	 7,63595095405806E-02 
607	 7,55647156200072E-02 
608	 7,45963945821761E-02 
609	 7,38320720547992E-02 
610	 7,31567896538303E-02 
611	 7,27358417757733E-02 
612	 7,27631398820664E-02 
613	 7,19141293728767E-02 
614	 7,04567382133434E-02 
615	 7,04114014148708E-02 
616	 0,070609107006921 
617	 7,02423815702865E-02 
618	 6,92247273003635E-02 
619	 6,81459428135147E-02 
620	 6,81908648685565E-02 
621	 6,82664892687349E-02 
622	 6,80781348515905E-02 
623	 6,81024890521686E-02 
624	 0,068117308811488 
625	 6,78699576301581E-02 
626	 6,72295346726605E-02 
627	 6,65803446489521E-02 
628	 6,70634335458862E-02 
629	 6,77115352771772E-02 
630	 6,79965615374544E-02 
631	 6,81018668969118E-02 
632	 0,068108824575498 
633	 6,81192015262873E-02 
634	 6,82115199761752E-02 
635	 6,83522268427759E-02 
636	 6,82635748237331E-02 
637	 6,81968410484038E-02 
638	 6,83588671353884E-02 
639	 6,85391612514287E-02 
640	 6,85194437094409E-02 
641	 0,067850757525542 
642	 6,71374924200589E-02 
643	 6,67031619536221E-02 
644	 6,67802821148866E-02 
645	 6,67451417886122E-02 
646	 6,57809951679966E-02 
647	 6,47266060944355E-02 
648	 6,40001303988757E-02 
649	 6,42420142291829E-02 
650	 0,064266988051112 
651	 6,32993009240351E-02 
652	 6,20952415532638E-02 
653	 6,10778349678443E-02 
654	 6,08565485185832E-02 
655	 6,05103848344583E-02 
656	 5,97817639572951E-02 
657	 5,92608727558709E-02 
658	 5,83267845030746E-02 
659	 5,63562891009646E-02 
660	 5,46037709059607E-02 
661	 5,32154804285608E-02 
662	 5,16300315889066E-02 
663	 0,050314946099338 
664	 4,95507624080583E-02 
665	 4,96386838290912E-02 
666	 4,95268024136793E-02 
667	 4,75309699860065E-02 
668	 4,63778849163286E-02 
669	 4,64217274899266E-02 
670	 4,56301589826444E-02 
671	 4,49584105727561E-02 
672	 4,51134723023886E-02 
673	 4,46057443536998E-02 
674	 4,37703011251212E-02 
675	 4,40354679117939E-02 
676	 4,43457740077746E-02 
677	 4,44069352907772E-02 
678	 4,49094969909369E-02 
679	 4,52608910832092E-02 
680	 4,47303106167394E-02 
681	 4,51995418258731E-02 
682	 4,66311212896465E-02 
683	 4,73340185033935E-02 
684	 0,04822278908042 
685	 4,98678237921366E-02 
686	 5,22146020883222E-02 
687	 5,49665940299861E-02 
688	 5,75486199864443E-02 
689	 6,11505871487329E-02 
690	 6,59748908354354E-02 
691	 7,10662470682126E-02 
692	 0,076836432814811 
693	 8,36610275097111E-02 
694	 9,10076738613053E-02 
695	 0,099002403332534 
696	 0,108206606399205 
697	 0,118283756491022 
698	 0,129102546834324 
699	 0,140816432117141 
700	 0,153147201584295 
701	 0,165712676323151 
702	 0,178614844141902 
703	 0,191674920271058 
704	 0,204372733308902 
705	 0,216928393258228 
706	 0,229385228385386 
707	 0,241109267434533 
708	 0,252322384171032 
709	 0,26352905023656 
710	 0,274535694258869 
711	 0,285123891797822 
712	 0,294583451852905 
713	 0,303685556146714 
714	 0,313090390901864 
715	 0,321425326516264 
716	 0,328755198478754 
717	 0,336054912665297 
718	 0,34260630050323 
719	 0,348203425038905 
720	 0,353448859117432 
721	 0,358464985837652 
722	 0,363329235027591 
723	 0,368067744659593 
724	 0,372468504245749 
725	 0,375724148296258 
726	 0,378910194156381 
727	 0,38263216925857 
728	 0,385856169501646 
729	 0,388490707110232 
730	 0,390614947711579 
731	 0,392800736998999 
732	 0,395173249193719 
733	 0,39729695739297 
734	 0,399252201988408 
735	 0,401117483447928 
736	 0,402838153109495 
737	 0,404335342104414 
738	 0,405395871986544 
739	 0,406476443121079 
740	 0,407736140939238 
741	 0,408933271742169 
742	 0,409943427094496 
743	 0,410655115898327 
744	 0,411279328834338 
745	 0,41191820245404 
746	 0,412760920809505 
747	 0,413217357694115 
748	 0,413120627756682 
749	 0,413693763778683 
750	 0,414654231775412 
751	 0,415353508564994 
752	 0,415701409939697 
753	 0,415774922171208 
754	 0,415972121936929 
755	 0,41651383960225 
756	 0,41744376235135 
757	 0,41758152265315 
758	 0,417311817243657 
759	 0,417816075309915 
760	 0,41816212562517 
761	 0,418203075173624 
762	 0,418634584071969 
763	 0,419302798838065 
764	 0,419998765445895 
765	 0,420307549649227 
766	 0,42030341301068 
767	 0,420332955087628 
768	 0,420780144806505 
769	 0,421636623077693 
770	 0,421812581336131 
771	 0,421629974518494 
772	 0,421589807367242 
773	 0,421897445130279 
774	 0,422447395015105 
775	 0,422722174169414 
776	 0,423014254595009 
777	 0,423402000233404 
778	 0,42337448367812 
779	 0,423254647126379 
780	 0,423590341144248 
781	 0,42372519375357 
782	 0,423665072556511 
783	 0,424103279873396 
784	 0,424421510272793 
785	 0,424262585594351 
786	 0,424305615298047 
787	 0,424453081704223 
788	 0,424326886335559 
789	 0,424594431894862 
790	 0,425268671550908 
791	 0,425597960567105 
792	 0,42558534809029 
793	 0,425319769349825 
794	 0,42551979100932 
795	 0,426079197138942 
796	 0,426534774556007 
797	 0,426632036991014 
798	 0,426414490994745 
799	 0,426651426366318 
800	 0,426950284860149 
801	 0,426930492715218 
802	 0,427130591477015 
803	 0,427416411236336 
804	 0,427154490185303 
805	 0,427082806870181 
806	 0,427451076561476 
807	 0,428003124917866 
808	 0,428389767874137 
809	 0,428290194592047 
810	 0,42838573921073 
811	 0,428757682663105 
812	 0,429210813677272 
813	 0,429609107533068 
814	 0,429852894064754 
815	 0,429841097231404 
816	 0,429843351793952 
817	 0,430179680649336 
818	 0,430630371626684 
819	 0,43105122449331 
820	 0,431153420833531 
821	 0,431431655213707 
822	 0,432036483927064 
823	 0,432328207825981 
824	 0,432303143025978 
825	 0,432056844815745 
826	 0,432384584911626 
827	 0,433109902169303 
828	 0,432964960754723 
829	 0,432986153178451 
830	 0,43360924029799 
831	 0,433956127435314 
832	 0,433971996564017 
833	 0,433721453888946 
834	 0,433935691569443 
835	 0,434509503966407 
836	 0,434464105491839 
837	 0,434192156627528 
838	 0,43400654652309 
839	 0,434529619585452 
840	 0,435089957422336 
841	 0,434664744778218 
842	 0,434561686936977 
843	 0,434902272586587 
844	 0,434940224476465 
845	 0,434871101691418 
846	 0,434842495483594 
847	 0,435181355887217 
848	 0,43544173473602 
849	 0,434961183900799 
850	 0,435053278317823 
851	 0,435671514259545 
852	 0,435497586787771 
853	 0,435353149659385 
854	 0,435644051203301 
855	 0,435927212394869 
856	 0,436099261528385 
857	 0,436089115227245 
858	 0,436296335044124 
859	 0,436697598862655 
860	 0,436857956638178 
861	 0,437102833425026 
862	 0,437514782206951 
863	 0,437434776419765 
864	 0,437407168673653 
865	 0,438195352379762 
866	 0,438701902051327 
867	 0,438769711562564 
868	 0,438724766224132 
869	 0,438963113753171 
870	 0,439591521974595 
871	 0,439863128831584 
872	 0,440051265278914 
873	 0,440551719484596 
874	 0,440715935115552 
875	 0,440634365545354 
876	 0,441063845488847 
877	 0,44099243200279 
878	 0,44023735705054 
879	 0,440242489914162 
880	 0,440788197286739 
881	 0,441475591390575 
882	 0,441916980139118 
883	 0,441999958121173 
884	 0,44165554411115 
885	 0,44164451545187 
886	 0,442079581640427 
887	 0,441866431172063 
888	 0,441513205896583 
889	 0,441562556280334 
890	 0,441961400839803 
891	 0,442325848516973 
892	 0,441832635963677 
893	 0,441393693592703 
894	 0,441380856358656 
895	 0,441928677421555 
896	 0,44247579930318 
897	 0,442611448923998 
898	 0,443010456781573 
899	 0,443307080689285 
900	 0,442675492702896 
901	 0,442307841527199 
902	 0,442552881774629 
903	 0,443274131223191 
904	 0,443858264409295 
905	 0,443921814773757 
906	 0,443832408970597 
907	 0,443766702359373 
908	 0,443902338003084 
909	 0,443742619216787 
910	 0,443399360799266 
911	 0,443476832572651 
912	 0,44427191246173 
913	 0,445657567956035 
914	 0,446092348992466 
915	 0,44581681788583 
916	 0,445331084677263 
917	 0,445657185281249 
918	 0,446332120342892 
919	 0,445549957237881 
920	 0,444992523826311 
921	 0,445155308003024 
922	 0,445463694430548 
923	 0,44529222671366 
924	 0,44431472485544 
925	 0,444502543457866 
926	 0,445231008677483 
927	 0,444795664035877 
928	 0,44460374404848 
929	 0,444706461666326 
930	 0,443825233319171 
931	 0,442960372291367 
932	 0,442711938039446 
933	 0,442777837535578 
934	 0,442779969344801 
935	 0,442293528286225 
936	 0,441802778568155 
937	 0,441394314866836 
938	 0,441066657196611 
939	 0,440225764092283 
940	 0,438835732089732 
941	 0,437824805314942 
942	 0,437625436597189 
943	 0,43829035410744 
944	 0,436718963092707 
945	 0,434311504332006 
946	 0,434622689813533 
947	 0,434454736678231 
948	 0,433334912719542 
949	 0,433092959819843 
950	 0,432388907356326 
951	 0,430693341704195 
952	 0,429820614587346 
953	 0,429351023513308 
954	 0,428524485608652 
955	 0,426892107715694 
956	 0,425008297479239 
957	 0,424590930304033 
958	 0,423774952613109 
959	 0,422231564968441 
960	 0,421571120727871 
961	 0,421171889634734 
962	 0,420560736736012 
963	 0,420176673042623 
964	 0,420366533221165 
965	 0,421544176033246 
966	 0,421355602413519 
967	 0,419905651760788 
968	 0,419466983694146 
969	 0,419381702169239 
970	 0,41956116651902 
971	 0,42101547730967 
972	 0,421473607773197 
973	 0,41923206441462 
974	 0,419373989094823 
975	 0,420798767733669 
976	 0,419927218650818 
977	 0,420323698204038 
978	 0,421937226900871 
979	 0,421078208674667 
980	 0,42127684304555 
981	 0,423580228262879 
982	 0,423218317387391 
983	 0,422170384712639 
984	 0,422750871235555 
985	 0,423115696651963 
986	 0,423312731334425 
987	 0,424000823972037 
988	 0,425104212572252 
989	 0,426150550195984 
990	 0,425433992213763 
991	 0,425771051612657 
992	 0,428222546752009 
993	 0,429634588304747 
994	 0,42973167407858 
995	 0,428816410910693 
996	 0,43087117217886 
997	 0,43364807245096 
998	 0,431297209661602 
999	 0,431269439914152 
1000	 0,434480794074779 
1001	 0,436187936240095 
1002	 0,436962298529525 
1003	 0,437127043819198 
1004	 0,437117883462205 
1005	 0,437916218932106 
1006	 0,439996115580596 
1007	 0,437910209406299 
1008	 0,435513396816277 
1009	 0,441164799418396 
1010	 0,444072045845104 
1011	 0,443167393600263 
1012	 0,445265347729939 
1013	 0,445589865892077 
1014	 0,443754362778859 
1015	 0,448741796322861 
1016	 0,453874834873578 
1017	 0,453245415941249 
1018	 0,450276449504381 
1019	 0,448291402625301 
1020	 0,451335042627337 
1021	 0,45396285609956 
1022	 0,455067528160807 
1023	 0,455478526741769 
1024	 0,454581330922974 
1025	 0,453244059116434 
1026	 0,455472045957195 
1027	 0,458889740630539 
1028	 0,461232297434069 
1029	 0,459604242596326 
1030	 0,457213902151953 
1031	 0,458109284537041 
1032	 0,460834729194985 
1033	 0,462616843117691 
1034	 0,458463327611152 
1035	 0,460998242960021 
1036	 0,469510878841226 
1037	 0,467741799721285 
1038	 0,465950639661892 
1039	 0,468023612387179 
1040	 0,469166152270626 
1041	 0,468276050743037 
1042	 0,465289355739782 
1043	 0,465746464571059 
1044	 0,466664059442738 
1045	 0,463283446919105 
1046	 0,466710898896134 
1047	 0,474138882438437 
1048	 0,473772169897376 
1049	 0,468789741653972 
1050	 0,463313535106616 
1051	 0,470025175378373 
1052	 0,475462559622765 
1053	 0,473404856390999 
1054	 0,467580099087885 
1055	 0,47275918437066 
1056	 0,496044645862408 
1057	 0,493881434341908 
1058	 0,477775292213683 
1059	 0,473570072180145 
1060	 0,481069980003857 
1061	 0,491354561833363 
1062	 0,483352653636946 
1063	 0,47825407882965 
1064	 0,48122978667696 
1065	 0,486900727938727 
1066	 0,487600583125376 
1067	 0,481502991241967 
1068	 0,481909151615771 
1069	 0,477728756399491 
1070	 0,464137719965634 
1071	 0,471716223464438 
1072	 0,485296218533985 
1073	 0,483588903893194 
1074	 0,483333250392173 
1075	 0,48404113202313 
