Wavelength	CAMFROU00782.asd
325	 0,222545741341962 
326	 0,237193510561963 
327	 0,286154461057719 
328	 0,360554236806206 
329	 0,407224702613257 
330	 0,389660735289357 
331	 0,276442923596363 
332	 0,181494855701717 
333	 0,144334453129872 
334	 0,145761598605515 
335	 0,18063690598448 
336	 0,214995175411418 
337	 0,122954040594401 
338	 7,88020803981916E-02 
339	 0,191467177467697 
340	 0,187747567326392 
341	 8,70830753668937E-02 
342	 8,24520304310014E-02 
343	 8,69796368595375E-02 
344	 7,86132143188776E-02 
345	 7,88969644596067E-02 
346	 0,11156379680738 
347	 0,190624622724378 
348	 0,169685981609471 
349	 7,96361557253495E-02 
350	 0,107202004856224 
351	 0,102893262959156 
352	 3,81017346406601E-02 
353	 8,61619691306363E-02 
354	 0,148191075612189 
355	 0,112931113397607 
356	 9,67525411178516E-02 
357	 0,10246753598302 
358	 5,85760869184509E-02 
359	 6,26872510781404E-02 
360	 0,136356747861929 
361	 0,115974864173178 
362	 6,28366399019765E-02 
363	 8,59682383073433E-02 
364	 8,25254206470201E-02 
365	 4,71586329240859E-02 
366	 4,81067249907376E-02 
367	 5,11858121995621E-02 
368	 3,69860582760243E-02 
369	 4,31772829309818E-02 
370	 6,51859257490748E-02 
371	 9,43003648894498E-02 
372	 9,95008857616622E-02 
373	 7,72678900611956E-02 
374	 6,00029151532819E-02 
375	 4,85179187907927E-02 
376	 4,48799300494204E-02 
377	 5,22442130451983E-02 
378	 6,41607137503568E-02 
379	 6,78713856338541E-02 
380	 6,97131384503909E-02 
381	 7,13894470842042E-02 
382	 7,24319055390935E-02 
383	 7,53786143616652E-02 
384	 8,12816850964096E-02 
385	 7,16409010633182E-02 
386	 5,35570213229394E-02 
387	 5,60122334366089E-02 
388	 6,31918411129173E-02 
389	 6,60826505532844E-02 
390	 5,48043375345864E-02 
391	 0,040684604036842 
392	 3,94918852498905E-02 
393	 5,31004495515346E-02 
394	 7,23094320872016E-02 
395	 6,99839708349411E-02 
396	 6,65774856530177E-02 
397	 7,00163413772623E-02 
398	 5,52258348193566E-02 
399	 0,039624105489482 
400	 5,31758572449401E-02 
401	 5,92839260481389E-02 
402	 5,30991177688481E-02 
403	 5,40516251109089E-02 
404	 5,34580815592629E-02 
405	 4,61027054236965E-02 
406	 0,041482878050891 
407	 4,23174889444045E-02 
408	 5,17818241035302E-02 
409	 5,68294620053207E-02 
410	 5,35221950456744E-02 
411	 4,34819306492364E-02 
412	 3,53095348731532E-02 
413	 3,69261726945793E-02 
414	 4,11869329152311E-02 
415	 4,52604734979995E-02 
416	 4,66762433901899E-02 
417	 4,73829059413886E-02 
418	 4,76952369513885E-02 
419	 4,42938478529723E-02 
420	 4,13022922168965E-02 
421	 4,42058925219151E-02 
422	 4,64749718761037E-02 
423	 4,61380468395779E-02 
424	 4,18555674265119E-02 
425	 3,88456020403476E-02 
426	 4,00735219384568E-02 
427	 4,08360623657256E-02 
428	 4,09679654056601E-02 
429	 4,13727990720583E-02 
430	 4,19219497053191E-02 
431	 4,23704447421786E-02 
432	 4,17886927169422E-02 
433	 4,14726719136437E-02 
434	 4,23696155155325E-02 
435	 4,02197294505734E-02 
436	 3,65307724748931E-02 
437	 3,66323445060227E-02 
438	 3,86355863935626E-02 
439	 4,10587024776534E-02 
440	 4,02341104367068E-02 
441	 3,74346040600645E-02 
442	 3,46992713232635E-02 
443	 3,67074768953509E-02 
444	 4,11341421686446E-02 
445	 3,58467914063797E-02 
446	 3,25751080902716E-02 
447	 3,77619036946281E-02 
448	 3,88377595524803E-02 
449	 3,62747015602488E-02 
450	 3,37388322485855E-02 
451	 3,55835687059668E-02 
452	 4,10805203648257E-02 
453	 4,00590609908786E-02 
454	 3,71983067963367E-02 
455	 3,72992270391874E-02 
456	 4,04762419964299E-02 
457	 4,42639147643084E-02 
458	 0,042142290387574 
459	 4,04162565812287E-02 
460	 4,14182539432381E-02 
461	 0,041394862721368 
462	 4,02808227617054E-02 
463	 3,84148329346272E-02 
464	 3,93003212593447E-02 
465	 4,21541720029339E-02 
466	 0,041165122476069 
467	 3,92581421656953E-02 
468	 3,85939165272609E-02 
469	 3,99318253809815E-02 
470	 4,16708274629638E-02 
471	 4,03967172123693E-02 
472	 3,99316292813458E-02 
473	 4,09469771097967E-02 
474	 4,03918580800222E-02 
475	 3,94494322930525E-02 
476	 3,94304390722063E-02 
477	 4,04258560445884E-02 
478	 4,12042839140641E-02 
479	 3,78284453501658E-02 
480	 3,69945768132002E-02 
481	 4,09133271202237E-02 
482	 4,14952793812238E-02 
483	 3,98606067055803E-02 
484	 3,89124081810722E-02 
485	 0,038876738415927 
486	 3,96289398427483E-02 
487	 4,01003023705505E-02 
488	 4,00194367130893E-02 
489	 3,93707476754089E-02 
490	 4,03985749265474E-02 
491	 4,18119183892564E-02 
492	 3,95348170468568E-02 
493	 3,89090319834759E-02 
494	 0,040971309688621 
495	 4,00919943511369E-02 
496	 3,95960900604389E-02 
497	 4,35490072437015E-02 
498	 4,48335582142152E-02 
499	 0,042786091652649 
500	 0,040235917302764 
501	 3,92780931800391E-02 
502	 4,08749655825659E-02 
503	 4,14890407080579E-02 
504	 4,18120006989683E-02 
505	 4,40108162491312E-02 
506	 4,52436605927021E-02 
507	 4,53084750694306E-02 
508	 4,73326494905952E-02 
509	 4,91157906647914E-02 
510	 4,87248508658068E-02 
511	 0,049571814168884 
512	 5,14813852193877E-02 
513	 5,21652458929814E-02 
514	 5,35774650518299E-02 
515	 5,59718512117906E-02 
516	 5,52746498644722E-02 
517	 5,42704431711061E-02 
518	 5,73313588289757E-02 
519	 0,059358423051874 
520	 5,96942577904884E-02 
521	 6,10765640963038E-02 
522	 6,25843427452447E-02 
523	 6,34828538961848E-02 
524	 6,36219050939314E-02 
525	 6,33151889837402E-02 
526	 6,32289623492946E-02 
527	 6,33517121126424E-02 
528	 6,37135913921099E-02 
529	 6,42959982742765E-02 
530	 0,064786167047147 
531	 6,48513624482234E-02 
532	 6,60839158973183E-02 
533	 0,067859069659511 
534	 6,71438201905832E-02 
535	 6,62503678590375E-02 
536	 6,64659673592236E-02 
537	 6,61613596845286E-02 
538	 6,59211554094394E-02 
539	 6,72467222236855E-02 
540	 6,81734052872442E-02 
541	 6,80556611524313E-02 
542	 6,70230821047243E-02 
543	 6,63999062118423E-02 
544	 0,067386051315207 
545	 6,79647524193296E-02 
546	 6,78958215099098E-02 
547	 6,77053675063723E-02 
548	 6,77172073275478E-02 
549	 6,81421026538757E-02 
550	 6,90550518195548E-02 
551	 6,98827789252516E-02 
552	 6,97852676212293E-02 
553	 6,91662609411256E-02 
554	 6,84785403638834E-02 
555	 6,90057011378867E-02 
556	 6,93436928129485E-02 
557	 6,83903659259895E-02 
558	 6,79689285766927E-02 
559	 0,067857066326792 
560	 0,066475809204245 
561	 0,065928400178049 
562	 6,67331081022808E-02 
563	 6,64328173863673E-02 
564	 6,57173756678646E-02 
565	 6,57868098548298E-02 
566	 6,56431590449983E-02 
567	 6,51690605687259E-02 
568	 6,47983616230843E-02 
569	 6,45658555276848E-02 
570	 6,45042126847582E-02 
571	 6,45937687320043E-02 
572	 0,064803406079894 
573	 6,50298052652062E-02 
574	 6,57036781750769E-02 
575	 6,67922645951254E-02 
576	 6,73850720904939E-02 
577	 6,76222099266623E-02 
578	 6,77516900164336E-02 
579	 6,82412026465382E-02 
580	 6,88665070357791E-02 
581	 6,83776563466467E-02 
582	 6,86228796062488E-02 
583	 7,04035224299605E-02 
584	 7,11026363138977E-02 
585	 7,10471928579754E-02 
586	 7,14262988365015E-02 
587	 7,19032096832718E-02 
588	 7,23009480023455E-02 
589	 7,20945932192132E-02 
590	 7,20461743707408E-02 
591	 7,28397299289288E-02 
592	 7,35259548208847E-02 
593	 7,36693813295456E-02 
594	 7,25296211752059E-02 
595	 7,18968603771647E-02 
596	 7,25009426614096E-02 
597	 7,27267866298523E-02 
598	 7,28601199085045E-02 
599	 7,36274395989971E-02 
600	 7,36765092506199E-02 
601	 7,28272503794781E-02 
602	 0,071968308719111 
603	 0,071134832879591 
604	 7,04126354131276E-02 
605	 7,05686709717602E-02 
606	 7,10127258435221E-02 
607	 6,99915787511023E-02 
608	 6,91275164226071E-02 
609	 6,88913903440898E-02 
610	 6,82303137782817E-02 
611	 6,73594366313054E-02 
612	 6,66442383411231E-02 
613	 6,60863662320207E-02 
614	 6,56399522857837E-02 
615	 6,50618247588851E-02 
616	 6,47356740837754E-02 
617	 6,48167154684338E-02 
618	 6,43601430766607E-02 
619	 6,36630592757446E-02 
620	 6,36004599312494E-02 
621	 6,34601568704387E-02 
622	 6,30802238920861E-02 
623	 6,28406109851728E-02 
624	 0,062665257743432 
625	 6,24589625048755E-02 
626	 6,23457929869964E-02 
627	 6,23299576047117E-02 
628	 6,23314717730166E-02 
629	 6,24756598485969E-02 
630	 6,27445913696198E-02 
631	 6,25072780000409E-02 
632	 6,22494329720546E-02 
633	 6,28982382398084E-02 
634	 6,30175442253171E-02 
635	 6,25148329586251E-02 
636	 6,29067532303132E-02 
637	 0,063239012361941 
638	 6,27266887704383E-02 
639	 6,25493272247781E-02 
640	 6,26820479242254E-02 
641	 6,26104220896132E-02 
642	 6,19550164302458E-02 
643	 6,07769047541399E-02 
644	 0,06052980813751 
645	 6,06282564619306E-02 
646	 6,01422298233118E-02 
647	 5,93865176305753E-02 
648	 5,85896088341067E-02 
649	 0,058314945244341 
650	 5,79456778434135E-02 
651	 5,70828057954118E-02 
652	 5,61058369273588E-02 
653	 5,52870277959953E-02 
654	 0,055039105068908 
655	 0,054877767317328 
656	 5,45429050725494E-02 
657	 5,38555031774022E-02 
658	 5,26443661073167E-02 
659	 5,08037984299482E-02 
660	 4,96772986157517E-02 
661	 4,91166237112327E-02 
662	 4,77966229055069E-02 
663	 4,61847634220095E-02 
664	 4,46344168038854E-02 
665	 4,39002199328248E-02 
666	 4,35300887198822E-02 
667	 4,26706350452154E-02 
668	 4,20308487262832E-02 
669	 4,16939326787894E-02 
670	 4,11999839744035E-02 
671	 4,07777824565653E-02 
672	 0,040595928212378 
673	 4,02870991913432E-02 
674	 3,99595508195629E-02 
675	 4,00276244135009E-02 
676	 4,01320809137789E-02 
677	 4,02072150376017E-02 
678	 4,07374668492567E-02 
679	 0,041118555055545 
680	 4,06215365615853E-02 
681	 4,10616914329357E-02 
682	 4,24202045284297E-02 
683	 4,30897398281528E-02 
684	 4,40954580580774E-02 
685	 0,045995578417816 
686	 4,80136875716599E-02 
687	 5,03914025687177E-02 
688	 5,37276884652265E-02 
689	 5,74567024773242E-02 
690	 6,15162962404618E-02 
691	 0,066308753367417 
692	 7,20226944614691E-02 
693	 7,87847377294026E-02 
694	 0,086117839625801 
695	 9,41252761665135E-02 
696	 0,103381259397621 
697	 0,113234578675323 
698	 0,123405260836876 
699	 0,134101634263405 
700	 0,145342468388914 
701	 0,157104430126151 
702	 0,169381044069464 
703	 0,181794159726379 
704	 0,19325895784442 
705	 0,204525479496306 
706	 0,216030057993614 
707	 0,227381285059359 
708	 0,238262350250444 
709	 0,248126107741025 
710	 0,257769847218586 
711	 0,267320165501456 
712	 0,27607476881276 
713	 0,28444092041909 
714	 0,29276040057426 
715	 0,300056980313065 
716	 0,306551657496873 
717	 0,313402536958888 
718	 0,319533470006911 
719	 0,32462106610701 
720	 0,3296033323508 
721	 0,334461940115852 
722	 0,33906260662528 
723	 0,343376916026373 
724	 0,347261012379374 
725	 0,350226544326238 
726	 0,353008394928491 
727	 0,356035261668824 
728	 0,358606768460563 
729	 0,360865214387911 
730	 0,363233523693846 
731	 0,365412496631982 
732	 0,367377132104168 
733	 0,369406514326241 
734	 0,371257630688847 
735	 0,372712915550737 
736	 0,373815405425833 
737	 0,374856342672775 
738	 0,37654352664312 
739	 0,378015936513787 
740	 0,378945722502312 
741	 0,379564798164316 
742	 0,380117106638533 
743	 0,380857991799888 
744	 0,381545340922683 
745	 0,382089751857729 
746	 0,38240550459136 
747	 0,382596943438236 
748	 0,382809870921547 
749	 0,383589538046297 
750	 0,384487810359799 
751	 0,384740584085833 
752	 0,384721733783536 
753	 0,384687173156222 
754	 0,385151916852055 
755	 0,385741471165088 
756	 0,386138198705143 
757	 0,386125295090934 
758	 0,386025193593331 
759	 0,386570313223852 
760	 0,387016419558742 
761	 0,387188592897945 
762	 0,387489829382938 
763	 0,387848342931657 
764	 0,388174568079007 
765	 0,38842955858853 
766	 0,388596396963848 
767	 0,388610174533072 
768	 0,388859322730544 
769	 0,389409011257663 
770	 0,389638056211447 
771	 0,389672619801499 
772	 0,389729469338911 
773	 0,389827928213935 
774	 0,389959598348774 
775	 0,390017898693013 
776	 0,390241285533896 
777	 0,390700664665727 
778	 0,390985320060619 
779	 0,391122180315994 
780	 0,391229797422807 
781	 0,391139533029918 
782	 0,391014426224256 
783	 0,391594175260902 
784	 0,39198386367359 
785	 0,391670437030451 
786	 0,391683040669916 
787	 0,391930940614277 
788	 0,391983893824081 
789	 0,392065948609545 
790	 0,392211179261511 
791	 0,392308242438949 
792	 0,392415548482887 
793	 0,392582658154069 
794	 0,392812691010626 
795	 0,393030758906847 
796	 0,393067292424477 
797	 0,393219682028669 
798	 0,393508337783524 
799	 0,393466287533437 
800	 0,393578200114688 
801	 0,394256698370872 
802	 0,394466900992137 
803	 0,394295546472197 
804	 0,394511877737884 
805	 0,394525495053323 
806	 0,394271934937089 
807	 0,394519170335387 
808	 0,394936521062962 
809	 0,395121440841248 
810	 0,395379489171777 
811	 0,395694575168768 
812	 0,395864010856971 
813	 0,396052065557546 
814	 0,396314806939054 
815	 0,396570125856512 
816	 0,396688427869213 
817	 0,396550011983649 
818	 0,397053343392421 
819	 0,397974406592401 
820	 0,398022120956467 
821	 0,398024794955508 
822	 0,3983374608665 
823	 0,398562595891944 
824	 0,398779575191816 
825	 0,399128631475572 
826	 0,399301563155543 
827	 0,399328800807884 
828	 0,399527917922736 
829	 0,39986686311543 
830	 0,40021876774268 
831	 0,399871662199013 
832	 0,399309632666695 
833	 0,399283957999632 
834	 0,399883433196085 
835	 0,400781889592234 
836	 0,400888611361801 
837	 0,400760414509119 
838	 0,400750320816828 
839	 0,401116278804966 
840	 0,40138492821299 
841	 0,400861658978809 
842	 0,400673808786342 
843	 0,400880110301738 
844	 0,400556212191184 
845	 0,400685428016822 
846	 0,40160456722769 
847	 0,401647530692629 
848	 0,401409408832286 
849	 0,401986746671809 
850	 0,4020621907695 
851	 0,401573218325285 
852	 0,40133983866699 
853	 0,401533841943867 
854	 0,402104148258074 
855	 0,401906495876995 
856	 0,4015112656819 
857	 0,401864777407359 
858	 0,401849730035685 
859	 0,401546432595583 
860	 0,402121155466213 
861	 0,40258402535985 
862	 0,402470379170391 
863	 0,402298522746049 
864	 0,402519727052026 
865	 0,403607402530946 
866	 0,404198276079897 
867	 0,404133388136316 
868	 0,403963313073429 
869	 0,404237166544703 
870	 0,405054528309381 
871	 0,405120156499153 
872	 0,404889068998895 
873	 0,405042755464071 
874	 0,404794885693606 
875	 0,404512259608486 
876	 0,405811327843335 
877	 0,406459170188477 
878	 0,40579773653708 
879	 0,406031929868892 
880	 0,406599286679076 
881	 0,406719871059628 
882	 0,406816304913647 
883	 0,40688989570088 
884	 0,406772724078214 
885	 0,406503443584849 
886	 0,406176226826033 
887	 0,406151213527159 
888	 0,406139503937525 
889	 0,405915554439018 
890	 0,406552112702036 
891	 0,407325804152282 
892	 0,40617017876552 
893	 0,405836908684562 
894	 0,406837202963995 
895	 0,407114477348606 
896	 0,407194482549278 
897	 0,407527236233138 
898	 0,407974940974279 
899	 0,408125441719725 
900	 0,407284515252474 
901	 0,40659074384028 
902	 0,40655290704051 
903	 0,407587368961458 
904	 0,408654094082042 
905	 0,409014512102671 
906	 0,408591225417902 
907	 0,408225295759717 
908	 0,409088139974556 
909	 0,409401518262906 
910	 0,408968173291471 
911	 0,408517972037746 
912	 0,408747516415052 
913	 0,409785153544019 
914	 0,410136387520052 
915	 0,409962305111709 
916	 0,409644546952805 
917	 0,409876585037325 
918	 0,410379448026751 
919	 0,41002004451419 
920	 0,409816309531479 
921	 0,409944402405544 
922	 0,409435779756866 
923	 0,409066893763458 
924	 0,409429792257083 
925	 0,409442473810388 
926	 0,409055071104194 
927	 0,40846743144259 
928	 0,408620277548367 
929	 0,409353112436367 
930	 0,408979455124963 
931	 0,408583370180397 
932	 0,408646441644197 
933	 0,407774019393568 
934	 0,406743603935812 
935	 0,406705454602138 
936	 0,406816435659645 
937	 0,406817787912471 
938	 0,406625354082612 
939	 0,40595750107939 
940	 0,404866363205248 
941	 0,404084014883524 
942	 0,403840788152802 
943	 0,404131470876682 
944	 0,403146632251847 
945	 0,401532149882137 
946	 0,401038037427759 
947	 0,400760536320519 
948	 0,400388171410487 
949	 0,399779847781553 
950	 0,39878373578894 
951	 0,397397362380692 
952	 0,39616416939407 
953	 0,394918923753804 
954	 0,393461109588299 
955	 0,393853008032935 
956	 0,395096056970974 
957	 0,393636426379406 
958	 0,39162402830507 
959	 0,390059745588469 
960	 0,389846546630344 
961	 0,389999932798352 
962	 0,389761395000683 
963	 0,389768688973722 
964	 0,390099063917449 
965	 0,39075541756507 
966	 0,389876025544823 
967	 0,387906533417729 
968	 0,387793102620095 
969	 0,387399875079069 
970	 0,386412681453107 
971	 0,388246677049059 
972	 0,389614135405051 
973	 0,387702446778911 
974	 0,387612479850847 
975	 0,388503795061828 
976	 0,387298474235663 
977	 0,387234634038147 
978	 0,388631593416936 
979	 0,389499656981861 
980	 0,390129970644732 
981	 0,390596878800794 
982	 0,3907219054004 
983	 0,391003482019356 
984	 0,39189745122374 
985	 0,392755905326414 
986	 0,392999980613392 
987	 0,391720498798766 
988	 0,392039261598839 
989	 0,393662215299399 
990	 0,391851825321653 
991	 0,390761116530051 
992	 0,392392014927386 
993	 0,39442533831582 
994	 0,395925133591813 
995	 0,396273263936995 
996	 0,397974605717074 
997	 0,400100077516689 
998	 0,399954475182943 
999	 0,400640926678047 
1000	 0,402206919734274 
1001	 0,401423231964858 
1002	 0,401301664999646 
1003	 0,402725425950327 
1004	 0,40097538185194 
1005	 0,400838673526544 
1006	 0,40634521685675 
1007	 0,405542773547504 
1008	 0,402285940932788 
1009	 0,407044497388184 
1010	 0,409570351307645 
1011	 0,408419608450987 
1012	 0,407697832896527 
1013	 0,409195039220897 
1014	 0,413279778193811 
1015	 0,416986006113802 
1016	 0,417813163519877 
1017	 0,41447773659657 
1018	 0,412786578609689 
1019	 0,413516595544126 
1020	 0,416200049714006 
1021	 0,415282819114619 
1022	 0,412528438790783 
1023	 0,417099725500339 
1024	 0,42006413486046 
1025	 0,41903505155652 
1026	 0,417955568629055 
1027	 0,417787514274746 
1028	 0,418727512979164 
1029	 0,416802037717142 
1030	 0,416476581528283 
1031	 0,422851664935487 
1032	 0,428394608351823 
1033	 0,429192789368704 
1034	 0,420779466633919 
1035	 0,420298933169448 
1036	 0,428917123255336 
1037	 0,431546057304844 
1038	 0,427592230026413 
1039	 0,41975416274652 
1040	 0,425013156365555 
1041	 0,431953704244862 
1042	 0,430764626067989 
1043	 0,428930963428313 
1044	 0,427102387897365 
1045	 0,425151479405523 
1046	 0,429564957846755 
1047	 0,437646187364067 
1048	 0,440390936019869 
1049	 0,436331061739713 
1050	 0,428213998333452 
1051	 0,429660978698031 
1052	 0,429654087039526 
1053	 0,425573387158127 
1054	 0,434861243000432 
1055	 0,448913999616504 
1056	 0,457986058866864 
1057	 0,453898512350809 
1058	 0,44146035067828 
1059	 0,430493087170258 
1060	 0,430957882728917 
1061	 0,43959329519861 
1062	 0,443680639434496 
1063	 0,440899305216788 
1064	 0,434997236486461 
1065	 0,443838715914015 
1066	 0,445059684100408 
1067	 0,433689470718137 
1068	 0,441608573209571 
1069	 0,449935714866167 
1070	 0,443986366647697 
1071	 0,43658183281461 
1072	 0,432524032250328 
1073	 0,435054326838664 
1074	 0,43163215485004 
1075	 0,426442031111081 
