Wavelength	CAMFROU00261.asd
325	-0,217900030791337 
326	-2,35609653651621E-02 
327	 8,35201569681885E-02 
328	 0,101192625085062 
329	 0,131358229331941 
330	 0,108415793506059 
331	-1,44961368307778E-02 
332	 3,61218582523715E-02 
333	 0,166030849987934 
334	 3,56781063294977E-02 
335	-3,16540716135597E-02 
336	 1,75145844214477E-02 
337	 1,03270327273311E-02 
338	 9,8766195165492E-03 
339	 6,19414175068223E-02 
340	 5,31407629927079E-02 
341	-6,27839447501286E-03 
342	-0,020079446538121 
343	-5,92927170146431E-02 
344	-0,121728441281076 
345	-3,96187356106873E-02 
346	 3,60025975065716E-02 
347	 9,06606330320679E-03 
348	 0,003877993933149 
349	 2,47902697645408E-02 
350	 2,29387191661137E-02 
351	 1,89514651728942E-03 
352	-2,46734256792472E-02 
353	 2,71048884828398E-02 
354	 8,36628495874926E-02 
355	 6,86105140589013E-02 
356	 4,77799398299468E-02 
357	 3,24345184345087E-02 
358	 1,11415051714657E-02 
359	 9,05022941530692E-03 
360	 3,04413209257008E-02 
361	 2,26466920693434E-02 
362	 5,15092902081194E-03 
363	 1,30913012427616E-02 
364	 2,17530805488342E-02 
365	 2,16066211064632E-02 
366	-2,48321298770202E-03 
367	-2,28538351188329E-02 
368	-2,03324763660093E-02 
369	-1,9955103680241E-03 
370	 0,024974632923481 
371	 6,16676435373495E-02 
372	 0,058334709447701 
373	 1,58968921488621E-02 
374	 5,86970052709123E-03 
375	 1,09312578632927E-02 
376	 1,40536159863023E-02 
377	 1,34532609487018E-02 
378	 8,63250711590927E-03 
379	-4,42232474462275E-03 
380	 8,7624340249902E-03 
381	 4,68923269239816E-02 
382	 5,24699536582919E-02 
383	 3,73785628022916E-02 
384	 1,75140002607488E-02 
385	 6,34152940778571E-03 
386	 4,51448287000645E-03 
387	 6,94280179075454E-03 
388	 1,73430260204138E-02 
389	 3,17333500145691E-02 
390	 3,19339379512627E-02 
391	 0,021406536186019 
392	 6,58395785683002E-03 
393	-2,32496287985402E-04 
394	 2,92337874846149E-03 
395	 1,49412840204852E-02 
396	 1,79189580372176E-02 
397	 6,87460477154057E-03 
398	 1,84871876297726E-02 
399	 3,04547418230855E-02 
400	 2,72702568921331E-03 
401	-2,70788908811498E-03 
402	 1,82186109321927E-02 
403	 2,11627578273466E-02 
404	 0,015070780098519 
405	 7,79715898011105E-03 
406	 8,26379615431717E-03 
407	 1,38703031113079E-02 
408	 0,016314439468186 
409	 1,95190762222616E-02 
410	 2,17816232575707E-02 
411	 1,04034721270389E-02 
412	 1,26472989632088E-03 
413	 9,23026995490967E-03 
414	 1,39770204474846E-02 
415	 1,37531825546407E-02 
416	 0,013751651290962 
417	 1,75269033811801E-02 
418	 0,024008120327912 
419	 1,66360859134554E-02 
420	 8,15655330572674E-03 
421	 1,64451230324305E-02 
422	 2,02547539246089E-02 
423	 1,68522054983209E-02 
424	 1,34866782327278E-02 
425	 1,20766160912651E-02 
426	 1,36232411719242E-02 
427	 1,52599320062369E-02 
428	 1,56369421178234E-02 
429	 1,28548000852799E-02 
430	 1,30781062206588E-02 
431	 1,68491571968299E-02 
432	 1,81288465805538E-02 
433	 1,81181821063799E-02 
434	 1,78033057776885E-02 
435	 1,18227804147404E-02 
436	 3,71961686730138E-03 
437	 3,60071480391572E-03 
438	 7,83041613739296E-03 
439	 0,013882160236592 
440	 1,68341082965583E-02 
441	 1,60039042915147E-02 
442	 1,12625679703209E-02 
443	 1,32710690681225E-02 
444	 2,01918555751381E-02 
445	 1,69859427259887E-02 
446	 1,19095896578735E-02 
447	 1,03313534080584E-02 
448	 9,98426877380252E-03 
449	 9,89709034547061E-03 
450	 8,23684551796852E-03 
451	 1,22269921456609E-02 
452	 2,06149941022608E-02 
453	 1,81993197924737E-02 
454	 1,28366999827729E-02 
455	 1,24630040598576E-02 
456	 0,016291294165428 
457	 2,11066140514611E-02 
458	 1,90815182149684E-02 
459	 0,016225304911959 
460	 1,51237227468336E-02 
461	 1,42978346950374E-02 
462	 1,37559744356217E-02 
463	 1,36045329744732E-02 
464	 1,51634320660705E-02 
465	 1,74008546048756E-02 
466	 1,58819901656629E-02 
467	 1,40178887238451E-02 
468	 1,41261700173527E-02 
469	 1,50579001208488E-02 
470	 1,59895842834624E-02 
471	 1,57184207830437E-02 
472	 1,48780620072245E-02 
473	 1,41803373125389E-02 
474	 1,59522592177332E-02 
475	 1,73481092000573E-02 
476	 0,015624670308926 
477	 1,44406612567838E-02 
478	 1,46668428915864E-02 
479	 1,66746850241666E-02 
480	 1,78024452182109E-02 
481	 1,67662690521094E-02 
482	 1,45960470049984E-02 
483	 1,28051436098812E-02 
484	 1,33093031749012E-02 
485	 1,51177547787513E-02 
486	 1,69357002796433E-02 
487	 1,52369761995323E-02 
488	 1,36532545880121E-02 
489	 1,48442912079926E-02 
490	 1,63348581313732E-02 
491	 1,68842166351542E-02 
492	 1,42605658275588E-02 
493	 1,36200243667178E-02 
494	 1,60329200480339E-02 
495	 1,63282178668191E-02 
496	 1,57164978703827E-02 
497	 1,59918209317593E-02 
498	 1,54259436142285E-02 
499	 1,39479782611416E-02 
500	 1,21427047390742E-02 
501	 1,15104570269158E-02 
502	 1,27242405108315E-02 
503	 1,34769356709153E-02 
504	 0,014091010878435 
505	 1,59105471060407E-02 
506	 1,56702177687744E-02 
507	 1,36198887664115E-02 
508	 1,55254330212063E-02 
509	 1,66481315514477E-02 
510	 1,29007981441078E-02 
511	 1,22393620184588E-02 
512	 1,45946656164276E-02 
513	 1,59514800591686E-02 
514	 1,63250575973099E-02 
515	 0,015775765523307 
516	 1,55334080103593E-02 
517	 1,58519883685622E-02 
518	 1,68963539752346E-02 
519	 1,68531320409641E-02 
520	 1,60039541310947E-02 
521	 1,73262884963779E-02 
522	 1,83352547075793E-02 
523	 1,73629910210662E-02 
524	 1,71436875016879E-02 
525	 1,73686177956424E-02 
526	 1,61259936721845E-02 
527	 1,60216323720035E-02 
528	 1,74835132254912E-02 
529	 1,77449782077739E-02 
530	 1,72089447436306E-02 
531	 1,65952485724909E-02 
532	 1,68618080667679E-02 
533	 1,77169343902968E-02 
534	 1,74791134415653E-02 
535	 1,70356256169293E-02 
536	 1,69474935062241E-02 
537	 1,72775934803642E-02 
538	 1,77258045374211E-02 
539	 1,77445512747555E-02 
540	 1,77362528366602E-02 
541	 1,75787621954335E-02 
542	 1,60200422117379E-02 
543	 1,49350346806553E-02 
544	 1,61080720900372E-02 
545	 1,71495844574762E-02 
546	 1,74463173114762E-02 
547	 1,67887372070567E-02 
548	 1,61410036247271E-02 
549	 1,60596263696754E-02 
550	 1,65481527464275E-02 
551	 0,017199335545136 
552	 1,74105259549795E-02 
553	 0,017385407130913 
554	 1,72566301860444E-02 
555	 1,73092091949712E-02 
556	 1,75034404557415E-02 
557	 1,77875676511338E-02 
558	 1,82041190159956E-02 
559	 1,82518398229074E-02 
560	 1,64496319447114E-02 
561	 1,57802159260375E-02 
562	 1,70226724032356E-02 
563	 1,66873520496701E-02 
564	 1,56556079634799E-02 
565	 1,54870919563056E-02 
566	 0,016090128929821 
567	 1,71008901314107E-02 
568	 1,73838952808123E-02 
569	 1,70547091186741E-02 
570	 1,63153135346482E-02 
571	 0,016272870189374 
572	 1,67025348042251E-02 
573	 1,66107705267257E-02 
574	 1,70922286874692E-02 
575	 1,82571134020851E-02 
576	 1,87587852401979E-02 
577	 1,87113176006443E-02 
578	 0,018374637934408 
579	 1,82871811864593E-02 
580	 1,84537236316801E-02 
581	 1,83264472905304E-02 
582	 1,84294695570838E-02 
583	 1,89968538747866E-02 
584	 1,93769171135895E-02 
585	 1,96437291516782E-02 
586	 2,01030334332665E-02 
587	 2,04584151814713E-02 
588	 2,05272801822726E-02 
589	 0,019903107128547 
590	 1,93945371013953E-02 
591	 1,97625038754496E-02 
592	 2,07182946989461E-02 
593	 2,15517891843782E-02 
594	 2,05416092420367E-02 
595	 1,95047937511266E-02 
596	 1,93445989092819E-02 
597	 1,96654895848276E-02 
598	 2,02205392057638E-02 
599	 2,07187234949687E-02 
600	 2,10508307257703E-02 
601	 2,11463706275236E-02 
602	 2,10285872659053E-02 
603	 2,05944698407989E-02 
604	 1,98835884781983E-02 
605	 0,020339735039163 
606	 0,021332372477195 
607	 2,07585506119134E-02 
608	 1,99187622376605E-02 
609	 0,019416362793062 
610	 1,97781369027782E-02 
611	 2,02455694974113E-02 
612	 1,98416367348931E-02 
613	 1,87309767317164E-02 
614	 1,75338357740088E-02 
615	 1,80810801815782E-02 
616	 1,88755773196773E-02 
617	 1,89048626926799E-02 
618	 1,84382393290059E-02 
619	 1,78849345551136E-02 
620	 1,79606003325233E-02 
621	 1,81848182243646E-02 
622	 1,84119194681995E-02 
623	 1,87691304159233E-02 
624	 1,90012037341658E-02 
625	 1,88437289383667E-02 
626	 1,81815605638039E-02 
627	 1,74187193174286E-02 
628	 1,76481612146327E-02 
629	 0,018403424825258 
630	 1,92548619676642E-02 
631	 1,90062308384174E-02 
632	 1,84177020397832E-02 
633	 1,89529095308144E-02 
634	 1,94150163700048E-02 
635	 1,95238193237516E-02 
636	 1,95468022043769E-02 
637	 1,98828477119318E-02 
638	 2,07746498887804E-02 
639	 2,08940431872165E-02 
640	 2,03976755450114E-02 
641	 2,02892807941254E-02 
642	 2,02607365624173E-02 
643	 2,03343438760895E-02 
644	 2,12387264425474E-02 
645	 2,19844766350987E-02 
646	 2,12398279190586E-02 
647	 2,10338759955444E-02 
648	 0,021527043277938 
649	 2,13533223723728E-02 
650	 2,10800303252324E-02 
651	 2,10410027065184E-02 
652	 2,05946890717678E-02 
653	 2,00734802622043E-02 
654	 2,03671158753764E-02 
655	 2,03226067239216E-02 
656	 1,97526920644367E-02 
657	 1,98970997641923E-02 
658	 1,97351735863273E-02 
659	 1,82255215455137E-02 
660	 0,017708331236699 
661	 1,81680165237257E-02 
662	 1,80787954119075E-02 
663	 1,76247395790525E-02 
664	 1,69799843339797E-02 
665	 1,69378322344313E-02 
666	 1,71537674712805E-02 
667	 0,01693848219649 
668	 1,68361020989843E-02 
669	 1,68403490688053E-02 
670	 1,63073832382574E-02 
671	 1,59050027646903E-02 
672	 1,61300810624514E-02 
673	 1,60697750616401E-02 
674	 1,58725831440306E-02 
675	 1,63468225444564E-02 
676	 1,65458721717915E-02 
677	 1,62608910328543E-02 
678	 1,64438186941727E-02 
679	 1,67376320454106E-02 
680	 1,66373034978666E-02 
681	 1,69823043102115E-02 
682	 1,76472572470075E-02 
683	 1,76122051272528E-02 
684	 1,75018407326388E-02 
685	 1,77009290497747E-02 
686	 0,018086288594689 
687	 0,018613268411399 
688	 1,92244479846396E-02 
689	 1,98990803388519E-02 
690	 2,06289298805018E-02 
691	 2,13722507414416E-02 
692	 2,24181342965822E-02 
693	 2,39988816921796E-02 
694	 2,55838678035472E-02 
695	 2,72647236184598E-02 
696	 2,95068309001906E-02 
697	 0,032192164310257 
698	 3,52090141234281E-02 
699	 3,81412444959188E-02 
700	 4,13198592387449E-02 
701	 4,52064419711041E-02 
702	 4,93181901862839E-02 
703	 5,33446783742885E-02 
704	 5,66984781420151E-02 
705	 6,02830525887909E-02 
706	 6,46103743232329E-02 
707	 6,88214622571006E-02 
708	 7,27772514773066E-02 
709	 7,64678249610758E-02 
710	 7,98563702873793E-02 
711	 8,30984524502948E-02 
712	 8,68681024078239E-02 
713	 9,06211481559538E-02 
714	 0,093818084435604 
715	 9,65959789706083E-02 
716	 9,91147786797272E-02 
717	 0,101816827999259 
718	 0,103947567804923 
719	 0,105374198706509 
720	 0,107272298390931 
721	 0,109516728545871 
722	 0,111798862831164 
723	 0,113618558561618 
724	 0,114949468834027 
725	 0,116187600900714 
726	 0,117414393398678 
727	 0,118668642060839 
728	 0,119699246305998 
729	 0,120561489206527 
730	 0,121400196969076 
731	 0,122389039567344 
732	 0,123469263588119 
733	 0,124121202343199 
734	 0,124663764307088 
735	 0,125376177114796 
736	 0,125920199711903 
737	 0,126324784324019 
738	 0,126779459310085 
739	 0,127312695806496 
740	 0,127928788968903 
741	 0,128568880686508 
742	 0,129038357158461 
743	 0,129137134199279 
744	 0,129460382716234 
745	 0,12999649466562 
746	 0,130304070186256 
747	 0,130288159388213 
748	 0,130017624702742 
749	 0,130370570607294 
750	 0,131076614557997 
751	 0,131561700150302 
752	 0,131858272473274 
753	 0,132029893534391 
754	 0,132358930357746 
755	 0,132716451130029 
756	 0,132970011877886 
757	 0,132799222046139 
758	 0,132534499204373 
759	 0,132958101064035 
760	 0,133175571734481 
761	 0,133041492226865 
762	 0,133299993277298 
763	 0,133782168368075 
764	 0,134268774135666 
765	 0,134444989277327 
766	 0,134364686117501 
767	 0,13427878016079 
768	 0,134553819566788 
769	 0,135227305244474 
770	 0,135502137218243 
771	 0,135551750914288 
772	 0,135668679046902 
773	 0,135925405197522 
774	 0,136134493176095 
775	 0,135528740238895 
776	 0,135511118088251 
777	 0,136604279845269 
778	 0,136933720561347 
779	 0,13668828353212 
780	 0,136467895098152 
781	 0,136369547615982 
782	 0,136522210310835 
783	 0,137182317553307 
784	 0,137678213947228 
785	 0,137597230097608 
786	 0,137556649563714 
787	 0,137547541645186 
788	 0,137349788031374 
789	 0,137678307849943 
790	 0,138449303280594 
791	 0,138378254582936 
792	 0,138228253407514 
793	 0,138595870219728 
794	 0,1387458819404 
795	 0,138738318411835 
796	 0,138957393898226 
797	 0,139148609872935 
798	 0,139255525694327 
799	 0,139427820665797 
800	 0,139566565099021 
801	 0,139580524585122 
802	 0,139595392156943 
803	 0,139666952817514 
804	 0,139873265699698 
805	 0,140030092930386 
806	 0,140137989705755 
807	 0,140654952805195 
808	 0,14104052510599 
809	 0,140728815124192 
810	 0,140666693633705 
811	 0,141002308400912 
812	 0,141582789714641 
813	 0,141985663318069 
814	 0,142086518873487 
815	 0,142510345996197 
816	 0,142869389430493 
817	 0,142664969307746 
818	 0,142670260024839 
819	 0,142926154656089 
820	 0,142964009190928 
821	 0,14313075945152 
822	 0,143525664685667 
823	 0,143687215152837 
824	 0,143801272571463 
825	 0,144160244739138 
826	 0,144522235215566 
827	 0,144708975940079 
828	 0,144258166915471 
829	 0,144337236725453 
830	 0,145319366651662 
831	 0,145237252410072 
832	 0,144699681695579 
833	 0,144820094124297 
834	 0,145524534347436 
835	 0,146352415100275 
836	 0,145808946650762 
837	 0,145439431654364 
838	 0,145974957689375 
839	 0,146112626519064 
840	 0,146023607958411 
841	 0,146147312855948 
842	 0,146343761357418 
843	 0,146574326251204 
844	 0,14683384121931 
845	 0,146929268079984 
846	 0,14682320669125 
847	 0,147100362599149 
848	 0,147360806347272 
849	 0,146963963699466 
850	 0,146786005250984 
851	 0,146955351264001 
852	 0,147112386659836 
853	 0,147232096252016 
854	 0,147271467512942 
855	 0,147079744344584 
856	 0,147043833668751 
857	 0,147690287741635 
858	 0,147926533391276 
859	 0,14774292093865 
860	 0,148121690709304 
861	 0,148101289465343 
862	 0,147397778185847 
863	 0,147530439549065 
864	 0,14820274060794 
865	 0,148804410680395 
866	 0,148989338101405 
867	 0,148788197346915 
868	 0,148602073297839 
869	 0,14863764078424 
870	 0,148948521233291 
871	 0,149021165173145 
872	 0,149210900680955 
873	 0,14996119126525 
874	 0,150002551045584 
875	 0,149483940103278 
876	 0,149602870281715 
877	 0,150094346702945 
878	 0,150789709533357 
879	 0,151344507717739 
880	 0,15156992992054 
881	 0,151338063825719 
882	 0,151283468547153 
883	 0,151465818491408 
884	 0,151571356921115 
885	 0,152147159699634 
886	 0,153107950319598 
887	 0,15310296715014 
888	 0,152650824626242 
889	 0,152360703963259 
890	 0,152584488588166 
891	 0,152943219638601 
892	 0,152343706777905 
893	 0,152579292527353 
894	 0,153817791784809 
895	 0,154097640105576 
896	 0,153971474360415 
897	 0,153969133560303 
898	 0,154370050287573 
899	 0,154801095425611 
900	 0,15450786566841 
901	 0,154267655063908 
902	 0,154368987510042 
903	 0,154986503960393 
904	 0,155461799807024 
905	 0,15537093279723 
906	 0,154951810247744 
907	 0,154567516064559 
908	 0,154667852232684 
909	 0,15537860294951 
910	 0,156380076037017 
911	 0,156724812634057 
912	 0,156489743188185 
913	 0,155869090692682 
914	 0,155842945043349 
915	 0,155916701998648 
916	 0,155487174719694 
917	 0,155689122306399 
918	 0,156328122880515 
919	 0,156370869296932 
920	 0,156280829885542 
921	 0,156203269964834 
922	 0,15612975792637 
923	 0,155998330352181 
924	 0,155796027937129 
925	 0,155897585288452 
926	 0,156214758828504 
927	 0,156473192680508 
928	 0,156898829880572 
929	 0,157303001578575 
930	 0,156825261514842 
931	 0,156390484100156 
932	 0,156494844847285 
933	 0,156504000848306 
934	 0,156157442030944 
935	 0,155254687092035 
936	 0,154971870609209 
937	 0,155287429927929 
938	 0,155422140069843 
939	 0,155005200973665 
940	 0,154085652915182 
941	 0,153947957955214 
942	 0,153556716243694 
943	 0,152161329691454 
944	 0,152515065039423 
945	 0,153720036490798 
946	 0,153315806825416 
947	 0,152687750217157 
948	 0,152085482639566 
949	 0,150931863925264 
950	 0,150196517689481 
951	 0,150316291992988 
952	 0,150137768582569 
953	 0,14975182233073 
954	 0,14942955238409 
955	 0,149482081483798 
956	 0,149446233023121 
957	 0,147928822301148 
958	 0,146699958852808 
959	 0,14623307943488 
960	 0,145369235764183 
961	 0,145252949102312 
962	 0,146458787346539 
963	 0,145919001840647 
964	 0,145250873178764 
965	 0,14751757539681 
966	 0,146905543143981 
967	 0,143780492963906 
968	 0,143918911585174 
969	 0,144335832764909 
970	 0,144197810379209 
971	 0,146168686333262 
972	 0,146926391011482 
973	 0,143815135332374 
974	 0,14297903710804 
975	 0,144212095104588 
976	 0,145141178791783 
977	 0,146771157509227 
978	 0,148327324997839 
979	 0,14662755640129 
980	 0,145124553919238 
981	 0,145255982374672 
982	 0,143964356488635 
983	 0,143221451703367 
984	 0,145079353409987 
985	 0,146931414104855 
986	 0,148176726824802 
987	 0,148749280502887 
988	 0,148232984847251 
989	 0,147180194879149 
990	 0,14769541412836 
991	 0,148987617021634 
992	 0,150274919693637 
993	 0,149837528169527 
994	 0,148848130766963 
995	 0,148783306692804 
996	 0,15055479549513 
997	 0,152213453016966 
998	 0,149611565099491 
999	 0,149748698982908 
1000	 0,152840159664169 
1001	 0,151937888523909 
1002	 0,151038983016599 
1003	 0,15197973659677 
1004	 0,153090851177282 
1005	 0,153944771194745 
1006	 0,154238509619945 
1007	 0,154007626118212 
1008	 0,153741238994676 
1009	 0,154228294567122 
1010	 0,155847406634391 
1011	 0,157189683580962 
1012	 0,152808973104625 
1013	 0,152517658222954 
1014	 0,158720253167969 
1015	 0,159133258318277 
1016	 0,158285907995653 
1017	 0,159899139199633 
1018	 0,155812685022602 
1019	 0,152244313185077 
1020	 0,159683741373616 
1021	 0,163321989323695 
1022	 0,16190377559582 
1023	 0,162018165449226 
1024	 0,16226825997577 
1025	 0,16232204252228 
1026	 0,161621196057396 
1027	 0,161754700826755 
1028	 0,163569747244685 
1029	 0,164853698070633 
1030	 0,166654707811368 
1031	 0,170122398503549 
1032	 0,170195397671483 
1033	 0,16645416174834 
1034	 0,159691225482857 
1035	 0,161253328921036 
1036	 0,170811405039577 
1037	 0,175042681770142 
1038	 0,171054564779724 
1039	 0,161314824113156 
1040	 0,167391261154051 
1041	 0,174772411117476 
1042	 0,171461988249545 
1043	 0,170680512646767 
1044	 0,170129601166069 
1045	 0,164839273913578 
1046	 0,166786900754827 
1047	 0,173378581214638 
1048	 0,172493188580768 
1049	 0,16972803789135 
1050	 0,167801027748509 
1051	 0,17125582317964 
1052	 0,17230600160228 
1053	 0,168590291865388 
1054	 0,16955068882146 
1055	 0,176494046014819 
1056	 0,187415619055124 
1057	 0,182828167469907 
1058	 0,17042391659969 
1059	 0,165587166996887 
1060	 0,163655714686778 
1061	 0,166362977955564 
1062	 0,179455491694972 
1063	 0,18347405691791 
1064	 0,177924809700627 
1065	 0,186000687027776 
1066	 0,185033159809519 
1067	 0,169984506853515 
1068	 0,17213763600627 
1069	 0,173495611777772 
1070	 0,162573670127447 
1071	 0,170122622154274 
1072	 0,177239876902892 
1073	 0,159569671895666 
1074	 0,149026464312354 
1075	 0,152180413343975 
