Wavelength	CAMFROU00861.asd
325	 0,117444643117596 
326	 0,361307513257145 
327	 0,439521828388714 
328	 0,365221864047769 
329	 0,255033080815965 
330	 0,132295971771104 
331	-5,26951085502155E-03 
332	 3,86209268334623E-02 
333	 0,189185964855199 
334	 0,190895426240069 
335	 0,149565960541009 
336	 0,10484849021361 
337	 0,096439770002486 
338	 0,111000623537731 
339	 0,133006950494074 
340	 0,122207576794831 
341	 8,62267721204405E-02 
342	 7,70725439345624E-02 
343	 6,05813369542326E-02 
344	 3,30188470671122E-02 
345	 4,29180397644828E-02 
346	 8,78237431670899E-02 
347	 0,163761557643552 
348	 0,16866382665904 
349	 0,105250792660741 
350	 4,54828938837054E-02 
351	 2,12602278632892E-02 
352	 3,43107104375827E-02 
353	 0,049580872864769 
354	 6,36328490462457E-02 
355	 7,89392935214445E-02 
356	 6,16841962465079E-02 
357	 2,25028787110038E-02 
358	 4,74170691641945E-03 
359	 2,51941193446204E-02 
360	 7,17639645686707E-02 
361	 4,49548282562934E-02 
362	 2,47646604984708E-03 
363	 4,16148729847788E-02 
364	 5,09380813180973E-02 
365	 2,34435689400676E-02 
366	 2,91409549372677E-02 
367	 3,10942581577895E-02 
368	 1,03700908295511E-02 
369	 2,57354782139916E-02 
370	 5,61741474672715E-02 
371	 6,49126883956115E-02 
372	 5,04532383309573E-02 
373	 2,15066477736404E-02 
374	 1,74756545306997E-02 
375	 2,68862385912103E-02 
376	 3,64572626262349E-02 
377	 3,44519969368985E-02 
378	 2,66000965443467E-02 
379	 2,57308905925052E-02 
380	 4,34870204534002E-02 
381	 7,17175035115899E-02 
382	 6,07422454943286E-02 
383	 4,04054946427828E-02 
384	 4,00530339018356E-02 
385	 2,87453256494829E-02 
386	 9,60795455808299E-03 
387	 4,40251344154289E-03 
388	 1,83524505413087E-02 
389	 0,043338693152666 
390	 3,56521249124894E-02 
391	 1,83152722113188E-02 
392	 2,33007080636527E-02 
393	 2,04485182177868E-02 
394	 0,01197308789555 
395	 2,42440084253385E-02 
396	 3,18776099452939E-02 
397	 2,39199027254424E-02 
398	 2,16911351589027E-02 
399	 2,20073752957754E-02 
400	 1,64122479639947E-02 
401	 1,71582121260055E-02 
402	 2,43065168041637E-02 
403	 2,71062878581151E-02 
404	 0,026948399579691 
405	 2,59783106558653E-02 
406	 3,49026039501078E-02 
407	 4,49532471552016E-02 
408	 3,54780271312696E-02 
409	 2,82250745056086E-02 
410	 2,70206271956783E-02 
411	 1,74579792074994E-02 
412	 8,57181387890079E-03 
413	 9,55833598233565E-03 
414	 1,50025499432729E-02 
415	 2,09224551962438E-02 
416	 2,09958966457266E-02 
417	 0,022051319416962 
418	 2,58116316798224E-02 
419	 2,52651791358391E-02 
420	 2,33442020715815E-02 
421	 2,45297003420314E-02 
422	 0,023388509066785 
423	 2,02606486452427E-02 
424	 1,98584899621202E-02 
425	 2,05584343569455E-02 
426	 2,13106112177421E-02 
427	 2,27853454993586E-02 
428	 2,28604014579068E-02 
429	 1,70978016502783E-02 
430	 1,73310931373273E-02 
431	 2,35525426505827E-02 
432	 1,95885251599848E-02 
433	 1,39278035518556E-02 
434	 1,45193456821409E-02 
435	 1,59601061716697E-02 
436	 1,65995793062941E-02 
437	 1,41601039714786E-02 
438	 1,46637572250517E-02 
439	 1,96172625169795E-02 
440	 2,26429075648729E-02 
441	 2,25416797667339E-02 
442	 1,86492494927499E-02 
443	 1,75395584159774E-02 
444	 1,90178735666926E-02 
445	 1,60169098021184E-02 
446	 1,47169556269647E-02 
447	 1,82318374803277E-02 
448	 1,77200320329856E-02 
449	 1,51413079383333E-02 
450	 1,62735149455705E-02 
451	 1,85901730828521E-02 
452	 2,05220257148003E-02 
453	 1,87408551366684E-02 
454	 1,62335829138086E-02 
455	 1,59683381297606E-02 
456	 1,84887909000356E-02 
457	 2,16279800539255E-02 
458	 1,96137553107853E-02 
459	 1,74555612258727E-02 
460	 1,72495809701098E-02 
461	 1,74322465010227E-02 
462	 1,71359923157826E-02 
463	 1,53822735570925E-02 
464	 1,56081340673252E-02 
465	 0,017588570896377 
466	 1,73114394626814E-02 
467	 1,72109496662136E-02 
468	 1,86381616592889E-02 
469	 1,84455776482321E-02 
470	 1,72738336123659E-02 
471	 1,72394436279173E-02 
472	 0,017068048652663 
473	 1,64248453919509E-02 
474	 1,50420099559771E-02 
475	 1,56685251628446E-02 
476	 2,06034410253023E-02 
477	 2,09293186477945E-02 
478	 1,72500267404383E-02 
479	 1,62434619182861E-02 
480	 1,71876329092566E-02 
481	 1,91748427765262E-02 
482	 1,73947781093324E-02 
483	 1,49690172535756E-02 
484	 1,72484089786599E-02 
485	 1,84469863094265E-02 
486	 1,75589891819003E-02 
487	 1,68684646559164E-02 
488	 1,71595269731197E-02 
489	 1,87929776983199E-02 
490	 1,94655942047923E-02 
491	 0,0186869687326 
492	 1,59255101969895E-02 
493	 1,48926606484509E-02 
494	 1,63748556305979E-02 
495	 1,62273399313051E-02 
496	 1,58384656820021E-02 
497	 1,70820258353539E-02 
498	 1,66254315484038E-02 
499	 1,50365803776305E-02 
500	 1,63862957254067E-02 
501	 1,76884848127321E-02 
502	 0,017265606763181 
503	 1,61094587351133E-02 
504	 1,53683857965206E-02 
505	 1,68619109317315E-02 
506	 1,75411803795022E-02 
507	 1,67823301444167E-02 
508	 1,63221925179938E-02 
509	 1,58689890264074E-02 
510	 1,51271092822227E-02 
511	 1,44979057329889E-02 
512	 1,44518103363682E-02 
513	 1,60966634762029E-02 
514	 1,73111929560562E-02 
515	 1,71548261544335E-02 
516	 1,62464992586184E-02 
517	 1,57671197741467E-02 
518	 0,017253592664128 
519	 1,74310112226778E-02 
520	 1,61172545761356E-02 
521	 1,58028881479731E-02 
522	 1,64130458731667E-02 
523	 1,76716622483789E-02 
524	 1,75411987751024E-02 
525	 1,64893292727558E-02 
526	 1,63399450632409E-02 
527	 0,016008564427501 
528	 1,54763611783792E-02 
529	 0,016474075417419 
530	 1,75011309608096E-02 
531	 1,67567765785864E-02 
532	 1,65424830033832E-02 
533	 1,69801185261314E-02 
534	 1,67504675500848E-02 
535	 1,63137170192432E-02 
536	 0,015998149158101 
537	 0,016111009020789 
538	 1,66155164688227E-02 
539	 1,74622698036639E-02 
540	 1,75805402461647E-02 
541	 1,67235448314721E-02 
542	 1,53757343841396E-02 
543	 1,49083380445366E-02 
544	 1,64881715111411E-02 
545	 1,69985358720967E-02 
546	 1,64298738600227E-02 
547	 1,66944075876506E-02 
548	 1,70129945741608E-02 
549	 1,70009988269691E-02 
550	 1,65326826649818E-02 
551	 1,60382152951977E-02 
552	 1,61734974492741E-02 
553	 1,66863767743384E-02 
554	 1,72526853011077E-02 
555	 1,69940323305305E-02 
556	 1,64149476205755E-02 
557	 1,60163967479254E-02 
558	 1,64700863239367E-02 
559	 1,71083412059772E-02 
560	 1,58145953203561E-02 
561	 1,50809670586243E-02 
562	 1,57994159554889E-02 
563	 1,67179723307128E-02 
564	 1,71843878755195E-02 
565	 1,65181599485927E-02 
566	 1,64031434378651E-02 
567	 1,69236369792285E-02 
568	 1,66945472645108E-02 
569	 1,63088675000872E-02 
570	 1,62102325212203E-02 
571	 0,016482688311589 
572	 1,67449769231877E-02 
573	 1,59132589260865E-02 
574	 1,66746720906163E-02 
575	 1,91356520805197E-02 
576	 1,85726908856877E-02 
577	 1,70052756845931E-02 
578	 0,017069590109516 
579	 1,77777426923524E-02 
580	 1,84926412693338E-02 
581	 1,77881104697048E-02 
582	 1,74425725289788E-02 
583	 1,83083325291205E-02 
584	 1,83323147852761E-02 
585	 1,80816836545856E-02 
586	 1,90533963082836E-02 
587	 1,97417085314877E-02 
588	 1,97157948284925E-02 
589	 1,92019488923315E-02 
590	 1,90048125337467E-02 
591	 0,019807410928699 
592	 2,03625816029891E-02 
593	 2,04433900463549E-02 
594	 2,02108250742947E-02 
595	 0,019726766779538 
596	 1,92188543316931E-02 
597	 0,019754901335378 
598	 2,06171052498273E-02 
599	 0,020600825810535 
600	 2,02657781191523E-02 
601	 1,99113454951302E-02 
602	 2,01159023518587E-02 
603	 2,02466152214244E-02 
604	 1,98274518863423E-02 
605	 1,94992183059712E-02 
606	 1,93628176353449E-02 
607	 1,94241402319384E-02 
608	 1,92618907837032E-02 
609	 0,018797811505857 
610	 1,86353147465753E-02 
611	 1,86856346214538E-02 
612	 1,87715192874155E-02 
613	 1,84926413661984E-02 
614	 1,79583450040713E-02 
615	 1,78222395949815E-02 
616	 1,80944632711393E-02 
617	 1,86578213585192E-02 
618	 1,84141872655468E-02 
619	 1,77918075360183E-02 
620	 1,79886023442682E-02 
621	 1,79252552957497E-02 
622	 1,74939969692333E-02 
623	 1,78511061930213E-02 
624	 1,85303675442941E-02 
625	 1,89539639394949E-02 
626	 1,83695963331303E-02 
627	 1,72512754687732E-02 
628	 1,73633394332761E-02 
629	 1,80057422473852E-02 
630	 0,018700309392722 
631	 1,86351959913303E-02 
632	 1,84617607944177E-02 
633	 1,94504280371394E-02 
634	 1,95827962904425E-02 
635	 1,87513242901805E-02 
636	 1,89900881203075E-02 
637	 1,98040838083217E-02 
638	 2,06543582258205E-02 
639	 2,09153392354795E-02 
640	 2,06703381963162E-02 
641	 2,04197226258019E-02 
642	 2,04182245607881E-02 
643	 2,07690327499256E-02 
644	 2,11537435199411E-02 
645	 2,14858872706212E-02 
646	 0,021706353770065 
647	 2,15739899900239E-02 
648	 2,12030108529623E-02 
649	 2,12351147912857E-02 
650	 2,10702637447616E-02 
651	 2,03754919351802E-02 
652	 1,99639671663683E-02 
653	 1,98953542065806E-02 
654	 2,00467772830213E-02 
655	 2,00683201637574E-02 
656	 1,98721739139327E-02 
657	 1,99011083684811E-02 
658	 1,95347578303277E-02 
659	 1,81757162944674E-02 
660	 1,75929534466656E-02 
661	 1,77970033223357E-02 
662	 1,76877949913586E-02 
663	 1,71745245141597E-02 
664	 1,63824544023341E-02 
665	 1,67839625402209E-02 
666	 1,75171929862709E-02 
667	 1,69796115452554E-02 
668	 1,66764404884827E-02 
669	 1,68133624011171E-02 
670	 1,63806388580255E-02 
671	 1,62207617833688E-02 
672	 1,69092646463623E-02 
673	 1,67082083043466E-02 
674	 1,59932660911242E-02 
675	 1,64412234869776E-02 
676	 1,66996017707695E-02 
677	 1,64865382745209E-02 
678	 1,71741794024613E-02 
679	 1,77357606970677E-02 
680	 1,68696515090734E-02 
681	 0,016911739130113 
682	 1,78173150394359E-02 
683	 1,75809217304217E-02 
684	 1,72598255441145E-02 
685	 1,74853124094934E-02 
686	 1,80313838958815E-02 
687	 1,86312103737034E-02 
688	 1,88397167821813E-02 
689	 1,93942968238194E-02 
690	 2,03533408476184E-02 
691	 2,08841190349236E-02 
692	 2,15052750140922E-02 
693	 2,27211464735283E-02 
694	 2,44917792086911E-02 
695	 2,66629038114449E-02 
696	 2,88688887045599E-02 
697	 3,12345593013978E-02 
698	 0,033878367791773 
699	 3,71097882902971E-02 
700	 4,10047698355668E-02 
701	 4,56014751935689E-02 
702	 5,01594359360299E-02 
703	 5,45470798209938E-02 
704	 5,90628873050836E-02 
705	 6,38995446476649E-02 
706	 6,90673825586082E-02 
707	 7,35746010223308E-02 
708	 7,78461219189394E-02 
709	 0,082944135655675 
710	 0,087780577165908 
711	 9,21311167376117E-02 
712	 9,66812143268434E-02 
713	 0,101007156661759 
714	 0,104724712402914 
715	 0,108572397186429 
716	 0,112464068816409 
717	 0,115873432651441 
718	 0,118838327113496 
719	 0,121402135711872 
720	 0,123792054180035 
721	 0,126228272428694 
722	 0,12895089020716 
723	 0,130957976556142 
724	 0,132355751872266 
725	 0,134346012385338 
726	 0,13627081267065 
727	 0,137759386555624 
728	 0,139246352664871 
729	 0,140669842208702 
730	 0,141812481508732 
731	 0,142992680248679 
732	 0,144207659148273 
733	 0,144961713221977 
734	 0,145728464773436 
735	 0,146892240928917 
736	 0,147702376691683 
737	 0,148221051058524 
738	 0,148937408978816 
739	 0,149654356446648 
740	 0,150316483428299 
741	 0,151026848675083 
742	 0,151542742321179 
743	 0,151593780739873 
744	 0,151683476158016 
745	 0,15200982793922 
746	 0,152869922985861 
747	 0,153136046815265 
748	 0,152446035431974 
749	 0,152943418222164 
750	 0,154028100905086 
751	 0,154401493762727 
752	 0,154361859351234 
753	 0,154165016633838 
754	 0,154525615286343 
755	 0,154971462794504 
756	 0,155154022159184 
757	 0,155286763365297 
758	 0,155471412162474 
759	 0,155892141730696 
760	 0,155926171488805 
761	 0,155638291054574 
762	 0,156354412963756 
763	 0,157163603691923 
764	 0,157184093834626 
765	 0,157377372430626 
766	 0,157649243409223 
767	 0,157163509091079 
768	 0,157282870225256 
769	 0,158260987920051 
770	 0,158117013363866 
771	 0,157696512092487 
772	 0,158170551674565 
773	 0,158602723724216 
774	 0,158747085343694 
775	 0,158426027947741 
776	 0,15857838873106 
777	 0,159525657774328 
778	 0,15978766229173 
779	 0,159541327210632 
780	 0,15930188649156 
781	 0,159160002989798 
782	 0,15921092196733 
783	 0,159588103675158 
784	 0,159900670916698 
785	 0,159914823608086 
786	 0,160050436526986 
787	 0,160238755558327 
788	 0,16023979784541 
789	 0,160420376083257 
790	 0,160751599171367 
791	 0,160676300970517 
792	 0,160429948404582 
793	 0,160233797240343 
794	 0,160156244721519 
795	 0,160266914415295 
796	 0,16071366948745 
797	 0,160829573203403 
798	 0,160561531997765 
799	 0,160912544892136 
800	 0,161258881005448 
801	 0,161003786990111 
802	 0,160816479440982 
803	 0,160855920152643 
804	 0,161253701301912 
805	 0,161299322923896 
806	 0,160890563624934 
807	 0,161049998445822 
808	 0,161582324945305 
809	 0,162172298635256 
810	 0,162402972126144 
811	 0,16228766210678 
812	 0,162087998643867 
813	 0,162281122271032 
814	 0,162968991897583 
815	 0,163343792106439 
816	 0,163361773030729 
817	 0,163086537014211 
818	 0,16320895181607 
819	 0,16364338664333 
820	 0,163577044388311 
821	 0,163588083325501 
822	 0,163919644536452 
823	 0,164274049227127 
824	 0,164569559467367 
825	 0,164743390069031 
826	 0,164980120455375 
827	 0,165257697043617 
828	 0,165315568642465 
829	 0,165584983213418 
830	 0,166139704625645 
831	 0,16586831753958 
832	 0,165378826008593 
833	 0,165644488061994 
834	 0,166386313379584 
835	 0,16712809964128 
836	 0,166543926678491 
837	 0,166133650884918 
838	 0,16662340753966 
839	 0,166838262801878 
840	 0,166819482291089 
841	 0,16681408395876 
842	 0,166567959999397 
843	 0,166212093401698 
844	 0,166268929767554 
845	 0,166718821901617 
846	 0,167403256510711 
847	 0,167381221980948 
848	 0,166988722320462 
849	 0,166858047251072 
850	 0,166690082047333 
851	 0,166556810365955 
852	 0,166835039666319 
853	 0,167310954078304 
854	 0,167750284334392 
855	 0,167520178236522 
856	 0,167071212871749 
857	 0,167109416675466 
858	 0,167211117895707 
859	 0,16726922300926 
860	 0,167270470798261 
861	 0,167221296556855 
862	 0,16715223291642 
863	 0,167142115755416 
864	 0,167455012536235 
865	 0,168387699424734 
866	 0,168701521262924 
867	 0,16841049321262 
868	 0,168487922977486 
869	 0,168917183042338 
870	 0,169583648392724 
871	 0,169714564318135 
872	 0,169630750320913 
873	 0,169801270162865 
874	 0,169696529851795 
875	 0,169591473469638 
876	 0,170668204950901 
877	 0,171225187796882 
878	 0,170723076647815 
879	 0,170631362404099 
880	 0,170871179348845 
881	 0,171199425161048 
882	 0,171045773740085 
883	 0,17062148675592 
884	 0,170752204325385 
885	 0,171260802934454 
886	 0,171930457523954 
887	 0,171984831677981 
888	 0,171829512717621 
889	 0,171888238226414 
890	 0,171951404258459 
891	 0,171928481899417 
892	 0,17163828921151 
893	 0,171767016739224 
894	 0,172340300662603 
895	 0,172408178614736 
896	 0,172273071415044 
897	 0,172252808731355 
898	 0,172808854806205 
899	 0,173415514213141 
900	 0,173014521268836 
901	 0,172857129327072 
902	 0,173140675253621 
903	 0,173115510660442 
904	 0,173230901070233 
905	 0,17369720495543 
906	 0,173906799903285 
907	 0,173932219783895 
908	 0,17399005455258 
909	 0,173537980337411 
910	 0,172935790587842 
911	 0,173674972657883 
912	 0,174390630449064 
913	 0,174522699436269 
914	 0,175090305808786 
915	 0,175249950157436 
916	 0,174103494793517 
917	 0,173863381949724 
918	 0,174580967788546 
919	 0,175216058163679 
920	 0,17561898172053 
921	 0,1757226493703 
922	 0,175897929531669 
923	 0,175722642935181 
924	 0,174956944581615 
925	 0,174779815494586 
926	 0,175339121875644 
927	 0,176570460781275 
928	 0,176860136616095 
929	 0,175966871755902 
930	 0,174878963980068 
931	 0,174565055171938 
932	 0,175428406074149 
933	 0,176068679258525 
934	 0,175604218421998 
935	 0,173279074389441 
936	 0,173014087672295 
937	 0,174395001627542 
938	 0,173633371277834 
939	 0,172530756011582 
940	 0,171798681682209 
941	 0,171533658260017 
942	 0,171575279328636 
943	 0,171697608411447 
944	 0,171219353579076 
945	 0,170756052686595 
946	 0,171679004693607 
947	 0,172071386744837 
948	 0,171438446849482 
949	 0,170256829463939 
950	 0,168831186401998 
951	 0,167597802815924 
952	 0,167782358488512 
953	 0,168282111457667 
954	 0,167672900309513 
955	 0,167615307151225 
956	 0,16799572249452 
957	 0,167880337864311 
958	 0,166076103028855 
959	 0,163169430907356 
960	 0,163772591322663 
961	 0,165062524833109 
962	 0,164844820757659 
963	 0,164966872122138 
964	 0,165361781339234 
965	 0,165587845142362 
966	 0,165880773841764 
967	 0,165792468994057 
968	 0,16356801056943 
969	 0,162767017321091 
970	 0,1644610853667 
971	 0,165467573928982 
972	 0,165339879865464 
973	 0,163970225717311 
974	 0,162344037593199 
975	 0,161690536675847 
976	 0,163743965689105 
977	 0,165033317324029 
978	 0,164957375194261 
979	 0,165115708667931 
980	 0,165980741823035 
981	 0,167227796229273 
982	 0,165212787833291 
983	 0,163695023527448 
984	 0,166367670557454 
985	 0,166716725264167 
986	 0,165525541110047 
987	 0,166557933392005 
988	 0,168330607025823 
989	 0,169784667526611 
990	 0,168603206472187 
991	 0,16799949161077 
992	 0,169355106510627 
993	 0,169812526215728 
994	 0,169334358627758 
995	 0,168383093913208 
996	 0,170172026069849 
997	 0,172924604117551 
998	 0,172097777039238 
999	 0,171283866796409 
1000	 0,171488788575971 
1001	 0,172149968103234 
1002	 0,174281481231061 
1003	 0,177476345784187 
1004	 0,176608475384372 
1005	 0,175112411007312 
1006	 0,176374110752131 
1007	 0,17467005941794 
1008	 0,173266379176202 
1009	 0,179416166869301 
1010	 0,184165798430815 
1011	 0,184943990725578 
1012	 0,181832592492306 
1013	 0,180007832859547 
1014	 0,181668745609657 
1015	 0,183957412065614 
1016	 0,185787287823551 
1017	 0,185948170973139 
1018	 0,180473144614862 
1019	 0,176747078682192 
1020	 0,186010700282013 
1021	 0,188875497702866 
1022	 0,184822034307874 
1023	 0,185867997656663 
1024	 0,186148996574138 
1025	 0,184789707777432 
1026	 0,185859385077125 
1027	 0,186919185864156 
1028	 0,186587449769225 
1029	 0,187465878492842 
1030	 0,189270982981509 
1031	 0,191376276976937 
1032	 0,195379545371742 
1033	 0,196388301825605 
1034	 0,184189069956124 
1035	 0,182797160371263 
1036	 0,193528095182951 
1037	 0,193804902224051 
1038	 0,191545741828128 
1039	 0,190564325842636 
1040	 0,193051862775972 
1041	 0,193670401312808 
1042	 0,189292765514774 
1043	 0,193153910793108 
1044	 0,197791878103919 
1045	 0,191328160773017 
1046	 0,193377245518356 
1047	 0,201209127997133 
1048	 0,198462895290192 
1049	 0,193602801407444 
1050	 0,191632462630744 
1051	 0,20298339220852 
1052	 0,205643564824004 
1053	 0,193429774019266 
1054	 0,197881875642484 
1055	 0,208817175285736 
1056	 0,214617233599061 
1057	 0,210971742220457 
1058	 0,202451563682945 
1059	 0,197257419156803 
1060	 0,197980548146214 
1061	 0,201985752306883 
1062	 0,201738016683015 
1063	 0,199157584935958 
1064	 0,198305353723419 
1065	 0,21301593973489 
1066	 0,216166524175295 
1067	 0,201152302769859 
1068	 0,205251024699112 
1069	 0,210779780124526 
1070	 0,204642616148369 
1071	 0,206230905358817 
1072	 0,207155702782475 
1073	 0,196306197217502 
1074	 0,193887678869523 
1075	 0,198770859909182 
