Wavelength	CAMFROU00479.asd
325	 0,199662915885629 
326	 0,142713383153363 
327	 5,43393347019603E-02 
328	-9,16592919647164E-03 
329	 5,38063516301988E-02 
330	 0,10634394794488 
331	 6,02449425791281E-02 
332	 1,24351589143954E-02 
333	 2,25043856438288E-04 
334	 4,25924288547285E-02 
335	 8,43242936972796E-02 
336	 9,38825102024557E-02 
337	 3,36816443057973E-03 
338	-2,07458092992563E-02 
339	 0,119083886503 
340	 9,14981591038361E-02 
341	-5,53876472588704E-02 
342	-6,49361842156809E-03 
343	-5,67140044269618E-03 
344	-8,28183196970791E-02 
345	 8,80932266240173E-03 
346	 0,106146394402907 
347	 0,101360690065734 
348	 5,95647891366611E-02 
349	 1,78689121056188E-02 
350	 6,79842866731442E-02 
351	 7,14878504706221E-02 
352	 4,41933175256331E-03 
353	 3,50239572670377E-02 
354	 8,59739737572585E-02 
355	 6,52740195019425E-02 
356	 0,037909394469951 
357	 1,58042795795798E-02 
358	-1,41144412260209E-02 
359	 7,87763976288683E-03 
360	 8,13819862724153E-02 
361	 5,06635395687937E-02 
362	-1,09175141215737E-02 
363	 2,30052859670911E-02 
364	 3,56753430213855E-02 
365	 1,58085437185715E-02 
366	 1,99127153712955E-02 
367	 2,77285145818128E-02 
368	 2,61857990518325E-02 
369	 2,08521777485146E-02 
370	 2,44026302176595E-02 
371	 5,80025360971322E-02 
372	 5,93137863208695E-02 
373	 2,17518565112127E-02 
374	-1,72102377031744E-03 
375	-1,5587498377319E-03 
376	 0,024842688857885 
377	 4,70565893084426E-02 
378	 5,28678059363042E-02 
379	 1,77835690746509E-02 
380	 1,29286327062985E-02 
381	 5,10927933437729E-02 
382	 0,062905950701269 
383	 5,47199631945395E-02 
384	 3,73664973797746E-02 
385	 2,15836251049569E-02 
386	 1,36927336347681E-02 
387	 2,83339017116653E-02 
388	 0,036475093719935 
389	 0,029286588707819 
390	 0,029201091228498 
391	 2,82670089940052E-02 
392	 1,56345807581877E-02 
393	 1,87256385281576E-02 
394	 0,033931982968613 
395	 3,38722949919578E-02 
396	 3,03322541510195E-02 
397	 3,00642909174762E-02 
398	 3,68099763050541E-02 
399	 3,98953294147572E-02 
400	 2,25083695579574E-02 
401	 1,21166824702347E-02 
402	 1,41094134228512E-02 
403	 2,06135240992894E-02 
404	 2,33403625859286E-02 
405	 0,017890156502495 
406	 1,56157074459231E-02 
407	 1,91380969609454E-02 
408	 3,14639479538028E-02 
409	 3,40049669868841E-02 
410	 2,41896193698842E-02 
411	 1,62752569723966E-02 
412	 1,38355118212961E-02 
413	 1,91122864334724E-02 
414	 2,30366994119286E-02 
415	 2,42592294084582E-02 
416	 2,44680990782011E-02 
417	 2,56537556153382E-02 
418	 2,77620643987753E-02 
419	 2,49333252572927E-02 
420	 2,08521090786571E-02 
421	 2,08058005673149E-02 
422	 2,26832300467627E-02 
423	 2,46686513049946E-02 
424	 2,21333248744011E-02 
425	 2,22770494349694E-02 
426	 2,80949930909434E-02 
427	 2,54939788275249E-02 
428	 1,92151223466169E-02 
429	 2,05018048376524E-02 
430	 2,40488236235902E-02 
431	 2,69780206433631E-02 
432	 2,41424855642368E-02 
433	 2,06372487384758E-02 
434	 0,021097837284242 
435	 2,26168756455491E-02 
436	 2,31406874283986E-02 
437	 1,80700265724558E-02 
438	 1,70715103884299E-02 
439	 2,24828799489722E-02 
440	 2,29787881974763E-02 
441	 1,99182313333134E-02 
442	 1,63206392595366E-02 
443	 1,86018539219654E-02 
444	 2,43102847601274E-02 
445	 1,96657821267835E-02 
446	 1,49461270479586E-02 
447	 1,63837012261839E-02 
448	 1,73963520255599E-02 
449	 1,74021297680426E-02 
450	 0,016742994023163 
451	 1,87167071469048E-02 
452	 2,26827644646208E-02 
453	 2,12261080065581E-02 
454	 1,80278905760645E-02 
455	 1,69257867415439E-02 
456	 1,94084866199164E-02 
457	 0,023287112609172 
458	 2,20411741386154E-02 
459	 2,13857219232843E-02 
460	 2,29978575706279E-02 
461	 2,13313369855071E-02 
462	 1,82312721773313E-02 
463	 1,67380484404359E-02 
464	 1,80244176914062E-02 
465	 2,07599735838059E-02 
466	 1,92745490937666E-02 
467	 1,74977066019621E-02 
468	 1,80094002218215E-02 
469	 0,018731081308108 
470	 1,94756373821475E-02 
471	 0,020491445977843 
472	 2,15005439520726E-02 
473	 2,22364104866686E-02 
474	 2,21459096151872E-02 
475	 2,17616943879582E-02 
476	 0,021633328468831 
477	 2,16087399074116E-02 
478	 2,15818819057901E-02 
479	 2,13485931753944E-02 
480	 2,08674695158281E-02 
481	 2,02832040566225E-02 
482	 2,06939937243044E-02 
483	 2,12168094701946E-02 
484	 2,03886454761468E-02 
485	 2,01059301734851E-02 
486	 0,020399386699895 
487	 1,91539644525102E-02 
488	 1,86262232149708E-02 
489	 0,020384241263982 
490	 2,23064284978285E-02 
491	 2,31171829698497E-02 
492	 2,06995143658861E-02 
493	 1,86358481079542E-02 
494	 1,84219946306055E-02 
495	 0,020148211866107 
496	 0,02144868843823 
497	 1,97503707228462E-02 
498	 1,99533871554366E-02 
499	 2,15048483008625E-02 
500	 1,91015177698169E-02 
501	 1,68533526058939E-02 
502	 1,71436859640532E-02 
503	 1,88842289649709E-02 
504	 2,07642075163304E-02 
505	 2,09239095252275E-02 
506	 0,019888261318565 
507	 1,86577964358848E-02 
508	 2,09328226501693E-02 
509	 2,25496544491481E-02 
510	 1,98789492943743E-02 
511	 1,82847616331773E-02 
512	 1,86153607633152E-02 
513	 2,04260838377686E-02 
514	 2,13175850979226E-02 
515	 2,03829123049845E-02 
516	 1,97075676175641E-02 
517	 1,95901953216959E-02 
518	 2,00989519423528E-02 
519	 2,08387678707381E-02 
520	 2,14244822119958E-02 
521	 2,09554115292906E-02 
522	 2,08323507951685E-02 
523	 2,18936379068098E-02 
524	 0,02162626609993 
525	 2,04565686925752E-02 
526	 2,00972547869931E-02 
527	 2,03809241417664E-02 
528	 2,11198395859808E-02 
529	 2,14105787397813E-02 
530	 2,12800096638937E-02 
531	 2,08660498289284E-02 
532	 2,16715060341268E-02 
533	 2,31288264881649E-02 
534	 2,24019206681693E-02 
535	 2,14262035704476E-02 
536	 2,12825640886851E-02 
537	 2,06973931480059E-02 
538	 2,01724965550058E-02 
539	 2,09602115678909E-02 
540	 2,12915291264838E-02 
541	 2,07480596657882E-02 
542	 0,020176430089232 
543	 1,99259913389212E-02 
544	 2,02645473795178E-02 
545	 2,04599081098098E-02 
546	 0,020497332940908 
547	 2,08773504137697E-02 
548	 2,09687058180084E-02 
549	 2,05446972284871E-02 
550	 2,02790053744414E-02 
551	 2,03209297493151E-02 
552	 2,07755868656054E-02 
553	 2,10664525181972E-02 
554	 2,10911181154735E-02 
555	 2,12821696074856E-02 
556	 2,13380639969085E-02 
557	 0,021031295133821 
558	 2,08809050432017E-02 
559	 2,08110459482902E-02 
560	 2,02960428554489E-02 
561	 2,02055724288741E-02 
562	 2,06807700556159E-02 
563	 2,02417371028521E-02 
564	 1,96436470257857E-02 
565	 2,00361871275017E-02 
566	 2,05959045541828E-02 
567	 2,09853747046768E-02 
568	 2,08718509751546E-02 
569	 2,05384542670884E-02 
570	 2,02464424518637E-02 
571	 2,03749121436675E-02 
572	 2,07994227646813E-02 
573	 2,10830673597642E-02 
574	 2,15911133985362E-02 
575	 2,22911033073939E-02 
576	 2,25043593763605E-02 
577	 0,022344568884857 
578	 0,022015482439324 
579	 2,22482441219548E-02 
580	 0,022771636938401 
581	 2,20369084613776E-02 
582	 2,18264392016898E-02 
583	 2,29544725637867E-02 
584	 2,31306837943671E-02 
585	 2,29348185807364E-02 
586	 2,39638376878772E-02 
587	 2,45260697299505E-02 
588	 2,42957179752005E-02 
589	 2,42498676883058E-02 
590	 2,43105481543164E-02 
591	 2,43748445983087E-02 
592	 2,46673704974363E-02 
593	 2,49434148308581E-02 
594	 2,44087267312611E-02 
595	 2,39591403676335E-02 
596	 2,40429670379778E-02 
597	 2,44877987708685E-02 
598	 2,50211489829156E-02 
599	 2,52871425732618E-02 
600	 2,54619510585761E-02 
601	 2,54800898620519E-02 
602	 2,49563393832339E-02 
603	 2,43280481193654E-02 
604	 2,39798527848131E-02 
605	 2,40775049985324E-02 
606	 2,43452754459333E-02 
607	 0,024066961657531 
608	 2,36764008005036E-02 
609	 2,33809390791995E-02 
610	 2,33994973899197E-02 
611	 2,34427283726987E-02 
612	 2,31348525939064E-02 
613	 2,30626684769545E-02 
614	 2,32431065744681E-02 
615	 2,32944746836922E-02 
616	 2,30823567667304E-02 
617	 2,25477840784648E-02 
618	 0,02192488204578 
619	 2,16007411091964E-02 
620	 2,22708775443092E-02 
621	 0,022713284493719 
622	 2,26723067602014E-02 
623	 2,31465066893984E-02 
624	 2,37575395253264E-02 
625	 0,024029280527133 
626	 2,30449328710908E-02 
627	 2,15376013409986E-02 
628	 2,21086576477805E-02 
629	 2,30904713285924E-02 
630	 2,35412948556282E-02 
631	 2,32637635169239E-02 
632	 2,29934367994989E-02 
633	 2,39819811275156E-02 
634	 2,46742291225439E-02 
635	 2,46760917966152E-02 
636	 2,43784434321816E-02 
637	 2,43237070009022E-02 
638	 2,49388098212493E-02 
639	 2,57135952712788E-02 
640	 2,62626862860295E-02 
641	 2,58863886355941E-02 
642	 2,55085410726644E-02 
643	 2,55824098018638E-02 
644	 2,62556604220943E-02 
645	 2,68150334935193E-02 
646	 2,63388308148688E-02 
647	 2,60336663237917E-02 
648	 2,61366435329402E-02 
649	 2,63173736182903E-02 
650	 2,64182404668146E-02 
651	 2,62824638525843E-02 
652	 2,55081391256815E-02 
653	 2,47162608510461E-02 
654	 0,025247863262566 
655	 0,025966004175635 
656	 2,62387020042359E-02 
657	 2,52293282215498E-02 
658	 2,36778243409774E-02 
659	 2,24539147201035E-02 
660	 2,26052514652958E-02 
661	 2,35004824871839E-02 
662	 2,26022591735073E-02 
663	 2,17137439233047E-02 
664	 2,17227799610995E-02 
665	 2,20485085948206E-02 
666	 0,022369644701813 
667	 2,23224723336782E-02 
668	 2,18764301012467E-02 
669	 2,11978628554508E-02 
670	 2,08904360905954E-02 
671	 2,09241162690276E-02 
672	 2,11906147010523E-02 
673	 2,08147439929178E-02 
674	 2,01989558701689E-02 
675	 2,07625158017506E-02 
676	 2,10394926558688E-02 
677	 0,020619380770186 
678	 2,04238684145381E-02 
679	 2,05022992917628E-02 
680	 2,08161049593068E-02 
681	 2,13544037186777E-02 
682	 2,18490696812448E-02 
683	 2,14648701436525E-02 
684	 0,021375464616471 
685	 2,21713084461587E-02 
686	 2,24786644992918E-02 
687	 2,26042749358463E-02 
688	 2,34230297659392E-02 
689	 2,42476093008226E-02 
690	 2,49374462065423E-02 
691	 2,57529161047045E-02 
692	 2,68838977210955E-02 
693	 2,85019200510471E-02 
694	 3,06842690635468E-02 
695	 3,33047135639164E-02 
696	 3,59893036261151E-02 
697	 3,90878352538297E-02 
698	 4,27656754991539E-02 
699	 4,70689051049651E-02 
700	 5,17217846269759E-02 
701	 5,63573614776003E-02 
702	 0,0619103470265 
703	 6,82327806615534E-02 
704	 7,41053841717782E-02 
705	 7,99318056403294E-02 
706	 8,59383348835684E-02 
707	 9,19008601000879E-02 
708	 9,78568339828431E-02 
709	 0,103884707761738 
710	 0,110037211135172 
711	 0,11618215680062 
712	 0,12170831950605 
713	 0,127057075086795 
714	 0,132644454609195 
715	 0,138241242085798 
716	 0,143465546243043 
717	 0,147484656605073 
718	 0,15132304133414 
719	 0,155395227455515 
720	 0,15931177353811 
721	 0,16293093648304 
722	 0,16612817492108 
723	 0,169203470040717 
724	 0,172224286976388 
725	 0,175092021566517 
726	 0,177800999517517 
727	 0,180278684691365 
728	 0,181927944863796 
729	 0,18315048641416 
730	 0,184762988679249 
731	 0,18654414176586 
732	 0,188391742792913 
733	 0,190157953616671 
734	 0,191486248059303 
735	 0,192138431618673 
736	 0,193042677748929 
737	 0,194225788103071 
738	 0,195318867815485 
739	 0,196157301318895 
740	 0,196696804113722 
741	 0,1971436089417 
742	 0,197828166355195 
743	 0,199078909174945 
744	 0,199695911847512 
745	 0,199702836042792 
746	 0,200100690152199 
747	 0,200453687109581 
748	 0,200608508665524 
749	 0,201052531432963 
750	 0,20174910833479 
751	 0,20257200093325 
752	 0,202980048328461 
753	 0,203005396172613 
754	 0,203436085092491 
755	 0,203873465312337 
756	 0,204023059998979 
757	 0,204038227973989 
758	 0,204070136654809 
759	 0,204387048432737 
760	 0,204537063947361 
761	 0,20450057619651 
762	 0,20490047151604 
763	 0,205470746582527 
764	 0,205913487556812 
765	 0,206042361607925 
766	 0,205997745442474 
767	 0,206229514348673 
768	 0,206566538364774 
769	 0,206910417282096 
770	 0,207065270017334 
771	 0,207157076210584 
772	 0,207355957309734 
773	 0,207670987814778 
774	 0,207945365077183 
775	 0,207644019175311 
776	 0,207608107426479 
777	 0,208176799350577 
778	 0,208380115793287 
779	 0,208329693090158 
780	 0,208354928651404 
781	 0,208354620878983 
782	 0,208385704228523 
783	 0,208704251444269 
784	 0,208971311094739 
785	 0,208978987669874 
786	 0,209053690969584 
787	 0,209078231119254 
788	 0,208737997870502 
789	 0,208703606545914 
790	 0,209081221009316 
791	 0,20941292561001 
792	 0,209533699262718 
793	 0,209333657950436 
794	 0,208956841564273 
795	 0,208782869316968 
796	 0,209577339905728 
797	 0,210082340005426 
798	 0,209969975235349 
799	 0,210045351794633 
800	 0,209972925053432 
801	 0,209475309186848 
802	 0,20968986767496 
803	 0,210296775449384 
804	 0,20985887704155 
805	 0,209775605091536 
806	 0,210400857869636 
807	 0,210724212136774 
808	 0,210801324064016 
809	 0,210776333340622 
810	 0,210737692306658 
811	 0,210793910874503 
812	 0,211156077355916 
813	 0,211516607146419 
814	 0,211693834705289 
815	 0,211493510155776 
816	 0,211408145321344 
817	 0,212010891996641 
818	 0,212402279245157 
819	 0,212406178588811 
820	 0,212121414488723 
821	 0,21208233800011 
822	 0,212480941525472 
823	 0,212579628750585 
824	 0,212692028480736 
825	 0,213301413527136 
826	 0,213737618307302 
827	 0,213756869768982 
828	 0,213035918695922 
829	 0,212909084495879 
830	 0,213857435839628 
831	 0,213883419415089 
832	 0,213544047620405 
833	 0,213889006166101 
834	 0,214203614438664 
835	 0,214290237713624 
836	 0,214066739561522 
837	 0,213890079797615 
838	 0,213968160092246 
839	 0,214207448340998 
840	 0,214378602513624 
841	 0,214185461121036 
842	 0,214178831543061 
843	 0,214408395447867 
844	 0,214543882928062 
845	 0,21460900703648 
846	 0,214649893383847 
847	 0,214974890408643 
848	 0,215214918860359 
849	 0,214817931285049 
850	 0,214932407601142 
851	 0,215382952953497 
852	 0,214523962792572 
853	 0,213990389709695 
854	 0,214557220175867 
855	 0,214941867015043 
856	 0,21507033408431 
857	 0,215049018108578 
858	 0,214573952819452 
859	 0,214086920508636 
860	 0,215244243716964 
861	 0,216012585211838 
862	 0,215472554318851 
863	 0,215186147382795 
864	 0,215311422691122 
865	 0,215812978000236 
866	 0,215830248593866 
867	 0,215480743282042 
868	 0,215881198531414 
869	 0,215969287772635 
870	 0,215448461652119 
871	 0,215750278031233 
872	 0,216441885524184 
873	 0,216826746439278 
874	 0,216422560776799 
875	 0,215762609680695 
876	 0,216739237435726 
877	 0,217575615526984 
878	 0,217521802411804 
879	 0,217034660125846 
880	 0,216630932648172 
881	 0,216814679696271 
882	 0,217145415043172 
883	 0,217366990810773 
884	 0,217030940981693 
885	 0,216881491655453 
886	 0,217169906923073 
887	 0,217606274443992 
888	 0,21796862093691 
889	 0,218060169474254 
890	 0,21795632452371 
891	 0,217721848279516 
892	 0,217403332521911 
893	 0,217566923030263 
894	 0,218130726185558 
895	 0,217877214389703 
896	 0,217295995909133 
897	 0,216939012396999 
898	 0,217983021113197 
899	 0,219179867766817 
900	 0,218005854626936 
901	 0,217327616622856 
902	 0,217717784710582 
903	 0,21801120929908 
904	 0,218014112656239 
905	 0,217723261444361 
906	 0,218174379347273 
907	 0,218843275804538 
908	 0,218818620535131 
909	 0,218508841096688 
910	 0,218150148059436 
911	 0,218070233832821 
912	 0,218504409035621 
913	 0,219272969721429 
914	 0,218691901710217 
915	 0,217637767037657 
916	 0,217261790458228 
917	 0,217244894762306 
918	 0,217567847121619 
919	 0,218452282533482 
920	 0,21836148459849 
921	 0,217145237610509 
922	 0,217058145988788 
923	 0,216952739349293 
924	 0,215965469456808 
925	 0,216184238741631 
926	 0,216981340923466 
927	 0,216650972781533 
928	 0,216544199655504 
929	 0,216595618820343 
930	 0,215074778099705 
931	 0,214184355499271 
932	 0,214976125068324 
933	 0,215094362652545 
934	 0,214514084546151 
935	 0,213575478646501 
936	 0,212443116435597 
937	 0,211668768147012 
938	 0,212693415718536 
939	 0,212920896054043 
940	 0,211601573973643 
941	 0,21068585471842 
942	 0,210079620692569 
943	 0,209569848307917 
944	 0,208718194269193 
945	 0,207728025750802 
946	 0,207098874423361 
947	 0,206920809752697 
948	 0,206926226870187 
949	 0,206102176492332 
950	 0,205009400965248 
951	 0,204031602475887 
952	 0,203359107574184 
953	 0,202583271550827 
954	 0,20121948933965 
955	 0,200063858562473 
956	 0,199419264985975 
957	 0,199770833528368 
958	 0,198810172974641 
959	 0,19628868731027 
960	 0,194984078010026 
961	 0,19516240538218 
962	 0,196475922126464 
963	 0,19497014534059 
964	 0,192643530293656 
965	 0,19335656302565 
966	 0,194271398817213 
967	 0,194404614171894 
968	 0,192858441041387 
969	 0,1919547203702 
970	 0,192740312811766 
971	 0,194923704526028 
972	 0,195804436531351 
973	 0,193343293398435 
974	 0,192471080370707 
975	 0,193271526696179 
976	 0,194300045693597 
977	 0,1945200270126 
978	 0,19392294952627 
979	 0,193640812853291 
980	 0,194586111919223 
981	 0,196434898199765 
982	 0,194333545069528 
983	 0,192452341606084 
984	 0,195033666756069 
985	 0,19579016269829 
986	 0,19490926321943 
987	 0,194904792866713 
988	 0,196419168124999 
989	 0,198395451530146 
990	 0,196113766763427 
991	 0,194521257650886 
992	 0,195905217951925 
993	 0,196684121715877 
994	 0,196971904771523 
995	 0,197302241457626 
996	 0,199510975935672 
997	 0,201534002771377 
998	 0,198698048283336 
999	 0,198568756398312 
1000	 0,201978881838878 
1001	 0,203553714287134 
1002	 0,204344482162883 
1003	 0,204778527238996 
1004	 0,204641644314481 
1005	 0,204458657405026 
1006	 0,204583896981603 
1007	 0,202796876134823 
1008	 0,200980917031471 
1009	 0,203013826817003 
1010	 0,204829417688145 
1011	 0,205786849250741 
1012	 0,207897610515391 
1013	 0,208390239555054 
1014	 0,207079627804276 
1015	 0,209906791665072 
1016	 0,21234135168783 
1017	 0,210567693414167 
1018	 0,208159554646644 
1019	 0,207532671116735 
1020	 0,211241389194889 
1021	 0,211831277844419 
1022	 0,209522875125865 
1023	 0,21015102441035 
1024	 0,211068327262632 
1025	 0,211690560634703 
1026	 0,213124447478615 
1027	 0,214434639323741 
1028	 0,21506544922385 
1029	 0,215653344879426 
1030	 0,217624562310229 
1031	 0,222155930755766 
1032	 0,224125111498245 
1033	 0,221848862886551 
1034	 0,213972656617879 
1035	 0,213744208859263 
1036	 0,220609294193742 
1037	 0,21680501801298 
1038	 0,21414684182158 
1039	 0,21771236232255 
1040	 0,225800640185806 
1041	 0,227935800502718 
1042	 0,217968735334231 
1043	 0,217378753163127 
1044	 0,222427192656877 
1045	 0,223775639244994 
1046	 0,224088597346953 
1047	 0,224261470722711 
1048	 0,225912945450195 
1049	 0,222367333090671 
1050	 0,215905858271592 
1051	 0,224524405685276 
1052	 0,227540625589829 
1053	 0,217671939752052 
1054	 0,214901421531042 
1055	 0,223417092006709 
1056	 0,241594681406422 
1057	 0,239871176994587 
1058	 0,225211477379626 
1059	 0,214934649469966 
1060	 0,218913335839461 
1061	 0,231089499729169 
1062	 0,231772306844251 
1063	 0,232850251753012 
1064	 0,236268410619806 
1065	 0,237625732124763 
1066	 0,236472989549003 
1067	 0,232913941445452 
1068	 0,230482512416192 
1069	 0,220571774908192 
1070	 0,202411525172906 
1071	 0,21807842619766 
1072	 0,238950373835005 
1073	 0,2270326565005 
1074	 0,210911351935377 
1075	 0,204469176563683 
