Wavelength	CAMFROU00712.asd
325	-0,283361333643047 
326	-0,011397644340993 
327	 0,12209000236179 
328	 9,73173123923746E-02 
329	 7,97345587379619E-02 
330	 3,25317521123113E-02 
331	-7,76106995837912E-02 
332	-5,43719370647408E-02 
333	 5,57295352437659E-02 
334	 5,35285275802397E-02 
335	 2,90335451002056E-02 
336	 2,24387631348318E-02 
337	 0,101317593847486 
338	 0,157591435536561 
339	 0,1201961693319 
340	 5,09746021041733E-02 
341	-0,013699107944785 
342	 2,43824089381273E-02 
343	 3,65113891912032E-02 
344	 7,09694440800577E-03 
345	 6,87888148687953E-02 
346	 0,120666189271052 
347	 9,87119550058491E-02 
348	 4,30667952448113E-02 
349	-1,53812568220801E-02 
350	 8,99846555484358E-03 
351	 1,39452832156518E-02 
352	-2,30823603537936E-02 
353	-1,99227098886662E-03 
354	 4,39925462572778E-02 
355	 7,30850491210212E-02 
356	 5,82298586470075E-02 
357	 1,19305999865348E-02 
358	-0,022616449919267 
359	-3,36435232838458E-03 
360	 6,43553391493855E-02 
361	 4,33908798438209E-02 
362	-6,85225818798514E-03 
363	 1,62783694096524E-02 
364	 4,00738492524162E-02 
365	 4,63857433062138E-02 
366	 2,79757420816455E-02 
367	 8,47699823547342E-03 
368	 4,10288549770932E-03 
369	 8,19352508557895E-03 
370	 1,71675420795034E-02 
371	 2,98873298807956E-02 
372	 0,030258067857258 
373	 1,91577806767761E-02 
374	 2,21428543290026E-02 
375	 3,34526064893577E-02 
376	 4,48187141555816E-02 
377	 4,71938674813885E-02 
378	 4,25824874116513E-02 
379	 3,55843182135552E-02 
380	 3,36905755105484E-02 
381	 3,83435376664225E-02 
382	 4,06729889070688E-02 
383	 3,83593807322621E-02 
384	 3,01689322337927E-02 
385	 1,60633697085911E-02 
386	 1,82438895009287E-03 
387	 2,16842380223336E-03 
388	 0,022254683232149 
389	 5,20298978738879E-02 
390	 4,30955028689478E-02 
391	 1,72325227429611E-02 
392	 6,22870942624945E-03 
393	 8,10977582308676E-03 
394	 1,98165499161852E-02 
395	 3,64200885960581E-02 
396	 3,63317926684816E-02 
397	 1,43959872475057E-02 
398	 1,51691623714488E-02 
399	 2,49074763041251E-02 
400	 1,57774973946634E-02 
401	 1,12234789470847E-02 
402	 0,015620166663852 
403	 2,39887890141816E-02 
404	 2,71393247891859E-02 
405	 2,04628183751737E-02 
406	 2,04211610087273E-02 
407	 2,39184111495639E-02 
408	 1,93848840069301E-02 
409	 1,74284254097506E-02 
410	 1,89141142382185E-02 
411	 1,33683270265346E-02 
412	 7,56741781381147E-03 
413	 8,40168749581783E-03 
414	 1,23089269139945E-02 
415	 1,62541486872995E-02 
416	 1,46351895276868E-02 
417	 1,53901817719443E-02 
418	 2,03703839529778E-02 
419	 2,07104707093497E-02 
420	 1,79301574880172E-02 
421	 1,49664219251569E-02 
422	 1,59928146484162E-02 
423	 1,93623561738944E-02 
424	 1,63367906034002E-02 
425	 1,34088129992302E-02 
426	 1,44391377388977E-02 
427	 1,57094420429271E-02 
428	 1,68681127073417E-02 
429	 1,82893449547977E-02 
430	 1,94102332129605E-02 
431	 1,95704403603102E-02 
432	 1,69354491377717E-02 
433	 1,43056214307735E-02 
434	 1,41721385589592E-02 
435	 1,43992384360277E-02 
436	 1,42399998378495E-02 
437	 1,25187045021283E-02 
438	 1,25991153884376E-02 
439	 1,51918331767835E-02 
440	 1,57561959173736E-02 
441	 1,51784990246006E-02 
442	 1,50947336813345E-02 
443	 1,52810596592382E-02 
444	 1,54020426729728E-02 
445	 1,42690340217417E-02 
446	 1,35890236205255E-02 
447	 1,41854044855209E-02 
448	 1,28825272683089E-02 
449	 1,13292780872208E-02 
450	 1,32393845184569E-02 
451	 1,65578157944531E-02 
452	 1,95996478038456E-02 
453	 1,88241357477584E-02 
454	 1,55804193653562E-02 
455	 1,16960868233688E-02 
456	 1,40279902327138E-02 
457	 1,98605728435396E-02 
458	 1,86255412563236E-02 
459	 1,73421743547755E-02 
460	 1,80935507406261E-02 
461	 0,014681209404846 
462	 1,03047513635851E-02 
463	 9,79525919947111E-03 
464	 1,20636322917254E-02 
465	 1,54271041380915E-02 
466	 1,53718159703533E-02 
467	 1,45969361166471E-02 
468	 1,50560956168048E-02 
469	 0,01752783006104 
470	 1,93255323719091E-02 
471	 1,46935688555402E-02 
472	 1,23788940800297E-02 
473	 1,45047823598314E-02 
474	 1,59893475473392E-02 
475	 1,68782663334163E-02 
476	 1,74516556956927E-02 
477	 1,65758604595651E-02 
478	 1,47982448304695E-02 
479	 1,39721297778726E-02 
480	 1,38755749948502E-02 
481	 1,43870027371928E-02 
482	 1,51187953835598E-02 
483	 1,58243181247054E-02 
484	 1,62716645295134E-02 
485	 1,63532257673253E-02 
486	 1,59340243814409E-02 
487	 1,44457780636448E-02 
488	 1,37970909451963E-02 
489	 1,51802356194564E-02 
490	 1,51257218899695E-02 
491	 1,41030221379399E-02 
492	 1,44690343488516E-02 
493	 1,52361611987286E-02 
494	 1,58626215188808E-02 
495	 1,53396216297958E-02 
496	 0,014292477329372 
497	 1,35400892065963E-02 
498	 1,50640615354805E-02 
499	 1,74345422085012E-02 
500	 1,48178602931609E-02 
501	 1,26302532350839E-02 
502	 1,37613347304509E-02 
503	 1,47587661782388E-02 
504	 1,51803159290478E-02 
505	 1,50555291173793E-02 
506	 1,49712006172411E-02 
507	 1,52666492906597E-02 
508	 1,67004273758654E-02 
509	 1,70907076989683E-02 
510	 1,46866398317177E-02 
511	 1,38289217952614E-02 
512	 1,49675922119644E-02 
513	 1,73503653016071E-02 
514	 1,78498592796916E-02 
515	 1,55736892225486E-02 
516	 1,48359966865992E-02 
517	 1,54395365326812E-02 
518	 1,64721068858551E-02 
519	 1,66958401966995E-02 
520	 1,61178936218879E-02 
521	 1,61987772878739E-02 
522	 1,66096824879742E-02 
523	 1,70208666394694E-02 
524	 1,66728950885897E-02 
525	 1,60501586267151E-02 
526	 1,65288875001608E-02 
527	 1,69416239752779E-02 
528	 1,69061632930654E-02 
529	 1,67157439991977E-02 
530	 1,64703038177187E-02 
531	 1,62605634741879E-02 
532	 1,59430194786383E-02 
533	 1,56466845572149E-02 
534	 0,015818999088128 
535	 1,61947738105734E-02 
536	 1,64912619113579E-02 
537	 1,56854032767501E-02 
538	 1,48250852201136E-02 
539	 1,60930353240558E-02 
540	 1,72085573409197E-02 
541	 1,72458135699562E-02 
542	 1,54862222406313E-02 
543	 1,42256434513595E-02 
544	 1,56078182793061E-02 
545	 1,63873428926167E-02 
546	 0,016163568601125 
547	 1,57609124864665E-02 
548	 1,55667721439885E-02 
549	 1,58105073182356E-02 
550	 0,016314505405228 
551	 0,016822395736374 
552	 1,70099519432306E-02 
553	 1,68283130175708E-02 
554	 1,64775154110516E-02 
555	 1,68156712490373E-02 
556	 0,017094175422176 
557	 1,67225196935559E-02 
558	 0,016749638357522 
559	 1,68182703801322E-02 
560	 1,52997023294858E-02 
561	 1,50356653215825E-02 
562	 1,67221119895863E-02 
563	 1,69917806008214E-02 
564	 1,63530289643511E-02 
565	 1,58882001966765E-02 
566	 1,58400258654492E-02 
567	 1,60872073666483E-02 
568	 1,57391558456914E-02 
569	 1,55992615574364E-02 
570	 1,61760674893033E-02 
571	 0,016609751164785 
572	 1,68210155372469E-02 
573	 1,69085330360469E-02 
574	 1,73578119402689E-02 
575	 1,80628415340618E-02 
576	 1,74995886528491E-02 
577	 1,66070753460557E-02 
578	 1,65599414361379E-02 
579	 1,73142008303308E-02 
580	 1,82500189656554E-02 
581	 1,73978785479032E-02 
582	 0,016927327619405 
583	 1,79342760490854E-02 
584	 1,84135642475348E-02 
585	 1,85884019470045E-02 
586	 1,93642127759797E-02 
587	 1,97009742395524E-02 
588	 1,94094745938022E-02 
589	 0,019084194162858 
590	 1,89733698155872E-02 
591	 1,92847743337217E-02 
592	 0,020049757207854 
593	 2,08465050130195E-02 
594	 2,06427515303359E-02 
595	 2,00358121008621E-02 
596	 1,94647218727221E-02 
597	 1,97777340054359E-02 
598	 2,03939334699467E-02 
599	 2,03259506901585E-02 
600	 2,00731750065726E-02 
601	 1,97703065730638E-02 
602	 1,93825090113259E-02 
603	 0,019152272277255 
604	 1,92595768235947E-02 
605	 1,95110336655931E-02 
606	 1,96739400546219E-02 
607	 1,93131618466965E-02 
608	 1,87947965043221E-02 
609	 1,83837405031527E-02 
610	 1,86407052988577E-02 
611	 1,90259164296034E-02 
612	 0,018826421959319 
613	 1,84259015237227E-02 
614	 1,79606249264879E-02 
615	 1,74799740933609E-02 
616	 1,73621299201208E-02 
617	 1,77620156415704E-02 
618	 1,77293319530914E-02 
619	 1,74487820641066E-02 
620	 1,76070958580362E-02 
621	 1,74932093818566E-02 
622	 1,70985240763101E-02 
623	 1,74648910308878E-02 
624	 1,81350697082943E-02 
625	 1,85577156935414E-02 
626	 1,83532636048369E-02 
627	 1,77532589951012E-02 
628	 1,76249637930574E-02 
629	 1,78633777160013E-02 
630	 1,83240193950419E-02 
631	 1,82109189378073E-02 
632	 0,018020944727561 
633	 1,87477029539898E-02 
634	 1,89006065698644E-02 
635	 1,83833851419276E-02 
636	 1,86622258606778E-02 
637	 1,92386799816603E-02 
638	 1,96464503290393E-02 
639	 2,00378498466235E-02 
640	 2,03400462828005E-02 
641	 2,03376618374451E-02 
642	 2,03070789117569E-02 
643	 0,02038570192045 
644	 2,06146414297875E-02 
645	 2,08130599848543E-02 
646	 2,07463835054708E-02 
647	 2,06480315170121E-02 
648	 2,06237127501562E-02 
649	 0,020858453902587 
650	 2,08626258079447E-02 
651	 0,020346982932335 
652	 1,98237020324438E-02 
653	 1,95925496238667E-02 
654	 2,00886325654525E-02 
655	 2,05494028451491E-02 
656	 2,06667702879051E-02 
657	 2,06184152311692E-02 
658	 0,019956568980289 
659	 1,82909600237431E-02 
660	 1,75249491104903E-02 
661	 1,76709783708556E-02 
662	 1,74457095506105E-02 
663	 1,71361134311497E-02 
664	 1,69260368797244E-02 
665	 1,73460829487067E-02 
666	 1,76904068158886E-02 
667	 1,67635639285866E-02 
668	 1,62826948086377E-02 
669	 1,65041680184942E-02 
670	 1,62691935277217E-02 
671	 1,61847541759756E-02 
672	 1,66779014963476E-02 
673	 1,65692121388633E-02 
674	 1,61510054942372E-02 
675	 1,66791342440433E-02 
676	 1,69732307230011E-02 
677	 1,66837674473857E-02 
678	 1,64313580639204E-02 
679	 0,016316921577635 
680	 1,63955818859513E-02 
681	 1,69301389915729E-02 
682	 1,76472020692682E-02 
683	 1,75266441686981E-02 
684	 1,73723299020231E-02 
685	 1,76511199344229E-02 
686	 1,79422681717578E-02 
687	 0,018320582340753 
688	 1,89995437672516E-02 
689	 1,98694380326752E-02 
690	 2,07705764905718E-02 
691	 2,11248741030386E-02 
692	 2,18353293423547E-02 
693	 2,36701428618266E-02 
694	 2,53748240225843E-02 
695	 0,026988021239202 
696	 2,92489460320794E-02 
697	 0,031726105374912 
698	 3,42994650696916E-02 
699	 3,72679514477095E-02 
700	 4,06818046435453E-02 
701	 4,45569180866362E-02 
702	 4,86181435480615E-02 
703	 5,26947496299916E-02 
704	 5,65616341120562E-02 
705	 6,04441675330935E-02 
706	 6,44821840571694E-02 
707	 6,86566039752457E-02 
708	 7,26974747409988E-02 
709	 7,60631487670329E-02 
710	 7,97017609050339E-02 
711	 8,36870730925455E-02 
712	 8,69272387359493E-02 
713	 8,98576724434809E-02 
714	 9,29083270200701E-02 
715	 9,56898328707049E-02 
716	 9,82480561343634E-02 
717	 0,100956294044008 
718	 0,103195276096633 
719	 0,104824789177125 
720	 0,106718041117855 
721	 0,108655681432641 
722	 0,110256243333729 
723	 0,111598557370842 
724	 0,112836845963779 
725	 0,114426639598065 
726	 0,115822162292315 
727	 0,116729799985554 
728	 0,117719166207301 
729	 0,118665371179425 
730	 0,119207820223582 
731	 0,119584277279596 
732	 0,120019004221063 
733	 0,121093328538033 
734	 0,12211688261491 
735	 0,122500117524888 
736	 0,122948056899219 
737	 0,123455992292567 
738	 0,123684697524578 
739	 0,123838045394074 
740	 0,124034750896754 
741	 0,124443021281939 
742	 0,124917149033651 
743	 0,125270121881798 
744	 0,125405249328264 
745	 0,125412994060381 
746	 0,12572806578576 
747	 0,125609435323598 
748	 0,124869669789514 
749	 0,125091866934865 
750	 0,126016841860697 
751	 0,126981697395527 
752	 0,127169279064499 
753	 0,12661482495009 
754	 0,126470976919323 
755	 0,126622283990275 
756	 0,126922408323871 
757	 0,126831095616211 
758	 0,12661865096866 
759	 0,127064401758035 
760	 0,12710457012955 
761	 0,12668123073058 
762	 0,12726471688422 
763	 0,127889584920574 
764	 0,12762775107345 
765	 0,127576955782449 
766	 0,127716095455348 
767	 0,12736007566615 
768	 0,12737171431672 
769	 0,127947319213767 
770	 0,128098354602654 
771	 0,128014208211852 
772	 0,128022178216641 
773	 0,128133609182276 
774	 0,128298349466825 
775	 0,12826557247114 
776	 0,12854180808554 
777	 0,129223155016966 
778	 0,129062223351146 
779	 0,12852578372152 
780	 0,128495505282493 
781	 0,128590902914534 
782	 0,128724539410334 
783	 0,128950308390172 
784	 0,12890952054352 
785	 0,128479129099439 
786	 0,128763968524262 
787	 0,129326490066371 
788	 0,129097266335651 
789	 0,129011369969212 
790	 0,129304289037571 
791	 0,129768073224568 
792	 0,130040332943299 
793	 0,129875020545682 
794	 0,129881539066501 
795	 0,130024153683106 
796	 0,129956198920877 
797	 0,130151601256746 
798	 0,130656310179144 
799	 0,130978302177187 
800	 0,130930271958292 
801	 0,130414384824908 
802	 0,130169616440816 
803	 0,13028966198666 
804	 0,130652063400958 
805	 0,130760960221334 
806	 0,130504856424261 
807	 0,130501129989406 
808	 0,130666548606183 
809	 0,13085750244789 
810	 0,130987308912358 
811	 0,131069782324878 
812	 0,131223001822921 
813	 0,131344563980657 
814	 0,131435794774954 
815	 0,131797473402799 
816	 0,132059885816119 
817	 0,13178263973244 
818	 0,131803760323589 
819	 0,132205979309149 
820	 0,13263201697769 
821	 0,133019443587603 
822	 0,133280712708167 
823	 0,133196573194955 
824	 0,133144478817047 
825	 0,133617394297632 
826	 0,133883718267959 
827	 0,133822624619863 
828	 0,133597612449235 
829	 0,133656799126911 
830	 0,134125277872866 
831	 0,134078099961366 
832	 0,133743494474382 
833	 0,133571659775075 
834	 0,13408178875087 
835	 0,134903897226387 
836	 0,134377794600169 
837	 0,133844574814068 
838	 0,134034750506798 
839	 0,134529643931527 
840	 0,134881727118541 
841	 0,134544397568046 
842	 0,134404391832167 
843	 0,134587431357833 
844	 0,134658651298296 
845	 0,134843236469162 
846	 0,135224383345171 
847	 0,135609622427953 
848	 0,135631461781373 
849	 0,134830556978533 
850	 0,134916614358271 
851	 0,135837455322707 
852	 0,135854597046377 
853	 0,135923380827922 
854	 0,136438343568388 
855	 0,136485412999798 
856	 0,1362097939202 
857	 0,135947309523081 
858	 0,135826550693672 
859	 0,135959371884957 
860	 0,136628037296527 
861	 0,136776966638093 
862	 0,136035934909884 
863	 0,135832413260766 
864	 0,136449883707656 
865	 0,137989322695299 
866	 0,138153699275406 
867	 0,136957659807168 
868	 0,136126761004222 
869	 0,136285486444099 
870	 0,137514206513141 
871	 0,137923077539741 
872	 0,137924651859715 
873	 0,138240237044075 
874	 0,138516351922883 
875	 0,138662652411545 
876	 0,13859500701266 
877	 0,138574436870941 
878	 0,138666561068759 
879	 0,138438524021028 
880	 0,138442023497059 
881	 0,13924965958209 
882	 0,139862781984875 
883	 0,140084329270392 
884	 0,139993618880516 
885	 0,139843542127794 
886	 0,139736926440925 
887	 0,139557644330836 
888	 0,139307019979592 
889	 0,139057020791021 
890	 0,13972900131024 
891	 0,140614034263062 
892	 0,139744346496824 
893	 0,139580817977202 
894	 0,140559599626207 
895	 0,140826259480801 
896	 0,140734798328166 
897	 0,140672966653806 
898	 0,141217770060102 
899	 0,141803094163499 
900	 0,141264507451137 
901	 0,140797226191949 
902	 0,14083428511053 
903	 0,14154853267965 
904	 0,142287216355561 
905	 0,142560409858642 
906	 0,142136823630262 
907	 0,141723524691336 
908	 0,142332736988072 
909	 0,142677409959015 
910	 0,142576829210046 
911	 0,142500837541184 
912	 0,142576382589413 
913	 0,142884726198749 
914	 0,143421437360384 
915	 0,143807856656391 
916	 0,143663046335584 
917	 0,143682700236266 
918	 0,14382024396534 
919	 0,14352867154594 
920	 0,143530951036274 
921	 0,143953007140705 
922	 0,144170721074319 
923	 0,143982165320283 
924	 0,143363453294252 
925	 0,143472030833786 
926	 0,144180276314948 
927	 0,14490228528051 
928	 0,14557832974075 
929	 0,145908518839963 
930	 0,145013236794121 
931	 0,144373483328535 
932	 0,14477448216388 
933	 0,145094049877675 
934	 0,14485927640648 
935	 0,143691491724764 
936	 0,143151632744789 
937	 0,143330438336975 
938	 0,143438046550254 
939	 0,143210464984511 
940	 0,142605220105249 
941	 0,14215490523193 
942	 0,14196143838692 
943	 0,142055639404467 
944	 0,142042646689918 
945	 0,142064181351687 
946	 0,142529016120514 
947	 0,142776320235503 
948	 0,142610506375058 
949	 0,142226881662591 
950	 0,141178965796594 
951	 0,139633724092093 
952	 0,140238238566869 
953	 0,141359339843792 
954	 0,140745516171308 
955	 0,139814710009973 
956	 0,13908727039788 
957	 0,139208037403617 
958	 0,138707492714969 
959	 0,137487567927371 
960	 0,13755929980782 
961	 0,138187089597437 
962	 0,138618775169365 
963	 0,137955202129315 
964	 0,137311193164273 
965	 0,138539324376826 
966	 0,139263465161386 
967	 0,138816554580004 
968	 0,136831893684946 
969	 0,136593318085998 
970	 0,138957541967969 
971	 0,140192955903929 
972	 0,139971166496015 
973	 0,138458894919132 
974	 0,138163956753379 
975	 0,138626591810888 
976	 0,138097339468399 
977	 0,139560117068525 
978	 0,142038721287641 
979	 0,139105711561894 
980	 0,138244953591192 
981	 0,142015893799182 
982	 0,14178207697714 
983	 0,140215783483008 
984	 0,140622888744825 
985	 0,140468262984081 
986	 0,1402419374081 
987	 0,141619587243688 
988	 0,143275797392996 
989	 0,144373557268372 
990	 0,143437903994522 
991	 0,143455409772062 
992	 0,14530636702351 
993	 0,143741300173327 
994	 0,142418512940622 
995	 0,14519148785116 
996	 0,146292034953718 
997	 0,145550488639934 
998	 0,144701343050132 
999	 0,144530948833286 
1000	 0,145224435513985 
1001	 0,146173496242792 
1002	 0,146943660154796 
1003	 0,147547575545711 
1004	 0,149576996854062 
1005	 0,151525467428733 
1006	 0,151893962663604 
1007	 0,151725315126891 
1008	 0,15180105920976 
1009	 0,153098492771128 
1010	 0,155795903502832 
1011	 0,157887592571107 
1012	 0,152473902306425 
1013	 0,149902532466867 
1014	 0,153836635998276 
1015	 0,156874361790263 
1016	 0,158099634418968 
1017	 0,157207341983858 
1018	 0,155466744040133 
1019	 0,15455486510624 
1020	 0,156468256083907 
1021	 0,156918851204061 
1022	 0,155956311912624 
1023	 0,156750987605099 
1024	 0,157243581977211 
1025	 0,157223918995561 
1026	 0,158426403364993 
1027	 0,16140068308873 
1028	 0,165846119612118 
1029	 0,168284076562247 
1030	 0,167292253452166 
1031	 0,16230846736077 
1032	 0,16086425663094 
1033	 0,161400160227233 
1034	 0,157200449721281 
1035	 0,160491912100726 
1036	 0,169670219174666 
1037	 0,166695819198461 
1038	 0,162625472463223 
1039	 0,162074804288339 
1040	 0,161315745336275 
1041	 0,162200813091145 
1042	 0,165862047294479 
1043	 0,168511545175776 
1044	 0,169242899065753 
1045	 0,16789220069737 
1046	 0,170040396044564 
1047	 0,174536856785619 
1048	 0,175849133314431 
1049	 0,174179383995938 
1050	 0,170922485074702 
1051	 0,171578607283102 
1052	 0,173006751419818 
1053	 0,173821625050811 
1054	 0,175356558335282 
1055	 0,177721630713677 
1056	 0,1797927612485 
1057	 0,170922932849339 
1058	 0,161396825489355 
1059	 0,167404297336199 
1060	 0,174724783082074 
1061	 0,178531579002252 
1062	 0,175317366385914 
1063	 0,172215963007315 
1064	 0,173239254604839 
1065	 0,184938857980311 
1066	 0,184329817064198 
1067	 0,167271370537689 
1068	 0,174138120886376 
1069	 0,176203665365163 
1070	 0,156189888556072 
1071	 0,166251386705589 
1072	 0,181099168264175 
1073	 0,166233151223887 
1074	 0,163149685017122 
1075	 0,169181566195748 
