Wavelength	CHO-GIL00004.asd
325	 0,306399873592652 
326	 0,190262073422428 
327	 0,133230535860299 
328	 0,151018996209717 
329	 0,14900811345474 
330	 0,166699160442078 
331	 0,229011811518634 
332	 0,274024936880064 
333	 0,277619053782089 
334	 0,172335683056254 
335	 9,20134115079963E-02 
336	 0,125424723477906 
337	 4,49250396547901E-02 
338	-2,02076138849525E-02 
339	 1,69017532152899E-02 
340	 6,92927168180318E-02 
341	 0,100862598177021 
342	 8,37745018189716E-02 
343	 0,116182290604725 
344	 0,193594668616393 
345	 0,147744590780809 
346	 9,18543975858098E-02 
347	 0,147297467776692 
348	 0,166734843385681 
349	 0,136715444953257 
350	 6,04054340443781E-02 
351	 2,35965006594709E-02 
352	 5,24272335333442E-02 
353	 4,79563140397873E-02 
354	 3,90758246939595E-02 
355	 6,58429315584355E-02 
356	 7,00435095412656E-02 
357	 5,17075233964036E-02 
358	 5,06459001735137E-02 
359	 4,84788853902638E-02 
360	 4,07612309885847E-02 
361	 5,58434005732916E-02 
362	 7,75578706651836E-02 
363	 0,080311870928132 
364	 6,95600562633646E-02 
365	 5,56546726649577E-02 
366	 6,19315366842459E-02 
367	 7,76244212873036E-02 
368	 9,13548021762315E-02 
369	 8,37835603916878E-02 
370	 6,56876813399897E-02 
371	 5,70997766124784E-02 
372	 6,73611781871868E-02 
373	 8,96433565146999E-02 
374	 8,67481560682119E-02 
375	 6,75675312241144E-02 
376	 0,042174518608416 
377	 3,56515861651889E-02 
378	 3,93893570158733E-02 
379	 2,25685120139469E-02 
380	 1,42918809512546E-02 
381	 2,06493832784078E-02 
382	 2,37724858825716E-02 
383	 0,029715413617894 
384	 4,41920367675313E-02 
385	 0,041269092570776 
386	 2,77058399433373E-02 
387	 3,09462723209566E-02 
388	 3,61268683257049E-02 
389	 3,75353896686329E-02 
390	 3,68205411367774E-02 
391	 3,90228216564802E-02 
392	 4,92908180352325E-02 
393	 4,95148934852702E-02 
394	 4,16617203057033E-02 
395	 4,29594110984666E-02 
396	 4,24413029436961E-02 
397	 3,61200355630992E-02 
398	 0,036986714646073 
399	 0,042329945892007 
400	 4,60320205952587E-02 
401	 0,053466455731051 
402	 6,27703007077761E-02 
403	 6,54258683558717E-02 
404	 6,06572250989683E-02 
405	 4,92873632712281E-02 
406	 4,27178079935444E-02 
407	 4,05649957991843E-02 
408	 3,78736059504416E-02 
409	 3,61597040172742E-02 
410	 3,66505605755384E-02 
411	 4,43913491368787E-02 
412	 4,96802310422689E-02 
413	 4,41314582545976E-02 
414	 3,60349689783783E-02 
415	 3,06183831535379E-02 
416	 3,69513764019829E-02 
417	 3,86316128187631E-02 
418	 3,16659303879559E-02 
419	 3,71326781726481E-02 
420	 4,42133918812529E-02 
421	 3,72974383078191E-02 
422	 3,31059489759926E-02 
423	 3,42634318829192E-02 
424	 3,66263043510706E-02 
425	 3,70026163860483E-02 
426	 3,40119141498317E-02 
427	 3,32240921184688E-02 
428	 3,53399254123714E-02 
429	 4,08299616042386E-02 
430	 4,11512776350322E-02 
431	 3,57219188948439E-02 
432	 3,41530905440454E-02 
433	 3,41491637264521E-02 
434	 3,35058849110044E-02 
435	 0,036643662842849 
436	 4,07742679308988E-02 
437	 3,70449617506673E-02 
438	 3,42026215856852E-02 
439	 3,53949523458501E-02 
440	 3,67002820161835E-02 
441	 3,68818618950752E-02 
442	 3,48784452920418E-02 
443	 3,40772033296149E-02 
444	 3,45215680519732E-02 
445	 3,32045679645766E-02 
446	 3,21923427112932E-02 
447	 3,27326026332481E-02 
448	 3,36827502331833E-02 
449	 3,48460976736486E-02 
450	 3,65748470426923E-02 
451	 3,48293670674631E-02 
452	 3,02183755548679E-02 
453	 3,16090526601188E-02 
454	 3,37440752095859E-02 
455	 3,17776713494718E-02 
456	 3,25999355836683E-02 
457	 3,54197195893047E-02 
458	 3,46604341719065E-02 
459	 3,41801563943945E-02 
460	 0,035334894904884 
461	 3,58319370149727E-02 
462	 3,61898449331461E-02 
463	 0,037419437353868 
464	 3,57183464318479E-02 
465	 3,22867074526008E-02 
466	 3,44214979635081E-02 
467	 3,70000026453137E-02 
468	 0,036729489743643 
469	 3,73141794098062E-02 
470	 0,03766225448632 
471	 3,46222715595706E-02 
472	 3,10954251955722E-02 
473	 2,88779768282131E-02 
474	 3,04639366273429E-02 
475	 3,36721808296375E-02 
476	 3,61521158540264E-02 
477	 3,82497001297638E-02 
478	 3,92472839177831E-02 
479	 3,74100026340226E-02 
480	 3,45027463143162E-02 
481	 3,19254014860317E-02 
482	 3,22360155379692E-02 
483	 3,37391112258408E-02 
484	 3,35723811761626E-02 
485	 3,40647294427854E-02 
486	 3,50922715665441E-02 
487	 3,41167982337166E-02 
488	 3,27692878574231E-02 
489	 3,23150007656563E-02 
490	 3,17561159376229E-02 
491	 3,15995472317324E-02 
492	 3,35277868533095E-02 
493	 3,45960265820028E-02 
494	 0,034046339859283 
495	 3,39042969270122E-02 
496	 3,45503839314551E-02 
497	 3,61809029310023E-02 
498	 3,61078588753482E-02 
499	 3,46317949998673E-02 
500	 3,47478216834987E-02 
501	 0,034735019605666 
502	 3,38383338670761E-02 
503	 3,39441430634174E-02 
504	 3,49454518381431E-02 
505	 3,63257677677225E-02 
506	 3,69785964971049E-02 
507	 3,66752929286736E-02 
508	 3,63834179644083E-02 
509	 3,56015575604981E-02 
510	 3,39919452391602E-02 
511	 3,41793570025522E-02 
512	 3,57344800569897E-02 
513	 3,65277784660518E-02 
514	 3,59198415875119E-02 
515	 3,40436794603003E-02 
516	 3,40409820799568E-02 
517	 3,49757202935403E-02 
518	 3,51070558703711E-02 
519	 0,034818381610233 
520	 3,45629037989886E-02 
521	 3,58579607832343E-02 
522	 3,66638081479341E-02 
523	 3,56442607460729E-02 
524	 3,53186274312721E-02 
525	 3,54162926691811E-02 
526	 0,034344096126621 
527	 3,33412384267013E-02 
528	 3,28671408242292E-02 
529	 3,27763252717197E-02 
530	 3,30171556129703E-02 
531	 3,35309036828098E-02 
532	 3,41502767082592E-02 
533	 3,45456500903754E-02 
534	 3,38949434725143E-02 
535	 3,33353381806085E-02 
536	 3,35028970724729E-02 
537	 3,35322147650522E-02 
538	 3,34802130864436E-02 
539	 3,36464923661014E-02 
540	 3,40714790635785E-02 
541	 3,45749519412648E-02 
542	 3,43078015747961E-02 
543	 3,39651544970466E-02 
544	 3,42119452421297E-02 
545	 3,35319337641884E-02 
546	 3,24155643530759E-02 
547	 3,30105742879534E-02 
548	 3,39006267271695E-02 
549	 3,42767505602046E-02 
550	 3,37142499354864E-02 
551	 3,29062129042298E-02 
552	 3,29388379584515E-02 
553	 3,40520472873257E-02 
554	 3,56087953507326E-02 
555	 3,47857032783349E-02 
556	 3,40461597463558E-02 
557	 0,035279026842059 
558	 3,45020338491813E-02 
559	 3,26742750632756E-02 
560	 3,40405252665381E-02 
561	 3,51817031492059E-02 
562	 3,47964426735423E-02 
563	 3,37811065676081E-02 
564	 3,31058335708875E-02 
565	 3,39100035291729E-02 
566	 3,42512742319306E-02 
567	 3,38872234168076E-02 
568	 3,38940066730588E-02 
569	 0,033995454733891 
570	 3,40407029307487E-02 
571	 3,45075215486508E-02 
572	 3,51269955061408E-02 
573	 3,52104806626766E-02 
574	 0,035112744766454 
575	 3,49811277030441E-02 
576	 3,48995282206799E-02 
577	 3,49462809979674E-02 
578	 3,51923944115027E-02 
579	 3,55667583428859E-02 
580	 3,59782129297306E-02 
581	 3,62296106427639E-02 
582	 3,64939437968053E-02 
583	 3,68609034886864E-02 
584	 3,71670471213464E-02 
585	 3,75409214499408E-02 
586	 3,82581001333812E-02 
587	 3,88489750285688E-02 
588	 3,91653884526258E-02 
589	 3,92300953215893E-02 
590	 3,95363170476416E-02 
591	 4,04670946371599E-02 
592	 4,05600520677204E-02 
593	 4,00253831093873E-02 
594	 4,02085676659612E-02 
595	 4,06614759351698E-02 
596	 4,10384999683494E-02 
597	 4,03502278055705E-02 
598	 3,94876340190357E-02 
599	 3,99276914910441E-02 
600	 4,02764824222532E-02 
601	 4,01179968387751E-02 
602	 3,94067142115997E-02 
603	 3,89327349213269E-02 
604	 0,039281186570715 
605	 3,95844771254302E-02 
606	 0,039596644575484 
607	 3,90874890663274E-02 
608	 3,87703502546814E-02 
609	 3,87704752536757E-02 
610	 3,79546543779754E-02 
611	 3,71449885088789E-02 
612	 3,74519680996917E-02 
613	 3,75170479098962E-02 
614	 3,72014685166468E-02 
615	 3,71771498966322E-02 
616	 0,037436906075709 
617	 3,78767794538831E-02 
618	 3,76938841889469E-02 
619	 3,69273701384131E-02 
620	 3,57317537564595E-02 
621	 3,57807822616089E-02 
622	 3,71485440078292E-02 
623	 3,71404616739508E-02 
624	 3,66055653124161E-02 
625	 3,65849016174881E-02 
626	 0,036845326638653 
627	 0,037256258801391 
628	 3,75828714650003E-02 
629	 3,76315027296614E-02 
630	 3,73610088916877E-02 
631	 3,73376696866186E-02 
632	 3,74333996349366E-02 
633	 3,73070413026327E-02 
634	 3,73643654217482E-02 
635	 3,77136126075705E-02 
636	 3,83058458826472E-02 
637	 3,88167646581526E-02 
638	 3,89789333673951E-02 
639	 0,039039553832481 
640	 3,91030262788668E-02 
641	 3,92792853696001E-02 
642	 3,95585408675707E-02 
643	 3,98983255067581E-02 
644	 4,00512348905956E-02 
645	 4,02113113183478E-02 
646	 4,06619938727061E-02 
647	 4,07150170874063E-02 
648	 4,02456607982115E-02 
649	 3,94346833060666E-02 
650	 3,87765000035018E-02 
651	 3,86305223082768E-02 
652	 3,89810023621696E-02 
653	 3,92566560889889E-02 
654	 3,83089017316511E-02 
655	 3,75098514070086E-02 
656	 3,73681453991379E-02 
657	 3,79022536874228E-02 
658	 3,81624161869846E-02 
659	 3,72240903309298E-02 
660	 3,66491739073367E-02 
661	 3,65378850139264E-02 
662	 3,61253385441697E-02 
663	 3,56959528695255E-02 
664	 3,54065318247215E-02 
665	 3,53580429689618E-02 
666	 3,54046876404056E-02 
667	 3,53134718916178E-02 
668	 3,50624978432619E-02 
669	 3,47779704484501E-02 
670	 3,50153812869393E-02 
671	 3,51709031857493E-02 
672	 3,47882045150026E-02 
673	 3,45598688883186E-02 
674	 3,45653338706758E-02 
675	 3,47451026359421E-02 
676	 3,46122913887577E-02 
677	 3,42084294945315E-02 
678	 3,49406961370096E-02 
679	 3,58390361294974E-02 
680	 3,56428389845349E-02 
681	 3,52711456962184E-02 
682	 3,52322689602588E-02 
683	 3,65384904960042E-02 
684	 3,72078462826871E-02 
685	 3,62673840412249E-02 
686	 3,60760369011423E-02 
687	 3,66672974601276E-02 
688	 3,75183207657369E-02 
689	 3,82448292729828E-02 
690	 3,87427300459201E-02 
691	 3,92587508948515E-02 
692	 4,00802260158524E-02 
693	 0,041438222030821 
694	 0,042877523470253 
695	 4,46280337209758E-02 
696	 4,74132164792955E-02 
697	 5,08536121349047E-02 
698	 5,48244281352089E-02 
699	 5,93404747482575E-02 
700	 6,47664815189312E-02 
701	 7,15520427306178E-02 
702	 7,88019390642335E-02 
703	 8,63840486052282E-02 
704	 9,47130167452389E-02 
705	 0,103655746184942 
706	 0,113114945378583 
707	 0,122932977321092 
708	 0,133190825819263 
709	 0,144119267610821 
710	 0,154966970178613 
711	 0,1655436287435 
712	 0,176161726848909 
713	 0,186895458127413 
714	 0,197778382085548 
715	 0,208486074385033 
716	 0,218829989507512 
717	 0,228538398065733 
718	 0,238168980881877 
719	 0,247867058946334 
720	 0,257092347697079 
721	 0,265877481928675 
722	 0,274317056556049 
723	 0,282117146204109 
724	 0,289328575170747 
725	 0,296237548209068 
726	 0,303091417039287 
727	 0,309944104219468 
728	 0,315732634116393 
729	 0,320951474988961 
730	 0,326724341880442 
731	 0,332409424959894 
732	 0,337693899345882 
733	 0,342127037518418 
734	 0,346124137889623 
735	 0,350046521583771 
736	 0,353619270088675 
737	 0,356899224921607 
738	 0,360072514168779 
739	 0,363181895723871 
740	 0,366197203108607 
741	 0,368820377642533 
742	 0,371184905800451 
743	 0,373474131622998 
744	 0,37571612008277 
745	 0,377887419076441 
746	 0,379848178037474 
747	 0,381793936700037 
748	 0,383770874086115 
749	 0,385340099767475 
750	 0,386616330583904 
751	 0,387841581697788 
752	 0,389198539068818 
753	 0,390667464845527 
754	 0,391941643022477 
755	 0,393030421651448 
756	 0,393971036564261 
757	 0,394965684781138 
758	 0,396056730030914 
759	 0,397291163679444 
760	 0,398246748374739 
761	 0,398825066210035 
762	 0,399311706700875 
763	 0,39989159065919 
764	 0,400702405215904 
765	 0,401330565418275 
766	 0,401833494134782 
767	 0,402587376251914 
768	 0,403266161920041 
769	 0,403770885430616 
770	 0,404314024718887 
771	 0,404870609277176 
772	 0,405390160406897 
773	 0,40581898529007 
774	 0,4061432071931 
775	 0,406311800294273 
776	 0,406708124675236 
777	 0,407454237631036 
778	 0,407826427819008 
779	 0,408130566479551 
780	 0,408945302340883 
781	 0,409205704675784 
782	 0,408936829798455 
783	 0,409211016733805 
784	 0,409869282285119 
785	 0,410719194772643 
786	 0,411110453665397 
787	 0,411168846005939 
788	 0,411291171720615 
789	 0,411568349646724 
790	 0,41202460073133 
791	 0,412547580052048 
792	 0,413025027906161 
793	 0,413358573738263 
794	 0,41347000661969 
795	 0,413574065904988 
796	 0,414173885360912 
797	 0,414542626443961 
798	 0,414553550789428 
799	 0,414899918350395 
800	 0,415213631761117 
801	 0,415159990969575 
802	 0,415414641413747 
803	 0,415947401415391 
804	 0,416393114620939 
805	 0,416614595092605 
806	 0,416643242383431 
807	 0,417105120655185 
808	 0,417447761207048 
809	 0,417083790775435 
810	 0,41707017917248 
811	 0,417592741828021 
812	 0,418589652874165 
813	 0,41915798356683 
814	 0,41902089515313 
815	 0,41925949282606 
816	 0,419673617157892 
817	 0,419916118330625 
818	 0,420264192872549 
819	 0,420701226034174 
820	 0,421010627307406 
821	 0,421328303124855 
822	 0,421691509515028 
823	 0,421944847477441 
824	 0,422058113533039 
825	 0,422020481800814 
826	 0,422122902514575 
827	 0,42238261506535 
828	 0,422625584038497 
829	 0,422676106312464 
830	 0,422535678443678 
831	 0,422898613097281 
832	 0,423449063618168 
833	 0,423663028017296 
834	 0,423639263967978 
835	 0,423506924655203 
836	 0,42359060695822 
837	 0,423837485569469 
838	 0,424182135356111 
839	 0,424359569961107 
840	 0,424468252609907 
841	 0,424691273105112 
842	 0,425101177223131 
843	 0,425594740673972 
844	 0,425823631663587 
845	 0,425740269334854 
846	 0,425476662896077 
847	 0,426150091251443 
848	 0,426955725598345 
849	 0,426605305404559 
850	 0,426748727074582 
851	 0,427495564389878 
852	 0,427837033908148 
853	 0,4278444758671 
854	 0,427672869898401 
855	 0,428196940725926 
856	 0,428886053820935 
857	 0,428896568635003 
858	 0,428789167389256 
859	 0,428821191360285 
860	 0,429403798769823 
861	 0,429698363447157 
862	 0,429404423018836 
863	 0,429711894140869 
864	 0,430208339630946 
865	 0,430207323367994 
866	 0,430358485806273 
867	 0,430727947323167 
868	 0,431136410710086 
869	 0,431095822361025 
870	 0,430550582114795 
871	 0,430636514103085 
872	 0,431430664968402 
873	 0,432809753640932 
874	 0,432579134038387 
875	 0,431147352160467 
876	 0,431111121705318 
877	 0,43149076892989 
878	 0,431908489479794 
879	 0,432437485658318 
880	 0,432822753481631 
881	 0,432830959821123 
882	 0,433151166610132 
883	 0,433528129193413 
884	 0,432862073212408 
885	 0,432426621169246 
886	 0,432686333029279 
887	 0,433449256568574 
888	 0,433715087584785 
889	 0,432692780777605 
890	 0,432411605154324 
891	 0,432775622995248 
892	 0,432688608644293 
893	 0,432839174495913 
894	 0,433314788277745 
895	 0,433669502548885 
896	 0,43367059688318 
897	 0,433189354637205 
898	 0,432585739986526 
899	 0,432385696369037 
900	 0,433398904393518 
901	 0,43380198124914 
902	 0,43331466012968 
903	 0,433064960366489 
904	 0,433170698469657 
905	 0,433544570748094 
906	 0,432886831975581 
907	 0,432032853448265 
908	 0,432365534009222 
909	 0,433022072994861 
910	 0,433516579215132 
911	 0,432964804382775 
912	 0,432969866033825 
913	 0,433962174232195 
914	 0,433609273156421 
915	 0,43267444427339 
916	 0,432200711236925 
917	 0,431318530186735 
918	 0,430497856164294 
919	 0,431301933274876 
920	 0,431932408642782 
921	 0,431741058771212 
922	 0,431101289565476 
923	 0,430325085562975 
924	 0,429672188569311 
925	 0,428909723526167 
926	 0,428400765786297 
927	 0,428862046799868 
928	 0,42875556832043 
929	 0,427792601951119 
930	 0,426811287714083 
931	 0,42555150441235 
932	 0,423986556709577 
933	 0,422717121149499 
934	 0,422075207279946 
935	 0,422313116214292 
936	 0,421230880219183 
937	 0,41933757774551 
938	 0,419881603780102 
939	 0,418698831800269 
940	 0,415110134037806 
941	 0,414287835034116 
942	 0,413893447093248 
943	 0,411686007853043 
944	 0,409297243376818 
945	 0,407395432684833 
946	 0,406701057435538 
947	 0,4057400992741 
948	 0,404158082459504 
949	 0,402661433108365 
950	 0,400165567304922 
951	 0,396412938133381 
952	 0,39374860593284 
953	 0,392116266727879 
954	 0,391060227158759 
955	 0,389316632447071 
956	 0,386866661630968 
957	 0,384406986534961 
958	 0,38267572248867 
959	 0,381777488756072 
960	 0,380855278042405 
961	 0,379272076444478 
962	 0,376833544389985 
963	 0,376104516368152 
964	 0,375890600463537 
965	 0,373839337905694 
966	 0,373238607240183 
967	 0,374174466196846 
968	 0,374526332572115 
969	 0,373938124640074 
970	 0,372501980888423 
971	 0,371797770612862 
972	 0,37195719502032 
973	 0,372838566696758 
974	 0,372922120526385 
975	 0,372120012342687 
976	 0,370733385956337 
977	 0,371862058103654 
978	 0,374624679564695 
979	 0,3728393502022 
980	 0,371115898374092 
981	 0,371824239069746 
982	 0,374220707059148 
983	 0,376100564917993 
984	 0,37530499524642 
985	 0,372765477984242 
986	 0,370861197357972 
987	 0,373732461770892 
988	 0,375884082182754 
989	 0,376028625893145 
990	 0,375947720940052 
991	 0,376045995066042 
992	 0,37665217821973 
993	 0,37807842239595 
994	 0,378824297850261 
995	 0,377666484975427 
996	 0,37967665282971 
997	 0,383124884144413 
998	 0,382988071569834 
999	 0,382149325043412 
1000	 0,381817965889146 
1001	 0,383058957988438 
1002	 0,385270231361995 
1003	 0,387692424738095 
1004	 0,388373990855946 
1005	 0,38834466914766 
1006	 0,388783217610426 
1007	 0,389328809682387 
1008	 0,389982945100012 
1009	 0,390776551715011 
1010	 0,391842729937516 
1011	 0,393105249836356 
1012	 0,394455207119595 
1013	 0,394417599585486 
1014	 0,393290499589618 
1015	 0,396087567046133 
1016	 0,399310542367301 
1017	 0,399715903667971 
1018	 0,397769868793223 
1019	 0,396880178611443 
1020	 0,401748739458871 
1021	 0,405120752764028 
1022	 0,405177707905692 
1023	 0,401421962301613 
1024	 0,401988307295074 
1025	 0,407893363369042 
1026	 0,409803047585186 
1027	 0,407744705748368 
1028	 0,403641472201776 
1029	 0,409207074121426 
1030	 0,416043751599086 
1031	 0,413523620907082 
1032	 0,412646000429701 
1033	 0,414186936859449 
1034	 0,41551476573917 
1035	 0,414317784058355 
1036	 0,411732416186353 
1037	 0,413795037816944 
1038	 0,418637278391685 
1039	 0,423516613891369 
1040	 0,419579177673361 
1041	 0,416110206851037 
1042	 0,420075952597315 
1043	 0,418944167821058 
1044	 0,417632885258522 
1045	 0,424433431386239 
1046	 0,421960430796847 
1047	 0,413672802780297 
1048	 0,416335016714048 
1049	 0,418546517308821 
1050	 0,418939995604161 
1051	 0,426763533524192 
1052	 0,428294884321668 
1053	 0,419143220771004 
1054	 0,415062933668667 
1055	 0,416550449765336 
1056	 0,422598291123371 
1057	 0,430401397521472 
1058	 0,432715105155444 
1059	 0,421066764273514 
1060	 0,418792698464503 
1061	 0,424225195718595 
1062	 0,42133443510549 
1063	 0,416552201509479 
1064	 0,414129192612014 
1065	 0,422399439966701 
1066	 0,429023202855944 
1067	 0,428149344539706 
1068	 0,420618226456726 
1069	 0,421558875489196 
1070	 0,438221556181115 
1071	 0,434793493805008 
1072	 0,42530720322985 
1073	 0,430408752346541 
1074	 0,427224756580044 
1075	 0,418865831357566 
