Wavelength	CHO-GIL00082.asd
325	 0,482233999061977 
326	 0,366386244843068 
327	 0,290542556559489 
328	 0,296406075402484 
329	 0,34902960989766 
330	 0,396526618494645 
331	 0,365212846474911 
332	 0,323635025447151 
333	 0,29115517274851 
334	 0,255451808434978 
335	 0,232539316474335 
336	 0,239590819594052 
337	 0,202844911394996 
338	 0,182045664047989 
339	 0,214141407367293 
340	 0,197394421882557 
341	 0,163152047177157 
342	 0,204337025574198 
343	 0,230711219853929 
344	 0,216061272556199 
345	 0,20861359360301 
346	 0,218934816405687 
347	 0,250732056537842 
348	 0,282624419413259 
349	 0,294661289860694 
350	 0,24063301510699 
351	 0,2021723554068 
352	 0,211034369199693 
353	 0,233752013732179 
354	 0,239146695694187 
355	 0,201554728141678 
356	 0,182220699578608 
357	 0,189430451392834 
358	 0,204580025380394 
359	 0,225605170285527 
360	 0,247119876619765 
361	 0,247785283755226 
362	 0,242312732253892 
363	 0,253847176959758 
364	 0,249912325633708 
365	 0,233042587900992 
366	 0,235504881103191 
367	 0,236243239071408 
368	 0,224797053803503 
369	 0,230393729883213 
370	 0,244896225073061 
371	 0,248441669042795 
372	 0,261786141406167 
373	 0,283204088015601 
374	 0,289043330131748 
375	 0,268937967734185 
376	 0,22077322036034 
377	 0,213099758984712 
378	 0,230319062630129 
379	 0,207826353295663 
380	 0,205026846113818 
381	 0,231356057679523 
382	 0,236855320200255 
383	 0,23894885772223 
384	 0,255606102127048 
385	 0,261544948346948 
386	 0,252621724627253 
387	 0,226783449238858 
388	 0,216169150500287 
389	 0,232708626109682 
390	 0,254675760574617 
391	 0,268602160155357 
392	 0,261634983962142 
393	 0,260069439765977 
394	 0,262712799431743 
395	 0,247646702278308 
396	 0,234017893198018 
397	 0,232261388779438 
398	 0,239995815636558 
399	 0,251221100883912 
400	 0,258725915475872 
401	 0,260474631148092 
402	 0,258588146785574 
403	 0,265037937502971 
404	 0,263928566942403 
405	 0,246516880542177 
406	 0,238731366438874 
407	 0,240196937577548 
408	 0,241296454176293 
409	 0,247867172404752 
410	 0,258388517936724 
411	 0,260550384965791 
412	 0,260528731346216 
413	 0,264093294631519 
414	 0,257685968489783 
415	 0,246656087434395 
416	 0,250168759499707 
417	 0,252429761466887 
418	 0,248511439037629 
419	 0,250818689076535 
420	 0,252918457749834 
421	 0,245498016733883 
422	 0,24763164582585 
423	 0,257819467635792 
424	 0,25765026036315 
425	 0,252808127630782 
426	 0,247666421794581 
427	 0,246672197025059 
428	 0,248872445435326 
429	 0,251342367126463 
430	 0,254589303856183 
431	 0,257584233712802 
432	 0,256799287543172 
433	 0,253769127512864 
434	 0,250355389811416 
435	 0,251935482291882 
436	 0,25596376442508 
437	 0,25358384439785 
438	 0,250454109135952 
439	 0,24931947517056 
440	 0,252469868665083 
441	 0,255424468924462 
442	 0,252411374877797 
443	 0,251536846947107 
444	 0,253383325869449 
445	 0,25278361191751 
446	 0,253119480430182 
447	 0,255808093104245 
448	 0,253906153674458 
449	 0,250455051397069 
450	 0,252897672932346 
451	 0,252712096612721 
452	 0,249407935694388 
453	 0,253204113323914 
454	 0,257881365301298 
455	 0,257571747562854 
456	 0,256200252465802 
457	 0,255271266868269 
458	 0,256745252120579 
459	 0,257869543046284 
460	 0,257581270470302 
461	 0,257426001917845 
462	 0,257619331750465 
463	 0,258261233076125 
464	 0,257563856177643 
465	 0,255829820249773 
466	 0,255507943772794 
467	 0,256089346792689 
468	 0,257227457478637 
469	 0,259355582937325 
470	 0,260801177495342 
471	 0,258164374181255 
472	 0,256261317787925 
473	 0,256520136745763 
474	 0,2570451820016 
475	 0,257683839437982 
476	 0,25837214229237 
477	 0,259420244332894 
478	 0,260243795098142 
479	 0,259237763932699 
480	 0,257491717224847 
481	 0,256003148052129 
482	 0,257732352768304 
483	 0,259399668537291 
484	 0,255810876104622 
485	 0,254052011710764 
486	 0,255452367301021 
487	 0,257394551784997 
488	 0,25795901230903 
489	 0,255973101421311 
490	 0,255084621841242 
491	 0,255433921151784 
492	 0,255833485245967 
493	 0,256377849929574 
494	 0,256898526439375 
495	 0,256859220279535 
496	 0,256376102205873 
497	 0,255649202218381 
498	 0,256317492155694 
499	 0,25765463881951 
500	 0,256064076837778 
501	 0,255099100162639 
502	 0,256570619584688 
503	 0,257667197680139 
504	 0,258537567823742 
505	 0,2602074415753 
506	 0,261137633058017 
507	 0,260802501945606 
508	 0,258970603495758 
509	 0,257635645694965 
510	 0,258571707040103 
511	 0,261008119662196 
512	 0,26351012777225 
513	 0,263165251299874 
514	 0,261964640162197 
515	 0,260989775738059 
516	 0,261104314737644 
517	 0,261467317238485 
518	 0,260737717639861 
519	 0,261303092473827 
520	 0,262799245847457 
521	 0,261726511673156 
522	 0,260343900606761 
523	 0,260248307342495 
524	 0,259784457638223 
525	 0,258987044361332 
526	 0,25834567076926 
527	 0,258457749398691 
528	 0,259314277668849 
529	 0,259637760293048 
530	 0,259440479702454 
531	 0,258879092590006 
532	 0,259234895864065 
533	 0,260115522072197 
534	 0,259362569474691 
535	 0,258303594765418 
536	 0,257822469757767 
537	 0,25826185851141 
538	 0,25899003810484 
539	 0,258783669466371 
540	 0,25852561437066 
541	 0,258490930037095 
542	 0,258749614410796 
543	 0,258588251018042 
544	 0,257413740886169 
545	 0,25757928066161 
546	 0,258872720958883 
547	 0,259408734609672 
548	 0,25952057286182 
549	 0,25931583828128 
550	 0,258661848939737 
551	 0,258210187158216 
552	 0,25896758796621 
553	 0,259414515965013 
554	 0,259242062244269 
555	 0,25909903365295 
556	 0,259321778774323 
557	 0,260068257411634 
558	 0,259739599165923 
559	 0,258802141873435 
560	 0,259051269009177 
561	 0,259999113066307 
562	 0,261099412583484 
563	 0,260182947948012 
564	 0,258828950824006 
565	 0,259339097183552 
566	 0,260170794129581 
567	 0,260714475943674 
568	 0,260201208964532 
569	 0,259992749237596 
570	 0,260925300791372 
571	 0,261111221358651 
572	 0,260920880269747 
573	 0,261868303689734 
574	 0,262470897442791 
575	 0,262363917167832 
576	 0,262547329121048 
577	 0,262923807438967 
578	 0,263296255157203 
579	 0,263266359460263 
580	 0,263191125393941 
581	 0,264433314971204 
582	 0,265872071745998 
583	 0,266867817049259 
584	 0,26795450803498 
585	 0,268920961525774 
586	 0,269248991779244 
587	 0,27013162124364 
588	 0,271562231982167 
589	 0,271664217724937 
590	 0,271906265929093 
591	 0,273607543875862 
592	 0,274153994064064 
593	 0,273723589445724 
594	 0,274246075017924 
595	 0,274738285524537 
596	 0,274797782798766 
597	 0,274800982461363 
598	 0,274737483451359 
599	 0,274531249138793 
600	 0,274396980643925 
601	 0,274319388786249 
602	 0,274013490755331 
603	 0,273471780095158 
604	 0,272795023386056 
605	 0,273195580946709 
606	 0,274017533789073 
607	 0,273158554969996 
608	 0,272322926476787 
609	 0,272036524125078 
610	 0,271409425989487 
611	 0,270661492959159 
612	 0,270147493054266 
613	 0,269900055514532 
614	 0,269899633564844 
615	 0,270133859829789 
616	 0,269965999113796 
617	 0,269107726705258 
618	 0,268964744014888 
619	 0,269160357201837 
620	 0,268452991137015 
621	 0,26840033543612 
622	 0,26916714847929 
623	 0,2689812693224 
624	 0,268496196239733 
625	 0,268491871896392 
626	 0,268854219248228 
627	 0,269392268874387 
628	 0,269602136138663 
629	 0,269810515896709 
630	 0,270155341279697 
631	 0,270451495117158 
632	 0,270484146614807 
633	 0,269890761885197 
634	 0,270147482336223 
635	 0,2713140303447 
636	 0,271694143872888 
637	 0,27180094465168 
638	 0,272120372382765 
639	 0,272585933072097 
640	 0,273109661905357 
641	 0,273496261794668 
642	 0,273752257763313 
643	 0,273962967339047 
644	 0,274706122815785 
645	 0,275349108637294 
646	 0,275028499252428 
647	 0,274389553746236 
648	 0,273670068927944 
649	 0,273091819390048 
650	 0,272239144680192 
651	 0,270956388828342 
652	 0,270490885590765 
653	 0,27047168618672 
654	 0,269734430655715 
655	 0,269228198348618 
656	 0,269149322834574 
657	 0,26893695125283 
658	 0,26855725310785 
659	 0,268009893133661 
660	 0,267219651627915 
661	 0,266330394410403 
662	 0,265739747556654 
663	 0,265212074505601 
664	 0,264689495894954 
665	 0,26463731741519 
666	 0,264675286582627 
667	 0,264150849630349 
668	 0,263475834938688 
669	 0,263054959275161 
670	 0,264031669969692 
671	 0,264708743426956 
672	 0,263788307310774 
673	 0,262939005285366 
674	 0,26264139831615 
675	 0,263401920534305 
676	 0,263628467358243 
677	 0,263009244738637 
678	 0,263634246963076 
679	 0,264508958593256 
680	 0,264279062438472 
681	 0,264185707634285 
682	 0,26458533054584 
683	 0,265763837571699 
684	 0,266337876313571 
685	 0,265706491616977 
686	 0,26612797001686 
687	 0,267433071526461 
688	 0,268753838562671 
689	 0,270026972338647 
690	 0,271547534079207 
691	 0,27465554492334 
692	 0,27849329134872 
693	 0,282325852148047 
694	 0,287654622584545 
695	 0,294491483986378 
696	 0,302013222443511 
697	 0,31075965483056 
698	 0,320920680368795 
699	 0,332223167486402 
700	 0,344344613865585 
701	 0,356924420937537 
702	 0,370489158791024 
703	 0,384908907052044 
704	 0,399512223796026 
705	 0,413994332601715 
706	 0,428127208638673 
707	 0,441789615788128 
708	 0,455309374871394 
709	 0,469305761347412 
710	 0,482899346066908 
711	 0,495815163955538 
712	 0,508116690925932 
713	 0,520014460421622 
714	 0,531665066195307 
715	 0,542324403028319 
716	 0,55220472035623 
717	 0,562319542011437 
718	 0,571595979158385 
719	 0,579725402599592 
720	 0,587889909397463 
721	 0,595677253928676 
722	 0,602410773545721 
723	 0,608688505504319 
724	 0,614569889157852 
725	 0,619631775934209 
726	 0,624497734778371 
727	 0,629472686639711 
728	 0,633553753508262 
729	 0,636995622062703 
730	 0,640485663464544 
731	 0,643706757653303 
732	 0,646630101048795 
733	 0,649535369090799 
734	 0,651871093900659 
735	 0,65323191225287 
736	 0,654965110228541 
737	 0,656959100477562 
738	 0,65822134186857 
739	 0,659558531181338 
740	 0,661134379832904 
741	 0,662103687331205 
742	 0,662874696650698 
743	 0,663981615073164 
744	 0,664704008963812 
745	 0,665081751666918 
746	 0,665771574001425 
747	 0,666222004465143 
748	 0,666245585706515 
749	 0,666731440331823 
750	 0,667297501385141 
751	 0,667183884704754 
752	 0,667414437330137 
753	 0,667981953836927 
754	 0,667687523354426 
755	 0,667570634310363 
756	 0,668307411150646 
757	 0,668646859719536 
758	 0,668565111568007 
759	 0,668392697831644 
760	 0,668504859232321 
761	 0,668879954392748 
762	 0,668718186336107 
763	 0,66829934918059 
764	 0,667960466344144 
765	 0,668154248730554 
766	 0,668578036165361 
767	 0,668201504908686 
768	 0,667821253776722 
769	 0,667702095293825 
770	 0,667449865520493 
771	 0,667121761190514 
772	 0,666822193687553 
773	 0,666716096525514 
774	 0,666725362229972 
775	 0,666449692123422 
776	 0,666370215150703 
777	 0,666637273413355 
778	 0,666461506189168 
779	 0,666085067837182 
780	 0,665996236715695 
781	 0,665742962108657 
782	 0,665318250688513 
783	 0,665086579376952 
784	 0,664950146486736 
785	 0,664860808362402 
786	 0,665016753950113 
787	 0,665134946532886 
788	 0,664662662714338 
789	 0,664411506013109 
790	 0,664506405029088 
791	 0,664376725008405 
792	 0,664085116098857 
793	 0,663707636394619 
794	 0,663354923255289 
795	 0,663100325895325 
796	 0,663056733912047 
797	 0,662912948603414 
798	 0,662567114606064 
799	 0,662129587533473 
800	 0,661722234654029 
801	 0,661460813432991 
802	 0,661392207889341 
803	 0,66149354620881 
804	 0,661728362849074 
805	 0,66180035252757 
806	 0,661624072270503 
807	 0,661480538714764 
808	 0,661414596322242 
809	 0,661436650008442 
810	 0,66121326491199 
811	 0,660837192420495 
812	 0,660771132409875 
813	 0,660678198049107 
814	 0,660468336589105 
815	 0,660508879189705 
816	 0,660479940277403 
817	 0,659999330222913 
818	 0,660272505543164 
819	 0,661016057437762 
820	 0,660493192350212 
821	 0,660260686453313 
822	 0,66088422498141 
823	 0,660927968973697 
824	 0,660616670669205 
825	 0,660424241959233 
826	 0,66017448041972 
827	 0,659978472442019 
828	 0,660260820817657 
829	 0,660536643705126 
830	 0,660492010396207 
831	 0,659924622216301 
832	 0,659379964990319 
833	 0,659603881058098 
834	 0,659577614034978 
835	 0,659155233177196 
836	 0,65868136347874 
837	 0,6585423412337 
838	 0,658905611648882 
839	 0,659280094067432 
840	 0,659430196463286 
841	 0,659135534140675 
842	 0,658666009341959 
843	 0,6582580875256 
844	 0,658357732045102 
845	 0,658597314681721 
846	 0,658687847878858 
847	 0,658219477296454 
848	 0,657662319246851 
849	 0,657731848800995 
850	 0,657589949384096 
851	 0,657223174067507 
852	 0,657293019788874 
853	 0,65741726420263 
854	 0,657370900795551 
855	 0,657142544471481 
856	 0,656915536550677 
857	 0,656935022755071 
858	 0,656919096077906 
859	 0,6568474887994 
860	 0,656963095212817 
861	 0,656675111578329 
862	 0,655907880799523 
863	 0,656342921925306 
864	 0,657004300844928 
865	 0,656424930994125 
866	 0,655685855721051 
867	 0,655292818700033 
868	 0,656060272639239 
869	 0,656222910199444 
870	 0,655176388853151 
871	 0,654908856575953 
872	 0,65532356101844 
873	 0,656025278919517 
874	 0,655668016369402 
875	 0,654638323807195 
876	 0,654991791327509 
877	 0,655333556684761 
878	 0,655180385563315 
879	 0,65532521597046 
880	 0,655376088449875 
881	 0,654892102955705 
882	 0,654641792515695 
883	 0,654596735272202 
884	 0,654218758361952 
885	 0,65398362196407 
886	 0,654055243968465 
887	 0,654386698019271 
888	 0,654438133968534 
889	 0,653800745885203 
890	 0,653899142293826 
891	 0,654289930664273 
892	 0,65337602506603 
893	 0,652859780756101 
894	 0,653151964357905 
895	 0,65346241133686 
896	 0,653498693604312 
897	 0,653096243773038 
898	 0,65279860632069 
899	 0,652793560518216 
900	 0,653261553104736 
901	 0,65322449374479 
902	 0,652624963877951 
903	 0,652461835793665 
904	 0,652257738321178 
905	 0,651795144256126 
906	 0,651836273795789 
907	 0,651851806087056 
908	 0,650988680992427 
909	 0,650765195645341 
910	 0,65124216783058 
911	 0,651366024762861 
912	 0,65156332887355 
913	 0,651752156247903 
914	 0,650312483353183 
915	 0,649055505163264 
916	 0,649981386527543 
917	 0,650147829620044 
918	 0,649686630884893 
919	 0,650617142018895 
920	 0,650862817885335 
921	 0,649933476940223 
922	 0,649164247904991 
923	 0,648606460427209 
924	 0,64826698909175 
925	 0,648161071267219 
926	 0,648180862597881 
927	 0,648152848697088 
928	 0,648059344941354 
929	 0,647819052057695 
930	 0,647213748761945 
931	 0,646570368849175 
932	 0,646098872342102 
933	 0,64580673070449 
934	 0,645244489363598 
935	 0,643895095217441 
936	 0,643431955060916 
937	 0,643841331904677 
938	 0,644102687050003 
939	 0,643541310940752 
940	 0,642042247132964 
941	 0,6406738068118 
942	 0,639851831697406 
943	 0,63977692007876 
944	 0,639114870760041 
945	 0,638244045635836 
946	 0,638332603387328 
947	 0,637588958515979 
948	 0,63609798548968 
949	 0,636166561003882 
950	 0,636120590609591 
951	 0,634973847230542 
952	 0,632942261997884 
953	 0,631487552555115 
954	 0,632183889820232 
955	 0,631345183323415 
956	 0,629068181161452 
957	 0,627728187024822 
958	 0,626135893551614 
959	 0,624518030845604 
960	 0,625546157677205 
961	 0,626347624630036 
962	 0,624855319651954 
963	 0,623738663750176 
964	 0,623116545049847 
965	 0,622575777207529 
966	 0,622701834752435 
967	 0,623375819607523 
968	 0,624180316937993 
969	 0,623026512535966 
970	 0,62003284403556 
971	 0,620938570219683 
972	 0,622500487546097 
973	 0,621605028762606 
974	 0,621829769855013 
975	 0,62265192089945 
976	 0,622171519100308 
977	 0,621077876572648 
978	 0,620006099254623 
979	 0,620402698248741 
980	 0,620912887870017 
981	 0,621038499935993 
982	 0,622478342753894 
983	 0,622981791326042 
984	 0,620484435049789 
985	 0,619585097263416 
986	 0,620306896356693 
987	 0,620932459390943 
988	 0,622146621002689 
989	 0,623435107177446 
990	 0,622746395935214 
991	 0,621271566030755 
992	 0,620216724943872 
993	 0,622384281838348 
994	 0,624415491349508 
995	 0,622808319774684 
996	 0,621600195052167 
997	 0,621479742601988 
998	 0,622284480600938 
999	 0,62279901947551 
1000	 0,622733862073906 
1001	 0,622694459589355 
1002	 0,622219517063579 
1003	 0,621651793073191 
1004	 0,624346109581292 
1005	 0,626170931510053 
1006	 0,623390456540639 
1007	 0,623275879776033 
1008	 0,624905624232002 
1009	 0,624381856958397 
1010	 0,624345527648602 
1011	 0,625486429505522 
1012	 0,628211956684465 
1013	 0,628056355885632 
1014	 0,624965613774415 
1015	 0,629936818705468 
1016	 0,634237507920542 
1017	 0,630771741826311 
1018	 0,629259290931106 
1019	 0,629360638544406 
1020	 0,628463635319817 
1021	 0,629197651154184 
1022	 0,63019281678279 
1023	 0,625848565234598 
1024	 0,623358593708196 
1025	 0,625064177237969 
1026	 0,629068698163247 
1027	 0,631041927102932 
1028	 0,629063746610102 
1029	 0,632087689882649 
1030	 0,635396201949001 
1031	 0,63292815019858 
1032	 0,633208619928185 
1033	 0,635134236269596 
1034	 0,633329475573515 
1035	 0,627539557709304 
1036	 0,621222725713224 
1037	 0,625514456033325 
1038	 0,632660566587362 
1039	 0,63767093220325 
1040	 0,636176336212635 
1041	 0,633784634293744 
1042	 0,634745931203513 
1043	 0,631815429772641 
1044	 0,627077199174169 
1045	 0,624740627821464 
1046	 0,624123664234381 
1047	 0,624982488311496 
1048	 0,626692732572737 
1049	 0,631540282554755 
1050	 0,636446090478395 
1051	 0,626861409901086 
1052	 0,621370278215538 
1053	 0,627897538626095 
1054	 0,633542768513879 
1055	 0,63492248725058 
1056	 0,630662036539305 
1057	 0,628916887032316 
1058	 0,630681054468583 
1059	 0,635217313110495 
1060	 0,635265479713424 
1061	 0,629801361034072 
1062	 0,620336338172722 
1063	 0,613936490095033 
1064	 0,614805329483427 
1065	 0,62766783618938 
1066	 0,634587477905926 
1067	 0,630137633121385 
1068	 0,634714009602938 
1069	 0,634724018105954 
1070	 0,621692705004735 
1071	 0,617334092931986 
1072	 0,620561784683913 
1073	 0,625880785611917 
1074	 0,622207381497143 
1075	 0,614724881938124 
