Wavelength	CHO-GIL00080.asd
325	 0,348821577533602 
326	 0,297662797497821 
327	 0,285379147297239 
328	 0,320735558724494 
329	 0,47692182557089 
330	 0,505477232017742 
331	 0,206503114976789 
332	 0,136851230435665 
333	 0,19227048294517 
334	 0,230303989444361 
335	 0,314753545800477 
336	 0,385576624580592 
337	 0,244472491798991 
338	 0,131349490252191 
339	 0,196334292904483 
340	 0,243425790156534 
341	 0,241785678480641 
342	 0,204274583265461 
343	 0,201553244770673 
344	 0,243902409790185 
345	 0,242503527751646 
346	 0,230307429175892 
347	 0,243708416368118 
348	 0,243630744973207 
349	 0,234344912210365 
350	 0,239496611648719 
351	 0,22997026430543 
352	 0,19948286838495 
353	 0,186659392916008 
354	 0,195868089713664 
355	 0,22497581170762 
356	 0,234526020076056 
357	 0,224821062170031 
358	 0,224257380567389 
359	 0,232500624655818 
360	 0,246123825945908 
361	 0,245378102052333 
362	 0,239078371272263 
363	 0,241976641668879 
364	 0,245081698416441 
365	 0,242922530904497 
366	 0,219114086371479 
367	 0,222300264480378 
368	 0,272608216294524 
369	 0,256985326293066 
370	 0,213247712693489 
371	 0,226904034004755 
372	 0,247182921474563 
373	 0,259708117157891 
374	 0,270074391547815 
375	 0,264828092558925 
376	 0,236469358637568 
377	 0,221565532145748 
378	 0,225571004747618 
379	 0,247038767564488 
380	 0,251377362762126 
381	 0,235112550065244 
382	 0,246816587304334 
383	 0,258273128908147 
384	 0,24395965514476 
385	 0,240483056665668 
386	 0,244929571363212 
387	 0,229816024463051 
388	 0,226837121650844 
389	 0,244596311200048 
390	 0,251820304586293 
391	 0,256721746617947 
392	 0,27124366977713 
393	 0,265287026013108 
394	 0,246547207277617 
395	 0,255811730782471 
396	 0,262906517744505 
397	 0,253889461400903 
398	 0,246923801139826 
399	 0,244903653517089 
400	 0,248630689361587 
401	 0,252559126209762 
402	 0,254860976875473 
403	 0,256040581683638 
404	 0,256217491668495 
405	 0,255276613344792 
406	 0,25031253849163 
407	 0,245233917274533 
408	 0,248788344566097 
409	 0,247710464677869 
410	 0,241283504327551 
411	 0,2457147620834 
412	 0,251524626102833 
413	 0,249736457014639 
414	 0,247211272179595 
415	 0,246298555716003 
416	 0,250450025332552 
417	 0,249574638886638 
418	 0,242040024064384 
419	 0,244903955702327 
420	 0,251018306502006 
421	 0,249590857011042 
422	 0,249968081207872 
423	 0,25219133680385 
424	 0,249547756077978 
425	 0,246682250153351 
426	 0,246530721432382 
427	 0,247982636285771 
428	 0,249873090485607 
429	 0,250513036027364 
430	 0,250220116256556 
431	 0,249936048632684 
432	 0,253768048480446 
433	 0,255904318513792 
434	 0,251526898378785 
435	 0,249530694403178 
436	 0,249779766985462 
437	 0,24714350119149 
438	 0,246222478998025 
439	 0,248138533710321 
440	 0,248094927265112 
441	 0,247329125184674 
442	 0,247945482240003 
443	 0,24787809223432 
444	 0,247387716754285 
445	 0,249145795340876 
446	 0,249893930261416 
447	 0,247958542723642 
448	 0,247409371209739 
449	 0,248748891259672 
450	 0,252122052353204 
451	 0,252409271458484 
452	 0,249149223718659 
453	 0,248402959706085 
454	 0,249533772591943 
455	 0,251614038433348 
456	 0,254055448596201 
457	 0,255038607269641 
458	 0,249748183429341 
459	 0,248029526138271 
460	 0,252908864796534 
461	 0,253346652927973 
462	 0,25246674300812 
463	 0,255819010736514 
464	 0,254972116325263 
465	 0,250908295651325 
466	 0,254453389419303 
467	 0,257800754531643 
468	 0,256130875463281 
469	 0,256420923281381 
470	 0,257515256063789 
471	 0,255119866363837 
472	 0,252719107748285 
473	 0,251657666268699 
474	 0,251902060661954 
475	 0,253479027555058 
476	 0,256255013936978 
477	 0,257938021582804 
478	 0,257743015920028 
479	 0,255052573409522 
480	 0,252035410753098 
481	 0,250174502236228 
482	 0,251003362770336 
483	 0,252546528788592 
484	 0,251705996545895 
485	 0,252509695417027 
486	 0,254793023986975 
487	 0,25417711076698 
488	 0,252143976420945 
489	 0,250170756815449 
490	 0,250675867698134 
491	 0,252762097014449 
492	 0,253607029083139 
493	 0,253377510993342 
494	 0,252392429763797 
495	 0,252410592314353 
496	 0,25336609758236 
497	 0,254968305216869 
498	 0,254668018480955 
499	 0,252880946848514 
500	 0,252612647176202 
501	 0,25342867829736 
502	 0,254909768142675 
503	 0,25577039447888 
504	 0,255699006516627 
505	 0,254348860877531 
506	 0,254685074041001 
507	 0,256868212010249 
508	 0,25735040118876 
509	 0,257210084021579 
510	 0,257522283689619 
511	 0,25710813755471 
512	 0,256457520778235 
513	 0,257420805809253 
514	 0,257828064473554 
515	 0,256949289767117 
516	 0,256558066622089 
517	 0,25678709273289 
518	 0,257558536911267 
519	 0,258021033218038 
520	 0,258018835342656 
521	 0,257948848860871 
522	 0,258098907830107 
523	 0,258546968143548 
524	 0,257806507646224 
525	 0,256380159354751 
526	 0,255840408284192 
527	 0,255590943089526 
528	 0,25539481282041 
529	 0,254852401882054 
530	 0,254528227701845 
531	 0,255080646529304 
532	 0,255013162460839 
533	 0,254482027920256 
534	 0,255161417952906 
535	 0,25564100907676 
536	 0,255184246533041 
537	 0,255117489287723 
538	 0,255255928941955 
539	 0,254887776635805 
540	 0,254862156430621 
541	 0,255234028494593 
542	 0,25500679917498 
543	 0,254626029115777 
544	 0,254581407513348 
545	 0,254882734512438 
546	 0,255390590501614 
547	 0,25576471686302 
548	 0,255958630901096 
549	 0,255875517477117 
550	 0,255070356728901 
551	 0,254358328731328 
552	 0,255041958128767 
553	 0,255792542611696 
554	 0,256122798890923 
555	 0,255741809031671 
556	 0,255699474900658 
557	 0,256720064240002 
558	 0,256280921909261 
559	 0,255014207887856 
560	 0,255618796208935 
561	 0,256534040515131 
562	 0,256931421805309 
563	 0,255654552566932 
564	 0,254416666871203 
565	 0,255568690369548 
566	 0,255921536529877 
567	 0,255231647288909 
568	 0,255653403196433 
569	 0,256456486938062 
570	 0,257066902799719 
571	 0,257129589803774 
572	 0,257019911192728 
573	 0,257696899393356 
574	 0,258360405143442 
575	 0,258761208174093 
576	 0,259185429361815 
577	 0,259579072767751 
578	 0,259867760681158 
579	 0,260353366638712 
580	 0,260923490603601 
581	 0,260902956918933 
582	 0,261278650924523 
583	 0,262581100392936 
584	 0,264255948836285 
585	 0,265605205173352 
586	 0,26552662210444 
587	 0,265951523126736 
588	 0,267311639476508 
589	 0,268638605992209 
590	 0,269491960828251 
591	 0,269541321027498 
592	 0,269556533175618 
593	 0,269832377398753 
594	 0,270793711442444 
595	 0,271082568340168 
596	 0,270287898554539 
597	 0,270410289262569 
598	 0,270950010894389 
599	 0,270829226039585 
600	 0,270819596160702 
601	 0,270951211579582 
602	 0,270568497281451 
603	 0,270085622913135 
604	 0,269829665819292 
605	 0,269458876860027 
606	 0,26899827793143 
607	 0,26864786168714 
608	 0,268257991606121 
609	 0,267785152205426 
610	 0,267244071959701 
611	 0,266908974401351 
612	 0,267104926612867 
613	 0,266983811587834 
614	 0,266320259746681 
615	 0,264991713544659 
616	 0,264376760167767 
617	 0,265204831765078 
618	 0,265492044671997 
619	 0,265110269454052 
620	 0,26436779038119 
621	 0,264075299362354 
622	 0,264423698738535 
623	 0,264712199791311 
624	 0,26477255653047 
625	 0,264515322162869 
626	 0,264973855689536 
627	 0,265948647841939 
628	 0,266202002589582 
629	 0,266376783491851 
630	 0,266737610044868 
631	 0,266787017705778 
632	 0,266667334764003 
633	 0,266669133262129 
634	 0,266956299325493 
635	 0,267519262727663 
636	 0,268046928215919 
637	 0,268589801858855 
638	 0,269191866767999 
639	 0,26983603590701 
640	 0,270326506696048 
641	 0,270164178042596 
642	 0,270090477663697 
643	 0,270370299131795 
644	 0,270506605250007 
645	 0,270638024591715 
646	 0,271002650730086 
647	 0,270960618105751 
648	 0,270427431652807 
649	 0,269783913633545 
650	 0,268835602600827 
651	 0,267571456744416 
652	 0,267051878593395 
653	 0,266869626451486 
654	 0,26579818886994 
655	 0,26523281376968 
656	 0,265447943231443 
657	 0,265504448776579 
658	 0,264992822269408 
659	 0,263616171271414 
660	 0,262938251304561 
661	 0,262870225635391 
662	 0,262026711330979 
663	 0,261376586673506 
664	 0,26133818245486 
665	 0,261308529256864 
666	 0,261012237313659 
667	 0,260117736248374 
668	 0,259691011802742 
669	 0,259908637100709 
670	 0,260143452864092 
671	 0,260131163058102 
672	 0,259719669978921 
673	 0,259610230172401 
674	 0,259790768820691 
675	 0,259876815227027 
676	 0,260188792105023 
677	 0,26073574434619 
678	 0,260974743029518 
679	 0,261043732900186 
680	 0,261164009655782 
681	 0,261340729879112 
682	 0,261656279266444 
683	 0,262349340782989 
684	 0,26295502608142 
685	 0,263234550170646 
686	 0,263608236010078 
687	 0,264290469538377 
688	 0,265512763268846 
689	 0,267069397528206 
690	 0,269005079856733 
691	 0,271643392158016 
692	 0,275020940135989 
693	 0,279180301167724 
694	 0,284309472335243 
695	 0,290658312202869 
696	 0,298697229928323 
697	 0,307785146597819 
698	 0,317710979547678 
699	 0,328886572203738 
700	 0,34122802351188 
701	 0,354592042286433 
702	 0,368151530154285 
703	 0,38182688154401 
704	 0,396361103775399 
705	 0,410813187348396 
706	 0,424638262779614 
707	 0,438642056746071 
708	 0,452659470280852 
709	 0,466136935189913 
710	 0,47951384404501 
711	 0,492751990032798 
712	 0,505008390387373 
713	 0,516685790875996 
714	 0,528189037542306 
715	 0,539302004846403 
716	 0,549896397803057 
717	 0,559860395445484 
718	 0,568862371745469 
719	 0,576877581104319 
720	 0,58481777961744 
721	 0,592413527159003 
722	 0,599188829855404 
723	 0,605408719051711 
724	 0,611127164452501 
725	 0,616173488757176 
726	 0,621146199656328 
727	 0,626309835987962 
728	 0,630491237903893 
729	 0,633887694617006 
730	 0,637104303151205 
731	 0,640432442678675 
732	 0,643793827955866 
733	 0,646343654926662 
734	 0,648323459032912 
735	 0,650016600466194 
736	 0,651990625518595 
737	 0,654027563025364 
738	 0,655243007921355 
739	 0,656490885721589 
740	 0,657946190510991 
741	 0,658680758287755 
742	 0,659124617998295 
743	 0,659856032791364 
744	 0,660834348854467 
745	 0,661772983642907 
746	 0,661789995627074 
747	 0,661809224593979 
748	 0,662330126427337 
749	 0,663060423148926 
750	 0,663646762345624 
751	 0,663605504058082 
752	 0,663645684322072 
753	 0,663881432204961 
754	 0,663869847649007 
755	 0,664005605684905 
756	 0,664507607747581 
757	 0,664613290240721 
758	 0,664272325894361 
759	 0,663529520476283 
760	 0,663639834230004 
761	 0,664650651556599 
762	 0,664643877090018 
763	 0,664055633574997 
764	 0,663432424077431 
765	 0,663182690311388 
766	 0,663256403191439 
767	 0,663267581781643 
768	 0,663187440971106 
769	 0,663009173888104 
770	 0,662935738462547 
771	 0,662772978360338 
772	 0,66228597669338 
773	 0,661979575640995 
774	 0,661905959249169 
775	 0,6617913942598 
776	 0,661896540717863 
777	 0,662242807192995 
778	 0,662088191419483 
779	 0,661629223262327 
780	 0,661275293249428 
781	 0,66114987293957 
782	 0,661166244862311 
783	 0,660817445649626 
784	 0,660534001405456 
785	 0,660548657742477 
786	 0,660265529275543 
787	 0,659831757297644 
788	 0,659645820894182 
789	 0,659604406514527 
790	 0,659624502866706 
791	 0,659487116931693 
792	 0,659293789610605 
793	 0,659127075361415 
794	 0,658928470154215 
795	 0,65863803451506 
796	 0,658115464594685 
797	 0,657798895571649 
798	 0,657748988001767 
799	 0,657435893536899 
800	 0,657133018890493 
801	 0,65710848694965 
802	 0,657135731176495 
803	 0,657117241736353 
804	 0,656901540405983 
805	 0,656816377984884 
806	 0,656922247012965 
807	 0,65680626397301 
808	 0,65666130507176 
809	 0,656715433890754 
810	 0,656784543713198 
811	 0,656738480164778 
812	 0,65632357747086 
813	 0,655915240386565 
814	 0,655734754101049 
815	 0,655967027858083 
816	 0,656221145322674 
817	 0,656032417211003 
818	 0,656084234176961 
819	 0,656278511645319 
820	 0,655798391426974 
821	 0,655606263606017 
822	 0,656028588731585 
823	 0,655939034172597 
824	 0,655716538848582 
825	 0,655977450767719 
826	 0,655682669316338 
827	 0,655060145485357 
828	 0,655667597946759 
829	 0,655981039283311 
830	 0,655383616893858 
831	 0,655529094395781 
832	 0,655836958188139 
833	 0,65529932248368 
834	 0,65477900506507 
835	 0,654512215167388 
836	 0,654474408586048 
837	 0,654662013359854 
838	 0,654986106041101 
839	 0,654991657615328 
840	 0,654695778484437 
841	 0,654213577927487 
842	 0,653756102884564 
843	 0,65349009920241 
844	 0,653692723370462 
845	 0,653921616651543 
846	 0,653894805407548 
847	 0,653584773626931 
848	 0,653282325402934 
849	 0,653392053102237 
850	 0,653228528982066 
851	 0,652833505531051 
852	 0,652913966279623 
853	 0,653120324987961 
854	 0,65321497083917 
855	 0,652990572751184 
856	 0,652649447421228 
857	 0,652497618285098 
858	 0,65239508554443 
859	 0,652297343235186 
860	 0,652224240676848 
861	 0,651777804990927 
862	 0,650953980092197 
863	 0,651129458314382 
864	 0,651727931200919 
865	 0,651807972544298 
866	 0,651059245048461 
867	 0,650096217878183 
868	 0,651129012619067 
869	 0,651601475080034 
870	 0,650572056150627 
871	 0,650374132174671 
872	 0,650881668580198 
873	 0,651628289619634 
874	 0,651154870773418 
875	 0,649890760740635 
876	 0,650073203806831 
877	 0,650279112570784 
878	 0,650062236955395 
879	 0,650436309826595 
880	 0,650736679224301 
881	 0,650223264069773 
882	 0,649933753718599 
883	 0,649848751779271 
884	 0,649305461753326 
885	 0,648894573189833 
886	 0,648866225542431 
887	 0,649345405629575 
888	 0,649577436565601 
889	 0,648923763036626 
890	 0,648607770734908 
891	 0,648567634948964 
892	 0,648129161386886 
893	 0,647903716940262 
894	 0,648005058045746 
895	 0,647955593320965 
896	 0,648208348194807 
897	 0,649002316759522 
898	 0,649132488710588 
899	 0,648600054174096 
900	 0,647725842446847 
901	 0,647667347311324 
902	 0,648367402180661 
903	 0,648176853723367 
904	 0,647769305516068 
905	 0,647538914250506 
906	 0,647001027258621 
907	 0,64660900714329 
908	 0,647047003647941 
909	 0,646757911710537 
910	 0,646021842100623 
911	 0,647051177150928 
912	 0,647769462577427 
913	 0,647208818074017 
914	 0,646001705949317 
915	 0,645113065876955 
916	 0,645490040687082 
917	 0,646273468982813 
918	 0,64674232499464 
919	 0,645529027143206 
920	 0,644965872832213 
921	 0,645525935109114 
922	 0,645161344967482 
923	 0,644416983432782 
924	 0,643852633445901 
925	 0,643579037725163 
926	 0,643445017327904 
927	 0,643126519868646 
928	 0,642763776823625 
929	 0,642476250996679 
930	 0,64261624784529 
931	 0,642502630784586 
932	 0,641805625445581 
933	 0,641163989819392 
934	 0,640990784352452 
935	 0,641645466910836 
936	 0,641086676339702 
937	 0,639497868498461 
938	 0,638708533629634 
939	 0,638489627407879 
940	 0,638517044059685 
941	 0,637410581297624 
942	 0,636106053193915 
943	 0,635496513570759 
944	 0,635096792132185 
945	 0,634635399313561 
946	 0,63371651671027 
947	 0,633586064769919 
948	 0,633847430808961 
949	 0,631545268307267 
950	 0,630072598743172 
951	 0,630958102086721 
952	 0,630464791672153 
953	 0,629202496355721 
954	 0,6283536777528 
955	 0,626578320624271 
956	 0,62429190558775 
957	 0,623076410181879 
958	 0,622590511541604 
959	 0,622558231903571 
960	 0,622222570673691 
961	 0,621626052010028 
962	 0,620902595027258 
963	 0,620767085312238 
964	 0,620681807540483 
965	 0,619690403576579 
966	 0,619464720979715 
967	 0,619919659487012 
968	 0,619539274078403 
969	 0,618786640654878 
970	 0,617919896384859 
971	 0,617177082038985 
972	 0,616828147368725 
973	 0,617041714555668 
974	 0,617147199150245 
975	 0,617006725507823 
976	 0,616622451241678 
977	 0,616179102279085 
978	 0,615800347619427 
979	 0,61551461252081 
980	 0,616010191211483 
981	 0,61735429757869 
982	 0,617995235594162 
983	 0,617828256858356 
984	 0,616949118623848 
985	 0,615853212007895 
986	 0,615035893368931 
987	 0,615081072499045 
988	 0,616984572701796 
989	 0,619567489976704 
990	 0,617664591009901 
991	 0,616253628008425 
992	 0,617619098651144 
993	 0,618369452618743 
994	 0,61795078761343 
995	 0,616359941137731 
996	 0,617343493834932 
997	 0,619585918961245 
998	 0,619210194920807 
999	 0,619070056855059 
1000	 0,619365974769763 
1001	 0,617737693246632 
1002	 0,617296583447906 
1003	 0,619214704696404 
1004	 0,620551811641117 
1005	 0,62091671046852 
1006	 0,620214175061497 
1007	 0,618907154369643 
1008	 0,6185026407353 
1009	 0,621385632955886 
1010	 0,622651013839286 
1011	 0,621926429107373 
1012	 0,623157083909647 
1013	 0,622336421909592 
1014	 0,619165949739416 
1015	 0,621366405222791 
1016	 0,623698195813446 
1017	 0,621989989917553 
1018	 0,623357464254337 
1019	 0,626317423426989 
1020	 0,627110316662674 
1021	 0,625007661793959 
1022	 0,621106339575378 
1023	 0,61855594969912 
1024	 0,61939741309265 
1025	 0,623332001900008 
1026	 0,625728750025625 
1027	 0,624761819449652 
1028	 0,62087036636238 
1029	 0,625270135632628 
1030	 0,630900221754608 
1031	 0,628659914837382 
1032	 0,62753152415976 
1033	 0,628713143800819 
1034	 0,631249816102551 
1035	 0,629934648885409 
1036	 0,625811258291702 
1037	 0,628499766473886 
1038	 0,628265402786423 
1039	 0,622910629728915 
1040	 0,625357207373876 
1041	 0,629299046015921 
1042	 0,628712930832995 
1043	 0,623670431758517 
1044	 0,61905996770662 
1045	 0,621322919615904 
1046	 0,619476004902342 
1047	 0,615730384043633 
1048	 0,621092853756173 
1049	 0,62129518682955 
1050	 0,615967491623129 
1051	 0,621906897280536 
1052	 0,628277581520608 
1053	 0,628960259531684 
1054	 0,624243985083538 
1055	 0,616870222672373 
1056	 0,610847205969627 
1057	 0,614997041910511 
1058	 0,626008795754754 
1059	 0,636385831370608 
1060	 0,63005458028802 
1061	 0,615608937588505 
1062	 0,619721529556595 
1063	 0,622239579860483 
1064	 0,619575761997749 
1065	 0,621819782621896 
1066	 0,618806205579801 
1067	 0,609558746773157 
1068	 0,612697297097006 
1069	 0,620599325888221 
1070	 0,625400186594391 
1071	 0,623184036026679 
1072	 0,616948392718848 
1073	 0,612188423056997 
1074	 0,622747255978368 
1075	 0,635744460705522 
