Wavelength	CHO-GIL00096.asd
325	 0,218173062694533 
326	 0,264112302227522 
327	 0,23467660932329 
328	 0,126146977355363 
329	 3,21691363368318E-02 
330	 0,011210352516846 
331	 0,104804731510449 
332	 0,229849517518983 
333	 0,304480977926759 
334	 0,244682615800282 
335	 0,161199762282795 
336	 0,133525832117813 
337	 7,72780421430453E-02 
338	 4,45943343010057E-02 
339	 6,34222319837303E-02 
340	 3,30004068816742E-02 
341	 8,24007174355798E-06 
342	 9,64869414128251E-02 
343	 0,130713572462973 
344	 6,13432737428159E-02 
345	 0,057140169332079 
346	 8,34251095017527E-02 
347	 9,35534921789182E-02 
348	 9,97986307635669E-02 
349	 9,95568213669896E-02 
350	 8,51993879107364E-02 
351	 4,51731408624911E-02 
352	-7,61758345309256E-03 
353	 0,039734544314524 
354	 9,78667392354663E-02 
355	 6,70713003389491E-02 
356	 3,76497995820343E-02 
357	 2,57357017415384E-02 
358	 2,07238204780259E-02 
359	 3,57725780446843E-02 
360	 6,88084810315893E-02 
361	 7,98147509201313E-02 
362	 7,28353866487798E-02 
363	 5,79704370244869E-02 
364	 0,054786315752387 
365	 6,41556349065859E-02 
366	 0,070964826134157 
367	 7,08539100725275E-02 
368	 6,17487689164664E-02 
369	 5,41055262211072E-02 
370	 5,32727840360661E-02 
371	 0,065227079175109 
372	 8,76762467634335E-02 
373	 0,109320381204695 
374	 0,093745129664196 
375	 7,15335226681871E-02 
376	 6,62028768433813E-02 
377	 5,21531291966454E-02 
378	 3,60242072682486E-02 
379	 4,05220829093605E-02 
380	 4,56903455360099E-02 
381	 4,49973764113586E-02 
382	 0,039984291167081 
383	 3,95841846765924E-02 
384	 5,07951868041902E-02 
385	 6,04302814408843E-02 
386	 6,07232807738081E-02 
387	 3,73417890460526E-02 
388	 2,93907442507552E-02 
389	 4,87885926942882E-02 
390	 5,91534992297527E-02 
391	 6,07875175346488E-02 
392	 5,80765674148215E-02 
393	 6,15205021038053E-02 
394	 6,53333046560782E-02 
395	 4,39640427717683E-02 
396	 2,56046049837586E-02 
397	 2,49507471281787E-02 
398	 3,33443282094298E-02 
399	 4,48425432036651E-02 
400	 5,36218047359211E-02 
401	 5,35845975958022E-02 
402	 4,80179722442218E-02 
403	 5,58722335753772E-02 
404	 5,96380227784182E-02 
405	 4,86685494221442E-02 
406	 4,30793809841504E-02 
407	 4,27165228374145E-02 
408	 4,06076577191902E-02 
409	 4,12519803878589E-02 
410	 0,044768223112466 
411	 4,66500830668644E-02 
412	 4,71813686097104E-02 
413	 4,68825899066562E-02 
414	 4,45826566013367E-02 
415	 4,16736808778446E-02 
416	 4,20947536781872E-02 
417	 4,11913324161135E-02 
418	 3,78485866576105E-02 
419	 3,70733288942915E-02 
420	 3,87607839527054E-02 
421	 4,21422763467451E-02 
422	 4,48780237500056E-02 
423	 4,54533935762695E-02 
424	 4,10304923574891E-02 
425	 3,75169327965158E-02 
426	 3,82601315113315E-02 
427	 3,80410903176874E-02 
428	 3,80530895461384E-02 
429	 4,19923929054494E-02 
430	 4,32101197950261E-02 
431	 0,040995257000025 
432	 4,14108107994065E-02 
433	 4,27996844838719E-02 
434	 4,33842456747914E-02 
435	 4,24494792803155E-02 
436	 4,03016952044971E-02 
437	 3,79541437373427E-02 
438	 3,57961106738809E-02 
439	 3,44697561699943E-02 
440	 3,60464381191611E-02 
441	 3,82135269766853E-02 
442	 3,79081662574849E-02 
443	 3,87555652814872E-02 
444	 4,05682963767411E-02 
445	 4,01169896102461E-02 
446	 3,85836963311266E-02 
447	 3,69031834897117E-02 
448	 3,62320047203567E-02 
449	 0,036599295279498 
450	 3,78125952170979E-02 
451	 0,037526207457043 
452	 3,60386215335859E-02 
453	 3,85833336188177E-02 
454	 4,11710799390045E-02 
455	 4,02181167966466E-02 
456	 0,040816989735272 
457	 4,23178107407098E-02 
458	 4,03481279477561E-02 
459	 3,82157270528449E-02 
460	 0,037790565503906 
461	 0,041194544585232 
462	 4,44316328297645E-02 
463	 4,22620098227414E-02 
464	 3,86629525390928E-02 
465	 3,60550574304682E-02 
466	 3,85491663829724E-02 
467	 4,15076171807834E-02 
468	 4,17125532916576E-02 
469	 0,040729035453094 
470	 3,89599262383948E-02 
471	 3,64273911601082E-02 
472	 0,036085239712115 
473	 0,038231368772687 
474	 3,91200678922676E-02 
475	 3,91994746838588E-02 
476	 3,91372812708883E-02 
477	 3,94344574949891E-02 
478	 3,93001653659057E-02 
479	 3,58902786214848E-02 
480	 3,36106098117634E-02 
481	 3,46413350313917E-02 
482	 3,82223427799778E-02 
483	 4,07171641138109E-02 
484	 3,70698953861692E-02 
485	 3,70352749353345E-02 
486	 4,10938381749481E-02 
487	 4,07278278903833E-02 
488	 3,81569745867834E-02 
489	 3,55255299733722E-02 
490	 3,59240493570954E-02 
491	 3,77745874831514E-02 
492	 3,56010733590387E-02 
493	 0,036770282399271 
494	 4,20268000587033E-02 
495	 4,12626057875886E-02 
496	 3,84254051943712E-02 
497	 3,87435476280602E-02 
498	 3,81985611347926E-02 
499	 3,68027635176591E-02 
500	 3,70812487681982E-02 
501	 3,78323963051625E-02 
502	 3,83348010131999E-02 
503	 3,85996422482573E-02 
504	 3,87690177326995E-02 
505	 3,90542200009859E-02 
506	 4,01386043703641E-02 
507	 4,15191907959729E-02 
508	 0,040142131872433 
509	 3,87101208972263E-02 
510	 3,96379143657418E-02 
511	 3,96145961549135E-02 
512	 3,87063672818797E-02 
513	 3,86889039758564E-02 
514	 3,88899947358564E-02 
515	 3,89697004957128E-02 
516	 3,84881995558222E-02 
517	 3,81613070922802E-02 
518	 3,90719872413024E-02 
519	 0,038526316914328 
520	 3,67358832575865E-02 
521	 0,037069285542044 
522	 3,77496214966773E-02 
523	 3,74646209627171E-02 
524	 0,036942952468178 
525	 3,64976629637807E-02 
526	 3,66084546994402E-02 
527	 3,66158023580613E-02 
528	 3,63018461001623E-02 
529	 3,57757571136587E-02 
530	 3,56009603148539E-02 
531	 3,63798373134089E-02 
532	 3,69813461875881E-02 
533	 3,71977272105116E-02 
534	 3,74701132928455E-02 
535	 3,70283596785116E-02 
536	 3,56874006210328E-02 
537	 3,58784724755092E-02 
538	 3,68270207971538E-02 
539	 3,64736464116324E-02 
540	 3,64335488655107E-02 
541	 3,68912545940385E-02 
542	 3,63946750511979E-02 
543	 3,58800423211048E-02 
544	 3,62883385815396E-02 
545	 3,65867146600938E-02 
546	 3,66306885818548E-02 
547	 3,66630083374503E-02 
548	 0,036587974752213 
549	 3,63659655141855E-02 
550	 3,59259806835594E-02 
551	 3,57248906364338E-02 
552	 3,64649655831621E-02 
553	 3,72896086916383E-02 
554	 3,76999469314267E-02 
555	 3,68806136330549E-02 
556	 3,61821837506203E-02 
557	 3,66395569811296E-02 
558	 3,62057304306496E-02 
559	 3,52940148899143E-02 
560	 3,58008416060449E-02 
561	 3,67930695001242E-02 
562	 3,75770031966025E-02 
563	 3,63427246566366E-02 
564	 3,48851085146313E-02 
565	 3,57411402860213E-02 
566	 0,036064082143998 
567	 3,55520634678024E-02 
568	 3,58023101984059E-02 
569	 3,62718407709943E-02 
570	 3,65876814845622E-02 
571	 3,71171529198497E-02 
572	 0,037470208496712 
573	 3,66284786865264E-02 
574	 3,62599217533629E-02 
575	 3,68255210330893E-02 
576	 3,72882861048119E-02 
577	 3,73253155060399E-02 
578	 3,66982154341172E-02 
579	 3,70258215099163E-02 
580	 3,80774423615061E-02 
581	 3,77395472194777E-02 
582	 3,79928657361479E-02 
583	 0,039706236068271 
584	 4,02543890252337E-02 
585	 4,02183773055854E-02 
586	 4,12628551796513E-02 
587	 4,21186279287865E-02 
588	 4,23420125229896E-02 
589	 4,16997827876017E-02 
590	 4,11936809324632E-02 
591	 4,17408469398072E-02 
592	 4,26371976331872E-02 
593	 4,34020384851038E-02 
594	 4,31742661990031E-02 
595	 4,28993022551996E-02 
596	 4,29602853750356E-02 
597	 4,26248145923157E-02 
598	 0,042252310863426 
599	 4,24696160957581E-02 
600	 4,28569381451007E-02 
601	 4,31719873656498E-02 
602	 4,30238691185377E-02 
603	 4,27410113296138E-02 
604	 4,26158052399986E-02 
605	 0,04284138972478 
606	 4,30163726973856E-02 
607	 0,042029607833457 
608	 4,12652373054571E-02 
609	 4,11402593704701E-02 
610	 4,06282245678111E-02 
611	 4,01443338151377E-02 
612	 4,02937830072127E-02 
613	 4,04371102425737E-02 
614	 4,03576000037284E-02 
615	 3,98661295911139E-02 
616	 3,96271338377473E-02 
617	 3,99876982802936E-02 
618	 3,99957997385224E-02 
619	 3,95766070566445E-02 
620	 3,88079692140514E-02 
621	 3,84524618803913E-02 
622	 3,87344139171556E-02 
623	 3,92720172415631E-02 
624	 3,95701224481446E-02 
625	 3,91753450167463E-02 
626	 3,87811382616883E-02 
627	 0,038733100350915 
628	 3,96101900687563E-02 
629	 4,00954552209299E-02 
630	 3,96366645385701E-02 
631	 3,97689639181719E-02 
632	 4,01162221184633E-02 
633	 3,97308467298247E-02 
634	 4,00204012224824E-02 
635	 4,10030684833512E-02 
636	 4,09955184192679E-02 
637	 4,08896150030421E-02 
638	 4,14422202563111E-02 
639	 4,17554618152643E-02 
640	 0,041841972574515 
641	 4,21789129158443E-02 
642	 4,22874626170228E-02 
643	 4,21519234873277E-02 
644	 0,042880343910647 
645	 4,37338115956096E-02 
646	 4,36503070910207E-02 
647	 0,042901502887682 
648	 4,19594097717347E-02 
649	 4,22189750477454E-02 
650	 4,22433778387393E-02 
651	 4,12097663784381E-02 
652	 4,10504412354593E-02 
653	 4,14076069258695E-02 
654	 4,09882885678493E-02 
655	 4,04222857518778E-02 
656	 3,99455667597938E-02 
657	 3,97443051037981E-02 
658	 3,95355500922466E-02 
659	 3,90228379715475E-02 
660	 3,85023293821858E-02 
661	 3,81244668589773E-02 
662	 3,81205592173656E-02 
663	 3,81274826307497E-02 
664	 3,79566619462456E-02 
665	 3,77842644850944E-02 
666	 3,75450578503532E-02 
667	 3,70887031494869E-02 
668	 3,69478678415135E-02 
669	 3,72138314567384E-02 
670	 3,76143666282806E-02 
671	 3,78572767366367E-02 
672	 3,76882839685731E-02 
673	 3,68452503245123E-02 
674	 0,035992159496569 
675	 0,036872090863975 
676	 0,03732129070302 
677	 3,68147295549199E-02 
678	 3,73578762276617E-02 
679	 3,81159025637899E-02 
680	 3,79331251164457E-02 
681	 3,80391046849973E-02 
682	 0,038583454461129 
683	 3,91823510611506E-02 
684	 0,03936831695403 
685	 3,89219727376239E-02 
686	 3,84852351623475E-02 
687	 3,84242411536274E-02 
688	 3,91935566744889E-02 
689	 3,99585317177332E-02 
690	 4,05518200955639E-02 
691	 0,04145230279911 
692	 4,27414522282893E-02 
693	 4,44909675624092E-02 
694	 4,67900428627221E-02 
695	 4,97994244493969E-02 
696	 5,37928632723032E-02 
697	 5,85653649249153E-02 
698	 6,40963497968603E-02 
699	 7,05903117706904E-02 
700	 7,82233800265628E-02 
701	 0,087180252662843 
702	 9,70581400116875E-02 
703	 0,10771151779167 
704	 0,119117454395634 
705	 0,131189750309959 
706	 0,143821615330016 
707	 0,156512338181387 
708	 0,16967732497717 
709	 0,184244867697933 
710	 0,198755763528244 
711	 0,212764173874426 
712	 0,226471875844163 
713	 0,240477416099139 
714	 0,255262781030653 
715	 0,269646933918597 
716	 0,283513360914525 
717	 0,297362557101157 
718	 0,310594358439605 
719	 0,323007119155561 
720	 0,335301178415598 
721	 0,347146522229879 
722	 0,358021251451587 
723	 0,36865827136074 
724	 0,379056107742698 
725	 0,388529486752255 
726	 0,3974417456466 
727	 0,405995644181043 
728	 0,413791874126832 
729	 0,420989446894089 
730	 0,427984706916645 
731	 0,434091392294406 
732	 0,4394209573227 
733	 0,445345846226882 
734	 0,450822900709412 
735	 0,454945011315361 
736	 0,458905676998826 
737	 0,462756167405573 
738	 0,465976994528078 
739	 0,469188735150503 
740	 0,472443575322862 
741	 0,474597004137655 
742	 0,476454526236404 
743	 0,479026896722276 
744	 0,48134393100428 
745	 0,48321093867949 
746	 0,484700045168907 
747	 0,486212833973696 
748	 0,487907624888327 
749	 0,489207663550336 
750	 0,490080159425211 
751	 0,490551089582328 
752	 0,491667897175353 
753	 0,493327885681107 
754	 0,493946510614458 
755	 0,494257573512031 
756	 0,494832712622354 
757	 0,495601140731073 
758	 0,496366444415003 
759	 0,496714549743888 
760	 0,497246655691834 
761	 0,498006778222383 
762	 0,49826434602465 
763	 0,498236799782245 
764	 0,49819385286425 
765	 0,498510236945728 
766	 0,499021216548054 
767	 0,499047019461543 
768	 0,49926128338915 
769	 0,499792719955255 
770	 0,499794529920095 
771	 0,499561217764764 
772	 0,499523247184266 
773	 0,499683619568152 
774	 0,499894425048059 
775	 0,499623181362667 
776	 0,499621060982942 
777	 0,500143395639668 
778	 0,500040880889683 
779	 0,499667383270931 
780	 0,499725144651935 
781	 0,499883655107624 
782	 0,499973547704817 
783	 0,499673550325672 
784	 0,49943864797079 
785	 0,499560294658281 
786	 0,499779749412308 
787	 0,499888191060566 
788	 0,499599976212343 
789	 0,499144455259076 
790	 0,49872256454751 
791	 0,498780857183518 
792	 0,498905548021661 
793	 0,498766284477643 
794	 0,498692564655874 
795	 0,498635481767514 
796	 0,498390683486328 
797	 0,498064520380431 
798	 0,497733251722035 
799	 0,497558738592607 
800	 0,497427928516165 
801	 0,497228867818564 
802	 0,497044339580818 
803	 0,496927220765374 
804	 0,496952114258695 
805	 0,497118096613495 
806	 0,497366393609679 
807	 0,497442262239186 
808	 0,497369105376211 
809	 0,497217995796316 
810	 0,497506436178179 
811	 0,49802380683455 
812	 0,49788191313196 
813	 0,497659746536812 
814	 0,497631368728954 
815	 0,497870582744305 
816	 0,498094274328955 
817	 0,497977022690545 
818	 0,498344337773287 
819	 0,499032375591625 
820	 0,498949262686886 
821	 0,499058005227015 
822	 0,499696240970051 
823	 0,499915189965535 
824	 0,499882970764297 
825	 0,499938444390348 
826	 0,499922569524869 
827	 0,500000850443428 
828	 0,500826392906945 
829	 0,501308550722373 
830	 0,501014137538171 
831	 0,501275847656763 
832	 0,501722225562124 
833	 0,501662587880201 
834	 0,501498487704101 
835	 0,501389087329339 
836	 0,501445781492318 
837	 0,501877111274243 
838	 0,502640212933248 
839	 0,50261988220542 
840	 0,50236362873614 
841	 0,502811522356999 
842	 0,503224881064916 
843	 0,503356360621813 
844	 0,50300999721131 
845	 0,502735587694433 
846	 0,502842360291915 
847	 0,503058335497279 
848	 0,503318175915456 
849	 0,50357440412823 
850	 0,503737355847416 
851	 0,503774534013335 
852	 0,503684913322638 
853	 0,503520108091392 
854	 0,503384420682042 
855	 0,503723003624895 
856	 0,50414868207264 
857	 0,504082159072649 
858	 0,503799385844631 
859	 0,503535379948747 
860	 0,503869068666668 
861	 0,503824065930745 
862	 0,503112919282496 
863	 0,503479809736764 
864	 0,504117533628803 
865	 0,503764283073506 
866	 0,503393003152476 
867	 0,503373684681133 
868	 0,504231453083742 
869	 0,504371007029655 
870	 0,503366370911337 
871	 0,503812191521189 
872	 0,504697740214924 
873	 0,504545314456488 
874	 0,504195891621084 
875	 0,504011403319508 
876	 0,504533596208035 
877	 0,504871799969308 
878	 0,504732583319983 
879	 0,504867657369269 
880	 0,505065925080711 
881	 0,505050741925536 
882	 0,505096117120144 
883	 0,505165388635167 
884	 0,505066450327195 
885	 0,50465135184816 
886	 0,504111780559742 
887	 0,504729889037886 
888	 0,505186693255786 
889	 0,50430577143329 
890	 0,504238715009615 
891	 0,504721985217887 
892	 0,504297160486038 
893	 0,504003719544738 
894	 0,504107215444611 
895	 0,504284551022946 
896	 0,504312457586117 
897	 0,504072302250961 
898	 0,504085130424427 
899	 0,504412545013664 
900	 0,505047605570458 
901	 0,504918460935669 
902	 0,504018054551093 
903	 0,503563436958288 
904	 0,503464957729307 
905	 0,503624924471244 
906	 0,503774293245088 
907	 0,503695333322624 
908	 0,503159441110515 
909	 0,503334213230108 
910	 0,504122588348926 
911	 0,504304250032689 
912	 0,504246063651927 
913	 0,504023746994675 
914	 0,503095600899931 
915	 0,502359704557951 
916	 0,502762784521896 
917	 0,502684336926642 
918	 0,502158883033443 
919	 0,50209539295125 
920	 0,502413744374369 
921	 0,502870820325619 
922	 0,502449829958501 
923	 0,501716242049528 
924	 0,50118000032717 
925	 0,5005752162501 
926	 0,499843045404785 
927	 0,498883378380283 
928	 0,49889919104347 
929	 0,499711179593438 
930	 0,499402766853142 
931	 0,498772787104319 
932	 0,498152253361288 
933	 0,496240902067498 
934	 0,494730858644476 
935	 0,495804419173691 
936	 0,495432165814197 
937	 0,493759198395321 
938	 0,494034315992011 
939	 0,493603067463159 
940	 0,491891527102965 
941	 0,491296787002866 
942	 0,490917891494422 
943	 0,489844309748313 
944	 0,488419643087971 
945	 0,486891869439787 
946	 0,485570079724874 
947	 0,484844643604885 
948	 0,484528497630191 
949	 0,483634321412568 
950	 0,481869662797483 
951	 0,479419401641749 
952	 0,478545500028656 
953	 0,478330616064649 
954	 0,477349036188661 
955	 0,475482580470492 
956	 0,473251011491025 
957	 0,47211048896916 
958	 0,470817270768476 
959	 0,469373637638422 
960	 0,469926167044861 
961	 0,469888831631745 
962	 0,467531511420887 
963	 0,466068966084243 
964	 0,465808691445643 
965	 0,466443868655042 
966	 0,466525125285326 
967	 0,465981485482072 
968	 0,46601872206552 
969	 0,465840723892522 
970	 0,465119013137736 
971	 0,463786610035396 
972	 0,463287904279181 
973	 0,464696438594708 
974	 0,46484737311959 
975	 0,464293167102418 
976	 0,465034081499578 
977	 0,465205602359343 
978	 0,464321060737096 
979	 0,462211345227219 
980	 0,461749355683663 
981	 0,463863012832553 
982	 0,4646363598966 
983	 0,464674913284138 
984	 0,464840010597362 
985	 0,463613550197298 
986	 0,462174186826137 
987	 0,463128363341831 
988	 0,465686609362176 
989	 0,468473919072328 
990	 0,467681550637766 
991	 0,466624659905515 
992	 0,466992270762332 
993	 0,467340556503018 
994	 0,467340707666489 
995	 0,466795733268247 
996	 0,466209206989454 
997	 0,465877500178451 
998	 0,466056264340378 
999	 0,467696360599402 
1000	 0,470177189435719 
1001	 0,470700419342354 
1002	 0,469965429471186 
1003	 0,468715139619043 
1004	 0,468756126064895 
1005	 0,469694981097613 
1006	 0,471055272483678 
1007	 0,474770681794741 
1008	 0,476749930198493 
1009	 0,469328890544901 
1010	 0,469175479771807 
1011	 0,476451775817261 
1012	 0,476016705310484 
1013	 0,473751354236995 
1014	 0,472360107823189 
1015	 0,47257967568872 
1016	 0,473759954379243 
1017	 0,475348554087747 
1018	 0,478633758851651 
1019	 0,481583951327504 
1020	 0,481073242507276 
1021	 0,480602650691585 
1022	 0,479978334328759 
1023	 0,475886535138677 
1024	 0,47381095762709 
1025	 0,475699085152587 
1026	 0,48089443519427 
1027	 0,482572443184656 
1028	 0,478105168746211 
1029	 0,483805192455679 
1030	 0,4897729769837 
1031	 0,483666398838131 
1032	 0,483870130921744 
1033	 0,488749517376362 
1034	 0,48787483204033 
1035	 0,483481331103557 
1036	 0,478910047975396 
1037	 0,483613988371807 
1038	 0,487038354835714 
1039	 0,485020977010386 
1040	 0,483412784390121 
1041	 0,484694033613757 
1042	 0,489538239623322 
1043	 0,489036026697924 
1044	 0,484671517338946 
1045	 0,480609285787575 
1046	 0,483930363767783 
1047	 0,490204308650673 
1048	 0,48505112981082 
1049	 0,486223723115107 
1050	 0,493365095280634 
1051	 0,48218568708956 
1052	 0,475449099539937 
1053	 0,482231306458552 
1054	 0,483195058159055 
1055	 0,485650360167949 
1056	 0,493740164675198 
1057	 0,479825438002877 
1058	 0,463449702864637 
1059	 0,476482898232386 
1060	 0,485133795059923 
1061	 0,485412186458442 
1062	 0,486407030052578 
1063	 0,486997117997013 
1064	 0,486771272666516 
1065	 0,484262483488962 
1066	 0,482153388845573 
1067	 0,481834200961532 
1068	 0,482849421301692 
1069	 0,486099429148971 
1070	 0,490705002722426 
1071	 0,485262623483225 
1072	 0,482116783196217 
1073	 0,495156469725413 
1074	 0,490042678125909 
1075	 0,475478818025635 
