Wavelength	CHO-GIL00003.asd
325	 5,70137267344016E-02 
326	 0,290378808393085 
327	 0,38438131333262 
328	 0,270237446399729 
329	 9,63883070970216E-02 
330	-1,66510290372501E-02 
331	 7,68155494907808E-02 
332	 0,11797500241857 
333	 0,112546997042665 
334	 9,99391754169535E-02 
335	 5,66928924329646E-02 
336	-1,31829064481423E-04 
337	-2,85969310887869E-02 
338	 7,35213186026994E-03 
339	 0,123704201714486 
340	 0,110882165531748 
341	 2,34855778144308E-02 
342	 0,019047619047619 
343	 6,75486336569478E-02 
344	 0,132066810099424 
345	 0,106907337723424 
346	 6,19712376159414E-02 
347	 7,60600332515208E-02 
348	 8,69281057904347E-02 
349	 8,53737166520445E-02 
350	 7,08683557526879E-02 
351	 5,70903996303352E-02 
352	 5,05923292687201E-02 
353	 0,050695610607053 
354	 5,54976686788016E-02 
355	 6,27504470747643E-02 
356	 4,80550892459488E-02 
357	 0,016242312414706 
358	-1,00904463758754E-03 
359	 3,21153891574667E-03 
360	 2,54912125867702E-02 
361	 3,28164370381044E-02 
362	 2,96407617786155E-02 
363	 2,61879093614593E-02 
364	 3,76633900574287E-02 
365	 5,57067973120197E-02 
366	 0,042321186270891 
367	 3,24897517738211E-02 
368	 4,66105934212817E-02 
369	 4,68736933204975E-02 
370	 3,88739472852586E-02 
371	 3,85116877182183E-02 
372	 5,20743655536471E-02 
373	 7,43362953968429E-02 
374	 8,02060491835958E-02 
375	 6,75173288007717E-02 
376	 3,77356129903451E-02 
377	 2,29498136800633E-02 
378	 1,75451247981152E-02 
379	-8,59327946518504E-03 
380	-7,73789813006427E-03 
381	 2,48043423642665E-02 
382	 3,18337245787707E-02 
383	 3,24880297925164E-02 
384	 4,71566698352766E-02 
385	 5,49165508314747E-02 
386	 5,07393307474455E-02 
387	 3,10991490555095E-02 
388	 1,40387584329297E-02 
389	 1,06673745152021E-02 
390	 2,94693297714663E-02 
391	 4,73307965439026E-02 
392	 3,71160152325325E-02 
393	 4,27833471847825E-02 
394	 5,87138865604137E-02 
395	 3,94733040934488E-02 
396	 0,023210393247582 
397	 2,82016892472141E-02 
398	 3,35455368691204E-02 
399	 3,75809810555701E-02 
400	 4,16126213352323E-02 
401	 4,80843892759269E-02 
402	 5,53625113714691E-02 
403	 5,71825884885762E-02 
404	 5,31830747482673E-02 
405	 4,40929186033439E-02 
406	 3,81457699030399E-02 
407	 3,47650533865251E-02 
408	 2,82074488531512E-02 
409	 3,31236327331358E-02 
410	 4,77719803719732E-02 
411	 4,51615784490613E-02 
412	 3,59016998864933E-02 
413	 3,10673843403629E-02 
414	 3,16291949761304E-02 
415	 3,51368221633629E-02 
416	 3,49214194176493E-02 
417	 0,032551394604196 
418	 2,97980912968613E-02 
419	 3,37354088004097E-02 
420	 3,82294841637055E-02 
421	 3,49660154054023E-02 
422	 3,32177657572774E-02 
423	 0,034332580296631 
424	 3,56046176907643E-02 
425	 3,59943405674435E-02 
426	 3,48590570304899E-02 
427	 3,21946363929454E-02 
428	 3,06615782504002E-02 
429	 0,034972852416928 
430	 3,91099405592475E-02 
431	 4,04406930559095E-02 
432	 0,036801986527427 
433	 3,21383125444064E-02 
434	 3,01624385679012E-02 
435	 3,19192333041057E-02 
436	 3,51123501432643E-02 
437	 3,38480474592281E-02 
438	 3,10742358620501E-02 
439	 2,88434992083876E-02 
440	 3,20368375857951E-02 
441	 3,59268856600497E-02 
442	 3,41393757731008E-02 
443	 0,0324541442317 
444	 3,19134411056306E-02 
445	 3,12757114193219E-02 
446	 2,94078752612148E-02 
447	 2,61500917689456E-02 
448	 2,63856832454537E-02 
449	 2,92470689188717E-02 
450	 3,22517762990444E-02 
451	 3,18774898560098E-02 
452	 2,86977852435664E-02 
453	 3,15282401944687E-02 
454	 3,45435124793708E-02 
455	 3,24524356714005E-02 
456	 3,26620410155827E-02 
457	 3,51678758830068E-02 
458	 0,036772463273138 
459	 3,48215946913756E-02 
460	 2,95896057098582E-02 
461	 3,11883756772964E-02 
462	 3,51473844784322E-02 
463	 0,034442460109874 
464	 3,24249469088452E-02 
465	 3,09378870117135E-02 
466	 3,35061814262083E-02 
467	 3,58020062059059E-02 
468	 3,50181489293606E-02 
469	 3,42261056602933E-02 
470	 3,32567143120455E-02 
471	 3,05390743292673E-02 
472	 3,00237836505748E-02 
473	 0,032282394215879 
474	 3,34021331204342E-02 
475	 3,35088023381861E-02 
476	 3,30338925712793E-02 
477	 0,034176912642058 
478	 3,58391908092431E-02 
479	 3,36707609343478E-02 
480	 3,12995946276832E-02 
481	 3,08322966663295E-02 
482	 3,40820025146042E-02 
483	 3,67991215948967E-02 
484	 3,26109950563161E-02 
485	 3,13619907169736E-02 
486	 3,42335393583857E-02 
487	 0,035225274951671 
488	 3,39442541957782E-02 
489	 3,06082271206566E-02 
490	 3,02760392054486E-02 
491	 3,19263170902554E-02 
492	 0,030766761366007 
493	 3,19689355517132E-02 
494	 3,60234207385585E-02 
495	 3,60828663689418E-02 
496	 3,43457728573537E-02 
497	 3,38669285365303E-02 
498	 3,42059902603198E-02 
499	 3,45468314644574E-02 
500	 3,22975093231175E-02 
501	 3,07644568955002E-02 
502	 3,16233125854925E-02 
503	 0,031989489794356 
504	 3,24285413715011E-02 
505	 3,47060972629019E-02 
506	 3,63349273366938E-02 
507	 3,62763756943119E-02 
508	 3,34889374422663E-02 
509	 0,031582410388001 
510	 0,03363737072389 
511	 3,51147493961995E-02 
512	 3,54451778159689E-02 
513	 3,56906444833182E-02 
514	 0,035661926633348 
515	 3,53080698032225E-02 
516	 3,45380612356546E-02 
517	 3,38957273038602E-02 
518	 3,41077841307203E-02 
519	 3,41450337352849E-02 
520	 3,38413591754424E-02 
521	 3,35899349303272E-02 
522	 3,36994394683617E-02 
523	 3,42811439617504E-02 
524	 0,034060189862114 
525	 3,33509706524082E-02 
526	 3,33604627359049E-02 
527	 3,31114090875629E-02 
528	 3,25347842762592E-02 
529	 3,30653439159946E-02 
530	 3,36342928656989E-02 
531	 0,032939345984621 
532	 3,30537617517524E-02 
533	 3,38062219627129E-02 
534	 3,30828779222203E-02 
535	 3,26455779009398E-02 
536	 3,33733807618896E-02 
537	 0,033227360675337 
538	 0,032863751602056 
539	 3,40828405066988E-02 
540	 3,45505010603352E-02 
541	 3,37201997326171E-02 
542	 3,26150708959064E-02 
543	 3,20693791704224E-02 
544	 3,27647363782879E-02 
545	 3,28333948737439E-02 
546	 3,24494070767799E-02 
547	 3,33373456944094E-02 
548	 3,39000523336333E-02 
549	 3,34932079150261E-02 
550	 3,35220757749909E-02 
551	 3,36584668258283E-02 
552	 3,30968016237051E-02 
553	 3,34309662186784E-02 
554	 3,45201794045936E-02 
555	 3,38696802100674E-02 
556	 3,33054417448769E-02 
557	 3,42338706227672E-02 
558	 3,37656872344474E-02 
559	 3,24861205836999E-02 
560	 3,30028941866402E-02 
561	 3,45171680798477E-02 
562	 3,61344286313029E-02 
563	 3,44248890332753E-02 
564	 3,20198778790368E-02 
565	 3,27331954565856E-02 
566	 3,34461587623308E-02 
567	 3,34954129077753E-02 
568	 3,33803499050132E-02 
569	 3,35546524917091E-02 
570	 3,42959232639937E-02 
571	 3,50582801183843E-02 
572	 3,54037832442163E-02 
573	 3,45245467435034E-02 
574	 3,41483350186366E-02 
575	 3,47132630296307E-02 
576	 3,48278727250104E-02 
577	 3,46592173981539E-02 
578	 3,45101100567005E-02 
579	 3,43350198710438E-02 
580	 3,44297846126462E-02 
581	 3,56662547126127E-02 
582	 3,69955402653728E-02 
583	 3,77301357629135E-02 
584	 3,77389816354708E-02 
585	 3,75945469526286E-02 
586	 0,038345211776899 
587	 3,88614211062509E-02 
588	 3,88397512860979E-02 
589	 3,84942707092625E-02 
590	 0,038489378162101 
591	 0,039365372333569 
592	 3,96929138749132E-02 
593	 3,95669618503093E-02 
594	 4,00908826004267E-02 
595	 4,05931034062223E-02 
596	 4,07081406503731E-02 
597	 4,01850089580487E-02 
598	 3,95785931415043E-02 
599	 3,97338139767973E-02 
600	 4,00399739165132E-02 
601	 4,01819655949102E-02 
602	 0,039674834044386 
603	 3,90940437354751E-02 
604	 3,89360877574345E-02 
605	 3,93106335626267E-02 
606	 3,97555575849293E-02 
607	 3,91100516463054E-02 
608	 3,84786955601276E-02 
609	 3,82120262994409E-02 
610	 3,77111752997718E-02 
611	 3,71143673149041E-02 
612	 3,66487827788794E-02 
613	 3,66674143954109E-02 
614	 3,70359455583212E-02 
615	 3,70281987334705E-02 
616	 3,69372261494918E-02 
617	 3,69566698888545E-02 
618	 3,71854941902257E-02 
619	 3,71886059836009E-02 
620	 0,035972594673242 
621	 3,55916567162952E-02 
622	 3,63889409818545E-02 
623	 3,63352426035962E-02 
624	 3,60668806174258E-02 
625	 3,63445533049347E-02 
626	 3,67051104727623E-02 
627	 3,69338891388174E-02 
628	 3,67019149135259E-02 
629	 3,64162006662186E-02 
630	 3,63192372617164E-02 
631	 3,64067316228415E-02 
632	 3,66454446959376E-02 
633	 3,69748720709726E-02 
634	 3,73640963565863E-02 
635	 3,78056349055522E-02 
636	 3,84574406757025E-02 
637	 3,87060792642655E-02 
638	 3,81292789988658E-02 
639	 3,83113017743487E-02 
640	 3,90467446649965E-02 
641	 3,90137416816406E-02 
642	 3,91141968855011E-02 
643	 3,95889948918889E-02 
644	 3,96757829966596E-02 
645	 3,96973411453491E-02 
646	 4,01594323900405E-02 
647	 4,00313306843673E-02 
648	 0,039399156076147 
649	 3,95510745008126E-02 
650	 3,94600951740107E-02 
651	 3,85616125732517E-02 
652	 3,83964433747827E-02 
653	 3,86315768540618E-02 
654	 3,81324610981888E-02 
655	 3,75038408268022E-02 
656	 3,70150793891761E-02 
657	 3,70065922394996E-02 
658	 3,69954643212138E-02 
659	 3,64890445384889E-02 
660	 3,64147047870242E-02 
661	 3,66154999796083E-02 
662	 3,60882823156728E-02 
663	 3,54092766422521E-02 
664	 3,49058462799126E-02 
665	 3,46675386238589E-02 
666	 3,45829177291518E-02 
667	 3,44431307697475E-02 
668	 3,45095184315764E-02 
669	 3,47615984893266E-02 
670	 0,034857606496915 
671	 3,49618942311303E-02 
672	 3,51530772211809E-02 
673	 3,45914284130811E-02 
674	 3,37938516483045E-02 
675	 3,43422103260965E-02 
676	 3,48341476958728E-02 
677	 0,034875052859401 
678	 3,54202354318771E-02 
679	 3,58679493002685E-02 
680	 3,54465722655075E-02 
681	 3,53782268414298E-02 
682	 3,58334321358119E-02 
683	 3,63871207332907E-02 
684	 3,67648406331589E-02 
685	 3,67999796277352E-02 
686	 3,66692854851008E-02 
687	 3,65948849454796E-02 
688	 3,68928858382683E-02 
689	 3,73160620414623E-02 
690	 3,78326191175526E-02 
691	 3,85838911659682E-02 
692	 3,96046833174766E-02 
693	 4,09265561334133E-02 
694	 4,25593816062233E-02 
695	 4,46224606200835E-02 
696	 4,73386986192562E-02 
697	 5,06314842568533E-02 
698	 5,45369575333799E-02 
699	 0,059235699784736 
700	 6,48837384971177E-02 
701	 7,16491743910431E-02 
702	 7,85251376550039E-02 
703	 8,55979973279848E-02 
704	 9,40421014532165E-02 
705	 0,103372621114136 
706	 0,113177225658001 
707	 0,122721131512242 
708	 0,132369765307839 
709	 0,143002411185749 
710	 0,15394518364308 
711	 0,164898937785299 
712	 0,175487765259595 
713	 0,186080935822985 
714	 0,19701764673112 
715	 0,207900021944888 
716	 0,218473610896801 
717	 0,228379123063987 
718	 0,237936877489089 
719	 0,247282780484291 
720	 0,256513512373717 
721	 0,265385436610779 
722	 0,273564749018228 
723	 0,281247809554902 
724	 0,288625863056314 
725	 0,29613850375899 
726	 0,303083360179658 
727	 0,309100897763401 
728	 0,314983889113615 
729	 0,320805965851198 
730	 0,326476982974908 
731	 0,331952069938991 
732	 0,337070194378181 
733	 0,341254280561691 
734	 0,345207609735684 
735	 0,349500000863109 
736	 0,35319093763406 
737	 0,356372157414136 
738	 0,359662314201864 
739	 0,362790854828047 
740	 0,365669408942137 
741	 0,368306870249263 
742	 0,370811731271788 
743	 0,373301931097421 
744	 0,375560097228299 
745	 0,37753136104808 
746	 0,379140192543711 
747	 0,380915387905053 
748	 0,383067454571196 
749	 0,384888268503189 
750	 0,386279568282962 
751	 0,387206329896578 
752	 0,388649765602015 
753	 0,390546648782481 
754	 0,391489500227208 
755	 0,392314702140391 
756	 0,393625358235612 
757	 0,394923191209674 
758	 0,396011978407397 
759	 0,396664919401892 
760	 0,397202520975024 
761	 0,397783208718141 
762	 0,398522768065818 
763	 0,399273264872467 
764	 0,399901909280133 
765	 0,400694027795861 
766	 0,40157534618894 
767	 0,402250270108291 
768	 0,402708125530923 
769	 0,402981032418511 
770	 0,403322147606714 
771	 0,403665497717068 
772	 0,403912232176367 
773	 0,404538392589393 
774	 0,4053325699057 
775	 0,405266379163923 
776	 0,405453061451296 
777	 0,406369687321308 
778	 0,406970031265306 
779	 0,407368264372646 
780	 0,407912677577894 
781	 0,408316103447485 
782	 0,408551708935463 
783	 0,408746937890865 
784	 0,409099400824311 
785	 0,409686970306977 
786	 0,409984640612695 
787	 0,410106406068534 
788	 0,41039464313796 
789	 0,410633643776515 
790	 0,410851529798474 
791	 0,411402523076591 
792	 0,411943202889326 
793	 0,412214923963902 
794	 0,412658002108632 
795	 0,413112226272369 
796	 0,413062707357622 
797	 0,413122758924529 
798	 0,413502986722706 
799	 0,414144721875168 
800	 0,414563969618243 
801	 0,414360319597372 
802	 0,414350869055543 
803	 0,414643845866544 
804	 0,415065915242373 
805	 0,415614348839475 
806	 0,416188818478743 
807	 0,416415841245538 
808	 0,41649244286749 
809	 0,416664086732903 
810	 0,416946074837815 
811	 0,417309322598535 
812	 0,417676942910997 
813	 0,41783659021227 
814	 0,417825813745492 
815	 0,418489206173887 
816	 0,419168032495626 
817	 0,41902932291997 
818	 0,419288284014475 
819	 0,419970986977565 
820	 0,42032850953464 
821	 0,420534286230431 
822	 0,420663223381262 
823	 0,420750628646642 
824	 0,420830241407076 
825	 0,420935638291565 
826	 0,421198130280729 
827	 0,421545885037341 
828	 0,421707675305851 
829	 0,421576723503639 
830	 0,421214269388753 
831	 0,421413058071046 
832	 0,421848617890744 
833	 0,421962292946866 
834	 0,422216609377586 
835	 0,42255898266076 
836	 0,422426630333049 
837	 0,4225373670792 
838	 0,423189325951877 
839	 0,423498388154332 
840	 0,423666509369017 
841	 0,424120390111996 
842	 0,424158086592122 
843	 0,423924833711646 
844	 0,424546606296405 
845	 0,424799203398405 
846	 0,424217174629977 
847	 0,424585670495936 
848	 0,425388328760976 
849	 0,425623092637545 
850	 0,425576992930384 
851	 0,425570304025099 
852	 0,426521343084906 
853	 0,42709731566927 
854	 0,426703737642102 
855	 0,4266391742147 
856	 0,427025718689441 
857	 0,427808239610374 
858	 0,428203343927267 
859	 0,428167285532486 
860	 0,428324967724127 
861	 0,42832189055755 
862	 0,42812064862779 
863	 0,428667373170912 
864	 0,429315018505734 
865	 0,429122273621707 
866	 0,429265265499036 
867	 0,429783394562336 
868	 0,43001635007678 
869	 0,429730696346317 
870	 0,429056850053685 
871	 0,429534973810183 
872	 0,430478397933595 
873	 0,430879665980716 
874	 0,430683393794007 
875	 0,430182037063883 
876	 0,430277071154995 
877	 0,430411160859742 
878	 0,430422506950731 
879	 0,430773726466113 
880	 0,431026450178891 
881	 0,430733638305564 
882	 0,431038335129308 
883	 0,431806180123363 
884	 0,43216707786711 
885	 0,431995707432252 
886	 0,431383272371095 
887	 0,431169438789795 
888	 0,431253747254136 
889	 0,43145783891806 
890	 0,43144483244026 
891	 0,431268362400067 
892	 0,431166454599149 
893	 0,431454332722238 
894	 0,4320149661657 
895	 0,431804757566891 
896	 0,431629244032588 
897	 0,432085521770715 
898	 0,432230703864434 
899	 0,432334618267431 
900	 0,433197847830772 
901	 0,432686562017109 
902	 0,43101787389631 
903	 0,431381694252082 
904	 0,431996688411279 
905	 0,431781716516557 
906	 0,431701085875096 
907	 0,431597966615222 
908	 0,431114255383822 
909	 0,431298221845211 
910	 0,432004217158548 
911	 0,432016144947734 
912	 0,431562864550773 
913	 0,430929691525134 
914	 0,431224495432936 
915	 0,431527280528059 
916	 0,430777004973729 
917	 0,430422050388855 
918	 0,430492136817931 
919	 0,43029533976806 
920	 0,430068154535362 
921	 0,42989412483754 
922	 0,429962221156576 
923	 0,429549657203579 
924	 0,428220084679633 
925	 0,427847490609605 
926	 0,4279573288288 
927	 0,427141334249354 
928	 0,426521197773149 
929	 0,426060244202322 
930	 0,424376978795979 
931	 0,423269019802354 
932	 0,423547412945294 
933	 0,422975704384573 
934	 0,421803158790087 
935	 0,420687263049967 
936	 0,41963414041032 
937	 0,418577264552247 
938	 0,417307420416941 
939	 0,415765271803808 
940	 0,413997058438703 
941	 0,412384286817513 
942	 0,410798501481821 
943	 0,409164751240775 
944	 0,408181178818129 
945	 0,407349764864032 
946	 0,405536115846079 
947	 0,404185714272682 
948	 0,403264300760909 
949	 0,401126461090496 
950	 0,398559351140769 
951	 0,39605198139891 
952	 0,39347642400088 
953	 0,39123501823611 
954	 0,389764412573965 
955	 0,387726475827165 
956	 0,385323608689723 
957	 0,384010359518705 
958	 0,381635623439125 
959	 0,378268192827696 
960	 0,377893991676206 
961	 0,377500818541985 
962	 0,374897333784259 
963	 0,372761080938391 
964	 0,371917606780888 
965	 0,372958309527654 
966	 0,373115015893444 
967	 0,372090809302217 
968	 0,3715064897194 
969	 0,370579677042586 
970	 0,369314206035976 
971	 0,369127254125974 
972	 0,36963979906203 
973	 0,370307525957516 
974	 0,370260901178994 
975	 0,369842414726078 
976	 0,369965639572887 
977	 0,370259116799934 
978	 0,370421308325483 
979	 0,36964689130706 
980	 0,369461439929515 
981	 0,370455389795957 
982	 0,371357095201496 
983	 0,371113767646415 
984	 0,369174773738255 
985	 0,370879673612415 
986	 0,374024569708774 
987	 0,372434684878288 
988	 0,371152250961766 
989	 0,371628134834859 
990	 0,373735652754949 
991	 0,374705568667364 
992	 0,373462680219568 
993	 0,373205979255728 
994	 0,374253926254918 
995	 0,376510071233165 
996	 0,378693628903684 
997	 0,379808951789507 
998	 0,378512435363232 
999	 0,379137752132017 
1000	 0,381867884117873 
1001	 0,382727838765179 
1002	 0,381657529180248 
1003	 0,379666517043135 
1004	 0,382717834213041 
1005	 0,386179189783336 
1006	 0,3854470720115 
1007	 0,386728398703608 
1008	 0,389031903056452 
1009	 0,388771387298602 
1010	 0,389290891537266 
1011	 0,391133462510682 
1012	 0,393228750132613 
1013	 0,394210906710735 
1014	 0,393658391528135 
1015	 0,392846369509543 
1016	 0,39325800097675 
1017	 0,395867892877711 
1018	 0,398552566862949 
1019	 0,400596328067366 
1020	 0,40148252678074 
1021	 0,401289060692973 
1022	 0,400672481846422 
1023	 0,401453326109051 
1024	 0,400486742401397 
1025	 0,398283033545665 
1026	 0,401634597519639 
1027	 0,406075443876637 
1028	 0,40858177050434 
1029	 0,412832859988245 
1030	 0,414663327618294 
1031	 0,409612921304422 
1032	 0,408409858223622 
1033	 0,409486564904756 
1034	 0,40506821369374 
1035	 0,405095590068203 
1036	 0,410562304554919 
1037	 0,415242206394224 
1038	 0,417140804885579 
1039	 0,415644768360599 
1040	 0,415005882617101 
1041	 0,411134047183838 
1042	 0,402856429921323 
1043	 0,408693535731238 
1044	 0,419055593603311 
1045	 0,417550955752244 
1046	 0,415993639920304 
1047	 0,415849038795385 
1048	 0,414768343490677 
1049	 0,412318937378551 
1050	 0,410476144982932 
1051	 0,417304347253001 
1052	 0,423388237015716 
1053	 0,423312615756373 
1054	 0,417502375345702 
1055	 0,410225788804222 
1056	 0,406593254884853 
1057	 0,415056185896563 
1058	 0,424883387931887 
1059	 0,419676749615212 
1060	 0,416098988260178 
1061	 0,416081812593259 
1062	 0,415222974089356 
1063	 0,413775826101866 
1064	 0,413218883823703 
1065	 0,418831691689525 
1066	 0,42268283654717 
1067	 0,422700079321377 
1068	 0,430010076271278 
1069	 0,429818997073499 
1070	 0,413926795417467 
1071	 0,410810587358367 
1072	 0,416270278963504 
1073	 0,420029201402206 
1074	 0,409781338583792 
1075	 0,39867067998661 
