Wavelength	GOOSEBAR00018.asd
325	-9,19905886684347E-02 
326	 7,45235162245499E-03 
327	-1,05934251038977E-02 
328	-0,126995966977256 
329	-1,41854724279355E-02 
330	 0,102640415140415 
331	 9,44889658725895E-02 
332	 0,125860658007273 
333	 0,152686027670447 
334	 7,55841104552508E-02 
335	 5,75993367281201E-02 
336	 0,119632877554933 
337	 5,23910406792104E-02 
338	-7,09160600332125E-03 
339	 7,96785023122145E-02 
340	 8,21499575364535E-02 
341	 4,66777508920952E-02 
342	 0,149227773654996 
343	 0,169196305996156 
344	 8,17887427345436E-02 
345	 7,06307915143613E-02 
346	 6,18366393795141E-02 
347	-2,70478557226377E-02 
348	-2,23969485854291E-02 
349	 5,38287715307604E-02 
350	 8,03220051726068E-02 
351	 5,99335624738486E-02 
352	 1,03367913202175E-02 
353	 4,77905056856611E-02 
354	 9,67453908035183E-02 
355	 8,03175246547121E-02 
356	 6,48499576562047E-02 
357	 5,62172759652864E-02 
358	 2,52106436824082E-02 
359	 1,74062562534573E-02 
360	 0,044425594473539 
361	 4,81607951435538E-02 
362	 4,87592116716857E-02 
363	 8,17614251033335E-02 
364	 0,076107065951525 
365	 3,58509748360767E-02 
366	 4,89565763933179E-02 
367	 6,60585951398451E-02 
368	 5,91376530887754E-02 
369	 4,96733561259028E-02 
370	 4,93529982633028E-02 
371	 7,51988354620388E-02 
372	 5,27672598729468E-02 
373	-1,09396209394452E-02 
374	 2,01655858390086E-02 
375	 0,057401493559285 
376	 4,48473421123771E-02 
377	 5,07264142549095E-02 
378	 6,99987659445573E-02 
379	 0,073671781590337 
380	 7,22287247415825E-02 
381	 6,43542483497675E-02 
382	 2,64015568352901E-02 
383	 4,29332395830556E-03 
384	 4,04664395338342E-02 
385	 5,36537104778516E-02 
386	 4,35070304166898E-02 
387	 4,86039378070798E-02 
388	 4,85262088631069E-02 
389	 4,04416000449609E-02 
390	 5,29234492448025E-02 
391	 6,71015572320277E-02 
392	 5,97954454156687E-02 
393	 4,76968447553754E-02 
394	 3,70200278155057E-02 
395	 3,02328774393635E-02 
396	 3,70908346175187E-02 
397	 5,73895693931463E-02 
398	 5,81801981484556E-02 
399	 4,87988579292446E-02 
400	 4,90891121997421E-02 
401	 4,69603738677203E-02 
402	 4,24190092509899E-02 
403	 4,56155298965532E-02 
404	 4,70444599610331E-02 
405	 4,19398859649558E-02 
406	 5,23244683222825E-02 
407	 6,51175436810513E-02 
408	 4,89559250788156E-02 
409	 3,97576151242693E-02 
410	 4,57057190939399E-02 
411	 4,81310847268679E-02 
412	 4,64461509627898E-02 
413	 4,15092368347353E-02 
414	 4,30302323991503E-02 
415	 4,85037384299036E-02 
416	 4,69989599952084E-02 
417	 4,64228285522865E-02 
418	 4,94646929988918E-02 
419	 5,25576861633809E-02 
420	 5,37855868483547E-02 
421	 5,12040236974492E-02 
422	 4,53728983443239E-02 
423	 3,97295682126476E-02 
424	 4,43362101180451E-02 
425	 4,92380726506356E-02 
426	 4,85801758215514E-02 
427	 4,71490368544714E-02 
428	 0,046206891777916 
429	 4,66360466149587E-02 
430	 4,87993140830217E-02 
431	 5,15905355400885E-02 
432	 4,92896818549778E-02 
433	 4,97526900895784E-02 
434	 5,90741275329867E-02 
435	 0,060152518042176 
436	 5,47742987878485E-02 
437	 5,56631587302321E-02 
438	 5,44456645739018E-02 
439	 4,93436089126295E-02 
440	 4,93062537015208E-02 
441	 5,12208004843596E-02 
442	 5,02638706583797E-02 
443	 4,76585502801507E-02 
444	 4,52844812607521E-02 
445	 0,048313008366888 
446	 0,052170955929412 
447	 5,37997563455278E-02 
448	 5,32578102088115E-02 
449	 5,17236884765401E-02 
450	 5,09981758382279E-02 
451	 5,44153728730685E-02 
452	 6,02593883254697E-02 
453	 5,58263149050066E-02 
454	 5,12596538678775E-02 
455	 5,60262256462331E-02 
456	 5,82113455617477E-02 
457	 5,76628214201638E-02 
458	 6,02684568226745E-02 
459	 6,16909472909905E-02 
460	 6,05334048035705E-02 
461	 5,99332121252166E-02 
462	 6,00077540866063E-02 
463	 6,04883343275668E-02 
464	 6,03548976609044E-02 
465	 5,97097031551852E-02 
466	 0,060208767557535 
467	 5,96229907935705E-02 
468	 5,68488452669808E-02 
469	 5,55564520988932E-02 
470	 5,68306024335819E-02 
471	 6,19748646611389E-02 
472	 6,42625580490218E-02 
473	 6,24638094501915E-02 
474	 6,25460864567688E-02 
475	 6,30844671441991E-02 
476	 0,062432761176146 
477	 6,30246115765075E-02 
478	 6,43788507594567E-02 
479	 6,40211233156147E-02 
480	 6,29970985357333E-02 
481	 6,19926162726538E-02 
482	 6,19571906716895E-02 
483	 6,29286573758531E-02 
484	 6,48657008511328E-02 
485	 6,45290474107667E-02 
486	 6,22154973445515E-02 
487	 6,27138822937655E-02 
488	 0,063596652437485 
489	 6,29946469432687E-02 
490	 6,17861133945311E-02 
491	 6,09961647790605E-02 
492	 6,27480244493268E-02 
493	 6,38166368430859E-02 
494	 6,35235584944028E-02 
495	 6,53012257214675E-02 
496	 6,62534131639556E-02 
497	 6,29780412300864E-02 
498	 6,09675326425679E-02 
499	 6,12873977580227E-02 
500	 6,31170783963078E-02 
501	 6,38768167092565E-02 
502	 6,23304145823942E-02 
503	 0,061771517507205 
504	 6,18308817979903E-02 
505	 6,08863080838383E-02 
506	 6,19429672836649E-02 
507	 6,47467630201933E-02 
508	 6,43402342126087E-02 
509	 6,34544048599178E-02 
510	 6,46754129974403E-02 
511	 0,066168384699504 
512	 6,71292594756175E-02 
513	 0,066236141798143 
514	 6,61447779905554E-02 
515	 6,75599420970987E-02 
516	 6,68102446075233E-02 
517	 6,52290705596066E-02 
518	 6,50956610353403E-02 
519	 6,63327433796598E-02 
520	 6,82007711036263E-02 
521	 6,81804499636699E-02 
522	 6,77075507280756E-02 
523	 6,77884348239478E-02 
524	 6,71646279747931E-02 
525	 6,61645361968122E-02 
526	 0,065837070046969 
527	 6,58557198039553E-02 
528	 0,066110842661919 
529	 0,066550662887148 
530	 6,68832918269665E-02 
531	 6,68083537823917E-02 
532	 6,72787914247782E-02 
533	 6,78695948137365E-02 
534	 6,64242746381468E-02 
535	 6,56080761833473E-02 
536	 6,67427829195099E-02 
537	 6,65986030684435E-02 
538	 6,58031089221192E-02 
539	 6,62480249366769E-02 
540	 6,74400450801806E-02 
541	 0,068880239424679 
542	 6,91009960721248E-02 
543	 6,86565467292381E-02 
544	 6,82314983346246E-02 
545	 6,92191672778093E-02 
546	 7,06267792195709E-02 
547	 6,88102890808056E-02 
548	 6,71577757745718E-02 
549	 6,71249945070891E-02 
550	 6,61986051766092E-02 
551	 6,55223973009766E-02 
552	 6,73504561051826E-02 
553	 6,78764238375277E-02 
554	 6,65738798414224E-02 
555	 6,59641777627578E-02 
556	 6,62712820451146E-02 
557	 6,74762010092206E-02 
558	 6,74906722324467E-02 
559	 6,66048580421472E-02 
560	 6,65143451548154E-02 
561	 0,066831443140056 
562	 6,72900553048331E-02 
563	 6,69148741430906E-02 
564	 6,65382571556803E-02 
565	 6,73612961236678E-02 
566	 6,76220534701916E-02 
567	 6,71151031495801E-02 
568	 6,67320602102064E-02 
569	 6,68140589636371E-02 
570	 6,75112402092423E-02 
571	 6,77033390466691E-02 
572	 6,76401222202815E-02 
573	 6,82494376365093E-02 
574	 6,90756919673115E-02 
575	 6,98934809194747E-02 
576	 0,070358178115481 
577	 7,08085695015464E-02 
578	 7,16394468595102E-02 
579	 7,17528288790099E-02 
580	 7,13780459209548E-02 
581	 7,19159434018859E-02 
582	 7,29924192937534E-02 
583	 7,42780150206215E-02 
584	 7,50926760261574E-02 
585	 7,52718129193878E-02 
586	 7,46432886029708E-02 
587	 7,47456919087521E-02 
588	 7,57764349684684E-02 
589	 7,62327329523839E-02 
590	 7,61633801295219E-02 
591	 7,57293481686326E-02 
592	 7,58957730591792E-02 
593	 7,63333511918044E-02 
594	 7,55418954886113E-02 
595	 7,47169719963692E-02 
596	 0,074503851098364 
597	 7,52026600868496E-02 
598	 7,59266511572913E-02 
599	 7,53322177232995E-02 
600	 7,49172232447385E-02 
601	 7,48825997858617E-02 
602	 0,074258021740833 
603	 7,36159191155731E-02 
604	 0,073416196834512 
605	 7,32658530303729E-02 
606	 7,31986006957734E-02 
607	 7,34952743646946E-02 
608	 7,36449844905045E-02 
609	 7,35850098817894E-02 
610	 7,42881551169356E-02 
611	 7,48928930623515E-02 
612	 7,42690655424295E-02 
613	 7,34854764150506E-02 
614	 0,072822154405888 
615	 7,22287385882162E-02 
616	 7,15607751946904E-02 
617	 7,08125593793923E-02 
618	 7,08033745541748E-02 
619	 7,10534463899004E-02 
620	 7,03461089080885E-02 
621	 0,070101843463533 
622	 7,05512057903762E-02 
623	 7,04168663197982E-02 
624	 7,01552424244309E-02 
625	 7,02938071330702E-02 
626	 7,03039104149998E-02 
627	 7,01943324366201E-02 
628	 7,03637647834035E-02 
629	 7,02533717006666E-02 
630	 6,97541154809788E-02 
631	 0,07020007459875 
632	 7,12561239606243E-02 
633	 7,21828781722137E-02 
634	 7,23479455414435E-02 
635	 7,18466142300368E-02 
636	 7,19719144650706E-02 
637	 0,072496028406517 
638	 7,31461023906859E-02 
639	 7,34124245630582E-02 
640	 7,34699854907229E-02 
641	 7,41561003216092E-02 
642	 7,41885625965997E-02 
643	 7,33989207117317E-02 
644	 7,40814297881221E-02 
645	 7,52533800855912E-02 
646	 7,53901715899359E-02 
647	 7,48280934809667E-02 
648	 7,41478981605017E-02 
649	 7,51630521968593E-02 
650	 7,58094080602017E-02 
651	 7,48526799234941E-02 
652	 7,45768958452024E-02 
653	 7,48154980045686E-02 
654	 7,45695176216004E-02 
655	 7,39288223187825E-02 
656	 7,29996103957681E-02 
657	 7,22677890720025E-02 
658	 7,17072441241017E-02 
659	 7,12357772941752E-02 
660	 7,03614171234359E-02 
661	 6,92467025494157E-02 
662	 6,87431206240129E-02 
663	 0,067991520458431 
664	 6,66490526236441E-02 
665	 6,56032408735062E-02 
666	 0,06469642249447 
667	 6,34734532030074E-02 
668	 6,29736707597868E-02 
669	 6,31121822126104E-02 
670	 6,22832490416406E-02 
671	 6,16656597435013E-02 
672	 6,21200351103674E-02 
673	 6,17860384948498E-02 
674	 6,10150705637095E-02 
675	 6,13993118566593E-02 
676	 6,20682565345211E-02 
677	 6,26136689454473E-02 
678	 6,26182158159554E-02 
679	 6,24711175327532E-02 
680	 6,26782525348869E-02 
681	 6,31640289923087E-02 
682	 6,39200670115851E-02 
683	 6,48561489017145E-02 
684	 6,62287032460294E-02 
685	 6,80923087397222E-02 
686	 6,95227831165759E-02 
687	 7,10952112977498E-02 
688	 7,40659413565696E-02 
689	 7,70173149446052E-02 
690	 7,96895834369915E-02 
691	 8,28614247960174E-02 
692	 8,68600510221972E-02 
693	 9,18673679081334E-02 
694	 9,65177038512364E-02 
695	 0,100872189508634 
696	 0,105770491628415 
697	 0,111232589968032 
698	 0,117197535496158 
699	 0,123145579228851 
700	 0,128709968239207 
701	 0,13351315081586 
702	 0,138587964895839 
703	 0,143885531812982 
704	 0,148233170953587 
705	 0,15265005405347 
706	 0,157642178814482 
707	 0,161572538975363 
708	 0,164916601156547 
709	 0,168971668964162 
710	 0,173104508230265 
711	 0,177113437353374 
712	 0,180971708835909 
713	 0,184473033869145 
714	 0,187495709280488 
715	 0,190882613717637 
716	 0,194411046378628 
717	 0,197067428034108 
718	 0,19961258788472 
719	 0,202319481877966 
720	 0,204803764084905 
721	 0,207100324569761 
722	 0,209306746346519 
723	 0,211326844224718 
724	 0,213192388643528 
725	 0,215017153723605 
726	 0,217007756912078 
727	 0,219188807603141 
728	 0,220683471756484 
729	 0,221811890987233 
730	 0,223346294357046 
731	 0,224931976890461 
732	 0,226421867816866 
733	 0,227599194591544 
734	 0,228791922687486 
735	 0,230270645096705 
736	 0,231627133880284 
737	 0,232912088308704 
738	 0,234464862931494 
739	 0,23592032847702 
740	 0,237120104734871 
741	 0,238037063834683 
742	 0,239002092214871 
743	 0,240378420221528 
744	 0,241217586706077 
745	 0,241716946170224 
746	 0,243207510675948 
747	 0,244503421274639 
748	 0,245057455991507 
749	 0,24583144544482 
750	 0,246768522316353 
751	 0,247611867395119 
752	 0,248273436526148 
753	 0,248811885640476 
754	 0,249552925752007 
755	 0,250351067531306 
756	 0,251085487512226 
757	 0,251708577469982 
758	 0,252219243365376 
759	 0,252622105971927 
760	 0,253119480465645 
761	 0,253750053578189 
762	 0,254314670567383 
763	 0,25485200681213 
764	 0,255408681757609 
765	 0,256007169318024 
766	 0,256547327323582 
767	 0,256676287068016 
768	 0,257255879420038 
769	 0,258419948237456 
770	 0,258715726356564 
771	 0,25889348358534 
772	 0,259950641319106 
773	 0,260668193788143 
774	 0,260914155479572 
775	 0,261152434439674 
776	 0,261469703354819 
777	 0,261909228452951 
778	 0,262293929721791 
779	 0,262617845453213 
780	 0,262901783085361 
781	 0,263325767713806 
782	 0,26385607403311 
783	 0,264236453671966 
784	 0,264364640223486 
785	 0,2642431240829 
786	 0,264488112222734 
787	 0,264900859628867 
788	 0,264972067315828 
789	 0,264895173373578 
790	 0,264837234721591 
791	 0,26525184932877 
792	 0,265652853449409 
793	 0,26566508276782 
794	 0,26580203735336 
795	 0,265974645248498 
796	 0,265763383104852 
797	 0,265919386890162 
798	 0,266532291390203 
799	 0,266760609894288 
800	 0,266707339852876 
801	 0,266532833294514 
802	 0,266458004134216 
803	 0,266578647063181 
804	 0,267039950741522 
805	 0,267258058845425 
806	 0,267091902911508 
807	 0,267138319548383 
808	 0,267345284878187 
809	 0,267600291325752 
810	 0,267721114114415 
811	 0,267747146465906 
812	 0,267922599384988 
813	 0,268102351550228 
814	 0,268152226540049 
815	 0,267592201710748 
816	 0,267289870844656 
817	 0,268263109486682 
818	 0,268885724873868 
819	 0,268918197844868 
820	 0,268889425566241 
821	 0,268742893244584 
822	 0,268552895406699 
823	 0,268783736565534 
824	 0,269061241813737 
825	 0,268859559405293 
826	 0,26895566268035 
827	 0,269371688227884 
828	 0,269595517572651 
829	 0,269704286223166 
830	 0,269680516760032 
831	 0,269187264688421 
832	 0,268768616439372 
833	 0,269181610027531 
834	 0,269220353561033 
835	 0,268814785419725 
836	 0,268735239541966 
837	 0,268981997413527 
838	 0,269417323860286 
839	 0,268969013295526 
840	 0,268462143570934 
841	 0,26920082751297 
842	 0,269666744822644 
843	 0,269567247171642 
844	 0,269219853794967 
845	 0,269305479632272 
846	 0,270045887141902 
847	 0,270136535968921 
848	 0,269599239547308 
849	 0,268699219102692 
850	 0,268639762052983 
851	 0,269291710998698 
852	 0,269044386772841 
853	 0,268965769823768 
854	 0,269511129398889 
855	 0,269657914443034 
856	 0,269563794150907 
857	 0,269599951149468 
858	 0,269353374519128 
859	 0,269026751509414 
860	 0,269616994460689 
861	 0,269887578915071 
862	 0,26926999847747 
863	 0,268593274539021 
864	 0,268331838989754 
865	 0,268941462202073 
866	 0,269040334810811 
867	 0,268552037165054 
868	 0,268255532950986 
869	 0,268568172677303 
870	 0,269448867667067 
871	 0,269214418027733 
872	 0,268589193418665 
873	 0,268645642487463 
874	 0,269477085929509 
875	 0,270646874800996 
876	 0,270965259679391 
877	 0,270619160995285 
878	 0,26988049865312 
879	 0,269833881200193 
880	 0,270171931316365 
881	 0,270449864230883 
882	 0,270702541320257 
883	 0,270904712087417 
884	 0,271029805870411 
885	 0,271114274547692 
886	 0,271210704464522 
887	 0,271516807644109 
888	 0,271687631045234 
889	 0,271446588189344 
890	 0,27164932344232 
891	 0,272096605160227 
892	 0,272014075750428 
893	 0,271852906265946 
894	 0,271838334454058 
895	 0,272366541309138 
896	 0,272497070483105 
897	 0,271692964634956 
898	 0,272293909932015 
899	 0,273441459587762 
900	 0,272968394712723 
901	 0,272808745756632 
902	 0,273172395031332 
903	 0,272656353316457 
904	 0,272477895922478 
905	 0,273170982213339 
906	 0,272620337483462 
907	 0,271749114942223 
908	 0,272202927849801 
909	 0,272704372364293 
910	 0,272971715330388 
911	 0,273173922124314 
912	 0,273271943316599 
913	 0,273164371885654 
914	 0,272306317945371 
915	 0,271603514035513 
916	 0,272044576220137 
917	 0,272423870400798 
918	 0,272541401978532 
919	 0,27245879339037 
920	 0,273117140261513 
921	 0,274385591849532 
922	 0,273994026221638 
923	 0,273261831983775 
924	 0,273380040374544 
925	 0,273923115705812 
926	 0,274320962565553 
927	 0,273660098123346 
928	 0,273174007271744 
929	 0,273123322287425 
930	 0,273023916508506 
931	 0,272851656019629 
932	 0,272658087187693 
933	 0,272958692113736 
934	 0,273310035535377 
935	 0,273084944405998 
936	 0,272219394803694 
937	 0,271328098530887 
938	 0,272225420794242 
939	 0,272659489667754 
940	 0,272050033924502 
941	 0,272326230588823 
942	 0,27261855630612 
943	 0,272119527095562 
944	 0,271412683443508 
945	 0,271456652583108 
946	 0,273876085656893 
947	 0,274411326776594 
948	 0,272579865936171 
949	 0,27149622379908 
950	 0,271192096939605 
951	 0,271615752729175 
952	 0,271965908110079 
953	 0,2721922769254 
954	 0,272321393073002 
955	 0,271160818933526 
956	 0,269793315604228 
957	 0,27176055080415 
958	 0,27246283715955 
959	 0,270959043063291 
960	 0,270901624498492 
961	 0,270826853196415 
962	 0,26979852011389 
963	 0,27047305250543 
964	 0,271641190464282 
965	 0,270976744943888 
966	 0,270325962389355 
967	 0,270123302975635 
968	 0,270259560023144 
969	 0,270250443308509 
970	 0,269994450149644 
971	 0,270141740961491 
972	 0,270890331859408 
973	 0,272139270840128 
974	 0,271380738151017 
975	 0,269660178577866 
976	 0,26959189665141 
977	 0,269441124714163 
978	 0,269327484064195 
979	 0,271273105122888 
980	 0,272912513290219 
981	 0,272800116570898 
982	 0,270259758064113 
983	 0,267946363545111 
984	 0,268526274083461 
985	 0,270078772209309 
986	 0,271312770955318 
987	 0,27052972233571 
988	 0,269671611971091 
989	 0,269370978999144 
990	 0,269578387275091 
991	 0,269888095093022 
992	 0,270128253943179 
993	 0,270670305088163 
994	 0,271666930831828 
995	 0,273001787483921 
996	 0,271216526204408 
997	 0,268387705958485 
998	 0,269587415442414 
999	 0,271783962760156 
1000	 0,273501845438046 
1001	 0,273170545664633 
1002	 0,271027791954306 
1003	 0,268303337730648 
1004	 0,270561220131549 
1005	 0,273243489290425 
1006	 0,271897388029718 
1007	 0,273376204574945 
1008	 0,274854423202565 
1009	 0,269469411907112 
1010	 0,268783276052385 
1011	 0,272993513920545 
1012	 0,271394388358532 
1013	 0,271760218759106 
1014	 0,27559261549718 
1015	 0,272813625264782 
1016	 0,269267285328456 
1017	 0,270153531737501 
1018	 0,271245529490313 
1019	 0,272705289620661 
1020	 0,275484872208367 
1021	 0,274924301663394 
1022	 0,272236380262167 
1023	 0,274061572295376 
1024	 0,27598080720813 
1025	 0,275639213343175 
1026	 0,269235365876765 
1027	 0,265626936727311 
1028	 0,269708468917443 
1029	 0,27082255691293 
1030	 0,271231117473818 
1031	 0,274525086689751 
1032	 0,275158685154233 
1033	 0,272988121674078 
1034	 0,269882141022967 
1035	 0,269831080287234 
1036	 0,271607711399338 
1037	 0,265262578328005 
1038	 0,265552625093952 
1039	 0,276390273645488 
1040	 0,28181979159265 
1041	 0,27926920603453 
1042	 0,268975849953639 
1043	 0,265247415776772 
1044	 0,267580485508627 
1045	 0,271684756524084 
1046	 0,272217882594999 
1047	 0,270421556127141 
1048	 0,272733621293837 
1049	 0,273558481720343 
1050	 0,271432267182298 
1051	 0,266966995972345 
1052	 0,265606281961088 
1053	 0,270054090438591 
1054	 0,278422161331969 
1055	 0,280966031403126 
1056	 0,271844002566641 
1057	 0,273571910053329 
1058	 0,275834216190925 
1059	 0,261282559307208 
1060	 0,257814880867234 
1061	 0,26680295393234 
1062	 0,277043720886045 
1063	 0,27628198868003 
1064	 0,263432485403913 
1065	 0,24865673714982 
1066	 0,252318791709107 
1067	 0,27616209753901 
1068	 0,277960450777321 
1069	 0,268052697823181 
1070	 0,258020836078835 
1071	 0,262469279211668 
1072	 0,270950820762095 
1073	 0,268790656290033 
1074	 0,266265963173006 
1075	 0,263405310670196 
