Wavelength	GOOSEBAR00276.asd
325	 0,217346533742155 
326	 0,2976808955064 
327	 0,291462438041062 
328	 0,224732501443375 
329	 0,267731840534919 
330	 0,336136086136086 
331	 0,374480634092329 
332	 0,323582798530651 
333	 0,243971083135984 
334	 0,117225275920581 
335	 0,230148059761693 
336	 0,463128714039253 
337	 0,291449226791784 
338	 5,93083856413256E-02 
339	 0,108073741706421 
340	 0,212389638505983 
341	 0,27936000835396 
342	 0,291647022124858 
343	 0,275464918579847 
344	 0,244343334813723 
345	 0,233982887684257 
346	 0,231632312293513 
347	 0,221380290741033 
348	 0,229048389851694 
349	 0,23616761551305 
350	 0,184266439766668 
351	 0,154897477093032 
352	 0,17539185768606 
353	 0,227497411333358 
354	 0,254107584436723 
355	 0,211492631014348 
356	 0,200160898853955 
357	 0,219982014671768 
358	 0,189424634461779 
359	 0,188614715610449 
360	 0,237074699297747 
361	 0,22359929342688 
362	 0,194486584836943 
363	 0,229641714741006 
364	 0,236323964790392 
365	 0,206797861743487 
366	 0,198550291393049 
367	 0,201484895746042 
368	 0,208110923203971 
369	 0,220355186963577 
370	 0,227242757676234 
371	 0,213315127751356 
372	 0,200450899294184 
373	 0,192789850962775 
374	 0,1752279855343 
375	 0,166500830907887 
376	 0,176625045175805 
377	 0,188853980700894 
378	 0,196818829442319 
379	 0,200669993766765 
380	 0,19193918822062 
381	 0,171502049103927 
382	 0,147557993127241 
383	 0,1473884327264 
384	 0,193194549617171 
385	 0,216328735124288 
386	 0,213197343700337 
387	 0,208202716823406 
388	 0,201548536297167 
389	 0,195882919084484 
390	 0,193504940006128 
391	 0,196211300857306 
392	 0,205689162458876 
393	 0,202841896023337 
394	 0,188672569096837 
395	 0,17691139719541 
396	 0,173007175298674 
397	 0,179609849709723 
398	 0,194042449186688 
399	 0,201411532189625 
400	 0,178434066133607 
401	 0,176828636684353 
402	 0,196368789591296 
403	 0,1861913551101 
404	 0,178420482554941 
405	 0,192439744537682 
406	 0,19139733736596 
407	 0,180300786909216 
408	 0,177737351972377 
409	 0,179986838056819 
410	 0,18350223363194 
411	 0,175830633803866 
412	 0,168170420803985 
413	 0,170928820288387 
414	 0,174584729010608 
415	 0,177148107267273 
416	 0,178600404022804 
417	 0,179968379768701 
418	 0,181128328926779 
419	 0,178635432957177 
420	 0,176415884265088 
421	 0,179762380963476 
422	 0,178779837435963 
423	 0,174387292388988 
424	 0,177871313260659 
425	 0,178753863626284 
426	 0,172095078521134 
427	 0,172329620652426 
428	 0,176511645325541 
429	 0,176050631215305 
430	 0,176358912716963 
431	 0,177898343969645 
432	 0,175959533895089 
433	 0,174792270240625 
434	 0,177886833959505 
435	 0,17772427698789 
436	 0,174819382178398 
437	 0,173513202541517 
438	 0,174213439645023 
439	 0,176610609752193 
440	 0,176921781089066 
441	 0,17672112349187 
442	 0,178406921126342 
443	 0,179323478029442 
444	 0,179835324943558 
445	 0,183454712485329 
446	 0,186314061606663 
447	 0,186115475242278 
448	 0,184768895031461 
449	 0,184210040248763 
450	 0,187299904682561 
451	 0,191596942413409 
452	 0,19522382479867 
453	 0,19398537052583 
454	 0,192828202978684 
455	 0,196240873066876 
456	 0,198112092679764 
457	 0,198125389616172 
458	 0,198308671959986 
459	 0,199413790038209 
460	 0,201556973624793 
461	 0,202604522975719 
462	 0,203640632063298 
463	 0,206368065221714 
464	 0,205993801881156 
465	 0,203163319009722 
466	 0,20452980297543 
467	 0,205424428786744 
468	 0,203154504685726 
469	 0,202717715016735 
470	 0,204126053159453 
471	 0,205946193380388 
472	 0,207523107898164 
473	 0,20854941932526 
474	 0,209270490552949 
475	 0,209807621387905 
476	 0,210220836972807 
477	 0,209261297354263 
478	 0,207670682851351 
479	 0,208095973984857 
480	 0,208311833172951 
481	 0,207452102668531 
482	 0,207159425565555 
483	 0,20725384736063 
484	 0,20716851166741 
485	 0,208238381682936 
486	 0,209811179758476 
487	 0,208267068942208 
488	 0,205994116624317 
489	 0,204947703155126 
490	 0,205366977232657 
491	 0,206583809966863 
492	 0,20706580447984 
493	 0,207162894631333 
494	 0,206973491027635 
495	 0,20668412276997 
496	 0,206397088813846 
497	 0,206200066759369 
498	 0,206249025305015 
499	 0,206566852770373 
500	 0,206938091709708 
501	 0,208183666452437 
502	 0,210356081458642 
503	 0,210209496105557 
504	 0,208669762420753 
505	 0,207912138012805 
506	 0,208664465286281 
507	 0,210400311036482 
508	 0,209472944946271 
509	 0,208661858525625 
510	 0,210489332872645 
511	 0,212256762931268 
512	 0,213132503128807 
513	 0,212353101444628 
514	 0,211586626206776 
515	 0,211709392829321 
516	 0,212853815155187 
517	 0,214035647575209 
518	 0,213870024971197 
519	 0,214590465002713 
520	 0,216159218740404 
521	 0,216337921200873 
522	 0,216156771930172 
523	 0,216339658711347 
524	 0,216024512678897 
525	 0,215362467642069 
526	 0,214815218999934 
527	 0,214946326794643 
528	 0,215775911137589 
529	 0,216243883884227 
530	 0,216164444170241 
531	 0,215457781195211 
532	 0,215843386542807 
533	 0,216773987065769 
534	 0,215005606888027 
535	 0,214144318321706 
536	 0,215992779954137 
537	 0,216600651235708 
538	 0,215961750786362 
539	 0,214921429441574 
540	 0,215224151332693 
541	 0,216925725120847 
542	 0,217404777504294 
543	 0,216954478069554 
544	 0,216083800608841 
545	 0,216483368876916 
546	 0,217741602912413 
547	 0,2176948677375 
548	 0,217343320330531 
549	 0,21716457916578 
550	 0,216978945401738 
551	 0,217077815136155 
552	 0,217940879152398 
553	 0,218387445194001 
554	 0,218263005761833 
555	 0,218420387678466 
556	 0,218895476101237 
557	 0,219683095066728 
558	 0,220618853899626 
559	 0,221337297805607 
560	 0,220860586710471 
561	 0,221394920471894 
562	 0,223354403225506 
563	 0,223101006898687 
564	 0,222688421741759 
565	 0,225213156901105 
566	 0,226575431163096 
567	 0,226488789911569 
568	 0,227950851976987 
569	 0,229214648078353 
570	 0,229246039982353 
571	 0,230463726433082 
572	 0,232467656598283 
573	 0,233563541336645 
574	 0,234846492932686 
575	 0,236582796062786 
576	 0,238213081316581 
577	 0,239766323922475 
578	 0,241330150623866 
579	 0,242451779472627 
580	 0,24332002746447 
581	 0,244898553218014 
582	 0,246286804604738 
583	 0,247038153869816 
584	 0,248164171192384 
585	 0,249118411682439 
586	 0,248681525346822 
587	 0,248484111762222 
588	 0,248836315628222 
589	 0,248550178754046 
590	 0,248454161223599 
591	 0,249251872019356 
592	 0,248624044001311 
593	 0,247161497283671 
594	 0,247747511215982 
595	 0,248314062766676 
596	 0,248034689651534 
597	 0,248106603839127 
598	 0,248478341143213 
599	 0,248920989994186 
600	 0,248829208992186 
601	 0,248099449360107 
602	 0,247183310092855 
603	 0,245986934093868 
604	 0,244590901461007 
605	 0,2447660264226 
606	 0,245743789210447 
607	 0,24500176879475 
608	 0,24383968835983 
609	 0,242864155862047 
610	 0,242763970037319 
611	 0,242798297224446 
612	 0,241986506179842 
613	 0,241120966656726 
614	 0,240366807600799 
615	 0,239554350759024 
616	 0,238893111585761 
617	 0,238504931241742 
618	 0,238151209697906 
619	 0,237851643531152 
620	 0,237689518675971 
621	 0,237881345900433 
622	 0,238320144886933 
623	 0,23809700499978 
624	 0,238033202125036 
625	 0,238965383120938 
626	 0,239139115669715 
627	 0,238800502581027 
628	 0,239879837619455 
629	 0,240577701597494 
630	 0,240230931429292 
631	 0,241185578884759 
632	 0,242642801235997 
633	 0,242830872570074 
634	 0,24392361873815 
635	 0,246060031415456 
636	 0,247113987291205 
637	 0,248096491329789 
638	 0,249841185634441 
639	 0,250996578820282 
640	 0,251679830254298 
641	 0,252852743838081 
642	 0,253685250935629 
643	 0,254043791326349 
644	 0,255164926753087 
645	 0,256384942489153 
646	 0,256727336644519 
647	 0,256410624132868 
648	 0,255799808720791 
649	 0,25595580114972 
650	 0,256013179028025 
651	 0,255390338817904 
652	 0,254504410436326 
653	 0,253408601560293 
654	 0,252139208432895 
655	 0,25032020905892 
656	 0,247865720284738 
657	 0,244970531738118 
658	 0,242162654004032 
659	 0,239931504861746 
660	 0,237232516261774 
661	 0,234049114141357 
662	 0,231120089307598 
663	 0,227625250194293 
664	 0,223473005960966 
665	 0,22100993197967 
666	 0,219224221541603 
667	 0,216090514638993 
668	 0,213405281163373 
669	 0,211544043306797 
670	 0,209874292140313 
671	 0,208422054222502 
672	 0,207230721160369 
673	 0,20657192208167 
674	 0,206165477262272 
675	 0,205191781200697 
676	 0,204666400903477 
677	 0,204861235106768 
678	 0,205043038400852 
679	 0,205170798070282 
680	 0,205279538701491 
681	 0,206124418351839 
682	 0,207810446684234 
683	 0,209925406083632 
684	 0,212637087283018 
685	 0,215999809461436 
686	 0,219628715343889 
687	 0,223715718346496 
688	 0,228680347558851 
689	 0,234296378319372 
690	 0,240560728567933 
691	 0,24762042261189 
692	 0,255757492957677 
693	 0,265092650651077 
694	 0,273572304641006 
695	 0,281605348275161 
696	 0,291347933681542 
697	 0,30145239714455 
698	 0,311258378027043 
699	 0,320347519129076 
700	 0,329138167446306 
701	 0,338227240189577 
702	 0,346448788257669 
703	 0,35356368672474 
704	 0,359846905107921 
705	 0,365638593503056 
706	 0,371181752981085 
707	 0,37631985354419 
708	 0,381048741914161 
709	 0,385352738971462 
710	 0,389823890195904 
711	 0,394419445778179 
712	 0,398037999787602 
713	 0,401071999458769 
714	 0,403972881565009 
715	 0,406976366809947 
716	 0,41007071917391 
717	 0,41308598085536 
718	 0,415882392213393 
719	 0,418377850734879 
720	 0,420597664236476 
721	 0,422636852184359 
722	 0,424620158119953 
723	 0,42631365328991 
724	 0,427759918181642 
725	 0,429255896304492 
726	 0,430745135139575 
727	 0,432175603669631 
728	 0,433480846128168 
729	 0,434535036333668 
730	 0,435108140752553 
731	 0,435851975738019 
732	 0,43686144668824 
733	 0,437543749157991 
734	 0,438146471897857 
735	 0,438879818145416 
736	 0,439366979251489 
737	 0,439673427217759 
738	 0,440062134161247 
739	 0,440736379075528 
740	 0,441671647191879 
741	 0,44222043835979 
742	 0,442558880509699 
743	 0,442956802697294 
744	 0,443280233142702 
745	 0,443596922822264 
746	 0,444168440231429 
747	 0,444743973587951 
748	 0,445185332865046 
749	 0,445589526423119 
750	 0,445905935689767 
751	 0,446042745672956 
752	 0,446171290706516 
753	 0,446442430489576 
754	 0,447222229428297 
755	 0,447843542845947 
756	 0,447860776413192 
757	 0,447980403474527 
758	 0,44825062201178 
759	 0,448523957957065 
760	 0,448859779389481 
761	 0,449217501037151 
762	 0,449401987335637 
763	 0,449405083321728 
764	 0,449257867904238 
765	 0,44936823998142 
766	 0,449700302659339 
767	 0,449931221753784 
768	 0,450176660961124 
769	 0,450463102731401 
770	 0,450706662418527 
771	 0,451053106510164 
772	 0,451665607157757 
773	 0,451977555333036 
774	 0,451955640911147 
775	 0,451887930297998 
776	 0,452049727556129 
777	 0,452494671819157 
778	 0,452402887724609 
779	 0,45218059810781 
780	 0,452553518620425 
781	 0,452783161149618 
782	 0,452766528004577 
783	 0,452862635693852 
784	 0,45301299395378 
785	 0,453160757198533 
786	 0,45313979773181 
787	 0,453099709345361 
788	 0,453370439448044 
789	 0,45330588389834 
790	 0,452920194788971 
791	 0,453108822700786 
792	 0,453408159390018 
793	 0,453449710351904 
794	 0,453737217734025 
795	 0,453946119972933 
796	 0,453183862797409 
797	 0,452690768877978 
798	 0,452830647920908 
799	 0,453082556471994 
800	 0,453226711265295 
801	 0,453122604421367 
802	 0,453505526885703 
803	 0,45418835982548 
804	 0,454370210065012 
805	 0,454370181343361 
806	 0,454376194421489 
807	 0,454768160293382 
808	 0,455324367676642 
809	 0,455768585415332 
810	 0,456077592586458 
811	 0,456301619800614 
812	 0,456629389381713 
813	 0,456886944860677 
814	 0,457000893859516 
815	 0,45700215567039 
816	 0,456979715334054 
817	 0,457040986787484 
818	 0,45753016287725 
819	 0,458130384884542 
820	 0,457668416795373 
821	 0,457258105415611 
822	 0,457388414862895 
823	 0,45745395357843 
824	 0,457435075628407 
825	 0,457380111984317 
826	 0,457250493951687 
827	 0,457133659151319 
828	 0,457320077568038 
829	 0,457497619168781 
830	 0,457473259100782 
831	 0,457143183754144 
832	 0,456895418482481 
833	 0,457254833948511 
834	 0,457200631544748 
835	 0,456701766631403 
836	 0,456528848510593 
837	 0,456499526741801 
838	 0,456453833238549 
839	 0,455925609914596 
840	 0,455362537301013 
841	 0,455449661764839 
842	 0,455834503083735 
843	 0,456168987884765 
844	 0,455593050087006 
845	 0,455320790140771 
846	 0,455883453195898 
847	 0,455934668032913 
848	 0,455583344370732 
849	 0,455206697776968 
850	 0,455133634736897 
851	 0,455376318567284 
852	 0,455645036942861 
853	 0,455754439800627 
854	 0,455643823336189 
855	 0,455759509237039 
856	 0,455883192626831 
857	 0,455657371891783 
858	 0,454958678010983 
859	 0,454232385480769 
860	 0,45494230685248 
861	 0,45574481198635 
862	 0,45588844121215 
863	 0,455574301008763 
864	 0,455110176912369 
865	 0,454879106472512 
866	 0,455201060424936 
867	 0,455837214284176 
868	 0,455754541499769 
869	 0,456009155156657 
870	 0,456871369519379 
871	 0,456777258769479 
872	 0,456294391092863 
873	 0,456286995895916 
874	 0,456910444827177 
875	 0,457828413176716 
876	 0,458034845062529 
877	 0,457785395728003 
878	 0,457429060068408 
879	 0,458366853496192 
880	 0,45923728667176 
881	 0,458552478501741 
882	 0,458308976238697 
883	 0,458770587503711 
884	 0,459542391773029 
885	 0,460288633287675 
886	 0,460731972292403 
887	 0,460493487130256 
888	 0,460026205294533 
889	 0,459833532907484 
890	 0,460454499553633 
891	 0,461237897497062 
892	 0,460489639275634 
893	 0,460316210460476 
894	 0,46111587607929 
895	 0,461388451565943 
896	 0,461435743800805 
897	 0,461497590510318 
898	 0,461215375017635 
899	 0,460698138179958 
900	 0,460186154309293 
901	 0,460192524148185 
902	 0,46070561805954 
903	 0,461024587594547 
904	 0,461401987505999 
905	 0,461877229809092 
906	 0,461549430117611 
907	 0,461164506702013 
908	 0,461901320933563 
909	 0,462307987998877 
910	 0,462091381672018 
911	 0,461363871365348 
912	 0,461571865013602 
913	 0,463003179910831 
914	 0,462778040128783 
915	 0,462132955999784 
916	 0,462664729526293 
917	 0,462842169442136 
918	 0,462687964244094 
919	 0,463021668427485 
920	 0,463243330938807 
921	 0,463300532910566 
922	 0,463993480055723 
923	 0,464477016456641 
924	 0,464104782351868 
925	 0,463955384108001 
926	 0,464257656670963 
927	 0,465140182798858 
928	 0,464913385116964 
929	 0,463649551385241 
930	 0,463533764076985 
931	 0,463641896476112 
932	 0,46348678751366 
933	 0,463627954134069 
934	 0,46398741724279 
935	 0,464375273796342 
936	 0,463971965697139 
937	 0,462941211828924 
938	 0,462105591893112 
939	 0,462349678468978 
940	 0,463696110551225 
941	 0,464270638202401 
942	 0,464246083222805 
943	 0,463907499146984 
944	 0,463479733539285 
945	 0,46317348207749 
946	 0,463280716526766 
947	 0,462660711682067 
948	 0,46152164697093 
949	 0,461970082758192 
950	 0,462015914792374 
951	 0,460800583007621 
952	 0,460785219013435 
953	 0,461066853555208 
954	 0,460313326722864 
955	 0,459978752469286 
956	 0,46024701827919 
957	 0,460945124324966 
958	 0,460578147870762 
959	 0,459267832499159 
960	 0,460314447189774 
961	 0,461149286758947 
962	 0,45998005045261 
963	 0,45983657786111 
964	 0,460194124559606 
965	 0,459631346681241 
966	 0,459349721466811 
967	 0,45951012149636 
968	 0,459759837468936 
969	 0,459503231171697 
970	 0,458848348049493 
971	 0,459944061702282 
972	 0,461075889045417 
973	 0,460594926560075 
974	 0,45931016286535 
975	 0,458597096424838 
976	 0,460667126366884 
977	 0,460276473411313 
978	 0,45775586904541 
979	 0,459574227515226 
980	 0,461774870541145 
981	 0,461980120468007 
982	 0,458668071580729 
983	 0,456095146160843 
984	 0,458416842812753 
985	 0,460652365000694 
986	 0,461558145280394 
987	 0,460643279984651 
988	 0,459998943016678 
989	 0,460240364563194 
990	 0,461208783485116 
991	 0,460315786904687 
992	 0,457349964776621 
993	 0,459744635657141 
994	 0,462848819668348 
995	 0,461528765500283 
996	 0,46095426512281 
997	 0,461600885251806 
998	 0,462554939254937 
999	 0,463362404348046 
1000	 0,463876437711007 
1001	 0,464194553884887 
1002	 0,465498915721526 
1003	 0,467524485724949 
1004	 0,465112717728095 
1005	 0,463279693049575 
1006	 0,466651573456386 
1007	 0,466402219205173 
1008	 0,464030603616322 
1009	 0,464754801434886 
1010	 0,467396287823127 
1011	 0,469787827644405 
1012	 0,465315191303991 
1013	 0,463795574635371 
1014	 0,467948661368091 
1015	 0,467981609247765 
1016	 0,466094823372398 
1017	 0,464745336557842 
1018	 0,46381919361022 
1019	 0,464126154210361 
1020	 0,466660463608176 
1021	 0,470585141486011 
1022	 0,47348072797226 
1023	 0,46911545117018 
1024	 0,467414577501187 
1025	 0,470834404744996 
1026	 0,473748237064805 
1027	 0,473582437982828 
1028	 0,469697895435905 
1029	 0,469320018486489 
1030	 0,472323654298478 
1031	 0,476862407227254 
1032	 0,472468910734862 
1033	 0,465054599056379 
1034	 0,470726255825551 
1035	 0,475127500961163 
1036	 0,473340362112491 
1037	 0,462136865427881 
1038	 0,459539391412413 
1039	 0,471136617008855 
1040	 0,478468784576187 
1041	 0,478453167583786 
1042	 0,470559645476101 
1043	 0,466750207065419 
1044	 0,466479281262568 
1045	 0,466258287739146 
1046	 0,465634708448583 
1047	 0,466953410253063 
1048	 0,476494856799401 
1049	 0,479971027447929 
1050	 0,475440090353787 
1051	 0,473892379672402 
1052	 0,474151427880396 
1053	 0,475459441564851 
1054	 0,476235405430664 
1055	 0,475128802213427 
1056	 0,471701217935491 
1057	 0,471049606374235 
1058	 0,472431075640179 
1059	 0,473563747062304 
1060	 0,470199705200047 
1061	 0,466249472197318 
1062	 0,472912340341163 
1063	 0,476604900791039 
1064	 0,473846884624729 
1065	 0,468248531362944 
1066	 0,464388026944127 
1067	 0,465226697260642 
1068	 0,470054146477752 
1069	 0,48111904622534 
1070	 0,496885333646912 
1071	 0,493891604398473 
1072	 0,480353532659036 
1073	 0,470404797287225 
1074	 0,465079271527082 
1075	 0,461531727280994 
