Wavelength	GOOSEBAR00115.asd
325	 0,264512491874385 
326	 0,243842628369435 
327	 6,31014676847032E-02 
328	-0,269382319599142 
329	-0,136944816996132 
330	 0,12992562992563 
331	 0,294809812498401 
332	 0,171537832034014 
333	-1,06194690265487E-02 
334	-0,021171556612667 
335	 9,83395795169991E-02 
336	 0,207387949502758 
337	 0,149449019326216 
338	 4,73602306077475E-02 
339	 1,84526098060231E-02 
340	 7,28662796686094E-02 
341	 0,152361870046975 
342	 0,196658125148669 
343	 0,18754884153167 
344	 0,133215679013465 
345	 0,11688300158034 
346	 0,102206673378575 
347	 4,94515852511942E-02 
348	 7,26814916367758E-02 
349	 0,137799004192312 
350	 0,116486668799632 
351	 8,79820238982412E-02 
352	 7,96901192763874E-02 
353	 8,31186442996748E-02 
354	 9,14788556045951E-02 
355	 9,94508307632294E-02 
356	 0,106524728549405 
357	 0,105111418283384 
358	 6,84629563588397E-02 
359	 6,65546406464449E-02 
360	 0,116540086427258 
361	 0,125147410061203 
362	 0,111199515622345 
363	 0,113321673991724 
364	 0,103946732986028 
365	 8,57146138372565E-02 
366	 9,73436078848143E-02 
367	 0,104388705482499 
368	 8,88380899446333E-02 
369	 7,97442203965378E-02 
370	 8,35561971304809E-02 
371	 0,103938602079427 
372	 0,1083053497267 
373	 9,48498098626463E-02 
374	 0,107196844208066 
375	 0,114462041373743 
376	 9,89938754688352E-02 
377	 0,117666992925176 
378	 0,14279502339096 
379	 9,78938346039775E-02 
380	 8,60316803934081E-02 
381	 0,124640287230245 
382	 0,115305223432194 
383	 9,44593752499267E-02 
384	 0,100907444377214 
385	 9,98061289349361E-02 
386	 0,092729561683409 
387	 0,100483767623872 
388	 9,71822817101986E-02 
389	 7,94356708302306E-02 
390	 8,72867852006895E-02 
391	 0,10740596319555 
392	 0,121418610386507 
393	 0,114676798558277 
394	 9,25477007496921E-02 
395	 0,076755291777525 
396	 7,69000238749952E-02 
397	 9,43776719747673E-02 
398	 0,102602722349813 
399	 0,10146818493665 
400	 9,47915995822162E-02 
401	 9,56809750065843E-02 
402	 0,105392907402385 
403	 0,116110228784822 
404	 0,119199475616065 
405	 0,110852186167916 
406	 0,111312447287606 
407	 0,114884543053944 
408	 0,103425145047201 
409	 9,89942224197463E-02 
410	 0,105440982063172 
411	 0,106556385612822 
412	 0,105201826946877 
413	 0,104755181435493 
414	 0,10404097913157 
415	 0,103404231353368 
416	 0,103638383255378 
417	 0,105642215495713 
418	 0,10886597775482 
419	 0,108339407392202 
420	 0,107187368621331 
421	 0,109921668289278 
422	 0,107251829984408 
423	 0,100770241040065 
424	 0,102055352551264 
425	 0,10621641320507 
426	 0,109601579547592 
427	 0,107644141483339 
428	 0,105010532122441 
429	 0,111251784231559 
430	 0,115668491351219 
431	 0,115058638696728 
432	 0,110311321553981 
433	 0,107720842835504 
434	 0,112168036736653 
435	 0,111617089418171 
436	 0,107814992217928 
437	 0,111056795627853 
438	 0,113134112243962 
439	 0,111649034769153 
440	 0,113629912395915 
441	 0,11543618924367 
442	 0,111818134452138 
443	 0,111452940542801 
444	 0,114201859781803 
445	 0,112078935655502 
446	 0,11083320622168 
447	 0,113232480454256 
448	 0,110603228525862 
449	 0,106302058942004 
450	 0,108557538734932 
451	 0,112271361260637 
452	 0,114947687326969 
453	 0,112990397150953 
454	 0,111321691453954 
455	 0,114304500882861 
456	 0,113798775070915 
457	 0,111051430947177 
458	 0,113564850598473 
459	 0,115812201525738 
460	 0,115596586052229 
461	 0,114698580925262 
462	 0,114461359493323 
463	 0,116456516490072 
464	 0,114944271114688 
465	 0,111351944548116 
466	 0,116360735409778 
467	 0,119658440049865 
468	 0,115045631450166 
469	 0,111597545432365 
470	 0,110591598232933 
471	 0,111283163160419 
472	 0,115212777875997 
473	 0,120822673636007 
474	 0,11965579073758 
475	 0,116268407577935 
476	 0,115620641260308 
477	 0,115163720134059 
478	 0,115122314713749 
479	 0,117543731418001 
480	 0,118706748702236 
481	 0,117204127012568 
482	 0,116504559082737 
483	 0,11726826323438 
484	 0,119985767084389 
485	 0,119192208880929 
486	 0,115153698801277 
487	 0,114753690746489 
488	 0,116041532414621 
489	 0,117247829297834 
490	 0,116900930468254 
491	 0,115781736474306 
492	 0,11613091041694 
493	 0,117634353253187 
494	 0,119807728697087 
495	 0,120838834975845 
496	 0,120378248990972 
497	 0,118281995357952 
498	 0,118232632183657 
499	 0,120170242996919 
500	 0,121104358199356 
501	 0,121481286564022 
502	 0,121535959453678 
503	 0,121622014198721 
504	 0,121148838788977 
505	 0,118621422568146 
506	 0,119785638332298 
507	 0,124331011007445 
508	 0,123036769988615 
509	 0,120823523503112 
510	 0,122357738840744 
511	 0,123869161900813 
512	 0,12480303420336 
513	 0,125571457192172 
514	 0,126340537979768 
515	 0,127059303982156 
516	 0,12685180720697 
517	 0,126392452175977 
518	 0,126688985340123 
519	 0,127461854629859 
520	 0,12845741770276 
521	 0,129168462259579 
522	 0,129292665318647 
523	 0,128722513679666 
524	 0,128598421218227 
525	 0,128904421057509 
526	 0,12913845587782 
527	 0,129376417343299 
528	 0,129673107106317 
529	 0,130282346489845 
530	 0,130981824828183 
531	 0,131504324579592 
532	 0,131770539839964 
533	 0,131686380244278 
534	 0,130822088513318 
535	 0,130926104750958 
536	 0,132692328481682 
537	 0,132517088678013 
538	 0,131554187911612 
539	 0,132769133668815 
540	 0,134721386538207 
541	 0,136516396026438 
542	 0,136325267834075 
543	 0,135615823417452 
544	 0,135906115555363 
545	 0,136709698082604 
546	 0,137469993214637 
547	 0,136940681861954 
548	 0,136092385964095 
549	 0,135512011673726 
550	 0,135524825937092 
551	 0,136070839568474 
552	 0,137010645263149 
553	 0,13757667595176 
554	 0,137530460543446 
555	 0,136884724965954 
556	 0,136931806699189 
557	 0,138566872007267 
558	 0,13903698845431 
559	 0,13852043631404 
560	 0,13880931623057 
561	 0,138986258615479 
562	 0,138854643180988 
563	 0,139236577055763 
564	 0,139867047962051 
565	 0,140301442516604 
566	 0,141249537506714 
567	 0,142413841166925 
568	 0,142165419137138 
569	 0,141876346374318 
570	 0,142463787997902 
571	 0,142805555364874 
572	 0,143027290486148 
573	 0,143814037094341 
574	 0,144286672205755 
575	 0,14439530348365 
576	 0,145662553557692 
577	 0,146889347877434 
578	 0,146677050281537 
579	 0,146942964896102 
580	 0,147817453026011 
581	 0,148257023677917 
582	 0,148625489977366 
583	 0,149113447824172 
584	 0,149681458767344 
585	 0,150058018911568 
586	 0,149742273532386 
587	 0,149729899500361 
588	 0,150198408327336 
589	 0,150359239407933 
590	 0,150588672284421 
591	 0,151212296623077 
592	 0,151084255434309 
593	 0,150544784626839 
594	 0,151160851540392 
595	 0,151673169670449 
596	 0,15161327382849 
597	 0,151995187643046 
598	 0,152538754528469 
599	 0,152677152534071 
600	 0,152881223929758 
601	 0,153133495908247 
602	 0,152814300413409 
603	 0,15267468737983 
604	 0,153265371461913 
605	 0,153609035356071 
606	 0,153781980349177 
607	 0,154390833058614 
608	 0,155080481490783 
609	 0,155676227010931 
610	 0,156064314846958 
611	 0,15619039720389 
612	 0,156011496147495 
613	 0,156205970954811 
614	 0,156631703449504 
615	 0,15621978732756 
616	 0,155624411367813 
617	 0,155336107155749 
618	 0,155652302033268 
619	 0,156236710275076 
620	 0,156367605628275 
621	 0,156378320831196 
622	 0,156320862327524 
623	 0,155842988315867 
624	 0,155889360401744 
625	 0,157334899093422 
626	 0,157257265062422 
627	 0,156024613938992 
628	 0,156636580717456 
629	 0,157269612479345 
630	 0,157137586104891 
631	 0,157550361860758 
632	 0,158330410020429 
633	 0,158994644714741 
634	 0,159132006110715 
635	 0,158858641028411 
636	 0,159232610615492 
637	 0,159790721688484 
638	 0,16010577212127 
639	 0,16031808741249 
640	 0,160476966994605 
641	 0,160658662998157 
642	 0,160827465292613 
643	 0,160979627758817 
644	 0,161115988919581 
645	 0,161379461583969 
646	 0,161955560698251 
647	 0,161985896432294 
648	 0,161524412958672 
649	 0,161653748674998 
650	 0,161417129583204 
651	 0,160381257505901 
652	 0,160772219678938 
653	 0,161883120565217 
654	 0,161618491517764 
655	 0,16130558292961 
656	 0,16137025955425 
657	 0,161726778239137 
658	 0,162109338462789 
659	 0,162237346145694 
660	 0,161970227820635 
661	 0,161515555103541 
662	 0,161583602366332 
663	 0,161470584725723 
664	 0,160905337143239 
665	 0,16068448607095 
666	 0,160536062191594 
667	 0,159847372013721 
668	 0,159954432264924 
669	 0,160893874327934 
670	 0,161233405203005 
671	 0,16145610807449 
672	 0,161917009616294 
673	 0,161733588434297 
674	 0,161205944441461 
675	 0,161317997807763 
676	 0,16183487606437 
677	 0,162526817858079 
678	 0,162537189106185 
679	 0,162322440565734 
680	 0,162508572986566 
681	 0,162763798161034 
682	 0,163197035602277 
683	 0,164364137788488 
684	 0,165571329574467 
685	 0,166399311880125 
686	 0,167124842510287 
687	 0,167884680216254 
688	 0,168827566744973 
689	 0,170069793709662 
690	 0,171587307206865 
691	 0,173081966522151 
692	 0,17465179765657 
693	 0,176381220185615 
694	 0,177985364334768 
695	 0,179544116766391 
696	 0,181399169419269 
697	 0,183362135027337 
698	 0,185273059187228 
699	 0,186687022996849 
700	 0,18799065252919 
701	 0,189725994414445 
702	 0,191359122319065 
703	 0,192708098654339 
704	 0,193593511940874 
705	 0,194610747530478 
706	 0,196098451203743 
707	 0,197379232887937 
708	 0,198522795401163 
709	 0,199855400681492 
710	 0,20109662663556 
711	 0,202253048579535 
712	 0,203780104489094 
713	 0,205142720181343 
714	 0,205887180676896 
715	 0,207026900133464 
716	 0,20839683799769 
717	 0,208954379855879 
718	 0,209937716293344 
719	 0,211671696413199 
720	 0,212787703227937 
721	 0,2134653802542 
722	 0,214109812496945 
723	 0,214970580181079 
724	 0,216064867313539 
725	 0,217185682206716 
726	 0,218137392867738 
727	 0,21881762246464 
728	 0,219547760404528 
729	 0,220297204528823 
730	 0,22091573053764 
731	 0,22157940299725 
732	 0,222264095538726 
733	 0,222635578817258 
734	 0,222937872228886 
735	 0,223414626578729 
736	 0,224292919121961 
737	 0,22528583180951 
738	 0,225601062801315 
739	 0,22580658052114 
740	 0,226170382024866 
741	 0,226859342255105 
742	 0,22770057047434 
743	 0,228464727297205 
744	 0,228699720749829 
745	 0,228709668076862 
746	 0,229817220484613 
747	 0,23065751916183 
748	 0,230587022255123 
749	 0,230601732177062 
750	 0,230975550942133 
751	 0,231941625540218 
752	 0,232564211589838 
753	 0,232728163886227 
754	 0,233138336023204 
755	 0,233553368683121 
756	 0,233834407310996 
757	 0,234456993705601 
758	 0,23518988324282 
759	 0,235437537290492 
760	 0,235587044579772 
761	 0,235780908124289 
762	 0,236058760248101 
763	 0,236338995850694 
764	 0,236553265774215 
765	 0,236911681050949 
766	 0,23738314191163 
767	 0,237817827455294 
768	 0,238079108676865 
769	 0,238171071659594 
770	 0,238509405146982 
771	 0,238910172506133 
772	 0,239117256833219 
773	 0,239309982217072 
774	 0,23949388530909 
775	 0,239507289475415 
776	 0,239799673031528 
777	 0,240482748265979 
778	 0,240547371227979 
779	 0,240453738899742 
780	 0,241036881882807 
781	 0,241531055829681 
782	 0,241750236635332 
783	 0,241810721117686 
784	 0,241816812645508 
785	 0,241876758185681 
786	 0,242200999418298 
787	 0,242667450872567 
788	 0,24304208512128 
789	 0,242950432623783 
790	 0,242513387048402 
791	 0,24275213356339 
792	 0,243059566760637 
793	 0,242946370729399 
794	 0,242855776499871 
795	 0,242841243200414 
796	 0,24286648051708 
797	 0,242871926974603 
798	 0,242831717197982 
799	 0,242743735926392 
800	 0,242677739771059 
801	 0,242699315327511 
802	 0,242754722352946 
803	 0,242903687771584 
804	 0,243331287062707 
805	 0,243751143654402 
806	 0,244065761317607 
807	 0,244453571669456 
808	 0,244774627362344 
809	 0,244872417498243 
810	 0,244771481604802 
811	 0,244737595437019 
812	 0,245506567037844 
813	 0,246067788877218 
814	 0,246054792842265 
815	 0,246156493755391 
816	 0,246382681255035 
817	 0,246670019724261 
818	 0,246866239134407 
819	 0,24704741502513 
820	 0,247662397070719 
821	 0,247740627386719 
822	 0,247047350397808 
823	 0,247305073834794 
824	 0,247900607346183 
825	 0,247831188506652 
826	 0,247322377931496 
827	 0,246866774196299 
828	 0,247943103877702 
829	 0,248539169217125 
830	 0,247747772488844 
831	 0,247189056836159 
832	 0,247018584615129 
833	 0,247186698193554 
834	 0,247174745597448 
835	 0,246943028772191 
836	 0,246826843056298 
837	 0,246977395563292 
838	 0,247387953382187 
839	 0,247407640365961 
840	 0,247110415089437 
841	 0,246715839562662 
842	 0,246803571879559 
843	 0,247295981366111 
844	 0,247405552947988 
845	 0,24735577024338 
846	 0,247259611865995 
847	 0,247039649857606 
848	 0,246896542293426 
849	 0,247105119743595 
850	 0,247305733087306 
851	 0,247273942342386 
852	 0,246543125576156 
853	 0,246236561972302 
854	 0,246829403009084 
855	 0,246980554172484 
856	 0,246770515617856 
857	 0,246529497199998 
858	 0,246084109984198 
859	 0,245761961366752 
860	 0,246732534623019 
861	 0,247338606527987 
862	 0,24683486656753 
863	 0,246571728765151 
864	 0,246639662231297 
865	 0,246956102909482 
866	 0,247512264508292 
867	 0,247938879108134 
868	 0,247088212750781 
869	 0,246851343443997 
870	 0,247907555910735 
871	 0,248345969905628 
872	 0,248283705545729 
873	 0,248103733758178 
874	 0,248244794530215 
875	 0,248688168989443 
876	 0,249092670659568 
877	 0,249149243262415 
878	 0,248807474750557 
879	 0,248711460512729 
880	 0,248705542758883 
881	 0,248585511773789 
882	 0,248826075865618 
883	 0,249327226638456 
884	 0,249648972988436 
885	 0,24967074311081 
886	 0,24940423543785 
887	 0,249194641138682 
888	 0,249328733219939 
889	 0,249968216835388 
890	 0,24998041297288 
891	 0,249596062520829 
892	 0,249802945456163 
893	 0,24992367966941 
894	 0,249825435244195 
895	 0,249882590482847 
896	 0,249957408541828 
897	 0,249943821677649 
898	 0,249966467572463 
899	 0,250056323859802 
900	 0,250232710505078 
901	 0,250482247951578 
902	 0,25059552483052 
903	 0,249758899437074 
904	 0,249434729914954 
905	 0,250290189842017 
906	 0,249838059404469 
907	 0,249195096756285 
908	 0,250337341587199 
909	 0,250483247941989 
910	 0,249626401635637 
911	 0,249934136678305 
912	 0,250490066966031 
913	 0,250828514293207 
914	 0,250778504087436 
915	 0,250785911278548 
916	 0,251315957953435 
917	 0,251242975844891 
918	 0,250769740262617 
919	 0,250933406528149 
920	 0,251430129881425 
921	 0,252042014768234 
922	 0,252337980235887 
923	 0,251973011749956 
924	 0,250897785637769 
925	 0,251358015385374 
926	 0,252277556219755 
927	 0,251042854476762 
928	 0,250340393485479 
929	 0,250755868832632 
930	 0,251526471948389 
931	 0,25181677646703 
932	 0,251253906286695 
933	 0,251125877445414 
934	 0,251167887805556 
935	 0,250862450922119 
936	 0,250728813977779 
937	 0,250554072157226 
938	 0,249205289632225 
939	 0,249147978366279 
940	 0,250786091786974 
941	 0,251096256693665 
942	 0,250182496649498 
943	 0,248494868795159 
944	 0,247950743738294 
945	 0,248448954979892 
946	 0,249135408762313 
947	 0,249101026246045 
948	 0,248353123544957 
949	 0,248229454854449 
950	 0,247791719433865 
951	 0,246822468264054 
952	 0,247606587821156 
953	 0,248537966847735 
954	 0,247488149063177 
955	 0,246370205117761 
956	 0,245776103626584 
957	 0,246205126615417 
958	 0,246127746990692 
959	 0,245307982334047 
960	 0,245424730130911 
961	 0,245615348025591 
962	 0,245285099194803 
963	 0,245635123313392 
964	 0,246137319156804 
965	 0,245777965983312 
966	 0,245262538614566 
967	 0,245048345407099 
968	 0,24607512022651 
969	 0,246395702543447 
970	 0,24536215063112 
971	 0,244445305875557 
972	 0,244188296498986 
973	 0,244847048401036 
974	 0,244751752989849 
975	 0,244181865533197 
976	 0,244186992752769 
977	 0,243772761064112 
978	 0,243187156921523 
979	 0,244198483394408 
980	 0,24502655935642 
981	 0,244818322286296 
982	 0,244186659372404 
983	 0,244310906541991 
984	 0,246068601887101 
985	 0,245954925237731 
986	 0,244367281918096 
987	 0,243291357744452 
988	 0,243269877246884 
989	 0,244239511301271 
990	 0,245239799517734 
991	 0,244996255337037 
992	 0,243289963176632 
993	 0,243102682156455 
994	 0,243803589031306 
995	 0,24440448496611 
996	 0,24438078029121 
997	 0,244329461836006 
998	 0,245691366745742 
999	 0,245907084706589 
1000	 0,245009486453929 
1001	 0,245633580603665 
1002	 0,247725596102101 
1003	 0,250375305594349 
1004	 0,248918225611477 
1005	 0,246913809072696 
1006	 0,248043068932144 
1007	 0,249540735756997 
1008	 0,25006408761489 
1009	 0,248094508433829 
1010	 0,249460909089854 
1011	 0,253532246896219 
1012	 0,252840133125705 
1013	 0,250642852728856 
1014	 0,248697532019976 
1015	 0,248640684782253 
1016	 0,248518849663828 
1017	 0,247028973010376 
1018	 0,248684480711493 
1019	 0,251860559997089 
1020	 0,253124004694562 
1021	 0,251391965076514 
1022	 0,248802027574743 
1023	 0,252280054560695 
1024	 0,254720645617443 
1025	 0,254108082455894 
1026	 0,253006726562334 
1027	 0,253407354100498 
1028	 0,255409320176053 
1029	 0,249309485970595 
1030	 0,245992578644463 
1031	 0,25741726334489 
1032	 0,256422277186041 
1033	 0,248002012498878 
1034	 0,253162498062141 
1035	 0,256658072444444 
1036	 0,2549599885825 
1037	 0,25024295319661 
1038	 0,250129837915353 
1039	 0,257008407011177 
1040	 0,263713232930572 
1041	 0,26315512767888 
1042	 0,251643727651334 
1043	 0,246591701965687 
1044	 0,247935257788489 
1045	 0,251380036622739 
1046	 0,249462946369911 
1047	 0,246175382107538 
1048	 0,25577142990957 
1049	 0,257276376879606 
1050	 0,249213691437086 
1051	 0,252117216153044 
1052	 0,2553049454803 
1053	 0,254950812960002 
1054	 0,262168709375675 
1055	 0,267093878648903 
1056	 0,261659975813677 
1057	 0,254962462856883 
1058	 0,251015126870142 
1059	 0,252738963973797 
1060	 0,249047847462792 
1061	 0,243445632117324 
1062	 0,249802507866125 
1063	 0,252667368680285 
1064	 0,249487352963286 
1065	 0,249179430332079 
1066	 0,249473273145911 
1067	 0,250016300518957 
1068	 0,254060746626251 
1069	 0,255681577437247 
1070	 0,251349266368091 
1071	 0,249819166639475 
1072	 0,251821644398177 
1073	 0,256497635332212 
1074	 0,262143659409107 
1075	 0,261354490313813 
