Wavelength	GOOSEBAR00484.asd
325	 0,47965576156426 
326	 0,581275775266456 
327	 0,463777320612479 
328	 0,107302847558483 
329	 0,326654615429471 
330	 0,616269147519148 
331	 0,642497195332741 
332	 0,501221380621581 
333	 0,377292783248162 
334	 0,371988803643167 
335	 0,428544219058983 
336	 0,46987165038686 
337	 0,416467180542921 
338	 0,374234179660982 
339	 0,447450549969822 
340	 0,416512003482594 
341	 0,353604195254233 
342	 0,452192900616898 
343	 0,486617420322301 
344	 0,422720404392485 
345	 0,39267260076252 
346	 0,372512147362947 
347	 0,330797658611078 
348	 0,354723550391438 
349	 0,417091206834259 
350	 0,421961687842789 
351	 0,404518016243852 
352	 0,381595233404822 
353	 0,379398916308472 
354	 0,3935040848906 
355	 0,416991485134031 
356	 0,425768186073546 
357	 0,415351580166338 
358	 0,390183137906983 
359	 0,387133896922137 
360	 0,41474464789413 
361	 0,418464820619993 
362	 0,416250085115754 
363	 0,439761041910543 
364	 0,448727699453845 
365	 0,438341376375699 
366	 0,425408988170234 
367	 0,417967973513754 
368	 0,420719755893939 
369	 0,443477570490735 
370	 0,469359623324024 
371	 0,475051157016811 
372	 0,467621785970435 
373	 0,450704607868667 
374	 0,43060352437764 
375	 0,431507630959949 
376	 0,466179914522047 
377	 0,491181554340974 
378	 0,494320876852485 
379	 0,477441873166082 
380	 0,447780849666168 
381	 0,420879475491106 
382	 0,432017151518016 
383	 0,455302694542934 
384	 0,463257178214733 
385	 0,461088527981617 
386	 0,458257313288549 
387	 0,48018147086915 
388	 0,483374658694339 
389	 0,456198979950262 
390	 0,438223996265141 
391	 0,442446347680822 
392	 0,47892195373718 
393	 0,490200326747973 
394	 0,472248007478267 
395	 0,451401660509367 
396	 0,446815248163601 
397	 0,465832698982386 
398	 0,483426697756057 
399	 0,488853692318095 
400	 0,468946819724935 
401	 0,464076406730251 
402	 0,477215985276306 
403	 0,479683221015581 
404	 0,478356414944284 
405	 0,478208786355494 
406	 0,476633313378915 
407	 0,474330804737033 
408	 0,472245604429569 
409	 0,474348398345356 
410	 0,479693668667994 
411	 0,478199113026314 
412	 0,476804712620435 
413	 0,481725853705254 
414	 0,480026655538842 
415	 0,474453181635213 
416	 0,477931336866394 
417	 0,478935529695111 
418	 0,474445272005668 
419	 0,475604434091967 
420	 0,480062529608748 
421	 0,483631627345482 
422	 0,483341362541088 
423	 0,479846629730651 
424	 0,477313081023595 
425	 0,477415501553163 
426	 0,480498234912643 
427	 0,479975879270052 
428	 0,479150692770143 
429	 0,48591116609599 
430	 0,489167474721843 
431	 0,486572835777163 
432	 0,483083430611286 
433	 0,482614668780169 
434	 0,487699026165914 
435	 0,485979918134002 
436	 0,480488570283778 
437	 0,485220311905316 
438	 0,487257447757044 
439	 0,482854927050754 
440	 0,483063295862627 
441	 0,484501600857252 
442	 0,481749166705906 
443	 0,483248949692987 
444	 0,488173902227663 
445	 0,486920663702043 
446	 0,486003273613967 
447	 0,488846076559498 
448	 0,487918764344994 
449	 0,485914373949979 
450	 0,489853997540367 
451	 0,491958955226283 
452	 0,490707339249118 
453	 0,490910626150639 
454	 0,491384862598228 
455	 0,490844063681129 
456	 0,48940200362282 
457	 0,487960937792638 
458	 0,488635728955 
459	 0,490477007371429 
460	 0,492772422827713 
461	 0,494178875808508 
462	 0,494670854538952 
463	 0,494404122754689 
464	 0,495444650052812 
465	 0,497436226927476 
466	 0,497044828009638 
467	 0,496598846259165 
468	 0,497291780425951 
469	 0,494760243371266 
470	 0,491583478747003 
471	 0,494013513328308 
472	 0,495884140056345 
473	 0,495966329661191 
474	 0,498574866980904 
475	 0,500652987819729 
476	 0,499134511028867 
477	 0,498012524582641 
478	 0,49803718719139 
479	 0,499011242139929 
480	 0,498998960311069 
481	 0,497328959799194 
482	 0,496273798735043 
483	 0,49652124624309 
484	 0,498716509185509 
485	 0,499127499243821 
486	 0,497802332844913 
487	 0,499205362026153 
488	 0,500925078103768 
489	 0,501013643671523 
490	 0,499160675927227 
491	 0,497073572475917 
492	 0,498760632632866 
493	 0,499905659825182 
494	 0,499608890037675 
495	 0,501962771477601 
496	 0,503868645233608 
497	 0,501644509865306 
498	 0,499955887660776 
499	 0,500130623677537 
500	 0,502854402925022 
501	 0,504279666347694 
502	 0,502557474713812 
503	 0,50223274930656 
504	 0,502638870919049 
505	 0,501432270441792 
506	 0,501318527906577 
507	 0,502624195126849 
508	 0,503351720612514 
509	 0,503093174017941 
510	 0,501734890718402 
511	 0,50223725128574 
512	 0,504015803017335 
513	 0,504166715326249 
514	 0,503588230346342 
515	 0,503040786316511 
516	 0,505032085383873 
517	 0,507250345364749 
518	 0,506168535466629 
519	 0,50579174830873 
520	 0,506787265667811 
521	 0,507650903476219 
522	 0,508081730112832 
523	 0,507835768049142 
524	 0,506513019739509 
525	 0,505144962985767 
526	 0,506208905255277 
527	 0,506781317624502 
528	 0,506121341014197 
529	 0,506194561468382 
530	 0,506510152438337 
531	 0,506359501354555 
532	 0,506759649362597 
533	 0,5074687832344 
534	 0,506834718668517 
535	 0,507134041836612 
536	 0,509339799799015 
537	 0,509605385946565 
538	 0,508882179554016 
539	 0,509896915340589 
540	 0,510832713426123 
541	 0,511196428065194 
542	 0,511340587676837 
543	 0,511479074920088 
544	 0,511794968733849 
545	 0,512062959896781 
546	 0,512084322976876 
547	 0,511275339538225 
548	 0,511251146439799 
549	 0,512520753791601 
550	 0,512545940987626 
551	 0,512065241980031 
552	 0,512669538940574 
553	 0,51345137926036 
554	 0,514041492532402 
555	 0,513823012816183 
556	 0,51434001405733 
557	 0,516656300272332 
558	 0,517273905451164 
559	 0,516442488309342 
560	 0,516198711743174 
561	 0,51722299865516 
562	 0,519472127008522 
563	 0,520287504799464 
564	 0,520450554015839 
565	 0,521337886631538 
566	 0,521738736050606 
567	 0,521690568764462 
568	 0,522388300811567 
569	 0,52288774098396 
570	 0,522645799303505 
571	 0,523202624899429 
572	 0,524162310596228 
573	 0,524134367194079 
574	 0,524271821652114 
575	 0,524735698511078 
576	 0,524238518640141 
577	 0,523446833842209 
578	 0,523209804592824 
579	 0,524122735127035 
580	 0,525760980868521 
581	 0,526492310069708 
582	 0,526579695045539 
583	 0,526363457964369 
584	 0,52743760653648 
585	 0,528979194121492 
586	 0,529149247852735 
587	 0,529364559685698 
588	 0,530063426618103 
589	 0,531236757836851 
590	 0,532166178172797 
591	 0,53224527989024 
592	 0,532965269332233 
593	 0,533907271453915 
594	 0,532995172264311 
595	 0,532425446963292 
596	 0,533175832507615 
597	 0,534266250865436 
598	 0,535205040680895 
599	 0,535435220659429 
600	 0,535961991605594 
601	 0,536849107647123 
602	 0,537311755899245 
603	 0,53705817734442 
604	 0,536064714832038 
605	 0,536682166216218 
606	 0,538262622299412 
607	 0,538158414921079 
608	 0,538258545320538 
609	 0,539082079785515 
610	 0,539553448238912 
611	 0,539650149757817 
612	 0,53946126090049 
613	 0,539713371404413 
614	 0,540330491248661 
615	 0,540333214486929 
616	 0,540480225245808 
617	 0,54119135482024 
618	 0,541644752217695 
619	 0,541835333819695 
620	 0,542028469826092 
621	 0,541948574824446 
622	 0,541633572672816 
623	 0,541510550558816 
624	 0,541946630509122 
625	 0,543224299065421 
626	 0,543879689876676 
627	 0,543712379132074 
628	 0,543144504884148 
629	 0,542727932504587 
630	 0,542810102716269 
631	 0,543365507294614 
632	 0,543845374583158 
633	 0,54337174211931 
634	 0,54330075253171 
635	 0,543886259918143 
636	 0,544321218874457 
637	 0,544886372601147 
638	 0,54578792828805 
639	 0,546357103429552 
640	 0,546594058598295 
641	 0,546755206724331 
642	 0,547283094252959 
643	 0,54819661042123 
644	 0,548246499408196 
645	 0,548183481405023 
646	 0,549120450378756 
647	 0,54975787729379 
648	 0,549781527869717 
649	 0,549406681718559 
650	 0,548697854173087 
651	 0,547823431520832 
652	 0,547656225189902 
653	 0,548092306343332 
654	 0,548632883851955 
655	 0,549297327743337 
656	 0,549942386882817 
657	 0,550067095800689 
658	 0,550211988134942 
659	 0,550947542392817 
660	 0,551706449366097 
661	 0,552415261649268 
662	 0,553310818116426 
663	 0,553837903497203 
664	 0,553860850795495 
665	 0,554609414332664 
666	 0,555542326016675 
667	 0,555587673206879 
668	 0,555774392734542 
669	 0,556397343876588 
670	 0,557448561766233 
671	 0,558232537636596 
672	 0,558236094608873 
673	 0,558306360670854 
674	 0,558516974062939 
675	 0,558589324692941 
676	 0,559011312916307 
677	 0,559753349274591 
678	 0,559579585773915 
679	 0,559277975231841 
680	 0,559881842695534 
681	 0,560302050694236 
682	 0,560465548891329 
683	 0,561032699899268 
684	 0,561429638889211 
685	 0,561367541316425 
686	 0,56136827499072 
687	 0,561654012960399 
688	 0,562504823299246 
689	 0,56305325331322 
690	 0,563255741582491 
691	 0,564205086949446 
692	 0,565404453631971 
693	 0,566354240753526 
694	 0,567082566412734 
695	 0,567533714878047 
696	 0,567489662185466 
697	 0,567838292950872 
698	 0,568861699263537 
699	 0,569705011531291 
700	 0,570260378434698 
701	 0,570508219462861 
702	 0,570901422195903 
703	 0,571315276943743 
704	 0,570761560487977 
705	 0,570793175631265 
706	 0,572138070674056 
707	 0,571936124487972 
708	 0,570946465289532 
709	 0,571329890975314 
710	 0,571813526327748 
711	 0,571986193823668 
712	 0,571720264747813 
713	 0,571633535969246 
714	 0,572260003302694 
715	 0,572751472329521 
716	 0,572996862234139 
717	 0,573160739752626 
718	 0,573366733523466 
719	 0,573720541129543 
720	 0,574409200544714 
721	 0,575133937179075 
722	 0,575505802800349 
723	 0,575723117510569 
724	 0,575857973632493 
725	 0,575929721875884 
726	 0,576217133141158 
727	 0,576827597535381 
728	 0,577169102062358 
729	 0,577171961571503 
730	 0,576860437441988 
731	 0,576617099816392 
732	 0,576596454151022 
733	 0,576750684677267 
734	 0,577082690859161 
735	 0,57752903971366 
736	 0,57720845117285 
737	 0,576511891408944 
738	 0,576806265789747 
739	 0,577123192087195 
740	 0,577140469527678 
741	 0,577160735074294 
742	 0,577289169824973 
743	 0,577616245978313 
744	 0,57782613511892 
745	 0,577957241273048 
746	 0,578396855874962 
747	 0,578751482278587 
748	 0,578818375068574 
749	 0,578794928996807 
750	 0,578771086876637 
751	 0,578838089883681 
752	 0,579013290820084 
753	 0,579200694101482 
754	 0,57903979448627 
755	 0,578807749778454 
756	 0,578743846542141 
757	 0,579058604364465 
758	 0,57946574846788 
759	 0,579287686295507 
760	 0,57943614411667 
761	 0,580004742858825 
762	 0,579946139345552 
763	 0,579807610586834 
764	 0,580120222452064 
765	 0,58018591700765 
766	 0,580055230392714 
767	 0,580189522278462 
768	 0,580371616699099 
769	 0,580530997838058 
770	 0,580758605412361 
771	 0,580935126522581 
772	 0,580920458038202 
773	 0,580888599390714 
774	 0,580908148538242 
775	 0,581049287266699 
776	 0,581186011965407 
777	 0,581213956217586 
778	 0,580947283030889 
779	 0,580611602229967 
780	 0,580558437904502 
781	 0,580493502598757 
782	 0,580433910593952 
783	 0,580758670242841 
784	 0,580909012037789 
785	 0,58056006361416 
786	 0,580299346750917 
787	 0,580236736463059 
788	 0,580446326244674 
789	 0,580067199858405 
790	 0,579185225667718 
791	 0,579321532835121 
792	 0,579601232818685 
793	 0,57933405908507 
794	 0,579380829553008 
795	 0,579489626582459 
796	 0,578783330411172 
797	 0,578488712143994 
798	 0,578841004120544 
799	 0,578818211742531 
800	 0,578606109321459 
801	 0,578444899332837 
802	 0,578537425197544 
803	 0,578811785640519 
804	 0,579008346342443 
805	 0,578981834908112 
806	 0,578796187182373 
807	 0,579150002117544 
808	 0,579686857797329 
809	 0,579974062798674 
810	 0,580191687662881 
811	 0,580447513431496 
812	 0,581014676294162 
813	 0,58129114100585 
814	 0,581055937490306 
815	 0,580632127607891 
816	 0,580578680850426 
817	 0,581471818619622 
818	 0,582066224709298 
819	 0,582100312570865 
820	 0,5817326921838 
821	 0,581547515657766 
822	 0,581739983856727 
823	 0,581416801522515 
824	 0,580975173471468 
825	 0,581023235479298 
826	 0,580954137446288 
827	 0,580722386467116 
828	 0,580711074505256 
829	 0,580421425300057 
830	 0,579686224590305 
831	 0,579176128297128 
832	 0,579017329767038 
833	 0,57925754196076 
834	 0,579296669615333 
835	 0,57906030900483 
836	 0,578901677092977 
837	 0,578707943943392 
838	 0,578499563292369 
839	 0,578828930859267 
840	 0,579132533876658 
841	 0,578555988917735 
842	 0,578494534220248 
843	 0,578883249544977 
844	 0,578253814696065 
845	 0,577723282231878 
846	 0,577856550582459 
847	 0,577975733540667 
848	 0,578021301037091 
849	 0,578020041200758 
850	 0,577904322101716 
851	 0,577743772968473 
852	 0,577855777227084 
853	 0,577695108877426 
854	 0,577150495402575 
855	 0,577651786952667 
856	 0,578347303204321 
857	 0,577889757796389 
858	 0,577114511127497 
859	 0,576622168804453 
860	 0,577669586424742 
861	 0,578427308940348 
862	 0,578016237626075 
863	 0,577629829197887 
864	 0,577442136117472 
865	 0,577504910753705 
866	 0,577602029682117 
867	 0,577520013009106 
868	 0,5766967532842 
869	 0,576451853289703 
870	 0,577317470067867 
871	 0,578282268162566 
872	 0,578884787195569 
873	 0,578728470899733 
874	 0,578600344924652 
875	 0,578559239116072 
876	 0,57814901768586 
877	 0,577942377166163 
878	 0,578150731441748 
879	 0,578492693892769 
880	 0,57854210664172 
881	 0,577915757786636 
882	 0,5774361196076 
883	 0,577314660302647 
884	 0,577509888545356 
885	 0,578358903971194 
886	 0,579565436243733 
887	 0,579171360274901 
888	 0,578474265230085 
889	 0,578754091306092 
890	 0,578890342681568 
891	 0,578675861207093 
892	 0,577994017314743 
893	 0,578083516644955 
894	 0,579000727226836 
895	 0,579032844336369 
896	 0,578661006659092 
897	 0,578336029701235 
898	 0,57815945543801 
899	 0,577960622417445 
900	 0,577359255805606 
901	 0,577241185613613 
902	 0,577591759961482 
903	 0,577221130475099 
904	 0,577411789201306 
905	 0,578699338517464 
906	 0,578814016833565 
907	 0,578235799340308 
908	 0,578053951336059 
909	 0,57800758670349 
910	 0,578043456229566 
911	 0,578027700084315 
912	 0,578388814124571 
913	 0,579103068450039 
914	 0,578773593803207 
915	 0,57832882362327 
916	 0,578844041260255 
917	 0,57817165759986 
918	 0,577088553137872 
919	 0,57862873656081 
920	 0,580111873698377 
921	 0,580533621516388 
922	 0,580114240886122 
923	 0,579510237799018 
924	 0,579344273917354 
925	 0,580049461109519 
926	 0,580788146450917 
927	 0,579950241825857 
928	 0,579110488438829 
929	 0,57875137422941 
930	 0,578761393903046 
931	 0,579067064374988 
932	 0,579397899529367 
933	 0,578296497236799 
934	 0,577286872490382 
935	 0,578415715364123 
936	 0,579068270261122 
937	 0,578711392947174 
938	 0,577533510808228 
939	 0,576747917876869 
940	 0,576868647014754 
941	 0,577460744537735 
942	 0,578232844838285 
943	 0,578770915330056 
944	 0,577405660410811 
945	 0,575254763050931 
946	 0,574863136911927 
947	 0,574229364170902 
948	 0,573259998449497 
949	 0,573813914201207 
950	 0,573643347634805 
951	 0,571820456469078 
952	 0,57144928877301 
953	 0,571394018622783 
954	 0,569995372141085 
955	 0,569839434032434 
956	 0,570432215733782 
957	 0,569064218739766 
958	 0,568241980107618 
959	 0,568434576866428 
960	 0,567641418476577 
961	 0,566867161019886 
962	 0,566914225841484 
963	 0,567495312570845 
964	 0,567643658749458 
965	 0,566025105575063 
966	 0,565782584686335 
967	 0,566841848662987 
968	 0,566340490011952 
969	 0,566007431736982 
970	 0,566187063536934 
971	 0,564381945107877 
972	 0,564208929699113 
973	 0,568282829219519 
974	 0,567037492557014 
975	 0,563200288069262 
976	 0,564534865396651 
977	 0,564542816006582 
978	 0,563100625289857 
979	 0,565889246721518 
980	 0,568629426178762 
981	 0,569006170326458 
982	 0,567240964196948 
983	 0,565543654129414 
984	 0,566054483267655 
985	 0,566577935048971 
986	 0,566892724675721 
987	 0,567406500601283 
988	 0,566910819217705 
989	 0,565952786497171 
990	 0,56811581107928 
991	 0,568286016875638 
992	 0,564804224172588 
993	 0,564538071438662 
994	 0,566912948542017 
995	 0,570364210497173 
996	 0,570734446342178 
997	 0,56965405599494 
998	 0,572005618445465 
999	 0,573107497590202 
1000	 0,572427310443604 
1001	 0,57296351376489 
1002	 0,57337784528952 
1003	 0,573256821826914 
1004	 0,574323499491353 
1005	 0,574805330866239 
1006	 0,573281328990602 
1007	 0,575048229050325 
1008	 0,578345440255211 
1009	 0,578559843501646 
1010	 0,579186877497699 
1011	 0,580534100910141 
1012	 0,580630090881974 
1013	 0,5802459114542 
1014	 0,580028171181273 
1015	 0,581579483302501 
1016	 0,582576969319271 
1017	 0,581098547243999 
1018	 0,578230403175864 
1019	 0,577793985319549 
1020	 0,584775254846063 
1021	 0,585812739954423 
1022	 0,581293264452738 
1023	 0,581579457316758 
1024	 0,58370529845201 
1025	 0,586214170803164 
1026	 0,586269534390779 
1027	 0,586216400399761 
1028	 0,587064643686401 
1029	 0,583052908130225 
1030	 0,582615884002045 
1031	 0,594352079851319 
1032	 0,591097722144098 
1033	 0,580269109669733 
1034	 0,587774313362518 
1035	 0,590637547301969 
1036	 0,586225981734047 
1037	 0,588775256316941 
1038	 0,589481652872616 
1039	 0,586296712455952 
1040	 0,589996717905685 
1041	 0,593804002587297 
1042	 0,591938691074633 
1043	 0,589477998113938 
1044	 0,586946978700156 
1045	 0,584265718715464 
1046	 0,584263242447673 
1047	 0,586503086208649 
1048	 0,588492935451982 
1049	 0,589439730894739 
1050	 0,589227321376831 
1051	 0,589322267700728 
1052	 0,586955445489917 
1053	 0,582652836626209 
1054	 0,586751600574644 
1055	 0,591711828149807 
1056	 0,591160412438631 
1057	 0,592905208362088 
1058	 0,594298752452559 
1059	 0,59067355855293 
1060	 0,587728640997096 
1061	 0,587352245294644 
1062	 0,590582542418212 
1063	 0,593185514175438 
1064	 0,592621717582742 
1065	 0,584705609638841 
1066	 0,583842562496306 
1067	 0,592403463854394 
1068	 0,584941031146424 
1069	 0,5771453035371 
1070	 0,582376462550002 
1071	 0,603293764479394 
1072	 0,617019958933075 
1073	 0,599514583840238 
1074	 0,602159698349486 
1075	 0,613912311191515 
