Wavelength	GOOSEBAR00354.asd
325	-0,300397507953035 
326	 1,56774830332754E-02 
327	 7,79025777679595E-02 
328	-7,52409488771171E-02 
329	-7,66886310183295E-02 
330	 5,70609945609946E-03 
331	 9,01403612630687E-02 
332	 3,90903329415891E-02 
333	-5,14121899538826E-02 
334	-8,74011979521689E-02 
335	-1,67050400820127E-02 
336	 8,28089880539856E-02 
337	 4,26401589505434E-02 
338	-5,14940415887704E-02 
339	-0,118018519194709 
340	-5,26139859569068E-02 
341	 5,22938309595796E-02 
342	 4,31714623088307E-02 
343	 2,43732443449427E-02 
344	 0,020922701629767 
345	 3,21192027781512E-02 
346	 2,86200866797372E-02 
347	-1,56468045400276E-02 
348	-0,014822707791084 
349	 2,45232073644447E-02 
350	 5,30415066529708E-02 
351	 4,49298646786413E-02 
352	 5,47968881834976E-03 
353	 3,54923083895031E-02 
354	 7,47417597896516E-02 
355	 6,13099301500616E-02 
356	 0,020341671667952 
357	-2,51704593608833E-02 
358	-2,26856407105527E-02 
359	-1,39807934218177E-03 
360	 2,03592403150856E-02 
361	 3,16583320893666E-02 
362	 4,02157369981468E-02 
363	 5,79719287915642E-02 
364	 3,79322170714807E-02 
365	-1,45802305564689E-02 
366	-2,55797938189634E-02 
367	-1,39357922348661E-02 
368	 5,23052139147685E-03 
369	 0,016664378588217 
370	 2,56128445745938E-02 
371	 5,19946354406101E-02 
372	 4,21613752694899E-02 
373	-4,53017355458601E-03 
374	-1,68025884318047E-02 
375	 4,51293330290129E-04 
376	 3,88318142312749E-02 
377	 4,22539477595128E-02 
378	 1,80347106139987E-02 
379	 1,4727766511415E-03 
380	 2,16897847231929E-03 
381	 1,50759023406882E-02 
382	-1,42370933223513E-02 
383	-3,15803197728666E-02 
384	 1,37113029783709E-02 
385	 2,81666351508082E-02 
386	 1,13804787688693E-02 
387	 3,21376495914585E-03 
388	 3,46120533586898E-03 
389	 0,011924465738412 
390	 1,91799998581186E-02 
391	 2,28552881923551E-02 
392	 0,021447022511047 
393	 2,15877394522976E-02 
394	 2,19468307526857E-02 
395	 1,14586914835437E-02 
396	 1,13055615382175E-02 
397	 2,80943216181779E-02 
398	 2,89390178378986E-02 
399	 1,91325215892045E-02 
400	 1,22122349447967E-02 
401	 7,57485320601046E-03 
402	 8,26278491655893E-03 
403	 2,59881100570889E-02 
404	 3,52371858610432E-02 
405	 2,18264464040255E-02 
406	 2,21446603590467E-02 
407	 3,12044772058618E-02 
408	 2,96549775254109E-02 
409	 2,49560698779529E-02 
410	 2,04783752909927E-02 
411	 2,12532939122806E-02 
412	 2,15939225004942E-02 
413	 1,65929277377845E-02 
414	 1,74832988652042E-02 
415	 2,22671054689261E-02 
416	 2,16068709286898E-02 
417	 0,018091091310385 
418	 1,40798166663021E-02 
419	 1,62051831582439E-02 
420	 2,08895261662528E-02 
421	 2,29602518773981E-02 
422	 1,80079240265394E-02 
423	 9,47470641660728E-03 
424	 1,13036980113095E-02 
425	 1,61726623976368E-02 
426	 1,92068954251925E-02 
427	 1,90681707202336E-02 
428	 1,83264077617518E-02 
429	 2,20571287340426E-02 
430	 2,51477131656349E-02 
431	 2,56264512795941E-02 
432	 2,15828911818427E-02 
433	 2,02720809218389E-02 
434	 2,72581142239807E-02 
435	 2,73807263005017E-02 
436	 2,14629421496676E-02 
437	 1,80516965701873E-02 
438	 1,71941114109186E-02 
439	 1,88912310076448E-02 
440	 2,08722979611539E-02 
441	 2,19073662291397E-02 
442	 2,08138935194615E-02 
443	 2,12017512417854E-02 
444	 0,023007987443977 
445	 2,27801838699017E-02 
446	 2,30110315137345E-02 
447	 0,024517051502348 
448	 0,020169564973956 
449	 1,42032611650199E-02 
450	 1,59566889407537E-02 
451	 1,95908915248026E-02 
452	 0,022078216904125 
453	 0,018287893415705 
454	 1,60172153762478E-02 
455	 2,20063853333816E-02 
456	 2,17435040199082E-02 
457	 0,016638548565183 
458	 1,74237771780507E-02 
459	 2,09075806241975E-02 
460	 2,48707822877075E-02 
461	 2,35222785595895E-02 
462	 2,12560237147319E-02 
463	 2,46848043253889E-02 
464	 0,025648868498502 
465	 2,34822256263084E-02 
466	 2,31516993684271E-02 
467	 2,30995024898365E-02 
468	 2,21747879329837E-02 
469	 1,93703579901309E-02 
470	 1,69490797704057E-02 
471	 1,94559035153841E-02 
472	 2,29036351159318E-02 
473	 2,54077250930919E-02 
474	 2,51911869297279E-02 
475	 2,37665652287612E-02 
476	 0,022818082779917 
477	 0,023081589492996 
478	 2,42743280037423E-02 
479	 2,52487631045509E-02 
480	 2,55734502358673E-02 
481	 2,49042668585111E-02 
482	 2,25094225478683E-02 
483	 2,10224611398186E-02 
484	 2,44034891313455E-02 
485	 2,48974485711353E-02 
486	 2,19904162957696E-02 
487	 2,23450433671012E-02 
488	 2,31355055423981E-02 
489	 2,22488638931432E-02 
490	 2,17156369870653E-02 
491	 2,15336004556165E-02 
492	 2,06182202514191E-02 
493	 2,17163684796347E-02 
494	 2,48484024557856E-02 
495	 2,50212346392309E-02 
496	 2,35505898483516E-02 
497	 2,23816580386256E-02 
498	 2,40319143576391E-02 
499	 2,68656985025555E-02 
500	 2,37015613784632E-02 
501	 2,17446172579054E-02 
502	 2,43830497547561E-02 
503	 2,38502513744486E-02 
504	 2,11484681610385E-02 
505	 1,94581876344792E-02 
506	 2,06059704991809E-02 
507	 2,39506181805487E-02 
508	 2,40336693849141E-02 
509	 2,28871824905358E-02 
510	 2,26193489160897E-02 
511	 2,34892823247661E-02 
512	 0,024569222891221 
513	 2,31013777332465E-02 
514	 2,22993256783826E-02 
515	 2,33469363388944E-02 
516	 2,41814985894003E-02 
517	 0,024148759527249 
518	 2,26141212583173E-02 
519	 2,25248901245841E-02 
520	 2,40935901006479E-02 
521	 2,50859526134642E-02 
522	 2,56314742509681E-02 
523	 0,025761850799358 
524	 2,45174153713943E-02 
525	 2,28888412897238E-02 
526	 0,023250060538936 
527	 2,42274310028977E-02 
528	 2,51137407141654E-02 
529	 2,49534034249408E-02 
530	 2,41785014116129E-02 
531	 2,33898754199203E-02 
532	 2,45631220061178E-02 
533	 2,67048618706049E-02 
534	 2,51048130635883E-02 
535	 2,41918256866107E-02 
536	 2,61904584947585E-02 
537	 2,62841156887835E-02 
538	 2,52053168513052E-02 
539	 2,54475093145631E-02 
540	 2,60739361503545E-02 
541	 2,67532460114105E-02 
542	 2,72224194378444E-02 
543	 2,73192909847882E-02 
544	 2,69617405200303E-02 
545	 2,73689862637186E-02 
546	 0,028217874325875 
547	 2,78203919368362E-02 
548	 2,76526155845645E-02 
549	 2,82535866517818E-02 
550	 2,80373351426909E-02 
551	 2,75734951606811E-02 
552	 2,80168336153351E-02 
553	 2,82951433793064E-02 
554	 2,83087582799736E-02 
555	 2,89067232235635E-02 
556	 2,95871741059467E-02 
557	 2,99268536600449E-02 
558	 3,02696768959924E-02 
559	 3,05344903331389E-02 
560	 3,03134678590155E-02 
561	 3,03455524205245E-02 
562	 0,030851843175465 
563	 3,10615637426754E-02 
564	 3,13311624591776E-02 
565	 3,22199255237915E-02 
566	 3,26878468699648E-02 
567	 3,26240324833385E-02 
568	 3,26580289857001E-02 
569	 3,27249430625192E-02 
570	 3,28498461816223E-02 
571	 3,37123004465018E-02 
572	 3,47579890132775E-02 
573	 3,46167203259354E-02 
574	 3,42559692519008E-02 
575	 3,41057562157156E-02 
576	 0,034411484657907 
577	 0,035074492078991 
578	 3,59456742616851E-02 
579	 3,66078198781932E-02 
580	 3,69915196572252E-02 
581	 3,73015841087198E-02 
582	 3,75703307061287E-02 
583	 3,78064801370533E-02 
584	 3,78424046463167E-02 
585	 3,78401799281929E-02 
586	 3,81084348519084E-02 
587	 3,83752522096793E-02 
588	 3,86551306244934E-02 
589	 3,94074368495796E-02 
590	 4,01191561175003E-02 
591	 4,03041482629524E-02 
592	 0,04027802502081 
593	 4,01553935528342E-02 
594	 3,99593660172759E-02 
595	 4,01661174405457E-02 
596	 4,09429278702947E-02 
597	 0,041707937530504 
598	 4,22894673955139E-02 
599	 4,25465031666745E-02 
600	 4,30171913630031E-02 
601	 4,35814474718964E-02 
602	 4,31321149468389E-02 
603	 4,26574899869823E-02 
604	 4,29245771242465E-02 
605	 4,30014863260889E-02 
606	 4,30538646325584E-02 
607	 4,39094500764878E-02 
608	 4,45855332674266E-02 
609	 4,48449910189635E-02 
610	 4,57605047326472E-02 
611	 4,66088016693383E-02 
612	 0,046415624824591 
613	 4,61844195564035E-02 
614	 4,60795217150942E-02 
615	 4,56115870701994E-02 
616	 4,56662237714537E-02 
617	 4,66914995427423E-02 
618	 4,73650076717507E-02 
619	 0,047455330097687 
620	 4,69129697093134E-02 
621	 4,63815866561258E-02 
622	 0,046237344909888 
623	 4,69375093382144E-02 
624	 4,75646489331639E-02 
625	 4,71978052878225E-02 
626	 4,72200037732951E-02 
627	 4,76820894901851E-02 
628	 0,047847556371065 
629	 4,78951360466281E-02 
630	 0,047948295137164 
631	 4,82689232933008E-02 
632	 0,048736672932394 
633	 0,049092559648128 
634	 4,96942183339019E-02 
635	 5,04903076253265E-02 
636	 5,09159747446397E-02 
637	 5,10945121389044E-02 
638	 5,11797719841884E-02 
639	 0,051510169649458 
640	 5,21432575857424E-02 
641	 5,31498687900577E-02 
642	 5,35882723764319E-02 
643	 5,32464795890333E-02 
644	 5,34265379916324E-02 
645	 5,41372823298654E-02 
646	 5,52188222727078E-02 
647	 5,57798183289664E-02 
648	 5,58828614918762E-02 
649	 5,67409588094113E-02 
650	 5,73364624847403E-02 
651	 0,05711818633226 
652	 5,75985426938189E-02 
653	 5,86101021783346E-02 
654	 5,93746138185531E-02 
655	 5,99731714306504E-02 
656	 6,04182229216113E-02 
657	 6,07868803102663E-02 
658	 6,12834930481137E-02 
659	 6,20932172287363E-02 
660	 6,27459125574994E-02 
661	 6,32899045299393E-02 
662	 6,41809709593857E-02 
663	 6,50870487639788E-02 
664	 6,58318314462794E-02 
665	 6,64648020488853E-02 
666	 6,70315530883104E-02 
667	 6,75945936982207E-02 
668	 6,81621279994695E-02 
669	 6,87854131654537E-02 
670	 6,96420694005763E-02 
671	 7,04632942390762E-02 
672	 7,10136576862515E-02 
673	 7,11182152633048E-02 
674	 7,12427894279413E-02 
675	 7,25414647839046E-02 
676	 7,40037701984492E-02 
677	 7,51164874302537E-02 
678	 7,53631778750651E-02 
679	 7,54879998159062E-02 
680	 7,64097683013744E-02 
681	 7,70927302430963E-02 
682	 7,75645962145383E-02 
683	 7,86803304497385E-02 
684	 7,99068432716154E-02 
685	 8,09528098228234E-02 
686	 0,082184101625683 
687	 8,35165286426753E-02 
688	 8,47667632951337E-02 
689	 8,56297132069824E-02 
690	 8,61785719227659E-02 
691	 0,087149259483771 
692	 8,83165108342147E-02 
693	 8,94467892623944E-02 
694	 9,05993934132888E-02 
695	 9,16903322552767E-02 
696	 9,24906577445609E-02 
697	 9,33327937065854E-02 
698	 9,43516947093809E-02 
699	 9,54147471157786E-02 
700	 9,63909693723388E-02 
701	 9,71292315436633E-02 
702	 9,82712188123848E-02 
703	 9,95917746087637E-02 
704	 9,97198238461298E-02 
705	 0,100111818477514 
706	 0,101528139443074 
707	 0,101888376337429 
708	 0,101862501172821 
709	 0,103266501502492 
710	 0,104369056637872 
711	 0,104841823877333 
712	 0,105801363487605 
713	 0,106754085987871 
714	 0,107241531695213 
715	 0,107987893956766 
716	 0,108921196419966 
717	 0,109495523225693 
718	 0,110023982878641 
719	 0,110636180613571 
720	 0,111272004851278 
721	 0,111979198169256 
722	 0,112821403014268 
723	 0,113769237798691 
724	 0,11466414753253 
725	 0,114988070546841 
726	 0,115547312803012 
727	 0,116749322775766 
728	 0,117552601486101 
729	 0,117978305833047 
730	 0,118319132731989 
731	 0,118749248600886 
732	 0,119286839246153 
733	 0,119618831486487 
734	 0,120074958386463 
735	 0,120917287308466 
736	 0,121584565723075 
737	 0,122134230636774 
738	 0,123048951917879 
739	 0,123609453768421 
740	 0,12369838166532 
741	 0,124310300064722 
742	 0,125061188827283 
743	 0,125422945518024 
744	 0,126032925764773 
745	 0,126901901137028 
746	 0,12766413152297 
747	 0,128216199485611 
748	 0,128528251883311 
749	 0,128849329770183 
750	 0,129347965317116 
751	 0,130226095474997 
752	 0,130965474046941 
753	 0,131467444107329 
754	 0,132012129063723 
755	 0,132466920098145 
756	 0,13277721828163 
757	 0,133410577051486 
758	 0,134103995703626 
759	 0,134131910414476 
760	 0,134513877646366 
761	 0,135468758515854 
762	 0,136376923083802 
763	 0,136925890998542 
764	 0,136914660502924 
765	 0,137428967245665 
766	 0,138276153748579 
767	 0,138337638713953 
768	 0,138571638477002 
769	 0,13922133943113 
770	 0,139319127732671 
771	 0,139511246017531 
772	 0,140609518214364 
773	 0,141066953336839 
774	 0,140920698655203 
775	 0,141441296173126 
776	 0,141897420303394 
777	 0,141984512029237 
778	 0,142312245332586 
779	 0,14271820724773 
780	 0,142862229473783 
781	 0,143355890723068 
782	 0,144095785539193 
783	 0,144170976923044 
784	 0,144023351680882 
785	 0,143976128816162 
786	 0,144047596005121 
787	 0,144311328708724 
788	 0,144889416590092 
789	 0,145278824650608 
790	 0,145351048458983 
791	 0,1453031232759 
792	 0,145412030206979 
793	 0,145850117221488 
794	 0,146042210703397 
795	 0,145957280887945 
796	 0,145715380678668 
797	 0,145710423126661 
798	 0,145990797040806 
799	 0,146013938497411 
800	 0,145905441151025 
801	 0,145841598569413 
802	 0,146257663218721 
803	 0,146916366126881 
804	 0,147036568105728 
805	 0,146968310534034 
806	 0,146893766556766 
807	 0,147017368567176 
808	 0,147549977682816 
809	 0,148631852905231 
810	 0,149015997331172 
811	 0,148867513698866 
812	 0,149409576045112 
813	 0,150137253771917 
814	 0,150765690349734 
815	 0,150892581345 
816	 0,150824224882996 
817	 0,150972453496364 
818	 0,151358473258242 
819	 0,151788246988691 
820	 0,151666025267164 
821	 0,151466373830656 
822	 0,151432492589138 
823	 0,151452611001177 
824	 0,151718376465013 
825	 0,15246173078873 
826	 0,152608564123832 
827	 0,152193610945696 
828	 0,152223304086901 
829	 0,152307570679791 
830	 0,152235372787813 
831	 0,151948674880063 
832	 0,15157266718645 
833	 0,151286270279135 
834	 0,151170653145267 
835	 0,151195229961568 
836	 0,15118285813903 
837	 0,151127047800656 
838	 0,15103058542858 
839	 0,151005080486732 
840	 0,150925688815288 
841	 0,150604121116541 
842	 0,150484734368864 
843	 0,150667721036891 
844	 0,151103879587967 
845	 0,151388487445088 
846	 0,151276405502056 
847	 0,150824218187715 
848	 0,150474960692951 
849	 0,150815875008587 
850	 0,151010244653349 
851	 0,150919358476824 
852	 0,150856654805377 
853	 0,150730925376544 
854	 0,150611733585062 
855	 0,151278304968282 
856	 0,151996041795502 
857	 0,151680129516448 
858	 0,150985590681885 
859	 0,150492286196453 
860	 0,151547001851102 
861	 0,1521598066971 
862	 0,151433412663588 
863	 0,15098019866281 
864	 0,150871265298428 
865	 0,150967326559368 
866	 0,151684112034836 
867	 0,152689980185617 
868	 0,152768379079437 
869	 0,152765535803798 
870	 0,153074879242326 
871	 0,153439533949301 
872	 0,153842280681031 
873	 0,154281105939722 
874	 0,154841388845162 
875	 0,155259248448852 
876	 0,154755597600801 
877	 0,154202276381355 
878	 0,154058799365848 
879	 0,154451060194148 
880	 0,154988583502808 
881	 0,155235349738256 
882	 0,155310513434424 
883	 0,155315218675943 
884	 0,155404720883831 
885	 0,155852845152888 
886	 0,156568434063768 
887	 0,156593493327573 
888	 0,156222428104289 
889	 0,155875818720279 
890	 0,156568493222236 
891	 0,15761871196043 
892	 0,157119048767839 
893	 0,156663143262415 
894	 0,156797760428778 
895	 0,157482446286985 
896	 0,158050330103757 
897	 0,158028025942603 
898	 0,158246287051016 
899	 0,158502166849765 
900	 0,158199405623601 
901	 0,15818087732038 
902	 0,158460889287661 
903	 0,158008109546565 
904	 0,158123454379898 
905	 0,159378957689655 
906	 0,159657975669843 
907	 0,159216502804849 
908	 0,158810506014575 
909	 0,159027938839354 
910	 0,159779080290149 
911	 0,160322819337278 
912	 0,160150815192793 
913	 0,159292387883556 
914	 0,159604043389731 
915	 0,160187271468523 
916	 0,159885777744446 
917	 0,159427383080454 
918	 0,159128991996657 
919	 0,159337517867131 
920	 0,160077887598893 
921	 0,161086474516686 
922	 0,161245201542316 
923	 0,161018765156839 
924	 0,160860040449627 
925	 0,160780645432196 
926	 0,160618223514991 
927	 0,160031300888873 
928	 0,159915319490978 
929	 0,160246581328256 
930	 0,160052695508696 
931	 0,159185531985217 
932	 0,157817916156527 
933	 0,157731280677098 
934	 0,157997900693502 
935	 0,15718339272755 
936	 0,155655969654221 
937	 0,154043479626743 
938	 0,153966765641768 
939	 0,153291881864788 
940	 0,151726207437834 
941	 0,152145244567152 
942	 0,153209414721134 
943	 0,153416202363856 
944	 0,151314276590931 
945	 0,148711562128838 
946	 0,14941849580389 
947	 0,148631287762523 
948	 0,146035557452467 
949	 0,145789673723796 
950	 0,145543564171946 
951	 0,144144990015927 
952	 0,143569350171887 
953	 0,14294667816629 
954	 0,141058029335218 
955	 0,138937604345943 
956	 0,137227909375666 
957	 0,136953319486263 
958	 0,136761507390706 
959	 0,136056751746365 
960	 0,134472372177692 
961	 0,133744908670142 
962	 0,134920537304588 
963	 0,135094697626369 
964	 0,134328103213885 
965	 0,133388678369871 
966	 0,133748697444334 
967	 0,134802821317642 
968	 0,133361522537135 
969	 0,13213088292243 
970	 0,13213091663502 
971	 0,131978612941085 
972	 0,132263274319925 
973	 0,133401070322338 
974	 0,133246645005211 
975	 0,132766807566703 
976	 0,134389511578009 
977	 0,133913699858443 
978	 0,131570277858268 
979	 0,132198237028444 
980	 0,133651010267463 
981	 0,134324174082632 
982	 0,131358063213738 
983	 0,129216566502185 
984	 0,132364189459424 
985	 0,136082179066807 
986	 0,137785821357624 
987	 0,134353081718138 
988	 0,132327278593783 
989	 0,133672281412707 
990	 0,137781874940405 
991	 0,139651481536761 
992	 0,13725214943624 
993	 0,135866138353399 
994	 0,135964896273464 
995	 0,137365752361779 
996	 0,13779879490862 
997	 0,137584897939464 
998	 0,138229326936246 
999	 0,140126259490607 
1000	 0,141976601427134 
1001	 0,138583620317177 
1002	 0,136874767392793 
1003	 0,139943377874552 
1004	 0,14312373970734 
1005	 0,144817148837794 
1006	 0,144172048791121 
1007	 0,14618555744712 
1008	 0,148678426595648 
1009	 0,146413573718278 
1010	 0,144070696413296 
1011	 0,143819577484361 
1012	 0,148120601816918 
1013	 0,152688044011963 
1014	 0,154913327074601 
1015	 0,152431667621812 
1016	 0,149595727251209 
1017	 0,150017365258482 
1018	 0,149570544326895 
1019	 0,150105782392713 
1020	 0,154935356873137 
1021	 0,15407900484082 
1022	 0,149850613139709 
1023	 0,155691306740724 
1024	 0,16069424386401 
1025	 0,161546562373212 
1026	 0,161489155347364 
1027	 0,159179799147014 
1028	 0,154839048020069 
1029	 0,155213292111305 
1030	 0,158227282885522 
1031	 0,160386308554855 
1032	 0,159600259943611 
1033	 0,158288383069805 
1034	 0,1622990467004 
1035	 0,165196249739399 
1036	 0,165045945405265 
1037	 0,161721254548052 
1038	 0,160455333972962 
1039	 0,163922210968327 
1040	 0,17216163694172 
1041	 0,175411395250349 
1042	 0,166731686052994 
1043	 0,159385081586115 
1044	 0,155505693633432 
1045	 0,155044958357895 
1046	 0,157349879528573 
1047	 0,161318473679004 
1048	 0,165338747600407 
1049	 0,16463419433793 
1050	 0,160385807123048 
1051	 0,163134075939493 
1052	 0,166905269517687 
1053	 0,168868674595569 
1054	 0,17204310324151 
1055	 0,173788210336489 
1056	 0,172598410389149 
1057	 0,176706045568159 
1058	 0,179598822953678 
1059	 0,171537922437298 
1060	 0,165277859839415 
1061	 0,163895251899088 
1062	 0,167077828939284 
1063	 0,171182482495658 
1064	 0,171746725889901 
1065	 0,156506019314843 
1066	 0,156147541458519 
1067	 0,177115201240205 
1068	 0,173862435988702 
1069	 0,165657558198344 
1070	 0,168278149589138 
1071	 0,175871830848044 
1072	 0,178626914841224 
1073	 0,166969822138074 
1074	 0,160961464923407 
1075	 0,159658708700483 
