Wavelength	GOOSEBAR00091.asd
325	-0,344014082481462 
326	 0,102033711561857 
327	 0,261939608157179 
328	 0,218116152740728 
329	 5,88100375143351E-02 
330	 0,065764097014097 
331	 0,356728095274638 
332	 0,245875917573729 
333	-4,06331796086252E-04 
334	 1,97009470493539E-02 
335	 0,237441809656656 
336	 0,399185623495162 
337	 0,238238298143981 
338	 1,51607883275716E-02 
339	-2,33261951453162E-03 
340	 0,108209165518434 
341	 0,225462282360581 
342	 0,242917638210925 
343	 0,210052907259172 
344	 0,152782723201164 
345	 0,152206007320804 
346	 0,172378566420166 
347	 0,169885859068495 
348	 0,192977991038958 
349	 0,218145591445204 
350	 0,167737276744368 
351	 0,136229042285209 
352	 0,150218927367408 
353	 0,156446100583059 
354	 0,154223401258334 
355	 0,148690161276559 
356	 0,146192426250277 
357	 0,141901089694887 
358	 0,10996008404264 
359	 0,111652300699579 
360	 0,160575257590363 
361	 0,169432626760213 
362	 0,156514223072596 
363	 0,158546601150046 
364	 0,15934902352362 
365	 0,156687612425292 
366	 0,155438922525125 
367	 0,14801517413337 
368	 0,132518027223565 
369	 0,141458382609722 
370	 0,163940090824714 
371	 0,178648166924145 
372	 0,168003947367019 
373	 0,138171624722489 
374	 0,146700285068708 
375	 0,15507938424161 
376	 0,138634251835373 
377	 0,143332399363133 
378	 0,161905381603599 
379	 0,16642240750913 
380	 0,168379625267326 
381	 0,168191084565874 
382	 0,152734082270576 
383	 0,145493988430061 
384	 0,167524755345089 
385	 0,169670768646549 
386	 0,159105759199415 
387	 0,178710332252472 
388	 0,187137669396378 
389	 0,17177124752364 
390	 0,163698023693517 
391	 0,165216359581587 
392	 0,175761088991605 
393	 0,178718110418196 
394	 0,172400764763552 
395	 0,163004400488277 
396	 0,160093529876301 
397	 0,16647528172982 
398	 0,163015364910171 
399	 0,154557912301953 
400	 0,151515386287801 
401	 0,158718199667696 
402	 0,172142623672008 
403	 0,173817229686226 
404	 0,171173193914317 
405	 0,169977917495794 
406	 0,173192457040289 
407	 0,174980880652887 
408	 0,161764056552954 
409	 0,157091381491231 
410	 0,164868411275697 
411	 0,164898853341228 
412	 0,165115843914836 
413	 0,173042169767378 
414	 0,175488377396983 
415	 0,172478798886504 
416	 0,169813258077539 
417	 0,167913275935694 
418	 0,167426592590175 
419	 0,169540290870588 
420	 0,170601638464658 
421	 0,16599940379667 
422	 0,163072576726041 
423	 0,163752078241517 
424	 0,168251174368524 
425	 0,172970812870334 
426	 0,175260726365084 
427	 0,172382731521182 
428	 0,168550699017712 
429	 0,171599337959839 
430	 0,175053795328583 
431	 0,176136968468005 
432	 0,171687357174444 
433	 0,168402296977437 
434	 0,171904898701604 
435	 0,17356581345416 
436	 0,17349897086032 
437	 0,177115157063419 
438	 0,175431508570122 
439	 0,16722855594828 
440	 0,16771711879899 
441	 0,172094182880595 
442	 0,172634045207824 
443	 0,17365392779971 
444	 0,174914126044119 
445	 0,172136175872138 
446	 0,172201134724841 
447	 0,178024409217487 
448	 0,175415314424063 
449	 0,169081352279835 
450	 0,17126447214143 
451	 0,17487426068554 
452	 0,176790187896105 
453	 0,173010161822853 
454	 0,169762132195075 
455	 0,172624638336104 
456	 0,17212494142462 
457	 0,169462290611928 
458	 0,172543410720149 
459	 0,176645469952873 
460	 0,179230985740403 
461	 0,178178951425172 
462	 0,176222051927123 
463	 0,177290110217879 
464	 0,177298357653319 
465	 0,176169005737286 
466	 0,177759295587268 
467	 0,176808737216531 
468	 0,170743200539813 
469	 0,169195708840141 
470	 0,171977485759646 
471	 0,175936627150003 
472	 0,17822299027287 
473	 0,177955044020396 
474	 0,177055859475629 
475	 0,176139590273231 
476	 0,175730527090562 
477	 0,176148670532203 
478	 0,177268074830177 
479	 0,178716936577451 
480	 0,179790102040806 
481	 0,179931347831119 
482	 0,17792759548364 
483	 0,176511508678799 
484	 0,179833497772231 
485	 0,181262738593085 
486	 0,179952756056459 
487	 0,179945864981682 
488	 0,18059593960408 
489	 0,181315208724192 
490	 0,181551855855388 
491	 0,181775549982797 
492	 0,183432947094239 
493	 0,184455364944053 
494	 0,184409565336371 
495	 0,185293932937791 
496	 0,186125747832615 
497	 0,185668892131467 
498	 0,185061587207767 
499	 0,185246243702626 
500	 0,188617263455545 
501	 0,189984980181354 
502	 0,186979246676287 
503	 0,186116434402958 
504	 0,186896314475784 
505	 0,186786869021392 
506	 0,187785672382302 
507	 0,189860302420929 
508	 0,190645467804546 
509	 0,191023005641204 
510	 0,191858189720378 
511	 0,192597212625435 
512	 0,193147710424982 
513	 0,193398597266121 
514	 0,194153541011812 
515	 0,195487227551548 
516	 0,195450936524621 
517	 0,194942752347702 
518	 0,195437186764131 
519	 0,196318000269454 
520	 0,197723593312339 
521	 0,200915516538955 
522	 0,203159549837193 
523	 0,20259848639199 
524	 0,201524418087371 
525	 0,201003672737099 
526	 0,202424502217155 
527	 0,20419289462975 
528	 0,205476897372911 
529	 0,205355024366931 
530	 0,204917874712138 
531	 0,205471338941212 
532	 0,207178882784893 
533	 0,209198272345459 
534	 0,208817699813589 
535	 0,208562284987561 
536	 0,209772740546953 
537	 0,210262851342168 
538	 0,210229817054555 
539	 0,210399035991971 
540	 0,212059787061249 
541	 0,214846823690795 
542	 0,215176306815702 
543	 0,214665447339504 
544	 0,215076248983839 
545	 0,21613814782103 
546	 0,217277080898213 
547	 0,216895283374589 
548	 0,216870540732093 
549	 0,217948678004814 
550	 0,218314856828977 
551	 0,218567621925167 
552	 0,219994886763108 
553	 0,22051851754961 
554	 0,220077763957149 
555	 0,220821804045996 
556	 0,222203250915654 
557	 0,223633413396706 
558	 0,224160774479803 
559	 0,224042429177843 
560	 0,224385509958676 
561	 0,224835218463358 
562	 0,225292337486182 
563	 0,225825697803534 
564	 0,226285662567749 
565	 0,226471807337069 
566	 0,227380199319687 
567	 0,228753736606833 
568	 0,22880997371113 
569	 0,22850827949812 
570	 0,22864398745949 
571	 0,229987174583081 
572	 0,231729057129278 
573	 0,231956513869267 
574	 0,231571029322408 
575	 0,231110651017549 
576	 0,231656994566999 
577	 0,232563919810635 
578	 0,233017084012107 
579	 0,233215935507687 
580	 0,233263630938593 
581	 0,233318724274163 
582	 0,233691568238855 
583	 0,234522981672854 
584	 0,235445707651717 
585	 0,236049924322655 
586	 0,235690415563955 
587	 0,235742519933198 
588	 0,236409421352197 
589	 0,236464359216625 
590	 0,236373856507429 
591	 0,236632150369545 
592	 0,237353615950142 
593	 0,238209294284774 
594	 0,238206792172472 
595	 0,238353172807841 
596	 0,239099295976115 
597	 0,240019746856064 
598	 0,240955059979851 
599	 0,241766456602553 
600	 0,242265650042835 
601	 0,24235046256408 
602	 0,241797995328027 
603	 0,241577642926381 
604	 0,24237512421749 
605	 0,242719131448856 
606	 0,242682764467302 
607	 0,243041941012881 
608	 0,243664838388441 
609	 0,244489670483386 
610	 0,245433180503375 
611	 0,245953962812114 
612	 0,245429182315591 
613	 0,245782905413272 
614	 0,246888454977731 
615	 0,246586580912827 
616	 0,24627777460462 
617	 0,246806833108953 
618	 0,247186906201416 
619	 0,247393002646143 
620	 0,247627170680593 
621	 0,248100493669347 
622	 0,248764579456869 
623	 0,248969561808098 
624	 0,249204661354177 
625	 0,249969865279611 
626	 0,250049517151448 
627	 0,249696305244777 
628	 0,250452115330228 
629	 0,251027039266118 
630	 0,250851315587867 
631	 0,250904362977139 
632	 0,251186449136995 
633	 0,251488259894581 
634	 0,252112209701887 
635	 0,25287945622299 
636	 0,252721307149021 
637	 0,252630390593411 
638	 0,253430992278602 
639	 0,254130791894552 
640	 0,254538822512869 
641	 0,254635455921625 
642	 0,254789435077548 
643	 0,255166549677509 
644	 0,255650515560019 
645	 0,256104050755939 
646	 0,256374119535284 
647	 0,256401264136953 
648	 0,256389874308175 
649	 0,257097808492695 
650	 0,257688560765736 
651	 0,257663270615332 
652	 0,257945987567118 
653	 0,258465275109382 
654	 0,258793165501695 
655	 0,25915054991156 
656	 0,259522625225778 
657	 0,259494289619592 
658	 0,259571959600925 
659	 0,260268736053587 
660	 0,260668583714834 
661	 0,260769936078939 
662	 0,26118956796302 
663	 0,261508786156037 
664	 0,261584522967857 
665	 0,261952979255866 
666	 0,26240969031819 
667	 0,262520144860243 
668	 0,263099950704833 
669	 0,264027547153388 
670	 0,263846289593009 
671	 0,263787197230403 
672	 0,264773303786904 
673	 0,265178289333049 
674	 0,26518004588544 
675	 0,265863585550715 
676	 0,266717470333537 
677	 0,267535409514409 
678	 0,26821227931039 
679	 0,268756521625762 
680	 0,269199449361289 
681	 0,269454373332056 
682	 0,269769119735719 
683	 0,2709700275776 
684	 0,272103305484162 
685	 0,272622175659592 
686	 0,273060080918679 
687	 0,273632559717998 
688	 0,274600537798331 
689	 0,27543480350938 
690	 0,276012959796925 
691	 0,276573532958599 
692	 0,277322402582711 
693	 0,278399422187603 
694	 0,279233092350478 
695	 0,279749651795314 
696	 0,280002862232399 
697	 0,280539274458877 
698	 0,281544740033749 
699	 0,28249477980059 
700	 0,283306422198988 
701	 0,283945446497235 
702	 0,284771018439271 
703	 0,285620243440799 
704	 0,285544682505032 
705	 0,285799660698066 
706	 0,287056287074375 
707	 0,287706177767369 
708	 0,287897129146022 
709	 0,288308810252954 
710	 0,289041198143828 
711	 0,290024207833052 
712	 0,290707875459831 
713	 0,291173839182267 
714	 0,291547616861605 
715	 0,29218121385994 
716	 0,292899701284184 
717	 0,292994001391323 
718	 0,293341714724889 
719	 0,294241513827752 
720	 0,295089571118761 
721	 0,29570127139409 
722	 0,295929982187369 
723	 0,296406173210788 
724	 0,297171312602624 
725	 0,297760466548299 
726	 0,298360329197666 
727	 0,299091196163124 
728	 0,30004621792037 
729	 0,300858642737049 
730	 0,300809642525644 
731	 0,301342167771327 
732	 0,302549890078115 
733	 0,302756155736168 
734	 0,302792088037732 
735	 0,303429326451927 
736	 0,304337982704224 
737	 0,305280958214453 
738	 0,305837597641677 
739	 0,306300761308135 
740	 0,306784139666212 
741	 0,307260312411878 
742	 0,307780232746534 
743	 0,308396778032747 
744	 0,308911127302851 
745	 0,30938473272848 
746	 0,310193877885596 
747	 0,310808639716534 
748	 0,311032304764839 
749	 0,311604182203107 
750	 0,31250031228041 
751	 0,313566578278369 
752	 0,314082525294275 
753	 0,314091993303489 
754	 0,31458033333495 
755	 0,315311707205569 
756	 0,316092282072439 
757	 0,316909559396598 
758	 0,317567578935656 
759	 0,31767836150314 
760	 0,317948734466878 
761	 0,318603388111226 
762	 0,319469977134037 
763	 0,32011805972888 
764	 0,320201663612037 
765	 0,320617135225873 
766	 0,321373200307066 
767	 0,322062560871258 
768	 0,322483737418297 
769	 0,322620519504224 
770	 0,322972345614809 
771	 0,323583199812293 
772	 0,324431291479606 
773	 0,324864227960835 
774	 0,325003985449729 
775	 0,325725732648861 
776	 0,32649068245096 
777	 0,327000665048468 
778	 0,327315415126138 
779	 0,327404567214029 
780	 0,327204252384114 
781	 0,32770111954282 
782	 0,328811721697581 
783	 0,329261031731014 
784	 0,329383253436636 
785	 0,329447495306651 
786	 0,329736800301537 
787	 0,330215287949312 
788	 0,330747009952369 
789	 0,330986105875303 
790	 0,330970030255286 
791	 0,331338318562249 
792	 0,331854398854822 
793	 0,332302609165808 
794	 0,332732785780113 
795	 0,332974358950151 
796	 0,332634926859087 
797	 0,332458421507777 
798	 0,332723024106935 
799	 0,333336277696998 
800	 0,333883148839954 
801	 0,33401389633548 
802	 0,33441415548274 
803	 0,335028647970811 
804	 0,335436495051647 
805	 0,335548806224779 
806	 0,335391932420608 
807	 0,335332525006627 
808	 0,335573022872305 
809	 0,336253134247628 
810	 0,336511150762294 
811	 0,336407105054376 
812	 0,33665145248205 
813	 0,336936235360053 
814	 0,337178331976204 
815	 0,337632986070025 
816	 0,337994742735965 
817	 0,337908587100347 
818	 0,338377142875597 
819	 0,339200482903969 
820	 0,339086794817038 
821	 0,33891138215271 
822	 0,339095202811177 
823	 0,339486209650699 
824	 0,339813634398098 
825	 0,33975579451069 
826	 0,339558148624132 
827	 0,339425898954484 
828	 0,339812071661157 
829	 0,340016865735659 
830	 0,339756216913955 
831	 0,339815401407905 
832	 0,340003563423971 
833	 0,339948275873679 
834	 0,340093857288828 
835	 0,34041802247722 
836	 0,340515326419688 
837	 0,340495443355714 
838	 0,340444360191337 
839	 0,340552337933051 
840	 0,340645414690689 
841	 0,340448321678886 
842	 0,340744129358739 
843	 0,34145727595635 
844	 0,341716547144789 
845	 0,341679890009439 
846	 0,341465336352758 
847	 0,341308777999303 
848	 0,341228502582586 
849	 0,341194220597405 
850	 0,341350601874533 
851	 0,341609159288262 
852	 0,34157901655976 
853	 0,341553850342485 
854	 0,341673409192663 
855	 0,341704264545614 
856	 0,341770187797462 
857	 0,34206720439891 
858	 0,341867148588298 
859	 0,341374521131792 
860	 0,341819818656281 
861	 0,342380046416957 
862	 0,342545328954076 
863	 0,341991085517919 
864	 0,341497632804947 
865	 0,34208961773646 
866	 0,342543921772899 
867	 0,342590889245138 
868	 0,34237311337331 
869	 0,342167834969257 
870	 0,342106775613683 
871	 0,341911985518452 
872	 0,341965076980777 
873	 0,342706662741956 
874	 0,342998312598823 
875	 0,342795459295181 
876	 0,3427504933482 
877	 0,342779763787215 
878	 0,342830003956219 
879	 0,34269714523655 
880	 0,342414256823105 
881	 0,342076980321636 
882	 0,342414313079793 
883	 0,343233786128499 
884	 0,34367851396022 
885	 0,343978565279773 
886	 0,344068012488739 
887	 0,343331113071055 
888	 0,34280288695638 
889	 0,343400108403004 
890	 0,343736221070505 
891	 0,343626015119359 
892	 0,34320368014749 
893	 0,343178275722567 
894	 0,343631914760077 
895	 0,343738966334533 
896	 0,343527022028051 
897	 0,343170756237805 
898	 0,343919059322165 
899	 0,34497351991047 
900	 0,344583621150469 
901	 0,344381735943559 
902	 0,344524218804881 
903	 0,343660702241752 
904	 0,343389124646437 
905	 0,344419721740355 
906	 0,344064239394046 
907	 0,343165436220994 
908	 0,343375468097299 
909	 0,343371217544604 
910	 0,343098540742105 
911	 0,343368179215626 
912	 0,343726146770327 
913	 0,343883589037503 
914	 0,343496917918037 
915	 0,343136194579135 
916	 0,343435606553784 
917	 0,343727885474309 
918	 0,343809066809031 
919	 0,343509208045906 
920	 0,343288072891709 
921	 0,343408054995511 
922	 0,344150669443365 
923	 0,344940406670534 
924	 0,345224550009811 
925	 0,344676493667479 
926	 0,343957667664537 
927	 0,344372544572365 
928	 0,343927267537072 
929	 0,342628787771355 
930	 0,342611825969595 
931	 0,342902463807544 
932	 0,342869735124015 
933	 0,342427464486055 
934	 0,341965167210265 
935	 0,341980644648224 
936	 0,34181004815656 
937	 0,341334463176866 
938	 0,340652963884092 
939	 0,339915521116185 
940	 0,339419905466781 
941	 0,340270474736246 
942	 0,340687444923842 
943	 0,339229709381824 
944	 0,338284681310233 
945	 0,338502692423962 
946	 0,340380602839734 
947	 0,33993743954932 
948	 0,337266205461604 
949	 0,337505617729047 
950	 0,337268450581218 
951	 0,335115972538182 
952	 0,33514620627099 
953	 0,335674700278288 
954	 0,334282967133455 
955	 0,333849034060448 
956	 0,334157763890319 
957	 0,33306890324861 
958	 0,332417765226903 
959	 0,332534520162568 
960	 0,331815375915783 
961	 0,331766854998579 
962	 0,333162712685995 
963	 0,332177423083044 
964	 0,33017557308108 
965	 0,330001246516675 
966	 0,330648441669767 
967	 0,331511408958752 
968	 0,331639402282169 
969	 0,330514972460109 
970	 0,328615400865264 
971	 0,329635473565464 
972	 0,331383054783878 
973	 0,331622145485816 
974	 0,331105718286955 
975	 0,330704583770218 
976	 0,331836559754363 
977	 0,330801928834244 
978	 0,328376642742329 
979	 0,331142597672742 
980	 0,332520858528825 
981	 0,329698683056965 
982	 0,32662403254173 
983	 0,326129464895706 
984	 0,33023860107763 
985	 0,332101331573103 
986	 0,331854473086343 
987	 0,332460784682589 
988	 0,332556477082535 
989	 0,332094143232164 
990	 0,332048057221854 
991	 0,331788345108006 
992	 0,331376089823498 
993	 0,333450617121796 
994	 0,334315871320979 
995	 0,33056823780209 
996	 0,331068534868997 
997	 0,333817133242366 
998	 0,331717570629796 
999	 0,330641898953953 
1000	 0,332015690119561 
1001	 0,334967771525757 
1002	 0,336709489490322 
1003	 0,335863231372514 
1004	 0,334196350684279 
1005	 0,333102676944817 
1006	 0,334006955028957 
1007	 0,339370891868463 
1008	 0,343827661727767 
1009	 0,337680377478313 
1010	 0,335102832940434 
1011	 0,338002415800332 
1012	 0,339072295659316 
1013	 0,338656205068385 
1014	 0,337218655178844 
1015	 0,3373401255853 
1016	 0,33829899063604 
1017	 0,339187741695301 
1018	 0,338720005609838 
1019	 0,339075033998377 
1020	 0,343561477049405 
1021	 0,343641394133431 
1022	 0,340448795573551 
1023	 0,342978634675656 
1024	 0,346319884022183 
1025	 0,348022324732118 
1026	 0,34443101949759 
1027	 0,343054795268375 
1028	 0,347530990229458 
1029	 0,345210313270433 
1030	 0,343250748441714 
1031	 0,35024146551492 
1032	 0,34635513749147 
1033	 0,337887391713622 
1034	 0,345174882374641 
1035	 0,350387489932161 
1036	 0,348628026400307 
1037	 0,340707855349518 
1038	 0,33827926673125 
1039	 0,345092444592152 
1040	 0,348854932559165 
1041	 0,348998632026537 
1042	 0,346207011975156 
1043	 0,347162446423439 
1044	 0,347117853222495 
1045	 0,339050312691761 
1046	 0,339460945666033 
1047	 0,347579361110801 
1048	 0,352946670064058 
1049	 0,355321073095012 
1050	 0,353966578559898 
1051	 0,347777148462036 
1052	 0,343760435590001 
1053	 0,346170870848449 
1054	 0,355437156820338 
1055	 0,361572575426796 
1056	 0,357004587391595 
1057	 0,351327891464185 
1058	 0,349813402424794 
1059	 0,356692188175143 
1060	 0,353967710387034 
1061	 0,344716845378452 
1062	 0,345706133770071 
1063	 0,345211729288829 
1064	 0,342336223679924 
1065	 0,346074750085913 
1066	 0,351005306087922 
1067	 0,353529421318631 
1068	 0,350342733138907 
1069	 0,348627729227963 
1070	 0,353440882669581 
1071	 0,359894541064378 
1072	 0,360768566510161 
1073	 0,350012716823214 
1074	 0,351854464073975 
1075	 0,357644487947265 
