Wavelength	GOOSEBAR00262.asd
325	-0,214458704618801 
326	-0,172896087897962 
327	-0,100770430916647 
328	 1,28407735649477E-02 
329	 4,98338095515774E-02 
330	 5,05883005883006E-02 
331	 7,90897895494626E-02 
332	 9,72182056472702E-04 
333	-8,19070173251901E-02 
334	-9,02960073095387E-02 
335	 3,19339641138542E-02 
336	 0,151080955259848 
337	 4,44215700355883E-02 
338	-8,63839075897939E-02 
339	-4,03783740825782E-02 
340	-2,28156537928595E-03 
341	 2,59413297480922E-02 
342	 0,146884672414505 
343	 0,168474243352272 
344	 7,36716305050115E-02 
345	 4,73417060060525E-02 
346	 3,45030702667799E-02 
347	-3,08999787771614E-02 
348	-0,01997966176083 
349	 4,55713494712043E-02 
350	 6,68793689063136E-02 
351	 4,40873529736791E-02 
352	-7,40970639944395E-03 
353	 1,69684853884625E-02 
354	 0,065703352427458 
355	 8,45711481964575E-02 
356	 6,37919303851355E-02 
357	 1,83280844875419E-02 
358	 1,86618200358914E-03 
359	 2,38697623399873E-02 
360	 7,40227335736069E-02 
361	 7,92369507886749E-02 
362	 5,98282471430245E-02 
363	 5,43625564566817E-02 
364	 4,53797304453927E-02 
365	 3,32168381656061E-02 
366	 3,68631432749468E-02 
367	 0,038976564505379 
368	 3,12820199979891E-02 
369	 3,87275196292321E-02 
370	 0,055240412447071 
371	 6,84561902233491E-02 
372	 6,58535701611451E-02 
373	 4,98052829481328E-02 
374	 5,40851913055036E-02 
375	 0,053045121787895 
376	 3,10494642367493E-02 
377	 4,38110906437011E-02 
378	 6,95904057798669E-02 
379	 4,56425354867859E-02 
380	 3,95716881547517E-02 
381	 5,94422271829074E-02 
382	 2,69673949001154E-02 
383	-2,59632174562128E-03 
384	 2,56033693919789E-02 
385	 4,45585055348189E-02 
386	 0,044902443613204 
387	 3,41156102073996E-02 
388	 2,73800234708974E-02 
389	 3,12597473761117E-02 
390	 3,41275425905989E-02 
391	 4,40204127058733E-02 
392	 7,07411051617266E-02 
393	 6,78515275897973E-02 
394	 4,07784077769714E-02 
395	 0,033838416470333 
396	 3,47292135888236E-02 
397	 3,82075370675562E-02 
398	 0,05410873930185 
399	 6,66820813464562E-02 
400	 4,94658342626295E-02 
401	 4,60636543144961E-02 
402	 5,88983656367574E-02 
403	 0,054824011675323 
404	 5,00880826842273E-02 
405	 5,48648501119012E-02 
406	 5,35951631249947E-02 
407	 4,73625444835023E-02 
408	 4,09217672356697E-02 
409	 4,13749957266418E-02 
410	 4,88902062322863E-02 
411	 5,34476242650322E-02 
412	 5,22109739140704E-02 
413	 0,043950384753237 
414	 4,43334910888991E-02 
415	 5,06602033364472E-02 
416	 4,84775507018541E-02 
417	 4,80125881063091E-02 
418	 5,17478774369477E-02 
419	 4,84388074085542E-02 
420	 4,53465075150435E-02 
421	 0,052831062149951 
422	 5,06542468462509E-02 
423	 4,06492022819005E-02 
424	 4,43313362909838E-02 
425	 4,88936965286655E-02 
426	 4,69798437200178E-02 
427	 4,51212419839775E-02 
428	 0,045254758801262 
429	 4,92236162832999E-02 
430	 5,44083974554627E-02 
431	 5,81369423747839E-02 
432	 5,30317338612325E-02 
433	 5,00137830172097E-02 
434	 5,79367403907995E-02 
435	 5,76597803053068E-02 
436	 5,07975323569387E-02 
437	 0,049945834541196 
438	 5,00401730199499E-02 
439	 4,98527529443087E-02 
440	 5,35955959462713E-02 
441	 5,63815130353302E-02 
442	 5,18225617841284E-02 
443	 4,82717631685453E-02 
444	 0,047900455766832 
445	 5,06794859681193E-02 
446	 5,22808897317962E-02 
447	 5,02156348711065E-02 
448	 4,82557628435486E-02 
449	 4,72091461956895E-02 
450	 4,73017745182201E-02 
451	 4,95203703677472E-02 
452	 5,23420395781891E-02 
453	 4,76510205156377E-02 
454	 4,41664831819714E-02 
455	 4,97400099793517E-02 
456	 5,20270529715285E-02 
457	 5,03555879362306E-02 
458	 4,89741548445657E-02 
459	 4,95426466738457E-02 
460	 5,23429422757075E-02 
461	 5,33752784363199E-02 
462	 5,25741384553684E-02 
463	 5,04466948839588E-02 
464	 4,95485933314865E-02 
465	 5,02067789219268E-02 
466	 5,12791947243046E-02 
467	 5,05746761246779E-02 
468	 4,70983905899305E-02 
469	 4,56347079185943E-02 
470	 4,64538822410794E-02 
471	 4,86239155759611E-02 
472	 0,049899061134716 
473	 5,00080764033084E-02 
474	 5,21341075541597E-02 
475	 5,39113839960747E-02 
476	 5,29926415149936E-02 
477	 5,34739573762136E-02 
478	 5,49695537616997E-02 
479	 5,41433953536113E-02 
480	 5,29292382443346E-02 
481	 5,21078497907694E-02 
482	 0,050332444501894 
483	 4,89415817452478E-02 
484	 0,050074689586976 
485	 4,99598071692196E-02 
486	 4,87016551204781E-02 
487	 0,050983826245342 
488	 5,29225292374858E-02 
489	 5,17397217934255E-02 
490	 5,07743882204109E-02 
491	 5,06573462693875E-02 
492	 5,16810773507858E-02 
493	 5,16303331667375E-02 
494	 5,04307002110388E-02 
495	 5,26506795869568E-02 
496	 5,43491672617805E-02 
497	 5,08778292866248E-02 
498	 4,94877750254181E-02 
499	 5,09600877177455E-02 
500	 0,052491708549447 
501	 5,26420521335998E-02 
502	 5,08429568729435E-02 
503	 5,01530209849109E-02 
504	 5,02561039052055E-02 
505	 4,97687577605454E-02 
506	 5,01447709981304E-02 
507	 5,11414333033025E-02 
508	 4,99211218086978E-02 
509	 4,87125345117814E-02 
510	 4,95602344020498E-02 
511	 5,05641359314448E-02 
512	 5,12822505134571E-02 
513	 5,14989494632347E-02 
514	 5,22224865253612E-02 
515	 5,34518122267931E-02 
516	 5,22124128487256E-02 
517	 5,02292946311614E-02 
518	 5,02166284861431E-02 
519	 5,11941504565954E-02 
520	 5,26081425756893E-02 
521	 5,36151400309605E-02 
522	 5,36946659151114E-02 
523	 5,25678828926673E-02 
524	 5,10441074261752E-02 
525	 5,01383000075833E-02 
526	 5,18924169364047E-02 
527	 5,29113812901224E-02 
528	 5,21857949705544E-02 
529	 5,14257358046502E-02 
530	 5,12018263296966E-02 
531	 5,19739403540457E-02 
532	 5,21812926776826E-02 
533	 5,16354153310052E-02 
534	 5,07268662913458E-02 
535	 5,11258625014796E-02 
536	 5,34346192242974E-02 
537	 5,38992623190409E-02 
538	 5,29250232194101E-02 
539	 5,20790444651776E-02 
540	 0,052502898710148 
541	 5,42130695725895E-02 
542	 5,53014603452754E-02 
543	 5,53782311216068E-02 
544	 5,42732259061674E-02 
545	 5,40872870295903E-02 
546	 5,47576211018917E-02 
547	 5,47935788354082E-02 
548	 0,054616500014531 
549	 0,054333441017106 
550	 5,33596833486795E-02 
551	 5,25038198409161E-02 
552	 5,30983735264068E-02 
553	 5,34415602141524E-02 
554	 5,31795619911703E-02 
555	 5,28577475407462E-02 
556	 5,34003259296987E-02 
557	 5,53368734600844E-02 
558	 5,54220834028503E-02 
559	 5,41326647277054E-02 
560	 5,41454476863836E-02 
561	 0,05450057958042 
562	 5,48302366438307E-02 
563	 5,48616765421475E-02 
564	 5,49955352957706E-02 
565	 0,055801231290681 
566	 5,58736348988482E-02 
567	 5,53715624794958E-02 
568	 5,62254506951845E-02 
569	 5,70410708633038E-02 
570	 5,69205593946967E-02 
571	 5,72556957207265E-02 
572	 5,78219791686746E-02 
573	 5,76379100781547E-02 
574	 5,76404516615842E-02 
575	 5,80862334069483E-02 
576	 5,84656596072618E-02 
577	 5,87680556376918E-02 
578	 5,90266410463482E-02 
579	 5,93249345902645E-02 
580	 5,95279324853899E-02 
581	 5,91306748000947E-02 
582	 5,88357669681561E-02 
583	 5,90318327169891E-02 
584	 5,92585906248947E-02 
585	 5,94533259654108E-02 
586	 5,96047052103271E-02 
587	 5,99400517432943E-02 
588	 6,03910882274319E-02 
589	 6,02760144744703E-02 
590	 6,03716418101141E-02 
591	 6,13537795646226E-02 
592	 6,17575569024062E-02 
593	 0,061433628347911 
594	 6,07243423514628E-02 
595	 6,03670611337859E-02 
596	 6,07665865508291E-02 
597	 0,061770790660458 
598	 6,27407958639543E-02 
599	 6,27762949935171E-02 
600	 6,32649060635555E-02 
601	 0,06416297843463 
602	 6,37140839673493E-02 
603	 6,31684450960221E-02 
604	 6,35572430125818E-02 
605	 6,44835313763962E-02 
606	 6,55360215215764E-02 
607	 6,58952276446307E-02 
608	 6,62177415359111E-02 
609	 6,67797553131176E-02 
610	 6,77502746726916E-02 
611	 6,84424503606858E-02 
612	 6,80183141636626E-02 
613	 6,79350089208572E-02 
614	 6,82745605405101E-02 
615	 6,79254940400971E-02 
616	 6,77969705885254E-02 
617	 0,068395992438262 
618	 6,87921057177405E-02 
619	 6,87778234464435E-02 
620	 6,81760195032829E-02 
621	 6,79441932511092E-02 
622	 6,83042473160489E-02 
623	 6,84886086920571E-02 
624	 6,86216411865147E-02 
625	 0,068867151797976 
626	 0,068947417193217 
627	 6,88940226079481E-02 
628	 6,89536256209054E-02 
629	 6,90395429970642E-02 
630	 6,91873124221938E-02 
631	 6,99207867404141E-02 
632	 0,070821694069026 
633	 7,11615510255339E-02 
634	 7,11849122530224E-02 
635	 7,10270873227471E-02 
636	 7,08611039918535E-02 
637	 7,11201091230596E-02 
638	 7,20854281456123E-02 
639	 0,072545576707409 
640	 7,26006373394472E-02 
641	 7,32078784853699E-02 
642	 7,33166962832995E-02 
643	 7,27813520470977E-02 
644	 7,32666999399641E-02 
645	 7,43853915619583E-02 
646	 7,54416862893233E-02 
647	 7,55737654327566E-02 
648	 7,50884682516528E-02 
649	 7,60015872871242E-02 
650	 7,67116530304816E-02 
651	 0,076260625888774 
652	 7,62669056716503E-02 
653	 0,076787966866545 
654	 7,74831636164534E-02 
655	 7,78503165259136E-02 
656	 7,78062351885532E-02 
657	 7,79919538484218E-02 
658	 7,83484027059086E-02 
659	 7,87710407314851E-02 
660	 7,93328777710628E-02 
661	 0,079892480192754 
662	 8,00581730984849E-02 
663	 8,00799212313831E-02 
664	 8,01438778253318E-02 
665	 8,05847135641778E-02 
666	 8,10609473370767E-02 
667	 8,09696260179881E-02 
668	 0,081160278042243 
669	 8,17044079295361E-02 
670	 8,18258216297592E-02 
671	 8,20772535436666E-02 
672	 8,28549785596527E-02 
673	 8,32031261176165E-02 
674	 8,33047764447484E-02 
675	 0,084049497677611 
676	 8,45827831392384E-02 
677	 8,47021989947702E-02 
678	 8,51221248953331E-02 
679	 8,56680190703608E-02 
680	 8,60665388682658E-02 
681	 8,63179473760892E-02 
682	 8,66509765951708E-02 
683	 0,087766310600705 
684	 8,90556328748622E-02 
685	 9,00600003362445E-02 
686	 9,02456704020061E-02 
687	 9,03247227515647E-02 
688	 9,16986582725694E-02 
689	 9,27708030203011E-02 
690	 9,32666186968602E-02 
691	 0,094271454101136 
692	 9,54117396593408E-02 
693	 9,63116209765953E-02 
694	 9,69988278201383E-02 
695	 9,76312583384353E-02 
696	 9,85771860522171E-02 
697	 9,96889134273745E-02 
698	 0,100830820648856 
699	 0,101616941907187 
700	 0,102161005571662 
701	 0,102657961060295 
702	 0,103574394046433 
703	 0,104704636260188 
704	 0,104872021856892 
705	 0,10523660708863 
706	 0,106429581389692 
707	 0,10702953435673 
708	 0,1073886419633 
709	 0,108552403704387 
710	 0,109556032526884 
711	 0,110255450995942 
712	 0,111486822309843 
713	 0,112507980846996 
714	 0,112680612499451 
715	 0,113323770013751 
716	 0,114514231636539 
717	 0,115836798888957 
718	 0,116749501081525 
719	 0,117131302750636 
720	 0,117979519862555 
721	 0,118995593669865 
722	 0,119681022240117 
723	 0,120365530400276 
724	 0,121211539170734 
725	 0,122522427711473 
726	 0,123677116179255 
727	 0,124328675586654 
728	 0,125160738451674 
729	 0,125989971784562 
730	 0,126285551086465 
731	 0,126877919785788 
732	 0,127880872363517 
733	 0,128573240447728 
734	 0,129246524297913 
735	 0,130152990496307 
736	 0,130921629060173 
737	 0,131552400693806 
738	 0,1322102133209 
739	 0,132897836377245 
740	 0,133569165486572 
741	 0,133892978860423 
742	 0,134292920093088 
743	 0,135266867479636 
744	 0,135913054716154 
745	 0,136226918906135 
746	 0,136876324318495 
747	 0,137509555820593 
748	 0,137962582895188 
749	 0,138451447451993 
750	 0,138935939137343 
751	 0,139315723202886 
752	 0,139764231543374 
753	 0,140262815009052 
754	 0,140576808399119 
755	 0,140722383869867 
756	 0,140779244165069 
757	 0,141384055575717 
758	 0,142141945881218 
759	 0,14202933877469 
760	 0,142106684248884 
761	 0,142609556065952 
762	 0,142911819833741 
763	 0,143082673862833 
764	 0,143224631055223 
765	 0,143496682580504 
766	 0,143768471351116 
767	 0,143574853936871 
768	 0,143576316486475 
769	 0,14392107796312 
770	 0,143784598670764 
771	 0,143570233555592 
772	 0,143812179650152 
773	 0,14353038558701 
774	 0,142816873416643 
775	 0,142613362144735 
776	 0,142586507142835 
777	 0,142494455406487 
778	 0,141941687255723 
779	 0,141073581842251 
780	 0,140166880671205 
781	 0,139580944929331 
782	 0,139264752403672 
783	 0,13870593946476 
784	 0,137667983451683 
785	 0,136112450110152 
786	 0,135091262116352 
787	 0,134477644561547 
788	 0,133796978337526 
789	 0,132486347393207 
790	 0,130667361513812 
791	 0,129643774016662 
792	 0,128865821416573 
793	 0,127842964002604 
794	 0,126502197042008 
795	 0,125087919319096 
796	 0,124153204979363 
797	 0,12323209074553 
798	 0,12227672980385 
799	 0,121838271692179 
800	 0,121387945462552 
801	 0,120461251592401 
802	 0,120026165764365 
803	 0,120038931779145 
804	 0,119857365421224 
805	 0,120045329484392 
806	 0,120710974684112 
807	 0,121218105472518 
808	 0,122080972950968 
809	 0,123838775247053 
810	 0,125314863430311 
811	 0,126485358718248 
812	 0,128077728134365 
813	 0,129505297089482 
814	 0,13058725189312 
815	 0,131805363580806 
816	 0,133081215621668 
817	 0,134271379582818 
818	 0,135347106218057 
819	 0,136100573475557 
820	 0,135990437295842 
821	 0,135694378000158 
822	 0,135636286237456 
823	 0,13609503192168 
824	 0,136547009675641 
825	 0,136294994278573 
826	 0,135602965246168 
827	 0,134811601263157 
828	 0,13481209403461 
829	 0,134468856546741 
830	 0,133328844110909 
831	 0,132636900174421 
832	 0,132220371110034 
833	 0,131656473525204 
834	 0,130527590130625 
835	 0,129146375069062 
836	 0,128860742747433 
837	 0,128799675471298 
838	 0,128415429716045 
839	 0,127547858706764 
840	 0,126450120890597 
841	 0,125510279480347 
842	 0,124967544555082 
843	 0,124748574796142 
844	 0,124348884877963 
845	 0,124038222562387 
846	 0,12384550679607 
847	 0,122929570625514 
848	 0,121996364309687 
849	 0,122147865882655 
850	 0,121672608967043 
851	 0,120597109936578 
852	 0,120458583027465 
853	 0,120468107160241 
854	 0,120280965460203 
855	 0,120643323756194 
856	 0,121033794352177 
857	 0,120665036491538 
858	 0,120298635610945 
859	 0,120275108355755 
860	 0,121109535971861 
861	 0,12143836373983 
862	 0,120811650004918 
863	 0,121388565627307 
864	 0,122519636312139 
865	 0,123069165821503 
866	 0,123577960656685 
867	 0,124048739315938 
868	 0,124084668907549 
869	 0,124575296669613 
870	 0,125784678330133 
871	 0,126479572791294 
872	 0,126865313746035 
873	 0,127343709728159 
874	 0,128237485334111 
875	 0,129317995619152 
876	 0,129777769284009 
877	 0,129822844371693 
878	 0,129683998136678 
879	 0,130177760928744 
880	 0,130666530198009 
881	 0,130470230360745 
882	 0,13128695708407 
883	 0,132735129099224 
884	 0,132866695163337 
885	 0,133395841506145 
886	 0,134566538662435 
887	 0,134375076071267 
888	 0,134090055345874 
889	 0,134943242883001 
890	 0,135682764591356 
891	 0,136140989774262 
892	 0,13640833742495 
893	 0,137020299037691 
894	 0,138089297100513 
895	 0,139174851005908 
896	 0,140224037341819 
897	 0,141171023479953 
898	 0,141740166774889 
899	 0,142140070993148 
900	 0,142787744997913 
901	 0,14377611178191 
902	 0,144926974039733 
903	 0,145294774129881 
904	 0,146422166449851 
905	 0,148920056318642 
906	 0,149703312258256 
907	 0,149918172730346 
908	 0,151699864994414 
909	 0,153049375268616 
910	 0,153946570602677 
911	 0,15589841814853 
912	 0,157634633038492 
913	 0,158622574088644 
914	 0,159536600612677 
915	 0,160551720132267 
916	 0,161779013582558 
917	 0,162713163590112 
918	 0,163626137645032 
919	 0,165465650225454 
920	 0,167382724680537 
921	 0,168933517093821 
922	 0,169683996913099 
923	 0,17043260069698 
924	 0,171817458026689 
925	 0,173109728022218 
926	 0,174246387520259 
927	 0,175329662414139 
928	 0,176171610901606 
929	 0,176709313121522 
930	 0,176936419546319 
931	 0,177035515656687 
932	 0,177175367222262 
933	 0,17747207357619 
934	 0,178320444723062 
935	 0,180104613266419 
936	 0,179997680213098 
937	 0,178366832996192 
938	 0,178034172087288 
939	 0,178316302022345 
940	 0,179002934006352 
941	 0,180124372357719 
942	 0,180649301542444 
943	 0,179718948930155 
944	 0,17792426752026 
945	 0,176628805462071 
946	 0,178091143174211 
947	 0,178318642838679 
948	 0,17666821902174 
949	 0,175406678603677 
950	 0,174463339223662 
951	 0,173879871928844 
952	 0,173939307373075 
953	 0,173985828798769 
954	 0,173210168606736 
955	 0,171341799274227 
956	 0,169604642320916 
957	 0,171498096371159 
958	 0,171417962251293 
959	 0,168444296473433 
960	 0,167841140248794 
961	 0,168723487395249 
962	 0,169953649094644 
963	 0,169304540205207 
964	 0,167459436554337 
965	 0,166000670885757 
966	 0,165625787020885 
967	 0,166222418377975 
968	 0,166703451947337 
969	 0,167007892087726 
970	 0,167040940678266 
971	 0,166682279675896 
972	 0,166790893219304 
973	 0,167978533594754 
974	 0,168304799793818 
975	 0,16772034764746 
976	 0,166802614596855 
977	 0,164867167471692 
978	 0,163370727616783 
979	 0,167861892617141 
980	 0,171094291864102 
981	 0,169639115213758 
982	 0,166762122331776 
983	 0,165512169862924 
984	 0,168382828550793 
985	 0,170696492537721 
986	 0,170917948292216 
987	 0,167865889289293 
988	 0,167192072148251 
989	 0,169652018302582 
990	 0,171314462319629 
991	 0,1713131838202 
992	 0,169814619035612 
993	 0,171144799586335 
994	 0,172634931045941 
995	 0,171455282022086 
996	 0,172376033481037 
997	 0,174452317700937 
998	 0,174205256988165 
999	 0,174513700069682 
1000	 0,176018069381082 
1001	 0,178236995670391 
1002	 0,179332449199992 
1003	 0,178553634442476 
1004	 0,178108143787906 
1005	 0,176900987788096 
1006	 0,174262402040194 
1007	 0,176636635306362 
1008	 0,181171681819234 
1009	 0,181037098817833 
1010	 0,181421008585758 
1011	 0,182779227442732 
1012	 0,181852067967468 
1013	 0,182410214397933 
1014	 0,185233185353565 
1015	 0,185232335236395 
1016	 0,184908264195151 
1017	 0,186202936761495 
1018	 0,184191318313336 
1019	 0,182737961324902 
1020	 0,18829897030411 
1021	 0,191173311703475 
1022	 0,190303364405344 
1023	 0,189143842071644 
1024	 0,191133185160673 
1025	 0,195824340646618 
1026	 0,194765371928517 
1027	 0,192761271410715 
1028	 0,193254984344289 
1029	 0,195161645006387 
1030	 0,197518957204401 
1031	 0,199070298150362 
1032	 0,195641432257662 
1033	 0,192571893371929 
1034	 0,202193236172874 
1035	 0,20508044022016 
1036	 0,199250020117816 
1037	 0,197955943220809 
1038	 0,200411891390516 
1039	 0,205517331877361 
1040	 0,209339644879651 
1041	 0,208068868350612 
1042	 0,199862560126947 
1043	 0,194290166442915 
1044	 0,194181022969076 
1045	 0,200527618342013 
1046	 0,202130914704645 
1047	 0,200928655728663 
1048	 0,207911423988296 
1049	 0,21253751268551 
1050	 0,211390460816141 
1051	 0,203762129653375 
1052	 0,201433099176694 
1053	 0,208597783485677 
1054	 0,211325642194133 
1055	 0,208771999570307 
1056	 0,202806414512491 
1057	 0,208888702882671 
1058	 0,217710769842714 
1059	 0,213807811072084 
1060	 0,199590529707004 
1061	 0,187190078671644 
1062	 0,202350905056108 
1063	 0,213154900154132 
1064	 0,210332035782338 
1065	 0,198174226851547 
1066	 0,197476392601837 
1067	 0,213278814668631 
1068	 0,216286665365391 
1069	 0,212197374611711 
1070	 0,20777561629338 
1071	 0,214279244297974 
1072	 0,216774007783895 
1073	 0,197794409612871 
1074	 0,188229898182617 
1075	 0,189023112536437 
