Wavelength	GOOSEBAR00184.asd
325	 3,65868390926924E-03 
326	 7,93514770805757E-02 
327	-0,012723155729217 
328	-0,275745814211243 
329	-0,226699321631971 
330	-5,38801476301476E-02 
331	 8,98407095168664E-02 
332	 0,137649903704752 
333	 0,101632805683659 
334	 3,07812794593262E-02 
335	 6,40303850226039E-03 
336	 4,69246017117495E-02 
337	 5,82898453583569E-03 
338	-0,080313743511546 
339	-0,162437093375661 
340	-6,63422464673633E-02 
341	 9,16047597991786E-02 
342	 0,123980679741504 
343	 9,64501446765371E-02 
344	 3,45893341999873E-02 
345	 4,69155469421819E-03 
346	-2,02121275229731E-02 
347	-6,97792706220189E-02 
348	-2,88343745652108E-02 
349	 5,84433075865666E-02 
350	 4,18563140570691E-02 
351	 1,49083012904975E-02 
352	 1,27063362560818E-02 
353	 3,61789142734504E-02 
354	 0,059296647572542 
355	 6,12863116063048E-02 
356	 5,70426548462266E-02 
357	 4,44863118751917E-02 
358	 6,65552399898599E-03 
359	-1,41620384064186E-02 
360	-2,5619145240015E-03 
361	 1,19520326416878E-02 
362	 3,12569587880253E-02 
363	 6,09101296079517E-02 
364	 5,47869622730868E-02 
365	 1,83990638478946E-02 
366	 0,025592514618801 
367	 2,07344187007329E-02 
368	-2,16518732157765E-02 
369	-5,42522697462549E-04 
370	 4,88825766194622E-02 
371	 5,23266216523624E-02 
372	 0,024561809224093 
373	-0,015569376303683 
374	-1,09901227759384E-03 
375	 2,37426505678657E-02 
376	 3,04351701759265E-02 
377	 3,62833223844259E-02 
378	 4,04604148670025E-02 
379	 3,94679769248442E-02 
380	 3,61576794207841E-02 
381	 2,88554459281264E-02 
382	-2,27980839988928E-03 
383	-1,40204706619392E-02 
384	 3,19882093824942E-02 
385	 0,044180703519383 
386	 2,38264635343203E-02 
387	 1,43842835029477E-02 
388	 1,39625793628521E-02 
389	 2,11330139238194E-02 
390	 2,18355466267867E-02 
391	 2,21617033293708E-02 
392	 3,02287207806406E-02 
393	 0,048587472694171 
394	 6,28188056980037E-02 
395	 2,89187305733557E-02 
396	 6,73814695532593E-03 
397	 2,29458332595204E-02 
398	 2,44560817674339E-02 
399	 1,47968263318524E-02 
400	 7,64774840776822E-03 
401	 1,52560771852342E-02 
402	 3,41651978193534E-02 
403	 4,18869382323904E-02 
404	 0,039472926705502 
405	 3,01592421483051E-02 
406	 3,43571436025535E-02 
407	 4,29258777963064E-02 
408	 3,22309451690672E-02 
409	 0,02281699770948 
410	 2,15116188871116E-02 
411	 2,65845802625842E-02 
412	 3,09645537087375E-02 
413	 2,87422204099875E-02 
414	 3,01399457560342E-02 
415	 3,43133431801195E-02 
416	 3,44533025921296E-02 
417	 3,51554186481383E-02 
418	 3,74401128766415E-02 
419	 3,63797565389636E-02 
420	 3,37154172928308E-02 
421	 3,21900804221242E-02 
422	 3,08996537456887E-02 
423	 2,95315217853535E-02 
424	 2,72272867474376E-02 
425	 2,66697710650786E-02 
426	 2,91458148785543E-02 
427	 3,10050666126189E-02 
428	 3,29730509716389E-02 
429	 3,78068774142666E-02 
430	 0,038737477267875 
431	 3,54372529921404E-02 
432	 3,54392656642263E-02 
433	 3,80586564231582E-02 
434	 4,19821815591101E-02 
435	 4,24209782175319E-02 
436	 3,96096251289535E-02 
437	 3,62325965209677E-02 
438	 0,033526846748355 
439	 3,24414724662207E-02 
440	 3,35996098497254E-02 
441	 0,034892077677292 
442	 3,36649281471044E-02 
443	 3,51862147703927E-02 
444	 3,90111750022981E-02 
445	 3,97399063389664E-02 
446	 3,88208323022178E-02 
447	 3,71235508560734E-02 
448	 0,033439288085363 
449	 3,13657397552325E-02 
450	 3,78727481328119E-02 
451	 4,21154106428316E-02 
452	 4,09536926581462E-02 
453	 3,70634402156882E-02 
454	 3,56469818283901E-02 
455	 0,04088793453325 
456	 4,23120210286079E-02 
457	 4,01915206125405E-02 
458	 4,08769152259717E-02 
459	 4,13245437501811E-02 
460	 4,04380346864092E-02 
461	 3,85693303039156E-02 
462	 3,86247808075351E-02 
463	 0,044385540058139 
464	 4,31525024811006E-02 
465	 3,60576048146246E-02 
466	 3,90524856953164E-02 
467	 4,19375056285894E-02 
468	 3,84751620224072E-02 
469	 3,63569514446924E-02 
470	 3,71625927977493E-02 
471	 4,19927362434044E-02 
472	 4,45507151958972E-02 
473	 0,043286216538235 
474	 4,21875029669393E-02 
475	 4,09792511098445E-02 
476	 3,93107965177269E-02 
477	 3,99977968268215E-02 
478	 4,26054923174725E-02 
479	 4,46487587308673E-02 
480	 4,58770884081733E-02 
481	 4,58456872887844E-02 
482	 0,04307027502767 
483	 4,05391559301372E-02 
484	 0,042795315466152 
485	 4,28566883550548E-02 
486	 0,040517654220559 
487	 4,26702723407433E-02 
488	 4,48813982412331E-02 
489	 4,38543740005766E-02 
490	 4,21532229924839E-02 
491	 4,11824409301105E-02 
492	 4,31752192376883E-02 
493	 4,48805598920693E-02 
494	 4,53432354350978E-02 
495	 4,66601562806646E-02 
496	 4,71880999185422E-02 
497	 0,045001121551306 
498	 4,33514670712838E-02 
499	 4,29755218161456E-02 
500	 4,34232264915014E-02 
501	 4,41776072919412E-02 
502	 4,47230166638265E-02 
503	 4,39219537347944E-02 
504	 4,24719737891922E-02 
505	 4,15761642125787E-02 
506	 4,32741755675369E-02 
507	 4,64896464935071E-02 
508	 4,36459220873396E-02 
509	 4,10799697134203E-02 
510	 4,44759693129865E-02 
511	 4,67383814314566E-02 
512	 4,68356877182539E-02 
513	 4,56048945455197E-02 
514	 4,49061170031673E-02 
515	 0,045495865621964 
516	 4,58785630633961E-02 
517	 4,57861029769747E-02 
518	 4,50160492286365E-02 
519	 4,58625933227952E-02 
520	 4,81475177454144E-02 
521	 4,91547753921152E-02 
522	 0,049161236260153 
523	 4,84367378942884E-02 
524	 4,70530991853541E-02 
525	 4,60604722959285E-02 
526	 0,047765065045378 
527	 4,90226495023325E-02 
528	 4,89350998336947E-02 
529	 4,93714338948296E-02 
530	 4,97064449712131E-02 
531	 4,91044003339042E-02 
532	 0,048891629159463 
533	 4,90082085039837E-02 
534	 4,79629210403478E-02 
535	 4,82079094584371E-02 
536	 5,06621453357231E-02 
537	 0,050211468640374 
538	 4,81263146162516E-02 
539	 4,78339822590423E-02 
540	 4,92987916110261E-02 
541	 5,18382652133667E-02 
542	 5,21975103146636E-02 
543	 5,15819446181492E-02 
544	 5,13642999125561E-02 
545	 5,15780135800223E-02 
546	 5,21563813694991E-02 
547	 5,28738094087347E-02 
548	 5,31015827480152E-02 
549	 5,25834336661794E-02 
550	 5,19418906725173E-02 
551	 5,16584861488467E-02 
552	 5,23134058068945E-02 
553	 5,33360808211324E-02 
554	 5,42592697960404E-02 
555	 5,39111565452514E-02 
556	 5,42285714675379E-02 
557	 5,65758571345871E-02 
558	 5,67649536590041E-02 
559	 5,53259654521643E-02 
560	 5,54154458117261E-02 
561	 5,61386127424574E-02 
562	 5,70598028173996E-02 
563	 5,72669407828095E-02 
564	 0,057304724856225 
565	 5,80041911339437E-02 
566	 5,88972966521454E-02 
567	 5,96699627836758E-02 
568	 5,95929548870073E-02 
569	 5,98287844603655E-02 
570	 6,10974764735123E-02 
571	 6,20136839558786E-02 
572	 6,23597406023765E-02 
573	 6,20742197953368E-02 
574	 6,23467014779222E-02 
575	 6,34337227802712E-02 
576	 6,40183774836794E-02 
577	 6,44211511971554E-02 
578	 6,50957627085436E-02 
579	 6,49636439695953E-02 
580	 6,44548489940166E-02 
581	 6,56715467787084E-02 
582	 6,68101913405535E-02 
583	 6,68816349421118E-02 
584	 6,69372032119994E-02 
585	 0,067045437944229 
586	 6,70487289160373E-02 
587	 6,73416568054645E-02 
588	 0,067985172066306 
589	 6,86857644060354E-02 
590	 6,92607751451809E-02 
591	 6,95444910768452E-02 
592	 6,93533619599172E-02 
593	 6,90491385957277E-02 
594	 6,95906646255011E-02 
595	 7,05619819989961E-02 
596	 7,16288538701761E-02 
597	 7,19272072344013E-02 
598	 7,20129668352199E-02 
599	 7,28577063512833E-02 
600	 7,36932734731305E-02 
601	 7,42105552507906E-02 
602	 7,41405427937292E-02 
603	 7,38335308090036E-02 
604	 7,36694315839828E-02 
605	 7,45690365887024E-02 
606	 7,59297218209953E-02 
607	 7,58678475761648E-02 
608	 0,075958118301715 
609	 7,66838251267677E-02 
610	 7,72904725341561E-02 
611	 7,76189479782826E-02 
612	 7,75588347900831E-02 
613	 7,79350125690432E-02 
614	 7,86420779797738E-02 
615	 7,85982125142992E-02 
616	 7,84406963857778E-02 
617	 7,85928497786558E-02 
618	 7,89562481582718E-02 
619	 7,92996211982984E-02 
620	 7,91267673139485E-02 
621	 7,95165903105248E-02 
622	 8,05103766358861E-02 
623	 8,04962263947041E-02 
624	 8,01555567992361E-02 
625	 8,02831474058774E-02 
626	 8,06401504851211E-02 
627	 0,081103090986529 
628	 8,14878355513095E-02 
629	 8,15905947414427E-02 
630	 8,13900378879877E-02 
631	 8,15323720630474E-02 
632	 8,20434125163222E-02 
633	 8,28380164281456E-02 
634	 8,35218419091285E-02 
635	 8,38998789388604E-02 
636	 8,37471481184722E-02 
637	 8,38811521679663E-02 
638	 8,49278720657263E-02 
639	 0,085515078401444 
640	 8,57915061815488E-02 
641	 8,69450481698903E-02 
642	 8,73642185220485E-02 
643	 8,67310197672607E-02 
644	 8,72874631507425E-02 
645	 8,83991923768843E-02 
646	 0,088977324520681 
647	 8,95331335978165E-02 
648	 9,00974356775372E-02 
649	 9,04351914974571E-02 
650	 9,06872607923366E-02 
651	 9,09595150725569E-02 
652	 9,12629988419187E-02 
653	 9,15703643879309E-02 
654	 0,091804643378065 
655	 9,21112080806411E-02 
656	 9,25331856922654E-02 
657	 9,30071389219333E-02 
658	 9,34992972443271E-02 
659	 9,39757892173409E-02 
660	 0,094376856207782 
661	 9,47042932257026E-02 
662	 9,50738778925103E-02 
663	 9,50674759351741E-02 
664	 9,46433122942937E-02 
665	 9,51067582766996E-02 
666	 9,58233473711077E-02 
667	 9,55433240559244E-02 
668	 9,58363613367691E-02 
669	 9,68054813930755E-02 
670	 0,097028445347017 
671	 9,71738230577548E-02 
672	 9,77708822404855E-02 
673	 9,81054625312626E-02 
674	 9,84010911093974E-02 
675	 9,95106142575348E-02 
676	 0,100526033441183 
677	 0,101104468257797 
678	 0,101410864494337 
679	 0,101741161179639 
680	 0,102423707446599 
681	 0,103285381133576 
682	 0,104259205721523 
683	 0,105285017346112 
684	 0,106299783086077 
685	 0,107268904212417 
686	 0,108244344164922 
687	 0,109306872363759 
688	 0,110604670375078 
689	 0,111710059867059 
690	 0,112592007963302 
691	 0,113662587722174 
692	 0,115154996946787 
693	 0,117179791409985 
694	 0,118461705122051 
695	 0,119132338744222 
696	 0,120157138336492 
697	 0,121400978256105 
698	 0,122785605617369 
699	 0,124029516678764 
700	 0,124975092368552 
701	 0,125468499952432 
702	 0,126359797325136 
703	 0,127627244145621 
704	 0,128366969832686 
705	 0,129207128039917 
706	 0,130437493900778 
707	 0,13091476550415 
708	 0,131061704237581 
709	 0,13194286953953 
710	 0,132911960157907 
711	 0,133792664286699 
712	 0,134755057212467 
713	 0,135471581882333 
714	 0,135702605999886 
715	 0,136550127357848 
716	 0,137779371744414 
717	 0,138198637783017 
718	 0,138617872800316 
719	 0,139349497417459 
720	 0,140111766830817 
721	 0,140938345323759 
722	 0,141904649487178 
723	 0,142495837337069 
724	 0,142794084015711 
725	 0,143504946156031 
726	 0,144304523303109 
727	 0,144995581372669 
728	 0,145744012979353 
729	 0,14641393950962 
730	 0,146721044458196 
731	 0,147143153891518 
732	 0,147725162685808 
733	 0,147915019939724 
734	 0,148236010582416 
735	 0,14910335749553 
736	 0,149594632063439 
737	 0,149795491796503 
738	 0,150347831691383 
739	 0,150926245103551 
740	 0,15141826833926 
741	 0,15184690863404 
742	 0,152313490010485 
743	 0,152928604797847 
744	 0,153433288083614 
745	 0,153883441298758 
746	 0,154716644539235 
747	 0,155201084008182 
748	 0,155061178967454 
749	 0,155346892829452 
750	 0,155919138905506 
751	 0,156353046269081 
752	 0,156981933678697 
753	 0,157733409305764 
754	 0,158096916448125 
755	 0,158175135714583 
756	 0,15812154085914 
757	 0,158539172440641 
758	 0,159275283087987 
759	 0,159827525938263 
760	 0,160269659975677 
761	 0,160663811103057 
762	 0,161345518155056 
763	 0,161790387721636 
764	 0,161557237574267 
765	 0,161830574499669 
766	 0,162524503424594 
767	 0,16282786807518 
768	 0,16292411962941 
769	 0,162912596429996 
770	 0,16295659364665 
771	 0,16339417331072 
772	 0,164555358931336 
773	 0,164797017312958 
774	 0,164279288251743 
775	 0,164735960592014 
776	 0,165223929291332 
777	 0,165313587564771 
778	 0,165547859838963 
779	 0,165812545286216 
780	 0,165859721773794 
781	 0,166006696313974 
782	 0,16625313808883 
783	 0,166312469943302 
784	 0,166212503734484 
785	 0,166021834420692 
786	 0,166129541273392 
787	 0,16639657905681 
788	 0,16650418630283 
789	 0,166178629322064 
790	 0,165549418279903 
791	 0,165504029731232 
792	 0,165656695052658 
793	 0,165673212891058 
794	 0,165703052266572 
795	 0,165615539084681 
796	 0,165072755898423 
797	 0,164711596829016 
798	 0,16473681491065 
799	 0,164959146052816 
800	 0,165012752556216 
801	 0,164617626289521 
802	 0,164676742629782 
803	 0,165096549683875 
804	 0,165211206328328 
805	 0,16516781669236 
806	 0,165122995434916 
807	 0,165642047210253 
808	 0,166464516435151 
809	 0,167241766314911 
810	 0,167599904418482 
811	 0,167719779584126 
812	 0,168336767490681 
813	 0,169078589777581 
814	 0,169737593527038 
815	 0,170030699717426 
816	 0,170364732635326 
817	 0,17122395285414 
818	 0,171557781310494 
819	 0,171345160109596 
820	 0,171238958867146 
821	 0,171295889935458 
822	 0,171538785832699 
823	 0,171739861608272 
824	 0,171869433733563 
825	 0,171925449911915 
826	 0,171786348614688 
827	 0,171526123775057 
828	 0,171440006634089 
829	 0,171457813851712 
830	 0,171447597006384 
831	 0,170777740492582 
832	 0,170010118401037 
833	 0,16998137671081 
834	 0,169998025009262 
835	 0,169881050119506 
836	 0,169617127828958 
837	 0,16953025516854 
838	 0,169656708647199 
839	 0,168889591149146 
840	 0,168025994427597 
841	 0,168331061862579 
842	 0,168219468996655 
843	 0,167679343163431 
844	 0,168097285145912 
845	 0,168326301496104 
846	 0,167821363621471 
847	 0,167556238651205 
848	 0,167334894075259 
849	 0,1667318708817 
850	 0,166609733134744 
851	 0,166938535957146 
852	 0,166882090297374 
853	 0,16678020811523 
854	 0,166827814889925 
855	 0,167134788976086 
856	 0,167278022186573 
857	 0,166687292494903 
858	 0,16616269609493 
859	 0,16606773312545 
860	 0,166922281693362 
861	 0,167333665137868 
862	 0,166671243987915 
863	 0,166083288303844 
864	 0,16592386634421 
865	 0,166457553327397 
866	 0,167106018963447 
867	 0,167634812147624 
868	 0,167886983705861 
869	 0,168058842971857 
870	 0,168233420197635 
871	 0,168204138470299 
872	 0,168370429173646 
873	 0,169194339167245 
874	 0,169897940242269 
875	 0,170240993940129 
876	 0,170104022679279 
877	 0,169992602631922 
878	 0,170048750150964 
879	 0,169536438483282 
880	 0,169304130555757 
881	 0,170226927509264 
882	 0,170501947663719 
883	 0,170245341642747 
884	 0,170778728266531 
885	 0,171314218427865 
886	 0,171526785612656 
887	 0,171212092060025 
888	 0,171026130679556 
889	 0,171557556529747 
890	 0,172095265641438 
891	 0,172440167154859 
892	 0,172452039756051 
893	 0,172591276945139 
894	 0,172926937562125 
895	 0,172992300085825 
896	 0,173014841783281 
897	 0,173199908620427 
898	 0,173638279391491 
899	 0,174033113879319 
900	 0,173827068580564 
901	 0,174027891056505 
902	 0,174529594122382 
903	 0,17363357395357 
904	 0,173513755249186 
905	 0,175193005725223 
906	 0,175423644423805 
907	 0,174970817282735 
908	 0,17548461727377 
909	 0,175402583352882 
910	 0,174978415769458 
911	 0,176259460397254 
912	 0,176895794589832 
913	 0,176000917912405 
914	 0,175465505733132 
915	 0,175496885930038 
916	 0,176078809505569 
917	 0,176271244106779 
918	 0,176068850275972 
919	 0,175934131571134 
920	 0,176323170675616 
921	 0,177216684062232 
922	 0,177757464031073 
923	 0,177489477485492 
924	 0,176242457207272 
925	 0,175835600276553 
926	 0,175824798085173 
927	 0,174822727017019 
928	 0,174277577036915 
929	 0,174396338189089 
930	 0,174456522738466 
931	 0,174025985943912 
932	 0,173029458411746 
933	 0,172933511028857 
934	 0,172955519318318 
935	 0,171919064492137 
936	 0,170940285328085 
937	 0,170084217978447 
938	 0,168721658873378 
939	 0,167794605277549 
940	 0,167638225989006 
941	 0,16800823694462 
942	 0,167803296734915 
943	 0,166135280112336 
944	 0,163824834809534 
945	 0,162489639701595 
946	 0,16484248874209 
947	 0,164458869572519 
948	 0,160935804282481 
949	 0,160314056823118 
950	 0,159596620749919 
951	 0,157416378949576 
952	 0,156604291584015 
953	 0,156321233558764 
954	 0,155231493335327 
955	 0,153811429271764 
956	 0,152580267689777 
957	 0,152912920824118 
958	 0,151172690836658 
959	 0,147611376254162 
960	 0,149654769093272 
961	 0,15126207254923 
962	 0,14822299016766 
963	 0,147623263384177 
964	 0,148398874210185 
965	 0,147457766841449 
966	 0,147066823705011 
967	 0,147291827072585 
968	 0,146697120492099 
969	 0,146080478303101 
970	 0,145754303423568 
971	 0,145426735098259 
972	 0,145371948397449 
973	 0,145848996479917 
974	 0,147080745917612 
975	 0,147759052056738 
976	 0,145606225578702 
977	 0,143223571623498 
978	 0,142221874539241 
979	 0,145221996794748 
980	 0,148051634565181 
981	 0,148155806163651 
982	 0,144364235908696 
983	 0,141707278569871 
984	 0,144992506029515 
985	 0,148141108362689 
986	 0,14889416861879 
987	 0,145159862611153 
988	 0,144258315597736 
989	 0,147078799401908 
990	 0,148306874440706 
991	 0,147353525237833 
992	 0,145008887700712 
993	 0,148396864381407 
994	 0,151913824458079 
995	 0,149555010208109 
996	 0,14760348254608 
997	 0,147372318184081 
998	 0,149000467520552 
999	 0,150610029097535 
1000	 0,151619864197771 
1001	 0,152567106976488 
1002	 0,152955620402712 
1003	 0,152685392208344 
1004	 0,152583797328115 
1005	 0,15300407767544 
1006	 0,154219100561875 
1007	 0,156441289286364 
1008	 0,158033994474223 
1009	 0,156307427511796 
1010	 0,153808689757795 
1011	 0,152390264585959 
1012	 0,155283467754863 
1013	 0,159082739359152 
1014	 0,161175877951841 
1015	 0,15657079613602 
1016	 0,153100394355788 
1017	 0,156893183863676 
1018	 0,158805849180424 
1019	 0,15906070050678 
1020	 0,159960188846253 
1021	 0,157653996122788 
1022	 0,155046920307824 
1023	 0,162852416796263 
1024	 0,168008379426518 
1025	 0,166709470500132 
1026	 0,163864836533863 
1027	 0,162282711122048 
1028	 0,16370066083411 
1029	 0,165807412305715 
1030	 0,167793087120164 
1031	 0,168951599631398 
1032	 0,16781723191687 
1033	 0,166447500319823 
1034	 0,169545711090184 
1035	 0,16996791790343 
1036	 0,167201367151467 
1037	 0,166744397620631 
1038	 0,167193389236175 
1039	 0,168769958079242 
1040	 0,17627542072276 
1041	 0,179842624313033 
1042	 0,172259972363364 
1043	 0,166449318783709 
1044	 0,16494262518988 
1045	 0,167977186239455 
1046	 0,165522127586801 
1047	 0,16285156359639 
1048	 0,178762253050264 
1049	 0,178339768577375 
1050	 0,160526689255113 
1051	 0,165354222404666 
1052	 0,169940203182415 
1053	 0,165606598589732 
1054	 0,173213894336021 
1055	 0,179332436165615 
1056	 0,173721707530061 
1057	 0,178255793970015 
1058	 0,18700626678636 
1059	 0,187882314505481 
1060	 0,182143534614117 
1061	 0,173217429066124 
1062	 0,16801050813048 
1063	 0,171539787612573 
1064	 0,178617318329242 
1065	 0,162969104728953 
1066	 0,159390987646167 
1067	 0,177345409291319 
1068	 0,176460921533056 
1069	 0,170842010621172 
1070	 0,171595307269819 
1071	 0,169221653016608 
1072	 0,165019977163594 
1073	 0,162290361860442 
1074	 0,170740134808663 
1075	 0,178676382129227 
