Wavelength	GOOSEBAR00275.asd
325	 0,478378673784609 
326	 0,522781701186714 
327	 0,456621839921576 
328	 0,278729492479698 
329	 0,341827511808269 
330	 0,49902528027528 
331	 0,643655605132084 
332	 0,593104891060232 
333	 0,458264988159043 
334	 0,327096053719308 
335	 0,325938748186366 
336	 0,442910437543052 
337	 0,395588962831745 
338	 0,306367823534941 
339	 0,288574674969017 
340	 0,2703557803867 
341	 0,272931375156433 
342	 0,358874798628609 
343	 0,388496103237798 
344	 0,334536635768381 
345	 0,246100517732529 
346	 0,188175375511557 
347	 0,218054588934957 
348	 0,260796630051049 
349	 0,279615017070684 
350	 0,228029545866521 
351	 0,189703033514398 
352	 0,192496255189768 
353	 0,208781201876666 
354	 0,235159795911979 
355	 0,275448599953677 
356	 0,267843614790283 
357	 0,221004283328171 
358	 0,206996535461039 
359	 0,220088008252374 
360	 0,248589643481202 
361	 0,24944394685774 
362	 0,233547814810203 
363	 0,222705691581208 
364	 0,217841370123159 
365	 0,216239168488037 
366	 0,205912743408168 
367	 0,201347364154145 
368	 0,209611732635629 
369	 0,221460632094077 
370	 0,230162123490708 
371	 0,230290759752293 
372	 0,224650902065014 
373	 0,213194004003508 
374	 0,190901805038396 
375	 0,184664797988467 
376	 0,208511654631089 
377	 0,222040529258194 
378	 0,220524810123742 
379	 0,214727044340823 
380	 0,206420479943983 
381	 0,197260804668091 
382	 0,178438573868661 
383	 0,178256877982458 
384	 0,220160635488841 
385	 0,224195792302857 
386	 0,199716015882298 
387	 0,20654998757459 
388	 0,210985319133404 
389	 0,203362581315948 
390	 0,207539374620594 
391	 0,211078596369891 
392	 0,198343007439273 
393	 0,191600561052576 
394	 0,193237225638707 
395	 0,194080108731519 
396	 0,197202451611395 
397	 0,203266931617805 
398	 0,210362058706146 
399	 0,211162287960569 
400	 0,194336773060789 
401	 0,186918299349652 
402	 0,192002740502295 
403	 0,194871228055114 
404	 0,194997462791029 
405	 0,192560627639355 
406	 0,191648554316653 
407	 0,190713087342539 
408	 0,18545077226044 
409	 0,178131004068237 
410	 0,172536819611868 
411	 0,179965859561088 
412	 0,188493490712658 
413	 0,186998489428174 
414	 0,181056188132632 
415	 0,176716412958749 
416	 0,186912404423145 
417	 0,192637217519623 
418	 0,187473934510941 
419	 0,185327509195168 
420	 0,184687973930631 
421	 0,182150460555096 
422	 0,180145681608024 
423	 0,178838884178699 
424	 0,177100353392248 
425	 0,175373443703374 
426	 0,174184513118649 
427	 0,175054883512443 
428	 0,17865489851961 
429	 0,186465996156612 
430	 0,19031733341622 
431	 0,188195443541957 
432	 0,183524442136581 
433	 0,18098086097594 
434	 0,184005030912909 
435	 0,182447721304089 
436	 0,177923012299158 
437	 0,179283267371477 
438	 0,180739881204428 
439	 0,180393163261641 
440	 0,181502751820378 
441	 0,183042363191663 
442	 0,183422427933261 
443	 0,181952999363851 
444	 0,180263433174337 
445	 0,184289805181629 
446	 0,187996935453591 
447	 0,187763492018227 
448	 0,186377440244072 
449	 0,186477463640204 
450	 0,192212283910701 
451	 0,197440824902958 
452	 0,199678921496964 
453	 0,197813366809781 
454	 0,196451975519961 
455	 0,199589850396077 
456	 0,199752327575269 
457	 0,198136490498761 
458	 0,201748930767858 
459	 0,205220683724546 
460	 0,206368250154877 
461	 0,206970841743322 
462	 0,207693756998087 
463	 0,209192043291765 
464	 0,208925441255912 
465	 0,206981680781375 
466	 0,205597610054661 
467	 0,20602654499923 
468	 0,208490720085184 
469	 0,206632085924312 
470	 0,203715880109473 
471	 0,208264400740081 
472	 0,210996713010903 
473	 0,20984788107696 
474	 0,210160203116927 
475	 0,210241416092917 
476	 0,208306262655735 
477	 0,207739787987731 
478	 0,209132771987062 
479	 0,212657903275791 
480	 0,213620245863632 
481	 0,210545718318665 
482	 0,210283610255572 
483	 0,212110853978196 
484	 0,213945064489208 
485	 0,212195493042693 
486	 0,207801779438079 
487	 0,208471287292129 
488	 0,20987053204952 
489	 0,208727179381511 
490	 0,207505915020797 
491	 0,20710193073384 
492	 0,208705154573676 
493	 0,210211614645302 
494	 0,210964466064411 
495	 0,212522628039772 
496	 0,212628843776392 
497	 0,208768693728965 
498	 0,207708374113783 
499	 0,209857005795531 
500	 0,211353366086283 
501	 0,212261638295898 
502	 0,212481486735787 
503	 0,211861540354932 
504	 0,210537019666192 
505	 0,208412679537823 
506	 0,209128039190255 
507	 0,212541776574845 
508	 0,213110024262845 
509	 0,212401268780732 
510	 0,212107457018408 
511	 0,212441201957906 
512	 0,213339029811015 
513	 0,214567159691226 
514	 0,214955397176412 
515	 0,214357127843224 
516	 0,215702122917718 
517	 0,217187692643678 
518	 0,215889071568626 
519	 0,215922665225801 
520	 0,217782526909699 
521	 0,219438887062093 
522	 0,219819936593243 
523	 0,218327319275649 
524	 0,21683012713892 
525	 0,216202375723195 
526	 0,217773054585955 
527	 0,218528580642872 
528	 0,217614535927095 
529	 0,216941487246311 
530	 0,216523015241191 
531	 0,216201303266783 
532	 0,216949299532489 
533	 0,218111691311978 
534	 0,216868631841099 
535	 0,21641028431535 
536	 0,218241020887189 
537	 0,218096405936826 
538	 0,216731727882207 
539	 0,216471766038273 
540	 0,217296774595599 
541	 0,218884918442637 
542	 0,219682327461622 
543	 0,219614298615006 
544	 0,218771730126735 
545	 0,218562592536219 
546	 0,219003866293588 
547	 0,219230365917864 
548	 0,219307060760066 
549	 0,219198010985303 
550	 0,218547127605143 
551	 0,218126362508105 
552	 0,219180457513867 
553	 0,21996191114948 
554	 0,220051387114209 
555	 0,219912778177291 
556	 0,220265687629463 
557	 0,221602215219677 
558	 0,222406827137751 
559	 0,222657805351793 
560	 0,222978937485112 
561	 0,223704523230548 
562	 0,224813425830257 
563	 0,225065320348571 
564	 0,22509725541025 
565	 0,225877167922545 
566	 0,22723775138748 
567	 0,228833907759293 
568	 0,229588086005893 
569	 0,230410987244345 
570	 0,231897760298273 
571	 0,233139736979832 
572	 0,234358072715107 
573	 0,236407715246149 
574	 0,23813673837147 
575	 0,239199392676498 
576	 0,240069034198624 
577	 0,241375911262987 
578	 0,243744731453916 
579	 0,245030843653747 
580	 0,245312469993335 
581	 0,246474243191376 
582	 0,248026059178843 
583	 0,249546709734566 
584	 0,250021189254023 
585	 0,249912954240888 
586	 0,250275188468688 
587	 0,250571717203136 
588	 0,250675953278654 
589	 0,250668248122369 
590	 0,250572979101309 
591	 0,250424405364457 
592	 0,250511696028048 
593	 0,250573201688785 
594	 0,249634134151031 
595	 0,249113007665358 
596	 0,249609188150167 
597	 0,250244848383478 
598	 0,25066205460535 
599	 0,250518604246687 
600	 0,249978768949591 
601	 0,249191742810202 
602	 0,248527737437466 
603	 0,247676637555243 
604	 0,24646924688672 
605	 0,245789714657705 
606	 0,245745659109496 
607	 0,246388470827361 
608	 0,246296572345146 
609	 0,245041567098145 
610	 0,243878523039515 
611	 0,243092660578916 
612	 0,242873578192402 
613	 0,242679914724173 
614	 0,242174951278326 
615	 0,240672664797193 
616	 0,239753665134237 
617	 0,240291127729026 
618	 0,240245470618719 
619	 0,239773147586088 
620	 0,239800791115851 
621	 0,239826269330309 
622	 0,239791441086182 
623	 0,240148189965282 
624	 0,240558145076126 
625	 0,240665635171083 
626	 0,240928663563918 
627	 0,2414108086542 
628	 0,24204876664454 
629	 0,242449760299398 
630	 0,242563499428753 
631	 0,243625206480403 
632	 0,245098791979933 
633	 0,245898419478234 
634	 0,246727586309645 
635	 0,24776364831124 
636	 0,248894187816892 
637	 0,2501121094774 
638	 0,251393921341646 
639	 0,252550512420164 
640	 0,253654392001997 
641	 0,255076318693786 
642	 0,255990600124597 
643	 0,25624694907718 
644	 0,257151086420222 
645	 0,258180628241771 
646	 0,258515858259047 
647	 0,258737046483871 
648	 0,258835065439983 
649	 0,258356174860763 
650	 0,257480163535224 
651	 0,256375761667636 
652	 0,255341965211335 
653	 0,254388948159727 
654	 0,253436913398839 
655	 0,252338932013629 
656	 0,250830961861727 
657	 0,248113991155736 
658	 0,244924426613344 
659	 0,242065974673813 
660	 0,239053119526285 
661	 0,235880429222964 
662	 0,23289790606223 
663	 0,229216796316338 
664	 0,224721141223048 
665	 0,221892031986149 
666	 0,219998298451591 
667	 0,217418861308602 
668	 0,215159938328027 
669	 0,213354016993298 
670	 0,211431288084561 
671	 0,209898530264347 
672	 0,209123535868899 
673	 0,208382854174322 
674	 0,207663216174069 
675	 0,207254550559656 
676	 0,207101027280637 
677	 0,207148234206842 
678	 0,207237674792257 
679	 0,207275625051148 
680	 0,207183339017426 
681	 0,207987221612849 
682	 0,209776113161405 
683	 0,211907725783695 
684	 0,214468631741839 
685	 0,217496854902006 
686	 0,220867216628234 
687	 0,224919039602964 
688	 0,230259747827311 
689	 0,236264389369247 
690	 0,242732176856669 
691	 0,249710263640696 
692	 0,257404351203469 
693	 0,265982778042377 
694	 0,275132045597387 
695	 0,284513224981045 
696	 0,293461043417043 
697	 0,302886272602467 
698	 0,312997212170039 
699	 0,32271877635449 
700	 0,331699012635765 
701	 0,339646255548092 
702	 0,347465245770878 
703	 0,355054265293288 
704	 0,361178314054514 
705	 0,36699391173021 
706	 0,373146088289749 
707	 0,378278085009978 
708	 0,382728725290581 
709	 0,387482646962334 
710	 0,391920988928314 
711	 0,395926964352846 
712	 0,399810408125373 
713	 0,403306186449049 
714	 0,406216563978379 
715	 0,409272670775556 
716	 0,412405075226331 
717	 0,415015564694601 
718	 0,417638441061171 
719	 0,42039191272423 
720	 0,422600336908068 
721	 0,424493000160717 
722	 0,426449938548758 
723	 0,42823141227356 
724	 0,429858047145358 
725	 0,431595949897449 
726	 0,433067642747186 
727	 0,434097517163141 
728	 0,435345076734267 
729	 0,436630044131289 
730	 0,4374548694576 
731	 0,438242640201293 
732	 0,43904848587505 
733	 0,439509634942423 
734	 0,439959041757748 
735	 0,440685777477523 
736	 0,441441771956092 
737	 0,442144570435557 
738	 0,442749040349173 
739	 0,443115597307078 
740	 0,443288618557316 
741	 0,443795248408416 
742	 0,444492815677964 
743	 0,445154809891044 
744	 0,445462620474799 
745	 0,445546688077739 
746	 0,445999108657323 
747	 0,446764184134247 
748	 0,447689880320055 
749	 0,447905740903032 
750	 0,447794437275243 
751	 0,448096377122194 
752	 0,448654397503862 
753	 0,449292639498501 
754	 0,449516562021309 
755	 0,449496721568062 
756	 0,44941713673341 
757	 0,449687015384049 
758	 0,45017935766614 
759	 0,450514185577893 
760	 0,450677398989545 
761	 0,450718697551429 
762	 0,45091338097001 
763	 0,451336002225591 
764	 0,45200256874703 
765	 0,452331311821808 
766	 0,452306526559866 
767	 0,452162749523349 
768	 0,452235409084286 
769	 0,452630455645605 
770	 0,452947035332284 
771	 0,45320700535059 
772	 0,45347763524754 
773	 0,453689873778052 
774	 0,453831064522281 
775	 0,453878479967473 
776	 0,454084883496489 
777	 0,454477146429634 
778	 0,454220689069536 
779	 0,453847029550641 
780	 0,454255063401524 
781	 0,454662993886515 
782	 0,454867711470265 
783	 0,454954082111321 
784	 0,454980429256127 
785	 0,45499772684214 
786	 0,455007336267688 
787	 0,455151588447641 
788	 0,455734900240743 
789	 0,455473133053894 
790	 0,45444912504421 
791	 0,454708507942219 
792	 0,455239333343071 
793	 0,455200998686285 
794	 0,45518280104568 
795	 0,455127720217832 
796	 0,454660482346196 
797	 0,454748764268611 
798	 0,455446190544935 
799	 0,455303147476686 
800	 0,454983500704974 
801	 0,455168024728757 
802	 0,455457910939913 
803	 0,455758435924067 
804	 0,456022004273984 
805	 0,45623500072642 
806	 0,456389811520375 
807	 0,456469222673094 
808	 0,45667362030653 
809	 0,457190774160195 
810	 0,457435046722679 
811	 0,457551511181473 
812	 0,458364175008495 
813	 0,4588932742562 
814	 0,458779025074009 
815	 0,458628505828778 
816	 0,458524672988658 
817	 0,4585078158971 
818	 0,458939335955151 
819	 0,45954913881132 
820	 0,459323125252881 
821	 0,459017084212817 
822	 0,458988300100686 
823	 0,458984557023229 
824	 0,459107161061285 
825	 0,459496373277671 
826	 0,459284471228488 
827	 0,458696698439999 
828	 0,459209335185855 
829	 0,459366517152889 
830	 0,458576999977883 
831	 0,458265009237305 
832	 0,458437056103801 
833	 0,45887482293061 
834	 0,458753637620106 
835	 0,45821271137508 
836	 0,458533836600578 
837	 0,458628015207974 
838	 0,458046914766223 
839	 0,45805649942389 
840	 0,4582942384789 
841	 0,458055942928961 
842	 0,458255505993034 
843	 0,458743415197364 
844	 0,45826327285997 
845	 0,457850291129565 
846	 0,458037262937895 
847	 0,458256908742021 
848	 0,458319407482125 
849	 0,458059195293601 
850	 0,457752403213761 
851	 0,457519671660837 
852	 0,457463306167862 
853	 0,457450721000237 
854	 0,457418277251415 
855	 0,457512019261755 
856	 0,45754311270085 
857	 0,457246447370284 
858	 0,456993729489439 
859	 0,456952145734312 
860	 0,457349705450879 
861	 0,457619463011822 
862	 0,45743432573251 
863	 0,456790187665785 
864	 0,456390652528006 
865	 0,457101106190653 
866	 0,457437900041201 
867	 0,457252427883741 
868	 0,457227581398378 
869	 0,457430313471986 
870	 0,457876775125774 
871	 0,458295510096713 
872	 0,458705837688963 
873	 0,459160529489044 
874	 0,459522533707312 
875	 0,459744071173324 
876	 0,459842085342852 
877	 0,459564288980347 
878	 0,45905587683005 
879	 0,45972355427295 
880	 0,460447726291753 
881	 0,459976191485432 
882	 0,459793424551399 
883	 0,460195062801282 
884	 0,46115467152674 
885	 0,462161054701353 
886	 0,462817820145131 
887	 0,462401367789281 
888	 0,462123572264927 
889	 0,463034208298382 
890	 0,463050215914329 
891	 0,462430662743585 
892	 0,462567448190306 
893	 0,462682168532429 
894	 0,462660096287663 
895	 0,46298086411594 
896	 0,463594395214978 
897	 0,464333000956899 
898	 0,464224085109123 
899	 0,463567825711168 
900	 0,463147112856931 
901	 0,463301330170284 
902	 0,463791207736164 
903	 0,463074626768687 
904	 0,463195320880182 
905	 0,464974095233347 
906	 0,464383698645559 
907	 0,462957567968433 
908	 0,463540907294201 
909	 0,463951780076246 
910	 0,463960728786434 
911	 0,464629097383447 
912	 0,464618070270759 
913	 0,463629458431681 
914	 0,463912918733439 
915	 0,464548838724623 
916	 0,464317258999779 
917	 0,463838571823705 
918	 0,463454439636063 
919	 0,46359831928131 
920	 0,464532653499841 
921	 0,465957744407924 
922	 0,466102389795067 
923	 0,465995045549466 
924	 0,4665227499913 
925	 0,466994142640568 
926	 0,467089386308019 
927	 0,46640854446402 
928	 0,466124566174372 
929	 0,466333436494543 
930	 0,466021782148482 
931	 0,465475477738254 
932	 0,464938611021521 
933	 0,464661753852287 
934	 0,465116518370607 
935	 0,466756037982326 
936	 0,46708603720508 
937	 0,46598492917136 
938	 0,464680470158407 
939	 0,464350611575386 
940	 0,465355378057262 
941	 0,466547586232685 
942	 0,467290568465688 
943	 0,467005189651004 
944	 0,464803544440969 
945	 0,462945098835635 
946	 0,465816923178498 
947	 0,466307784538273 
948	 0,46374245947691 
949	 0,463746625145761 
950	 0,463996658301357 
951	 0,463396902853638 
952	 0,463881309500574 
953	 0,46457666717007 
954	 0,464246012845092 
955	 0,463588397616606 
956	 0,46317186189238 
957	 0,464267720823623 
958	 0,463839672131421 
959	 0,461595053431997 
960	 0,461295104492495 
961	 0,461946235296768 
962	 0,462611675350163 
963	 0,46323307480239 
964	 0,463005789117852 
965	 0,460859746706444 
966	 0,460521155121383 
967	 0,461989973576345 
968	 0,462112969049381 
969	 0,462061069271305 
970	 0,462189125956571 
971	 0,461695977461827 
972	 0,462284505311382 
973	 0,465072694255146 
974	 0,464806477210713 
975	 0,462660772061148 
976	 0,46233551503331 
977	 0,462319306221929 
978	 0,462395160435018 
979	 0,46305896183212 
980	 0,463400054390639 
981	 0,462939562297103 
982	 0,461788384360186 
983	 0,461148253013815 
984	 0,462077419590378 
985	 0,462621025914069 
986	 0,462040355605348 
987	 0,459514400897108 
988	 0,460587515834882 
989	 0,464265935887899 
990	 0,460225770280955 
991	 0,458498326232779 
992	 0,46301245628301 
993	 0,46355518936697 
994	 0,462652955104436 
995	 0,463665689040267 
996	 0,464000694408666 
997	 0,463808066969632 
998	 0,464214460192647 
999	 0,464017551152739 
1000	 0,463857389765789 
1001	 0,467452341325575 
1002	 0,469129847694876 
1003	 0,466600907167528 
1004	 0,464901493325464 
1005	 0,46513730074995 
1006	 0,467694364001852 
1007	 0,468807695858628 
1008	 0,468951108270685 
1009	 0,470283611292086 
1010	 0,47069885078284 
1011	 0,469858496336511 
1012	 0,468314134654349 
1013	 0,468184864084531 
1014	 0,469872604937838 
1015	 0,470036585591351 
1016	 0,469635048002006 
1017	 0,469742996831737 
1018	 0,470973096286866 
1019	 0,472094261739243 
1020	 0,471181698953893 
1021	 0,470538132672076 
1022	 0,470773458257857 
1023	 0,471794153121243 
1024	 0,473733948742382 
1025	 0,476218529609766 
1026	 0,4780068115816 
1027	 0,477511521012605 
1028	 0,47425739112666 
1029	 0,471234430617701 
1030	 0,473110751672239 
1031	 0,483395998638824 
1032	 0,481793945844461 
1033	 0,473546523284077 
1034	 0,477617116579061 
1035	 0,479999460048866 
1036	 0,4782570948318 
1037	 0,477792336797179 
1038	 0,476978491401827 
1039	 0,47588171628931 
1040	 0,478358817498638 
1041	 0,478769542706512 
1042	 0,473476526243175 
1043	 0,474546531041588 
1044	 0,476716557148516 
1045	 0,471045002574594 
1046	 0,46935469706504 
1047	 0,471597915150313 
1048	 0,471625696321172 
1049	 0,471330926968531 
1050	 0,470917818263528 
1051	 0,468441734413202 
1052	 0,472752920861531 
1053	 0,4851659842939 
1054	 0,487640280308362 
1055	 0,482950909249314 
1056	 0,476244381120041 
1057	 0,48046955488811 
1058	 0,488018179126023 
1059	 0,485955140760993 
1060	 0,476292198685217 
1061	 0,46811851463706 
1062	 0,481132556720257 
1063	 0,485147316708632 
1064	 0,476675567583232 
1065	 0,478790788333163 
1066	 0,484567384072002 
1067	 0,488746992642522 
1068	 0,481692433845424 
1069	 0,476771238241117 
1070	 0,484090111935381 
1071	 0,499338662838124 
1072	 0,50461460012563 
1073	 0,482693133824793 
1074	 0,477870480109563 
1075	 0,48720708315283 
