Wavelength	GOOSEBAR00469.asd
325	-0,108500687441395 
326	 0,247962845359878 
327	 0,252623331078189 
328	-6,76553261607056E-02 
329	 2,69558963593601E-02 
330	 0,243135336885337 
331	 0,350073633935195 
332	 0,276588871591979 
333	 0,131165399476505 
334	-8,95911589389567E-02 
335	-5,13419491454212E-02 
336	 0,210566672073374 
337	 0,170450918434114 
338	 4,88621053401151E-02 
339	 3,22378326828776E-02 
340	 8,29467563486403E-02 
341	 0,145933236849448 
342	 0,174214206457843 
343	 0,16234529114833 
344	 0,119528329615094 
345	 0,113694418584594 
346	 0,111780385043371 
347	 7,62800987869784E-02 
348	 0,057419894146139 
349	 5,27042656399315E-02 
350	 3,36407643413049E-02 
351	 6,06192838839412E-03 
352	-1,66100453837548E-02 
353	 4,40240064094617E-02 
354	 0,104120887720287 
355	 0,087840411785501 
356	 4,82900901896351E-02 
357	 1,63277979823132E-02 
358	 5,14267054511706E-02 
359	 7,74818940303023E-02 
360	 6,63859518825525E-02 
361	 7,81068069861173E-02 
362	 0,103638169400902 
363	 0,121395008680251 
364	 0,107501055681667 
365	 6,65376395040715E-02 
366	 4,89565763933179E-02 
367	 4,38564303814525E-02 
368	 4,24417836190915E-02 
369	 0,056009403726756 
370	 7,21221466466715E-02 
371	 7,34338721995591E-02 
372	 4,95669512451151E-02 
373	 1,39355955977385E-02 
374	 0,037705147305337 
375	 6,33772397258853E-02 
376	 5,60930897731666E-02 
377	 6,88323416210567E-02 
378	 8,60715527783076E-02 
379	 0,059649034119401 
380	 4,97824546298558E-02 
381	 6,72778051810638E-02 
382	 5,46808015068761E-02 
383	 4,07647090186879E-02 
384	 5,48762101908648E-02 
385	 6,58454941188302E-02 
386	 6,79427854196853E-02 
387	 6,29934609407982E-02 
388	 4,95144957920768E-02 
389	 3,25745015666053E-02 
390	 3,42464527117757E-02 
391	 4,36847333211961E-02 
392	 4,69060658296849E-02 
393	 4,71116978970363E-02 
394	 4,60066213576537E-02 
395	 4,74468745457021E-02 
396	 4,87739995180479E-02 
397	 4,84503108209475E-02 
398	 4,66281555610786E-02 
399	 4,32640086389741E-02 
400	 3,82464895362784E-02 
401	 3,76176291208804E-02 
402	 4,21130134151356E-02 
403	 4,94252478859939E-02 
404	 5,33399868246069E-02 
405	 5,03657755921337E-02 
406	 0,047477916531081 
407	 4,60494592421891E-02 
408	 4,69269421312445E-02 
409	 4,31050220505282E-02 
410	 3,50540178837532E-02 
411	 3,37030547393823E-02 
412	 3,69802246879464E-02 
413	 4,22138801380845E-02 
414	 4,61107126611164E-02 
415	 4,85823985642118E-02 
416	 5,21488116953478E-02 
417	 5,32580073155683E-02 
418	 0,050533549877856 
419	 4,40460016456496E-02 
420	 4,08056991607696E-02 
421	 4,96003935203281E-02 
422	 4,79700166040079E-02 
423	 0,037378969972864 
424	 4,02409023303955E-02 
425	 4,45147593898411E-02 
426	 0,043550962978039 
427	 4,65205582408585E-02 
428	 5,01009727748007E-02 
429	 4,62325985354028E-02 
430	 4,55081558796608E-02 
431	 4,90562522473202E-02 
432	 4,68374775564213E-02 
433	 4,51352992835713E-02 
434	 4,93049599959543E-02 
435	 0,049205642526632 
436	 4,57720975493823E-02 
437	 4,60680919719196E-02 
438	 4,57592700770536E-02 
439	 4,37353639158459E-02 
440	 4,36673184386229E-02 
441	 4,42012691299143E-02 
442	 4,32731998186716E-02 
443	 4,25281700482112E-02 
444	 4,28444416440338E-02 
445	 4,61581324795094E-02 
446	 4,77518037410293E-02 
447	 4,51345703517471E-02 
448	 0,043822058008001 
449	 4,40446568047919E-02 
450	 4,47293536326365E-02 
451	 4,50216735082779E-02 
452	 4,43699796770727E-02 
453	 4,16881238188749E-02 
454	 4,05673725052923E-02 
455	 4,40301663262833E-02 
456	 4,52564784587371E-02 
457	 4,44657325056912E-02 
458	 4,61165811646724E-02 
459	 4,66351342775769E-02 
460	 0,044862254809247 
461	 0,042822586455908 
462	 4,29846654427951E-02 
463	 4,82831718887595E-02 
464	 4,88906413425129E-02 
465	 4,49307770152328E-02 
466	 4,62526388767803E-02 
467	 4,76223809630477E-02 
468	 4,56360554977773E-02 
469	 4,23836223425421E-02 
470	 3,94784311761852E-02 
471	 3,90048927568012E-02 
472	 4,14916804227171E-02 
473	 4,58915629572964E-02 
474	 4,69745342195436E-02 
475	 4,64578789202488E-02 
476	 4,63717358841484E-02 
477	 4,64580691471486E-02 
478	 4,64454066761824E-02 
479	 4,55446743211383E-02 
480	 4,43859568779463E-02 
481	 0,043481869821384 
482	 4,38701758004354E-02 
483	 4,49458776080684E-02 
484	 4,57370369181013E-02 
485	 0,044843721996518 
486	 4,27663668262624E-02 
487	 0,04286196933864 
488	 4,37416192073075E-02 
489	 4,43346599817669E-02 
490	 4,55778547906587E-02 
491	 4,68637247322538E-02 
492	 4,64146656913761E-02 
493	 4,69466544315738E-02 
494	 0,048761184255246 
495	 4,83301958924907E-02 
496	 4,64505142316218E-02 
497	 4,43397036329266E-02 
498	 4,35349368600379E-02 
499	 4,39837433633436E-02 
500	 4,42239426816134E-02 
501	 4,41220692568193E-02 
502	 4,36207201936096E-02 
503	 4,33192717846638E-02 
504	 4,28706683702074E-02 
505	 4,12831223091755E-02 
506	 4,22347082343566E-02 
507	 4,52791116679835E-02 
508	 0,043597814559848 
509	 4,11154397071273E-02 
510	 4,15964592981393E-02 
511	 4,32212824016059E-02 
512	 4,45479497764081E-02 
513	 4,25451799971813E-02 
514	 4,16039904779664E-02 
515	 4,32978504901164E-02 
516	 0,044243515688033 
517	 4,43434187975205E-02 
518	 4,39756600451565E-02 
519	 4,32870247683442E-02 
520	 4,28424720361083E-02 
521	 4,44448756136746E-02 
522	 0,045444560466005 
523	 4,40702785063434E-02 
524	 0,043070851122319 
525	 4,27197981940189E-02 
526	 4,25246495182025E-02 
527	 4,26558695048804E-02 
528	 4,30009571674421E-02 
529	 4,28186538987679E-02 
530	 4,25634763298081E-02 
531	 4,28083391517305E-02 
532	 4,35527574688692E-02 
533	 4,42412916443533E-02 
534	 0,04305032057118 
535	 4,25350573734103E-02 
536	 4,39133686085132E-02 
537	 4,37172969169934E-02 
538	 4,26906512573119E-02 
539	 0,043029052182881 
540	 0,043706349365546 
541	 4,43927734806661E-02 
542	 4,50982707784125E-02 
543	 4,53437748333687E-02 
544	 4,47326326229464E-02 
545	 4,46283515956138E-02 
546	 4,48712391763029E-02 
547	 4,41302170425091E-02 
548	 0,043463813869755 
549	 4,33631323346588E-02 
550	 4,33662074248924E-02 
551	 4,34547042710313E-02 
552	 4,37144867731564E-02 
553	 4,34580628340602E-02 
554	 4,27055531669859E-02 
555	 4,22213620673706E-02 
556	 4,25153644336159E-02 
557	 4,38483668269292E-02 
558	 4,43276741126925E-02 
559	 4,37812230054846E-02 
560	 4,25167776967229E-02 
561	 4,23486209947493E-02 
562	 4,36260356180665E-02 
563	 4,30966126152113E-02 
564	 4,21870886923488E-02 
565	 4,31460732708955E-02 
566	 4,34535418034254E-02 
567	 4,29513004755254E-02 
568	 4,35532343671975E-02 
569	 4,37062891463705E-02 
570	 0,042553411725737 
571	 4,29503672402174E-02 
572	 4,42016142698494E-02 
573	 4,38851591878494E-02 
574	 4,31160165584917E-02 
575	 4,25668619838047E-02 
576	 4,37785939590197E-02 
577	 4,50330100806162E-02 
578	 4,43537364923651E-02 
579	 4,45020931828019E-02 
580	 4,54040103247821E-02 
581	 4,47195764666515E-02 
582	 4,42493895769888E-02 
583	 4,48701093476676E-02 
584	 4,48461671816403E-02 
585	 4,44146420532295E-02 
586	 4,43926102769275E-02 
587	 4,43255652447171E-02 
588	 4,41548664888653E-02 
589	 4,42055762329585E-02 
590	 4,41743351537164E-02 
591	 4,37979287770127E-02 
592	 4,37570533584662E-02 
593	 4,38825991476538E-02 
594	 4,31866585539095E-02 
595	 4,32350019203379E-02 
596	 4,44420470621468E-02 
597	 4,42948393779359E-02 
598	 4,36017963717529E-02 
599	 0,043964070204868 
600	 4,43759785891483E-02 
601	 4,45520959602424E-02 
602	 4,45636536319334E-02 
603	 4,41201619178487E-02 
604	 4,31342787716667E-02 
605	 4,32512091178739E-02 
606	 4,41456185487147E-02 
607	 4,43171977813194E-02 
608	 4,44374769675433E-02 
609	 4,47669169346848E-02 
610	 4,55857694050041E-02 
611	 4,61909807783201E-02 
612	 4,57125227979314E-02 
613	 4,54058054522453E-02 
614	 4,53850440716874E-02 
615	 4,48182770010325E-02 
616	 4,45579028134359E-02 
617	 4,49948287120045E-02 
618	 4,43885335270747E-02 
619	 4,33801514094854E-02 
620	 4,37284386012772E-02 
621	 4,40450471526633E-02 
622	 4,39506462445009E-02 
623	 4,38813292521308E-02 
624	 4,40511403415522E-02 
625	 4,46101152178667E-02 
626	 4,43010632032807E-02 
627	 4,33631923810996E-02 
628	 4,32798017573408E-02 
629	 4,33205501405315E-02 
630	 4,31940617936095E-02 
631	 4,35370887534439E-02 
632	 4,39935757499557E-02 
633	 4,38911159637637E-02 
634	 4,38623148515661E-02 
635	 4,40008599831016E-02 
636	 4,38668386014994E-02 
637	 4,38478866864507E-02 
638	 4,42248119373419E-02 
639	 4,39994787584613E-02 
640	 4,35546444981629E-02 
641	 4,43974046056308E-02 
642	 4,49037777698746E-02 
643	 4,45453485042297E-02 
644	 4,44171756225163E-02 
645	 4,45516714571802E-02 
646	 4,48561225568608E-02 
647	 4,47630336321334E-02 
648	 4,43916691795667E-02 
649	 4,47502843743704E-02 
650	 4,49939107860027E-02 
651	 4,45956943252307E-02 
652	 4,42141362175537E-02 
653	 4,40735103016218E-02 
654	 4,44410843839724E-02 
655	 4,46132315647349E-02 
656	 4,43992043306456E-02 
657	 4,41439039022455E-02 
658	 4,42176746354275E-02 
659	 4,49387713953041E-02 
660	 4,53360495904548E-02 
661	 4,52706470410712E-02 
662	 4,50634653941748E-02 
663	 0,044626877602894 
664	 4,40556810570164E-02 
665	 4,41610649144305E-02 
666	 4,45321592649311E-02 
667	 4,43695517502085E-02 
668	 4,45169204102691E-02 
669	 4,49880484489766E-02 
670	 4,48660235504217E-02 
671	 4,48748748065756E-02 
672	 4,54969412045241E-02 
673	 0,045022700770412 
674	 4,40053157444833E-02 
675	 4,44796533696186E-02 
676	 4,49573135551311E-02 
677	 4,49264489795594E-02 
678	 4,47004955649682E-02 
679	 4,45740603793181E-02 
680	 4,48611289389672E-02 
681	 0,045255355059686 
682	 4,56140095043927E-02 
683	 4,57400251327149E-02 
684	 4,59824070558278E-02 
685	 4,64590819948933E-02 
686	 4,63369889540214E-02 
687	 4,59567414239975E-02 
688	 4,61130384876396E-02 
689	 4,61667248780503E-02 
690	 4,61252432961263E-02 
691	 0,046856971512685 
692	 0,047605992038221 
693	 4,76875893744325E-02 
694	 4,76905905605168E-02 
695	 4,77943083531991E-02 
696	 0,048121815544233 
697	 4,86418637482521E-02 
698	 4,92608706841071E-02 
699	 4,95647269762283E-02 
700	 4,96708490397995E-02 
701	 4,97828503713628E-02 
702	 0,050252811403716 
703	 5,08591367581515E-02 
704	 5,04596694902422E-02 
705	 5,03737601780458E-02 
706	 5,13039682962624E-02 
707	 5,15671204545808E-02 
708	 0,051345436162222 
709	 5,14169880460437E-02 
710	 5,15923446974881E-02 
711	 5,18689198726457E-02 
712	 0,05238100854516 
713	 5,28737383702146E-02 
714	 5,31158925179641E-02 
715	 5,32702349815452E-02 
716	 5,34455307956358E-02 
717	 0,053857966470588 
718	 5,41126413262784E-02 
719	 5,41635024684023E-02 
720	 5,48302363197821E-02 
721	 5,55949539363743E-02 
722	 5,57156901737217E-02 
723	 5,59251701740617E-02 
724	 5,63567921931285E-02 
725	 5,68098333423471E-02 
726	 5,73181985811045E-02 
727	 5,78727971047379E-02 
728	 5,82520326810293E-02 
729	 5,86186719226744E-02 
730	 5,93264333484066E-02 
731	 5,99264950856423E-02 
732	 0,060298439513197 
733	 6,05868502042962E-02 
734	 6,08478774219172E-02 
735	 6,11556143446409E-02 
736	 6,18668989892799E-02 
737	 6,28210157661848E-02 
738	 6,35243847986432E-02 
739	 6,39321873286431E-02 
740	 6,41150433736062E-02 
741	 6,46441439431722E-02 
742	 6,53849942326582E-02 
743	 6,61151891314259E-02 
744	 6,65825802798373E-02 
745	 6,69220650237698E-02 
746	 6,77451280902383E-02 
747	 6,86388376608948E-02 
748	 6,93513740026196E-02 
749	 6,97541073095933E-02 
750	 7,01888688953722E-02 
751	 7,12115825040345E-02 
752	 7,19083004337519E-02 
753	 7,22223935857756E-02 
754	 7,28998761219435E-02 
755	 7,38930717719297E-02 
756	 7,51007753851788E-02 
757	 7,59685327248407E-02 
758	 7,65781901504202E-02 
759	 7,72743080196335E-02 
760	 7,81674109606153E-02 
761	 7,91975867376327E-02 
762	 7,98212028931658E-02 
763	 8,04400774087458E-02 
764	 8,14504963549873E-02 
765	 8,25959205154123E-02 
766	 8,37484965487419E-02 
767	 0,084762062410262 
768	 8,55549345915427E-02 
769	 8,61774227126402E-02 
770	 8,70980890625096E-02 
771	 8,82252832405997E-02 
772	 8,93902677819486E-02 
773	 9,03145697212445E-02 
774	 9,10954202686065E-02 
775	 9,22518251085012E-02 
776	 0,09345265478829 
777	 9,44886729272348E-02 
778	 9,51437628302505E-02 
779	 9,58982463894267E-02 
780	 9,74775159860375E-02 
781	 9,88275541966515E-02 
782	 9,97942213374285E-02 
783	 0,10099458706839 
784	 0,101956065336614 
785	 0,102464703242981 
786	 0,103403808308038 
787	 0,104713137183086 
788	 0,106071570382796 
789	 0,107182870124599 
790	 0,108011155332871 
791	 0,108878958585299 
792	 0,109943690568353 
793	 0,111286176117578 
794	 0,112483661256838 
795	 0,113520222564511 
796	 0,114494501104103 
797	 0,115799420955258 
798	 0,117371585684078 
799	 0,118196214017022 
800	 0,118889868035826 
801	 0,120063261325697 
802	 0,121203201273102 
803	 0,122330542536662 
804	 0,123774711708298 
805	 0,125002937614493 
806	 0,125891065953367 
807	 0,126906142603262 
808	 0,12821816690679 
809	 0,12990814631971 
810	 0,130639004828922 
811	 0,130786901649931 
812	 0,132190553216722 
813	 0,133650230255635 
814	 0,134718799767484 
815	 0,135943951779674 
816	 0,137012745908936 
817	 0,137544067325656 
818	 0,138637010148441 
819	 0,140213276716383 
820	 0,141291629753529 
821	 0,14213989505421 
822	 0,142909327352358 
823	 0,143824866208254 
824	 0,144749288358087 
825	 0,145477855074063 
826	 0,146182747617284 
827	 0,146975338594026 
828	 0,148073633124603 
829	 0,149085633591893 
830	 0,149862913940361 
831	 0,150950714093435 
832	 0,152074985194486 
833	 0,152798107863044 
834	 0,15311649015501 
835	 0,153377473680342 
836	 0,154710197291164 
837	 0,155876538743191 
838	 0,156299609347288 
839	 0,157044455781973 
840	 0,158046955823614 
841	 0,159046286632116 
842	 0,159976104666231 
843	 0,160779291848074 
844	 0,16135646962266 
845	 0,162050465752217 
846	 0,162974048821643 
847	 0,163404772784458 
848	 0,163802878195616 
849	 0,164909620728262 
850	 0,165887904616078 
851	 0,166497553879958 
852	 0,166615445732804 
853	 0,167152400864167 
854	 0,168481151213732 
855	 0,169380714767317 
856	 0,169990358020469 
857	 0,170700219471262 
858	 0,17105726364802 
859	 0,17131986372603 
860	 0,172695959118958 
861	 0,173652423154248 
862	 0,173547982378174 
863	 0,173896756411479 
864	 0,174515233880328 
865	 0,174957491940111 
866	 0,175698372221886 
867	 0,176644471705567 
868	 0,177161414976783 
869	 0,177936001154339 
870	 0,179110717868191 
871	 0,179471922994171 
872	 0,179549053790915 
873	 0,180099212954242 
874	 0,180560662014165 
875	 0,180921468700712 
876	 0,181475988553457 
877	 0,182028796762783 
878	 0,182508695553746 
879	 0,183085452272742 
880	 0,183396539736673 
881	 0,18311919952078 
882	 0,183736227732124 
883	 0,184911399068746 
884	 0,184902745250768 
885	 0,185148524585055 
886	 0,186013025825265 
887	 0,18660344198764 
888	 0,187107025107297 
889	 0,187692035662817 
890	 0,187571519853193 
891	 0,187274585401575 
892	 0,188249277889912 
893	 0,189108576869292 
894	 0,189412065116499 
895	 0,189419136359357 
896	 0,189339970948862 
897	 0,189410098879594 
898	 0,19021120390797 
899	 0,191117619386748 
900	 0,190869024126368 
901	 0,190888882500324 
902	 0,191374452107018 
903	 0,191325773624606 
904	 0,19181828351909 
905	 0,193206985427637 
906	 0,192883404065264 
907	 0,191997872578046 
908	 0,192609447106431 
909	 0,193332995775662 
910	 0,193836467269429 
911	 0,194183125691589 
912	 0,194350478036324 
913	 0,194355658274325 
914	 0,194343559727727 
915	 0,194299172363055 
916	 0,194204762855591 
917	 0,194378128428377 
918	 0,194692287821697 
919	 0,194576747526222 
920	 0,195095807516916 
921	 0,196230246280315 
922	 0,195993731150183 
923	 0,195938697518292 
924	 0,197198285042085 
925	 0,196967525436955 
926	 0,195950407779089 
927	 0,196241110306464 
928	 0,195723099054974 
929	 0,1945345767381 
930	 0,195378238660341 
931	 0,19605149655219 
932	 0,195331498135316 
933	 0,194534432090661 
934	 0,193839343466979 
935	 0,193299653110057 
936	 0,193503981486031 
937	 0,19405112148954 
938	 0,193409160332327 
939	 0,193087203012278 
940	 0,193471738163 
941	 0,193534514772246 
942	 0,192938391488441 
943	 0,191502712682432 
944	 0,189751821580822 
945	 0,188854091897011 
946	 0,190763493891018 
947	 0,190695950940986 
948	 0,188289301003964 
949	 0,187893920408352 
950	 0,187258801947933 
951	 0,185378888694058 
952	 0,184396206465389 
953	 0,184253195038959 
954	 0,184520045507279 
955	 0,183382335006625 
956	 0,181595130170295 
957	 0,18238129405566 
958	 0,181634176733794 
959	 0,178962198059327 
960	 0,179397669652645 
961	 0,180118167372514 
962	 0,17899310243795 
963	 0,178286001189527 
964	 0,177920593377555 
965	 0,177312980625325 
966	 0,177651177325481 
967	 0,178579089250321 
968	 0,178272763597215 
969	 0,177055927746213 
970	 0,17549631170011 
971	 0,175733256625402 
972	 0,176701070372321 
973	 0,177232527550253 
974	 0,177292410723773 
975	 0,17715890645481 
976	 0,17743091982332 
977	 0,176616447250793 
978	 0,175191247075644 
979	 0,176083559907805 
980	 0,177634976975332 
981	 0,17860032472099 
982	 0,177129187546385 
983	 0,175426986939483 
984	 0,17597888072385 
985	 0,179296222863543 
986	 0,182475367838007 
987	 0,179868054938678 
988	 0,178575861997714 
989	 0,179721487801461 
990	 0,179135929755187 
991	 0,178967578739612 
992	 0,180000285230046 
993	 0,180037817176422 
994	 0,179618276127672 
995	 0,179575848806404 
996	 0,180942903384349 
997	 0,182676107864122 
998	 0,182394320137726 
999	 0,183362491486265 
1000	 0,185324770352008 
1001	 0,183907317423651 
1002	 0,183184113236553 
1003	 0,184743809773766 
1004	 0,184903098216759 
1005	 0,183858066056019 
1006	 0,18235314293813 
1007	 0,183218472499299 
1008	 0,185908713423329 
1009	 0,188599223339255 
1010	 0,188751112828959 
1011	 0,187001652103373 
1012	 0,188159304534824 
1013	 0,18945068112836 
1014	 0,189749325815343 
1015	 0,189832198685847 
1016	 0,18872159671425 
1017	 0,185987697903494 
1018	 0,184524266559181 
1019	 0,186012507951163 
1020	 0,191926412058065 
1021	 0,194278940290754 
1022	 0,193383301952997 
1023	 0,196206362115447 
1024	 0,197442316180912 
1025	 0,196089374404276 
1026	 0,195465039997111 
1027	 0,196161448990201 
1028	 0,198090782249246 
1029	 0,197586220460911 
1030	 0,198606006562833 
1031	 0,205258789864297 
1032	 0,203233571987122 
1033	 0,196787639361729 
1034	 0,200151763935626 
1035	 0,203178012389879 
1036	 0,203227102393641 
1037	 0,201531496758408 
1038	 0,198889195139007 
1039	 0,196895573526619 
1040	 0,20084646453026 
1041	 0,202150327267965 
1042	 0,194906979917042 
1043	 0,193724815660672 
1044	 0,196827123608847 
1045	 0,198832730538032 
1046	 0,200910947547883 
1047	 0,204400453114453 
1048	 0,21255198538304 
1049	 0,214186217486203 
1050	 0,20744990036248 
1051	 0,198891011853109 
1052	 0,196540689616897 
1053	 0,203643042947941 
1054	 0,212052300187661 
1055	 0,214778230120982 
1056	 0,208424467365441 
1057	 0,212207251689862 
1058	 0,217468906019696 
1059	 0,209424791218453 
1060	 0,207292683799063 
1061	 0,210426817103451 
1062	 0,207586176273476 
1063	 0,202200303167978 
1064	 0,195992517564875 
1065	 0,189492063091187 
1066	 0,195773902019882 
1067	 0,214953354623263 
1068	 0,217704673494538 
1069	 0,211725904897333 
1070	 0,20527957488479 
1071	 0,207501158351552 
1072	 0,208915313609163 
1073	 0,198270016045517 
1074	 0,201786461983493 
1075	 0,213936541484351 
