Wavelength	GOOSEBAR00317.asd
325	-0,233430936588565 
326	-3,33749053153477E-02 
327	 3,69613541911166E-02 
328	-2,00218297364839E-02 
329	-8,02301397554765E-02 
330	-3,58842546342546E-02 
331	 0,154649535357079 
332	 0,126066785215449 
333	-3,6395363330425E-04 
334	-2,31932821859001E-02 
335	 5,59215501739408E-02 
336	 0,148612126331577 
337	 0,123765180894017 
338	 7,47281899171776E-02 
339	 8,13925265963731E-02 
340	 8,49523572612664E-02 
341	 8,00658526994549E-02 
342	 7,90330184983926E-02 
343	 7,30893720827085E-02 
344	 6,09786888578424E-02 
345	 5,30847067239276E-02 
346	 4,20422603768609E-02 
347	 2,08090525484598E-02 
348	 1,90193077533033E-02 
349	 0,026196070215345 
350	 2,45059922797209E-03 
351	-1,46277788954596E-02 
352	-9,05073242169351E-03 
353	 3,46757347666267E-02 
354	 6,20832942060287E-02 
355	 2,72672278229493E-02 
356	-1,38133860883793E-02 
357	-3,63779138969286E-02 
358	-7,6086660737278E-03 
359	 2,12871897527185E-02 
360	 2,61621770105529E-02 
361	 1,97069214310594E-02 
362	 1,70979913908865E-02 
363	 0,037839119778122 
364	 3,56995378330646E-02 
365	 1,20554969923212E-02 
366	 1,80016664247787E-02 
367	 3,37559320939157E-02 
368	 4,63437751711781E-02 
369	 4,40750070709894E-02 
370	 3,49265581327912E-02 
371	 3,68868877057958E-02 
372	 1,08882961207315E-02 
373	-3,31532872913908E-02 
374	-4,47490423318105E-03 
375	 3,16928640008451E-02 
376	 3,47812522103444E-02 
377	 3,91491279053257E-02 
378	 3,80605135914379E-02 
379	 3,13737986579362E-03 
380	-3,43276457004702E-03 
381	 2,55813365480173E-02 
382	 9,79731098223749E-03 
383	-1,11704733278238E-02 
384	 3,92389882645353E-03 
385	 2,43156172791809E-02 
386	 0,03833031515375 
387	 0,031912719727659 
388	 2,64335571469396E-02 
389	 2,93973838393773E-02 
390	 2,65554676866813E-02 
391	 2,09889500360684E-02 
392	 1,73256754076854E-02 
393	 1,20323895996292E-02 
394	 6,40727834130283E-03 
395	 4,21069270192749E-03 
396	 8,67235548253925E-03 
397	 1,94556911922299E-02 
398	 2,57441395433737E-02 
399	 2,67088451475542E-02 
400	 2,21578426706011E-02 
401	 2,55336305831302E-02 
402	 3,61703230252669E-02 
403	 4,00008584796326E-02 
404	 3,56105709090281E-02 
405	 2,40638755042999E-02 
406	 2,27172983931792E-02 
407	 2,74561432427644E-02 
408	 0,025372883900423 
409	 2,22595808690301E-02 
410	 2,09852803206044E-02 
411	 2,66151720537242E-02 
412	 3,18525647889411E-02 
413	 0,030057622293196 
414	 2,68403063938902E-02 
415	 2,41578917585717E-02 
416	 2,34778942586602E-02 
417	 2,48609100982912E-02 
418	 2,73029460980329E-02 
419	 2,51517644923565E-02 
420	 2,26091356002426E-02 
421	 0,025664288748807 
422	 2,23860921184959E-02 
423	 1,51418627741209E-02 
424	 2,11536030363346E-02 
425	 2,50594366963031E-02 
426	 1,92425689277784E-02 
427	 2,18611453751247E-02 
428	 2,97058566694213E-02 
429	 3,33759778560896E-02 
430	 3,49296393279902E-02 
431	 3,40815689039277E-02 
432	 2,71957651401415E-02 
433	 2,45623451811786E-02 
434	 3,41377690027119E-02 
435	 0,035115999266068 
436	 0,028572518645381 
437	 2,67929915670177E-02 
438	 0,025812213981565 
439	 0,024785015829718 
440	 0,02640475209653 
441	 2,83762644895695E-02 
442	 2,76353004079888E-02 
443	 2,57786350375642E-02 
444	 2,47596988540229E-02 
445	 3,00752573415592E-02 
446	 3,32682752779745E-02 
447	 2,94191221674504E-02 
448	 2,43159989741081E-02 
449	 0,020953198122816 
450	 0,022979357677017 
451	 2,62096143298971E-02 
452	 2,85067455596823E-02 
453	 2,71542954284183E-02 
454	 2,68721762878264E-02 
455	 3,15829461964766E-02 
456	 3,05784917543387E-02 
457	 2,55282469709474E-02 
458	 2,61404433905863E-02 
459	 2,77581293026849E-02 
460	 0,028278078188908 
461	 2,67388858150326E-02 
462	 2,56681675500917E-02 
463	 2,85550355556818E-02 
464	 2,95503713265227E-02 
465	 2,79944147396383E-02 
466	 2,68575738451901E-02 
467	 0,026760657062674 
468	 2,77726544247463E-02 
469	 2,63115219009989E-02 
470	 2,39901607537103E-02 
471	 2,48570684574796E-02 
472	 2,71096190464472E-02 
473	 2,96595382856168E-02 
474	 3,06881737853166E-02 
475	 2,96236285690493E-02 
476	 2,63174379259833E-02 
477	 2,65346827176801E-02 
478	 2,98842922998805E-02 
479	 3,22240496251536E-02 
480	 3,28363478284036E-02 
481	 3,12937979843266E-02 
482	 2,81491221858885E-02 
483	 2,59116510735529E-02 
484	 2,80766037960101E-02 
485	 2,80181133016665E-02 
486	 2,54233019724071E-02 
487	 2,63995997445109E-02 
488	 2,81773588460906E-02 
489	 2,84688162584705E-02 
490	 2,65723758921634E-02 
491	 2,44707538114559E-02 
492	 2,70692756846405E-02 
493	 2,88074897888243E-02 
494	 2,83681924281782E-02 
495	 3,02465651695396E-02 
496	 0,031642437558251 
497	 2,91639555521059E-02 
498	 2,75921367859442E-02 
499	 0,027707929882449 
500	 2,82835701439696E-02 
501	 2,83917835870982E-02 
502	 2,75963060494058E-02 
503	 2,74278835125778E-02 
504	 2,72591120563247E-02 
505	 2,54506826896453E-02 
506	 2,56734427906655E-02 
507	 2,79134602018679E-02 
508	 2,70665406919258E-02 
509	 2,58161925254703E-02 
510	 2,67594324584957E-02 
511	 0,029172243541069 
512	 3,11811674008811E-02 
513	 2,81392602103205E-02 
514	 2,61699048375188E-02 
515	 2,76283198183637E-02 
516	 2,86659787783232E-02 
517	 2,88989975901262E-02 
518	 2,83755210068519E-02 
519	 2,75766508217342E-02 
520	 2,72088168027129E-02 
521	 2,92371397374413E-02 
522	 3,07531211410013E-02 
523	 2,97468305289246E-02 
524	 2,85613065752285E-02 
525	 2,78006045636921E-02 
526	 2,79062064890278E-02 
527	 2,80006041053177E-02 
528	 2,78109984842565E-02 
529	 0,027757710926014 
530	 2,77921693496108E-02 
531	 2,78301997979343E-02 
532	 2,87852701597723E-02 
533	 2,99223917831363E-02 
534	 2,81117918752905E-02 
535	 2,74707641848395E-02 
536	 2,99314458244316E-02 
537	 2,98278154299811E-02 
538	 2,81011615673305E-02 
539	 2,77811837691817E-02 
540	 2,85545346191616E-02 
541	 2,99673117529174E-02 
542	 3,01167542819919E-02 
543	 2,97684652707559E-02 
544	 2,97736278698258E-02 
545	 2,99413876813221E-02 
546	 3,01570030937835E-02 
547	 3,01748467229141E-02 
548	 3,00747682967603E-02 
549	 0,029901524845061 
550	 2,96052595538919E-02 
551	 2,95782273261715E-02 
552	 3,04401517562919E-02 
553	 0,03099206362747 
554	 0,030935703430836 
555	 0,03050976743571 
556	 3,07416221077738E-02 
557	 3,23060738512712E-02 
558	 0,032623442078089 
559	 3,18664187830448E-02 
560	 3,15702933747506E-02 
561	 3,19998386240072E-02 
562	 3,30278857099666E-02 
563	 3,26913165389061E-02 
564	 3,21849118564515E-02 
565	 3,32960529500104E-02 
566	 3,40684937638002E-02 
567	 3,42350320488127E-02 
568	 3,47941184296237E-02 
569	 3,50890489158463E-02 
570	 3,48062207118389E-02 
571	 0,035571802451298 
572	 3,68828039569041E-02 
573	 3,70950799494316E-02 
574	 3,74132522913908E-02 
575	 3,81121173802569E-02 
576	 3,84050294997359E-02 
577	 3,86048824840656E-02 
578	 3,91051691747291E-02 
579	 3,90174060924293E-02 
580	 0,038504774275199 
581	 3,86237355167093E-02 
582	 3,91522631046985E-02 
583	 3,98531441528105E-02 
584	 3,98758152325029E-02 
585	 3,96239802921213E-02 
586	 4,00125271503166E-02 
587	 4,04553817005668E-02 
588	 4,07342050641818E-02 
589	 0,040655731899045 
590	 4,07304225509332E-02 
591	 4,13893712225861E-02 
592	 4,15196795286651E-02 
593	 4,12330188033131E-02 
594	 4,14120387349333E-02 
595	 4,18074558404452E-02 
596	 4,23138825129625E-02 
597	 4,29164850857552E-02 
598	 4,34652786546603E-02 
599	 0,043770721277918 
600	 4,38189542596086E-02 
601	 4,37351710606285E-02 
602	 4,40683056472098E-02 
603	 4,40782167290278E-02 
604	 4,33018684777438E-02 
605	 4,35467409483747E-02 
606	 4,44739995345554E-02 
607	 4,44525894771319E-02 
608	 4,45976542140597E-02 
609	 4,52174655991861E-02 
610	 4,57409210738433E-02 
611	 4,59822083402775E-02 
612	 0,045783052916334 
613	 4,60498145210104E-02 
614	 4,67418647793502E-02 
615	 4,70123763699766E-02 
616	 4,67323363088879E-02 
617	 4,59681424547572E-02 
618	 4,61029538780446E-02 
619	 0,046748128457982 
620	 4,67192485637139E-02 
621	 0,046692771400467 
622	 4,68773475481087E-02 
623	 4,72482172003986E-02 
624	 4,76629589193561E-02 
625	 4,79603906875554E-02 
626	 4,77296239125818E-02 
627	 4,72755406142388E-02 
628	 4,77528594934015E-02 
629	 4,80715025608675E-02 
630	 4,78403470260664E-02 
631	 4,85860113186701E-02 
632	 4,96040930539686E-02 
633	 4,94779293216058E-02 
634	 4,96454755840726E-02 
635	 5,02772899731271E-02 
636	 5,01909013602204E-02 
637	 5,03515076467313E-02 
638	 5,15345506209947E-02 
639	 5,24224724160586E-02 
640	 5,30151430666841E-02 
641	 5,41522283677626E-02 
642	 5,42993601137008E-02 
643	 5,32347001905145E-02 
644	 5,35044580016405E-02 
645	 5,47001835879678E-02 
646	 5,59727415240436E-02 
647	 5,64236424044143E-02 
648	 5,61650371399387E-02 
649	 5,65576881677529E-02 
650	 5,71764636433684E-02 
651	 5,77355944947515E-02 
652	 5,83594236036212E-02 
653	 5,88629958663799E-02 
654	 5,88122659796809E-02 
655	 0,059125014934705 
656	 5,99385758287924E-02 
657	 6,02151296688144E-02 
658	 6,04448452718458E-02 
659	 6,11756062331749E-02 
660	 6,17393306043486E-02 
661	 6,21377583714328E-02 
662	 6,29015178432674E-02 
663	 6,31737995602599E-02 
664	 6,26801597564947E-02 
665	 6,27678338456488E-02 
666	 6,32066105155692E-02 
667	 6,33648710525888E-02 
668	 6,37505240451523E-02 
669	 6,44173221327995E-02 
670	 6,50904136774358E-02 
671	 6,55631347027488E-02 
672	 6,57123211077444E-02 
673	 6,60617351416019E-02 
674	 6,65843644749571E-02 
675	 6,68732828561601E-02 
676	 6,76913809092126E-02 
677	 0,069127401080628 
678	 7,00719223186798E-02 
679	 7,05237300392896E-02 
680	 7,06181029620371E-02 
681	 7,15150322483042E-02 
682	 7,31668162722757E-02 
683	 7,44290169468344E-02 
684	 7,56535301384799E-02 
685	 7,70090364201288E-02 
686	 7,81683350771341E-02 
687	 7,93995123854909E-02 
688	 0,081259271246275 
689	 8,29905319351055E-02 
690	 8,44218789423835E-02 
691	 8,58680020565098E-02 
692	 8,76612739661232E-02 
693	 9,00149552975926E-02 
694	 9,17017698311566E-02 
695	 9,28928162763538E-02 
696	 9,47036433907321E-02 
697	 9,63188678018151E-02 
698	 9,75303580542861E-02 
699	 9,90597784509609E-02 
700	 0,100906968032437 
701	 0,102979569536554 
702	 0,104574474250613 
703	 0,105529375051373 
704	 0,105898447041347 
705	 0,106678876497605 
706	 0,108413783214163 
707	 0,109790271862532 
708	 0,110779635466004 
709	 0,111694717643804 
710	 0,112680547579963 
711	 0,113858245187417 
712	 0,11547516981306 
713	 0,116837558187513 
714	 0,117365646335433 
715	 0,118296157411971 
716	 0,119508854372164 
717	 0,119983548017365 
718	 0,120673741325934 
719	 0,121899972373265 
720	 0,122996116991761 
721	 0,124000431850349 
722	 0,125049346464877 
723	 0,125916160239906 
724	 0,126652145340288 
725	 0,127625079941979 
726	 0,128485059947682 
727	 0,12908855304355 
728	 0,130196738234362 
729	 0,13141469267358 
730	 0,131841605778613 
731	 0,132403207937715 
732	 0,133280315454313 
733	 0,133947291626823 
734	 0,134571671228282 
735	 0,13529640939059 
736	 0,135817186036127 
737	 0,136291523646949 
738	 0,137264500148353 
739	 0,138133277688318 
740	 0,138679123698685 
741	 0,139057226014755 
742	 0,139620260469359 
743	 0,140736959017131 
744	 0,141441510322349 
745	 0,141813427068591 
746	 0,142872694513376 
747	 0,143744251108829 
748	 0,144042047634492 
749	 0,144587179941737 
750	 0,145252647910765 
751	 0,145688198241774 
752	 0,146234482562034 
753	 0,146893285173772 
754	 0,147302082443931 
755	 0,147726984822262 
756	 0,148360476332301 
757	 0,149067403336264 
758	 0,149704343909085 
759	 0,150005636315653 
760	 0,15052637416624 
761	 0,1513300428771 
762	 0,151785822074731 
763	 0,152107509838869 
764	 0,152538292841627 
765	 0,153206868608001 
766	 0,153956267627656 
767	 0,154301317887141 
768	 0,154701734221675 
769	 0,155263491274024 
770	 0,155456804286678 
771	 0,155667022152251 
772	 0,15637433558412 
773	 0,156684658903799 
774	 0,156595357931369 
775	 0,156686121146546 
776	 0,157103710270375 
777	 0,157834259179626 
778	 0,158177668613473 
779	 0,158097625544813 
780	 0,157664755291395 
781	 0,157771367173904 
782	 0,158358823604753 
783	 0,158298562026234 
784	 0,157878570758446 
785	 0,157364634619994 
786	 0,157254996662001 
787	 0,157426764667137 
788	 0,157533525038276 
789	 0,157421439095493 
790	 0,157030529701587 
791	 0,156361217341093 
792	 0,155935817472722 
793	 0,156112448807187 
794	 0,156074322493448 
795	 0,155668412229023 
796	 0,154850442589004 
797	 0,154264687909771 
798	 0,154107644625406 
799	 0,154035616945738 
800	 0,153910065469521 
801	 0,153635224500244 
802	 0,153511342380988 
803	 0,15360455178565 
804	 0,153946061079082 
805	 0,154202050582032 
806	 0,154346435826629 
807	 0,154916890315922 
808	 0,156002934359465 
809	 0,157594534198144 
810	 0,158501821607844 
811	 0,158891614293816 
812	 0,160020071472288 
813	 0,161050475146988 
814	 0,161699107959879 
815	 0,162453719461528 
816	 0,163224519351295 
817	 0,163865861665668 
818	 0,164681818010557 
819	 0,165476988910602 
820	 0,165526662846675 
821	 0,165293548931021 
822	 0,165097300842343 
823	 0,165380563342745 
824	 0,165720652262803 
825	 0,165524309874223 
826	 0,165440054347486 
827	 0,165524853969089 
828	 0,165517032079272 
829	 0,165140160079094 
830	 0,164381227697609 
831	 0,164215308481726 
832	 0,164278616827055 
833	 0,163931295468198 
834	 0,163274689174525 
835	 0,162590920177347 
836	 0,162777763723686 
837	 0,162687420980962 
838	 0,161817593444385 
839	 0,161434934059741 
840	 0,161213796329664 
841	 0,160497505524589 
842	 0,160596930820328 
843	 0,161257045839046 
844	 0,16051409182607 
845	 0,159915336042485 
846	 0,16015207883757 
847	 0,159652315092702 
848	 0,159004770056758 
849	 0,159264119349795 
850	 0,159022307365824 
851	 0,158273113177629 
852	 0,158190351944634 
853	 0,15814520887661 
854	 0,157876780415773 
855	 0,158045880211448 
856	 0,15830613086331 
857	 0,158105529221764 
858	 0,157709279284137 
859	 0,157468760283458 
860	 0,158367676654399 
861	 0,158739035733208 
862	 0,157939915753336 
863	 0,158000592996312 
864	 0,158481397813082 
865	 0,158540450095804 
866	 0,159341303745029 
867	 0,160616011688147 
868	 0,160742656215853 
869	 0,161020835055288 
870	 0,161919848595079 
871	 0,162307396096338 
872	 0,162413366831843 
873	 0,16264883267967 
874	 0,163397233991983 
875	 0,164379432522097 
876	 0,164594410986858 
877	 0,164475097771799 
878	 0,164342500252562 
879	 0,164869724100366 
880	 0,165577808903272 
881	 0,165928088873194 
882	 0,166990688930339 
883	 0,168187660310787 
884	 0,167336784765921 
885	 0,167338715370505 
886	 0,168767761482966 
887	 0,168589606557548 
888	 0,168475311555051 
889	 0,169991918381049 
890	 0,170568810532075 
891	 0,170437553715819 
892	 0,171166285769996 
893	 0,171479999510303 
894	 0,171380920900243 
895	 0,172670626300275 
896	 0,173917558331482 
897	 0,174044824841451 
898	 0,17444884909064 
899	 0,175101546289754 
900	 0,175595227957632 
901	 0,175689302536663 
902	 0,175435001772889 
903	 0,175096723005792 
904	 0,175951711890195 
905	 0,178333831901416 
906	 0,178419144903126 
907	 0,177911381794511 
908	 0,179862488994519 
909	 0,180563897043899 
910	 0,180138540879866 
911	 0,181930811649612 
912	 0,183447270780095 
913	 0,183569597429845 
914	 0,183076115362227 
915	 0,183084114270912 
916	 0,184616564287079 
917	 0,184951993649402 
918	 0,184259983393261 
919	 0,184318010758257 
920	 0,185120474757265 
921	 0,186398655067687 
922	 0,186654932374729 
923	 0,186681147581014 
924	 0,187200416249678 
925	 0,188101041272704 
926	 0,188652391131928 
927	 0,18756788283538 
928	 0,18689153608077 
929	 0,187119596198561 
930	 0,187677097178428 
931	 0,187941788964144 
932	 0,187615407678554 
933	 0,187544151862966 
934	 0,187562841397546 
935	 0,187344157156864 
936	 0,187286634808912 
937	 0,186971225846977 
938	 0,184857676606194 
939	 0,183380437721378 
940	 0,183488648588212 
941	 0,184673122579204 
942	 0,185048590951667 
943	 0,183143727490225 
944	 0,181115890234242 
945	 0,180500082739116 
946	 0,183454964288524 
947	 0,183217217414625 
948	 0,179467274530382 
949	 0,17907895856393 
950	 0,178219431256925 
951	 0,175289568838247 
952	 0,174947701896631 
953	 0,175204664977119 
954	 0,173215088688702 
955	 0,171986037365709 
956	 0,171669600565102 
957	 0,171091706011488 
958	 0,170247635290776 
959	 0,169180202041255 
960	 0,168253545245781 
961	 0,167777378379924 
962	 0,167918583311983 
963	 0,168230365472784 
964	 0,168108232506619 
965	 0,166806064223866 
966	 0,166312040350922 
967	 0,166713207799896 
968	 0,166656647790868 
969	 0,166090526909839 
970	 0,165241024689202 
971	 0,165563062037395 
972	 0,16631407004034 
973	 0,166643885832707 
974	 0,165963326219751 
975	 0,165146551449411 
976	 0,165937266679185 
977	 0,165905354302975 
978	 0,16545339951208 
979	 0,168659810727755 
980	 0,170122287583123 
981	 0,167665062937159 
982	 0,165486737981957 
983	 0,165285802998405 
984	 0,168084476206849 
985	 0,169385605875465 
986	 0,169448201326305 
987	 0,170627826003061 
988	 0,170064921028246 
989	 0,16826482053187 
990	 0,169936073012978 
991	 0,171564128536158 
992	 0,171642580761453 
993	 0,173138082066079 
994	 0,174280706071767 
995	 0,173221824412004 
996	 0,172688860253955 
997	 0,173213803354484 
998	 0,174746054724687 
999	 0,176300601850418 
1000	 0,177281679282243 
1001	 0,176953860478117 
1002	 0,17686221840343 
1003	 0,177852297065704 
1004	 0,179893818321128 
1005	 0,180452346326765 
1006	 0,177814124203171 
1007	 0,181400329955344 
1008	 0,186942126213437 
1009	 0,184323346436501 
1010	 0,182099210370231 
1011	 0,18252185087837 
1012	 0,184961506302274 
1013	 0,187673144204937 
1014	 0,189372099162408 
1015	 0,188244803359724 
1016	 0,187011508111422 
1017	 0,188048078514884 
1018	 0,18991367943009 
1019	 0,192240736412183 
1020	 0,194679279300108 
1021	 0,195228910072357 
1022	 0,193942972898899 
1023	 0,19159166963507 
1024	 0,195610009577301 
1025	 0,204609455744455 
1026	 0,200085391730719 
1027	 0,194089467074039 
1028	 0,194806468798301 
1029	 0,196346596366715 
1030	 0,199750231779068 
1031	 0,2061088449524 
1032	 0,204888968073175 
1033	 0,200488326933689 
1034	 0,206050284437638 
1035	 0,20944784497003 
1036	 0,206784628391695 
1037	 0,195569145693202 
1038	 0,19441691016795 
1039	 0,208504229881904 
1040	 0,215859395530712 
1041	 0,216872587712386 
1042	 0,213211515696607 
1043	 0,209250843100442 
1044	 0,206607653872245 
1045	 0,206153165105929 
1046	 0,204242020460003 
1047	 0,203883110205076 
1048	 0,214470545008093 
1049	 0,216973559039876 
1050	 0,209234801582374 
1051	 0,206777292426927 
1052	 0,20966757787729 
1053	 0,216691670895224 
1054	 0,220368919946042 
1055	 0,22002996010113 
1056	 0,2164931920462 
1057	 0,21658793557734 
1058	 0,219734375970392 
1059	 0,22325247549348 
1060	 0,216901863956663 
1061	 0,209643025112591 
1062	 0,228036344748465 
1063	 0,227021013702004 
1064	 0,203873696320773 
1065	 0,200145488197236 
1066	 0,204727621206275 
1067	 0,210874811779026 
1068	 0,209314074448297 
1069	 0,212488093858966 
1070	 0,227251024367893 
1071	 0,229163050216987 
1072	 0,222742626090178 
1073	 0,21763182716363 
1074	 0,214655882048146 
1075	 0,21466175584337 
