Wavelength	GOOSEBAR00028.asd
325	-0,302393676689696 
326	-7,79436406344446E-02 
327	-1,33479227359962E-02 
328	-4,60826580021998E-02 
329	-2,03238284059323E-02 
330	-7,59310134310134E-03 
331	-5,77779726732225E-02 
332	-5,76479347284351E-02 
333	-3,08637666708214E-02 
334	-5,99788255427768E-02 
335	 0,077864421401722 
336	 0,248054112011527 
337	 8,96231308150205E-02 
338	-0,141445684982297 
339	-0,180268960051206 
340	-5,82479365825882E-02 
341	 7,86969127875957E-02 
342	 6,80325498781445E-02 
343	 2,93233995818109E-02 
344	 1,67935788191149E-03 
345	 4,15441670746463E-02 
346	 7,81115795207106E-02 
347	 3,73521959709804E-02 
348	-1,11373917056634E-02 
349	-3,88542439408159E-02 
350	-1,78654032642299E-02 
351	 1,49866964379323E-02 
352	 4,36042729864443E-02 
353	 5,14338776302435E-02 
354	 4,84701223902088E-02 
355	 4,80043092414029E-02 
356	 4,12532249776172E-02 
357	 3,12433201905935E-02 
358	 3,05786023542824E-02 
359	 3,73337717350805E-02 
360	 0,047227231453621 
361	 4,33702791461412E-02 
362	 3,59486005129643E-02 
363	 4,20904568639409E-02 
364	 2,93876113131747E-02 
365	 4,1011053944798E-03 
366	 2,78360011356205E-02 
367	 4,65987100984381E-02 
368	 3,18779379318993E-02 
369	 1,87545244683801E-02 
370	 1,28855314388764E-02 
371	 1,25648072447942E-02 
372	 1,12820736891576E-02 
373	 1,03091136526661E-02 
374	 0,026928280521892 
375	 0,028430065095644 
376	-2,36319118982171E-03 
377	 1,19653888313572E-02 
378	 4,77085834165386E-02 
379	 3,22273140264035E-02 
380	 2,48461239948323E-02 
381	 3,47274153949137E-02 
382	 3,80854166526016E-03 
383	-1,42579010157021E-02 
384	 3,02752526258963E-02 
385	 3,27352050517527E-02 
386	 2,33461186512187E-03 
387	 9,64316617414137E-03 
388	 1,28293877059894E-02 
389	 1,43909909656752E-03 
390	 1,18758105396932E-02 
391	 0,027172053171353 
392	 2,55721833224007E-02 
393	 2,89235879336817E-02 
394	 3,39456356985988E-02 
395	 1,51796077635043E-02 
396	 6,43984864700013E-03 
397	 2,14810312100666E-02 
398	 2,39587512130328E-02 
399	 1,87333945024296E-02 
400	 1,94016704572912E-02 
401	 1,60626835070026E-02 
402	 1,10800105079508E-02 
403	 2,22075803751556E-02 
404	 2,70913880465794E-02 
405	 0,013377332929728 
406	 1,54306786367875E-02 
407	 2,67683539392376E-02 
408	 2,60321973878258E-02 
409	 2,38937130354518E-02 
410	 2,28538393891664E-02 
411	 0,019549409586275 
412	 0,017661604047035 
413	 2,04720936003123E-02 
414	 0,025317192418766 
415	 2,84322941589365E-02 
416	 2,18411377771693E-02 
417	 1,64630905470605E-02 
418	 1,71484471512908E-02 
419	 2,26403803433597E-02 
420	 2,58997811169937E-02 
421	 1,83650441066346E-02 
422	 1,28180114675648E-02 
423	 1,23991900071019E-02 
424	 1,72352450107677E-02 
425	 1,93978623999506E-02 
426	 1,53194224197074E-02 
427	 1,79514736395336E-02 
428	 2,41497804831642E-02 
429	 2,56570068231236E-02 
430	 2,58017155737497E-02 
431	 2,46113086523043E-02 
432	 1,78530006201521E-02 
433	 1,38003860525471E-02 
434	 1,92182839782702E-02 
435	 2,16301902112165E-02 
436	 2,07084106249982E-02 
437	 2,21136956926189E-02 
438	 2,11051488138472E-02 
439	 1,71775584343051E-02 
440	 1,84797889833613E-02 
441	 2,13806491657291E-02 
442	 2,04486873894038E-02 
443	 2,16665339634395E-02 
444	 2,44013508526296E-02 
445	 2,16802186272679E-02 
446	 1,98298179405565E-02 
447	 2,22787330232719E-02 
448	 2,25326247934911E-02 
449	 2,15142573628382E-02 
450	 2,27289634230129E-02 
451	 2,30144443266867E-02 
452	 2,17027719849781E-02 
453	 2,01021066460636E-02 
454	 1,94937141091415E-02 
455	 2,07537101249872E-02 
456	 1,87600895353647E-02 
457	 1,53053263647078E-02 
458	 1,80372856835152E-02 
459	 1,96472591630536E-02 
460	 1,80110571274417E-02 
461	 2,05097517411915E-02 
462	 2,48105513790626E-02 
463	 2,68764972682252E-02 
464	 2,53524968984777E-02 
465	 2,14701438903227E-02 
466	 2,10166055274366E-02 
467	 2,04215510632491E-02 
468	 1,76881710281626E-02 
469	 1,74817863145757E-02 
470	 1,89695556358257E-02 
471	 1,89994106763517E-02 
472	 2,06739029212476E-02 
473	 2,37673356132069E-02 
474	 2,27426840288261E-02 
475	 2,16167404475943E-02 
476	 2,43655673756454E-02 
477	 2,33859218249178E-02 
478	 0,019965825446898 
479	 2,20463697145659E-02 
480	 2,29690746749064E-02 
481	 2,03026547658551E-02 
482	 1,97495462777669E-02 
483	 2,12317465238265E-02 
484	 2,38232006859557E-02 
485	 2,33373668982821E-02 
486	 2,01549502964705E-02 
487	 0,020467687202902 
488	 2,17953682145076E-02 
489	 2,21114661730623E-02 
490	 2,15240488955696E-02 
491	 2,05003032676352E-02 
492	 1,98799687823202E-02 
493	 2,05564842794557E-02 
494	 2,24247827209032E-02 
495	 2,34255751407923E-02 
496	 0,022473397196904 
497	 1,86639175062799E-02 
498	 1,82368669682224E-02 
499	 2,12731833056597E-02 
500	 2,35146189554257E-02 
501	 2,41059265807811E-02 
502	 2,27294126765738E-02 
503	 2,18504227942136E-02 
504	 2,13402849657135E-02 
505	 2,01359049691459E-02 
506	 2,06493127747556E-02 
507	 2,27156840897806E-02 
508	 2,25762961285303E-02 
509	 2,16188074815991E-02 
510	 2,12989930695835E-02 
511	 2,20477116066596E-02 
512	 2,32507738829188E-02 
513	 2,31636242050111E-02 
514	 2,25699366132339E-02 
515	 2,20344462020101E-02 
516	 2,28828682586674E-02 
517	 2,39440180889915E-02 
518	 2,34185940009304E-02 
519	 2,31934683247676E-02 
520	 2,35575888441492E-02 
521	 2,36617811951019E-02 
522	 0,023918045450281 
523	 2,44640903038498E-02 
524	 2,32503395776003E-02 
525	 2,15013392016045E-02 
526	 2,27358571185172E-02 
527	 2,37128340727258E-02 
528	 2,33820435867469E-02 
529	 0,022445894750932 
530	 0,022096575747447 
531	 2,35724538788728E-02 
532	 2,50625852754352E-02 
533	 2,56413217831615E-02 
534	 2,37894268319119E-02 
535	 2,28076410775805E-02 
536	 2,43679738482603E-02 
537	 2,46275076345157E-02 
538	 2,39289907489242E-02 
539	 2,39032818132952E-02 
540	 2,36016895645078E-02 
541	 0,023133512586382 
542	 2,42229371404717E-02 
543	 2,51946094965491E-02 
544	 2,44245175396155E-02 
545	 2,40560757252123E-02 
546	 2,42703060952774E-02 
547	 2,43354709137675E-02 
548	 2,41134940709786E-02 
549	 2,36347868825197E-02 
550	 2,37053304918617E-02 
551	 2,41890549608245E-02 
552	 2,47419135017119E-02 
553	 0,025069799333551 
554	 0,02507436071639 
555	 2,47539654604476E-02 
556	 2,48520465392101E-02 
557	 2,58659693718409E-02 
558	 2,60405530895575E-02 
559	 2,54072547295095E-02 
560	 2,47622343965865E-02 
561	 2,47202988275086E-02 
562	 2,53836804592416E-02 
563	 2,53924225380918E-02 
564	 2,50679728562308E-02 
565	 2,50021972162691E-02 
566	 2,50926030912455E-02 
567	 2,53224589138473E-02 
568	 0,025715166653759 
569	 2,58511279015589E-02 
570	 2,55504184039945E-02 
571	 2,61896102346744E-02 
572	 0,027119694444566 
573	 2,64707754357829E-02 
574	 2,57450574779108E-02 
575	 2,56049785091781E-02 
576	 2,65182499512411E-02 
577	 2,74494698133192E-02 
578	 2,72271396308542E-02 
579	 2,64247700147614E-02 
580	 2,57448439511187E-02 
581	 2,69152441075579E-02 
582	 2,79071911768937E-02 
583	 2,76013240166998E-02 
584	 2,72051951037726E-02 
585	 2,70283748884319E-02 
586	 0,027309979454437 
587	 2,77823599141332E-02 
588	 2,81485852618679E-02 
589	 0,027504646071274 
590	 0,02717879436007 
591	 0,028318513412257 
592	 2,82704014321056E-02 
593	 2,72385409371389E-02 
594	 2,72227504996153E-02 
595	 2,73820268426644E-02 
596	 2,74902587872997E-02 
597	 2,85650049862608E-02 
598	 2,96098093198049E-02 
599	 0,029004208325951 
600	 2,91123273482867E-02 
601	 0,030124098922709 
602	 0,030100568559268 
603	 2,95894576628383E-02 
604	 2,91671247451966E-02 
605	 2,99568910864625E-02 
606	 3,12885800243066E-02 
607	 3,10298335648368E-02 
608	 3,07914441214791E-02 
609	 3,11209737668957E-02 
610	 3,15288328994488E-02 
611	 3,18450914818637E-02 
612	 3,19100613753405E-02 
613	 3,23985759983339E-02 
614	 3,30743114281711E-02 
615	 0,032541248201046 
616	 3,21907071722315E-02 
617	 3,28082796187908E-02 
618	 3,28036311259691E-02 
619	 3,25274467726142E-02 
620	 3,31882145896463E-02 
621	 3,32753359813789E-02 
622	 3,26758521512458E-02 
623	 3,34483439472953E-02 
624	 3,41343302321271E-02 
625	 3,32013460437291E-02 
626	 3,29903246130903E-02 
627	 3,36290642444088E-02 
628	 3,40256511306285E-02 
629	 3,40761556637075E-02 
630	 3,37804648190838E-02 
631	 3,38147413332162E-02 
632	 3,40723516344718E-02 
633	 3,42215783853569E-02 
634	 3,46377106479474E-02 
635	 0,035249785957537 
636	 3,54053284819136E-02 
637	 3,53205447104382E-02 
638	 0,035232235851254 
639	 3,54919961990045E-02 
640	 3,60027017014223E-02 
641	 0,036452150138491 
642	 3,62472584244126E-02 
643	 3,54147909488461E-02 
644	 3,57844987075119E-02 
645	 3,65628958554427E-02 
646	 3,65061309459994E-02 
647	 3,65167845578231E-02 
648	 3,67657068112421E-02 
649	 3,71158714078379E-02 
650	 0,037261225447213 
651	 3,70540598443843E-02 
652	 3,71443986471368E-02 
653	 3,74905636176576E-02 
654	 3,78343485677122E-02 
655	 3,79602134966614E-02 
656	 3,77753061591464E-02 
657	 3,71863722260351E-02 
658	 3,71220056193856E-02 
659	 3,84516029989787E-02 
660	 3,88712786421611E-02 
661	 3,84370619832812E-02 
662	 3,89160606615813E-02 
663	 3,91483705334677E-02 
664	 3,86754238212826E-02 
665	 3,85277984093189E-02 
666	 3,86074634167092E-02 
667	 3,85581170334312E-02 
668	 0,038665801659071 
669	 3,89877086499769E-02 
670	 3,94579098156266E-02 
671	 3,98841542134876E-02 
672	 4,01203886808122E-02 
673	 4,03713521509123E-02 
674	 4,05916793708774E-02 
675	 4,04871087798052E-02 
676	 4,08747759974063E-02 
677	 4,18482559593804E-02 
678	 4,20198569772868E-02 
679	 4,20679811206444E-02 
680	 4,29174209020968E-02 
681	 4,37802234463502E-02 
682	 0,044444313922102 
683	 0,044703258474663 
684	 4,56893614661163E-02 
685	 4,78666136904836E-02 
686	 0,049072033011244 
687	 4,98468253608935E-02 
688	 5,17269122944288E-02 
689	 0,053183898087373 
690	 0,054091526155272 
691	 0,055973660151361 
692	 5,80151884444355E-02 
693	 5,94733317688889E-02 
694	 0,061227827289481 
695	 6,32783538280479E-02 
696	 6,52454053169967E-02 
697	 6,70591449767348E-02 
698	 0,068691234806383 
699	 7,02823715299485E-02 
700	 7,18281513177023E-02 
701	 7,32984061691898E-02 
702	 0,075074357103069 
703	 7,68754623602883E-02 
704	 7,73877844696805E-02 
705	 7,81197996310058E-02 
706	 7,99151656149271E-02 
707	 8,10691601622962E-02 
708	 8,19315001587616E-02 
709	 8,36513626077317E-02 
710	 8,49316147087306E-02 
711	 8,56101666125212E-02 
712	 8,68569312636911E-02 
713	 8,82480870404936E-02 
714	 8,93662742440448E-02 
715	 9,06849078961611E-02 
716	 9,19733848352602E-02 
717	 9,23654327569488E-02 
718	 9,30088177003455E-02 
719	 9,43077942776152E-02 
720	 9,54349360259496E-02 
721	 9,64706973151832E-02 
722	 9,76234134512752E-02 
723	 9,85223387075084E-02 
724	 9,91921389553798E-02 
725	 9,99770163022218E-02 
726	 0,100964901531089 
727	 0,102142404440345 
728	 0,102925806700676 
729	 0,103475182993767 
730	 0,104220077587643 
731	 0,105027278010914 
732	 0,105764902943676 
733	 0,105955831073843 
734	 0,10634714473713 
735	 0,107548759555503 
736	 0,108623838751762 
737	 0,109377834247006 
738	 0,109763819349325 
739	 0,110268607663027 
740	 0,111051188515257 
741	 0,111716856243361 
742	 0,112406191515333 
743	 0,113304772449683 
744	 0,113780182342839 
745	 0,113987890106159 
746	 0,114863504726961 
747	 0,115725678312126 
748	 0,116231897357086 
749	 0,116697915441104 
750	 0,117246233557585 
751	 0,118011917067507 
752	 0,118644674113725 
753	 0,119094778996945 
754	 0,119570367146227 
755	 0,120109996092681 
756	 0,12073889070847 
757	 0,121415196792475 
758	 0,122057880352548 
759	 0,122530531397782 
760	 0,122960282600159 
761	 0,123418226365528 
762	 0,124030940813195 
763	 0,124554278761947 
764	 0,124781369572673 
765	 0,125236171317661 
766	 0,125854684358629 
767	 0,126193257946872 
768	 0,126551982358114 
769	 0,127019945247465 
770	 0,12742230451908 
771	 0,127749608813304 
772	 0,12801092306068 
773	 0,128375853842865 
774	 0,128769601458379 
775	 0,128822898667927 
776	 0,128927058846712 
777	 0,129243650614864 
778	 0,129332406881979 
779	 0,129401471263188 
780	 0,12982254770767 
781	 0,130144223603693 
782	 0,13023002053692 
783	 0,130077352907035 
784	 0,129892145151183 
785	 0,129812074196878 
786	 0,129686484076388 
787	 0,129619556197805 
788	 0,129842070353479 
789	 0,129864020972142 
790	 0,129623931944844 
791	 0,129542415427545 
792	 0,129553935817473 
793	 0,129565134538006 
794	 0,12926725808781 
795	 0,128762828844806 
796	 0,128368995550417 
797	 0,128041192751963 
798	 0,127800797269253 
799	 0,127752934959728 
800	 0,127652979055815 
801	 0,127289570249385 
802	 0,126983977410872 
803	 0,126978049352468 
804	 0,127767698689158 
805	 0,128315419620636 
806	 0,128337542429076 
807	 0,128691718520354 
808	 0,129272317846163 
809	 0,129896555319705 
810	 0,130493934856115 
811	 0,13113919080154 
812	 0,132147632985628 
813	 0,13297149066033 
814	 0,133405137800833 
815	 0,133783820178226 
816	 0,134292490262939 
817	 0,135094431653398 
818	 0,135580656412459 
819	 0,135672403950904 
820	 0,135601779875099 
821	 0,13544351197881 
822	 0,135353647676843 
823	 0,135920950339386 
824	 0,136498821211802 
825	 0,13620968619963 
826	 0,136107975022799 
827	 0,136270208648137 
828	 0,136109934700553 
829	 0,135851701476479 
830	 0,135612122687446 
831	 0,135362292252833 
832	 0,1351572065608 
833	 0,135067226699621 
834	 0,134642543637307 
835	 0,134004152022698 
836	 0,133905102172692 
837	 0,133918239327145 
838	 0,133793058732815 
839	 0,133542108226255 
840	 0,13320689146398 
841	 0,132848556118731 
842	 0,132921668031807 
843	 0,133260329220087 
844	 0,132949358688777 
845	 0,132505165123556 
846	 0,132191814985078 
847	 0,131689121340011 
848	 0,131319213890416 
849	 0,131560592698839 
850	 0,131391821598532 
851	 0,130846346613551 
852	 0,130938238241511 
853	 0,131059943766604 
854	 0,130960959962473 
855	 0,13133934097339 
856	 0,131743284929652 
857	 0,131479144844692 
858	 0,131090001888661 
859	 0,130842654069302 
860	 0,131092241182062 
861	 0,131453352920504 
862	 0,13166234908875 
863	 0,13146382713452 
864	 0,131315848071477 
865	 0,131830378628899 
866	 0,132438211469513 
867	 0,13284977146818 
868	 0,13253173996936 
869	 0,132868709570799 
870	 0,13424347227186 
871	 0,134609454174583 
872	 0,134334107043474 
873	 0,134130817150728 
874	 0,134907266119295 
875	 0,136160059718092 
876	 0,135784168170326 
877	 0,135574840156055 
878	 0,136123175733808 
879	 0,136093086738704 
880	 0,136155125872892 
881	 0,137062145488504 
882	 0,137380971700475 
883	 0,137219761056621 
884	 0,13761605663516 
885	 0,138218658786325 
886	 0,138772882565638 
887	 0,138544392719822 
888	 0,138411988525589 
889	 0,139188550154104 
890	 0,139937284515497 
891	 0,14039890025082 
892	 0,140376589202526 
893	 0,140618957046373 
894	 0,141230143434462 
895	 0,141439638154619 
896	 0,141479801157758 
897	 0,141590881008279 
898	 0,142015810278969 
899	 0,142613267252894 
900	 0,143059509758102 
901	 0,143555706278374 
902	 0,143922903611266 
903	 0,143174701627336 
904	 0,143274247568944 
905	 0,145025909654575 
906	 0,14451782403355 
907	 0,143512028403434 
908	 0,145134248380942 
909	 0,145613845781278 
910	 0,144880013873094 
911	 0,145734535671459 
912	 0,146446979617795 
913	 0,146258654602675 
914	 0,145659339186537 
915	 0,145553312383711 
916	 0,146782209312142 
917	 0,14721265134553 
918	 0,146950785168913 
919	 0,147425890249208 
920	 0,147985253177207 
921	 0,148357550484314 
922	 0,148307772295628 
923	 0,148199156623452 
924	 0,148322121631598 
925	 0,148378116214653 
926	 0,148067864543836 
927	 0,146923309548111 
928	 0,14638041061314 
929	 0,146508078993933 
930	 0,145819376507605 
931	 0,145307907600886 
932	 0,145451387475458 
933	 0,145224635668588 
934	 0,144962585712575 
935	 0,145199442178604 
936	 0,144786663938656 
937	 0,143739250538406 
938	 0,142726730680347 
939	 0,142407829640131 
940	 0,142837869089316 
941	 0,142889895510307 
942	 0,141970195088333 
943	 0,139779129624821 
944	 0,137882644558058 
945	 0,137286579643742 
946	 0,139327211538375 
947	 0,138848019284945 
948	 0,135729230373661 
949	 0,1357435905413 
950	 0,135155826612875 
951	 0,132481236530817 
952	 0,132977781397913 
953	 0,133694427008855 
954	 0,130650838381967 
955	 0,128554855980461 
956	 0,128165781740381 
957	 0,129011534235865 
958	 0,128239291328678 
959	 0,125629190295033 
960	 0,125383941625806 
961	 0,125991000660216 
962	 0,126223551557544 
963	 0,127160045811897 
964	 0,127615176806662 
965	 0,125714397051111 
966	 0,12536734380307 
967	 0,126403522513966 
968	 0,124998280784626 
969	 0,123867863586617 
970	 0,12388960254768 
971	 0,123009712570481 
972	 0,122967619134987 
973	 0,125056679498247 
974	 0,124746345997776 
975	 0,12299614497083 
976	 0,122928634255991 
977	 0,122084567309567 
978	 0,120969285668774 
979	 0,123541653445396 
980	 0,125706076924104 
981	 0,125292354449707 
982	 0,122834585216257 
983	 0,120936211785345 
984	 0,122119886171249 
985	 0,124730788216324 
986	 0,126715181576878 
987	 0,124823373589038 
988	 0,124301834700524 
989	 0,125937390895239 
990	 0,126700203254364 
991	 0,125904517486356 
992	 0,124012369870121 
993	 0,126250550516469 
994	 0,128735156351017 
995	 0,127351352396989 
996	 0,127759329289293 
997	 0,129036815582423 
998	 0,127305995275601 
999	 0,128734594886369 
1000	 0,133096362785241 
1001	 0,133577011240843 
1002	 0,1317793514896 
1003	 0,129316319751204 
1004	 0,130142447045059 
1005	 0,132168434081805 
1006	 0,133167038370227 
1007	 0,136174835981755 
1008	 0,138210838461826 
1009	 0,13343704767725 
1010	 0,132700225061314 
1011	 0,136442419268442 
1012	 0,135621255192948 
1013	 0,134360850447599 
1014	 0,134339575727061 
1015	 0,135352356015214 
1016	 0,134684989035234 
1017	 0,131086177652839 
1018	 0,133850970462598 
1019	 0,140260570602119 
1020	 0,144026720620037 
1021	 0,142966280824416 
1022	 0,139795422312512 
1023	 0,144178486450673 
1024	 0,146579831646148 
1025	 0,144878804886442 
1026	 0,145078008009948 
1027	 0,144931459661232 
1028	 0,143260916016516 
1029	 0,142615862440282 
1030	 0,143882603625711 
1031	 0,147379876335346 
1032	 0,147633643252979 
1033	 0,147172572733504 
1034	 0,153546472744562 
1035	 0,153748185789186 
1036	 0,147215315503659 
1037	 0,144649110163473 
1038	 0,147379306966676 
1039	 0,154622471390489 
1040	 0,159229846982221 
1041	 0,157768015382345 
1042	 0,149445480944844 
1043	 0,149299770387047 
1044	 0,15353482052228 
1045	 0,15383015594356 
1046	 0,15192526479613 
1047	 0,150773779856899 
1048	 0,15727505432016 
1049	 0,155759096177738 
1050	 0,145611218534353 
1051	 0,143573190252813 
1052	 0,146721202659276 
1053	 0,15279394923043 
1054	 0,157656664436352 
1055	 0,160792191764948 
1056	 0,162559257798522 
1057	 0,167990091013436 
1058	 0,169209059767137 
1059	 0,155624116432881 
1060	 0,145754359805208 
1061	 0,145555761201635 
1062	 0,158250214530671 
1063	 0,15799658617571 
1064	 0,144412523164717 
1065	 0,148047319292024 
1066	 0,153065630247135 
1067	 0,152785176107982 
1068	 0,153284334550409 
1069	 0,151661642962965 
1070	 0,14713440558278 
1071	 0,152838189708617 
1072	 0,155921607695853 
1073	 0,141834049728152 
1074	 0,152026920392164 
1075	 0,169961101625463 
