Wavelength	GOOSEBAR00227.asd
325	-0,256959265501947 
326	-0,024702173730078 
327	-6,66533198945145E-03 
328	-0,229313374717119 
329	-0,144556533908683 
330	 2,76737151737152E-02 
331	 0,124790335134898 
332	 5,10395579648169E-02 
333	-6,17300261747476E-02 
334	-0,107212368203507 
335	-1,64417480351131E-02 
336	 0,129017376595418 
337	 0,194467052871802 
338	 0,20413172214273 
339	 0,14020203148392 
340	 0,104602193334486 
341	 0,113083573863201 
342	 0,138658891463847 
343	 0,14409307875895 
344	 0,122415737538504 
345	 9,73304178641821E-02 
346	 7,94486212450385E-02 
347	 7,73210849494505E-02 
348	 0,094556975914231 
349	 0,117224394509162 
350	 0,113761689625764 
351	 0,106595676554845 
352	 0,10914123974591 
353	 0,150895110049328 
354	 0,178133314552227 
355	 0,143901692001999 
356	 0,111437971069993 
357	 9,57774979393374E-02 
358	 9,41562580114778E-02 
359	 0,102905377316348 
360	 0,115757968069223 
361	 0,114735408269891 
362	 0,108978224476162 
363	 0,113891790094466 
364	 0,110476211584269 
365	 0,100033123150423 
366	 0,10921616166055 
367	 0,107482887896162 
368	 8,20333284756137E-02 
369	 0,092728927762331 
370	 0,119891374403771 
371	 0,120652973071115 
372	 0,102747704207505 
373	 7,98385177114503E-02 
374	 0,103127622304791 
375	 0,125722682370606 
376	 0,118737519124021 
377	 0,108985803021898 
378	 0,102859643021416 
379	 0,100003475445974 
380	 0,101769166566561 
381	 0,108154889372387 
382	 0,119936150174519 
383	 0,121763032843699 
384	 0,101243594528039 
385	 0,107597082110395 
386	 0,130625907480448 
387	 0,122942696403817 
388	 0,117014419671239 
389	 0,123600592921473 
390	 0,124449238384052 
391	 0,124601442015881 
392	 0,131148015092114 
393	 0,126529403014981 
394	 0,112421248867053 
395	 0,10311149365079 
396	 9,88767065195433E-02 
397	 0,100711222208091 
398	 0,111915617262243 
399	 0,12391477826287 
400	 0,122403196230068 
401	 0,127116093247685 
402	 0,136522823946732 
403	 0,125869425247886 
404	 0,116865407849146 
405	 0,123447451083531 
406	 0,131469951208128 
407	 0,134994002448291 
408	 0,126641881330637 
409	 0,121905917746402 
410	 0,124583179212321 
411	 0,126125562202603 
412	 0,126394181171477 
413	 0,125765189517996 
414	 0,126067304121681 
415	 0,12689257554015 
416	 0,125943128254553 
417	 0,126914950425771 
418	 0,130200322808643 
419	 0,129161919043088 
420	 0,126327457699811 
421	 0,125698737020111 
422	 0,121273695302956 
423	 0,115632813628293 
424	 0,121819715943412 
425	 0,1261668970863 
426	 0,121651994843489 
427	 0,122877105191186 
428	 0,127387742554744 
429	 0,127254675103235 
430	 0,130035058469565 
431	 0,135166290683299 
432	 0,130753322318928 
433	 0,12615270686612 
434	 0,12965831014114 
435	 0,132180952017475 
436	 0,132457040260934 
437	 0,13175253643692 
438	 0,129674519796637 
439	 0,126741885078857 
440	 0,125848496968604 
441	 0,12625230227069 
442	 0,126684385282088 
443	 0,126084228988281 
444	 0,125489924113418 
445	 0,129605982388568 
446	 0,132982567392288 
447	 0,132132546971794 
448	 0,127930091626603 
449	 0,1240311641357 
450	 0,126646152182923 
451	 0,130723043071051 
452	 0,133347233498905 
453	 0,129415171904186 
454	 0,12624998090132 
455	 0,130365950862393 
456	 0,130437103121125 
457	 0,127086190725318 
458	 0,127675669517665 
459	 0,128773735035249 
460	 0,129277809327375 
461	 0,131247819301782 
462	 0,133345693526192 
463	 0,133573073791059 
464	 0,132785149472383 
465	 0,131447951012056 
466	 0,130441855909986 
467	 0,129110241724202 
468	 0,12728415945411 
469	 0,127394965057756 
470	 0,129466584334668 
471	 0,133141862536833 
472	 0,134410967970475 
473	 0,13277137914582 
474	 0,132902950440457 
475	 0,133689277350407 
476	 0,133782412950901 
477	 0,134049026187302 
478	 0,134375312358814 
479	 0,134107038616277 
480	 0,133504060892927 
481	 0,132804668632021 
482	 0,132558461141465 
483	 0,132877359234116 
484	 0,133842881678185 
485	 0,134116520739373 
486	 0,133603532110075 
487	 0,133413089741198 
488	 0,133797803743261 
489	 0,134763181566715 
490	 0,134298726099311 
491	 0,133185344896481 
492	 0,134020479115607 
493	 0,134314232692866 
494	 0,133940045674359 
495	 0,137326374442444 
496	 0,139792363428823 
497	 0,135925766265048 
498	 0,134684469881184 
499	 0,136616508944661 
500	 0,13652069802461 
501	 0,136877988238033 
502	 0,138532800901228 
503	 0,136879094398172 
504	 0,133959020679691 
505	 0,134156251849719 
506	 0,135433564414159 
507	 0,136572179715687 
508	 0,134958109517522 
509	 0,133420535011681 
510	 0,134524538911941 
511	 0,135849802520604 
512	 0,136750703866041 
513	 0,137008991270414 
514	 0,136336759606925 
515	 0,135097184021785 
516	 0,1362051064459 
517	 0,138115576107955 
518	 0,138318023304388 
519	 0,13799416121858 
520	 0,137782187583622 
521	 0,138872420169422 
522	 0,140139693370016 
523	 0,140595155975414 
524	 0,138814375005691 
525	 0,136505039448487 
526	 0,138061930576453 
527	 0,139084633079702 
528	 0,138398010366117 
529	 0,138536233587571 
530	 0,138776770904594 
531	 0,138119537378494 
532	 0,138495699360479 
533	 0,139613766772765 
534	 0,139145833070331 
535	 0,138803906366326 
536	 0,139430820243275 
537	 0,139052594120508 
538	 0,138278827859719 
539	 0,138627213959681 
540	 0,139691399352279 
541	 0,141014035925549 
542	 0,141149676292942 
543	 0,140973867246766 
544	 0,141405403927276 
545	 0,142048221600261 
546	 0,142603028309241 
547	 0,142543822095901 
548	 0,14203953832938 
549	 0,141205555859545 
550	 0,140109048035904 
551	 0,139354721411733 
552	 0,139830048470815 
553	 0,140214971963366 
554	 0,140193862259373 
555	 0,140186403477995 
556	 0,140487580935344 
557	 0,141251159199057 
558	 0,141323393427512 
559	 0,140780213679291 
560	 0,1402479664479 
561	 0,140237985842902 
562	 0,140897928921334 
563	 0,141540983205251 
564	 0,141698843066036 
565	 0,140865539278838 
566	 0,141077519842454 
567	 0,14236513711738 
568	 0,142919032609506 
569	 0,14279285901438 
570	 0,142143836531723 
571	 0,142159875837324 
572	 0,142656172560582 
573	 0,14284476306911 
574	 0,142544164193352 
575	 0,141934723112726 
576	 0,142467065192684 
577	 0,143255465800224 
578	 0,1432149646361 
579	 0,143268819166015 
580	 0,143551735223918 
581	 0,1438799263126 
582	 0,143950218040223 
583	 0,14365840265985 
584	 0,143699094055922 
585	 0,143959946080906 
586	 0,144073730816272 
587	 0,144222368545639 
588	 0,144318551655549 
589	 0,143617487432176 
590	 0,143603846900432 
591	 0,145493327079525 
592	 0,145505426684169 
593	 0,143819026672823 
594	 0,142952953082846 
595	 0,142640789904084 
596	 0,142834275895088 
597	 0,143405539377522 
598	 0,143966543916985 
599	 0,14399698584817 
600	 0,144281188034407 
601	 0,144804501830264 
602	 0,144704962789703 
603	 0,144199417735648 
604	 0,143561686150869 
605	 0,143613462983568 
606	 0,14420660129927 
607	 0,144665367275996 
608	 0,144812497993133 
609	 0,144713269150272 
610	 0,145433053816633 
611	 0,146196632512666 
612	 0,145957550817291 
613	 0,145689892304506 
614	 0,14544892175589 
615	 0,14445884490792 
616	 0,143909218329328 
617	 0,144485035652411 
618	 0,145031245871988 
619	 0,145122873757735 
620	 0,144218028199741 
621	 0,14391986470812 
622	 0,144545336845382 
623	 0,144667841137676 
624	 0,144635211221868 
625	 0,144864409489261 
626	 0,144561625784732 
627	 0,143954754239283 
628	 0,144153017519955 
629	 0,144466025773504 
630	 0,144529744263329 
631	 0,144446320006872 
632	 0,14429841210122 
633	 0,144189600682885 
634	 0,144342885177314 
635	 0,144655120655505 
636	 0,144407325132202 
637	 0,144091117678738 
638	 0,14417975567852 
639	 0,145003211642512 
640	 0,146061464840305 
641	 0,146010876276964 
642	 0,145679418568742 
643	 0,145426930410173 
644	 0,145236809510902 
645	 0,145357385012072 
646	 0,146089172641412 
647	 0,14619889639161 
648	 0,1457594268869 
649	 0,146329492864249 
650	 0,146500090655316 
651	 0,145482332782577 
652	 0,145194833739758 
653	 0,145511302915527 
654	 0,14557898352082 
655	 0,145608758789018 
656	 0,145595895423246 
657	 0,145340059689208 
658	 0,145109836992424 
659	 0,145186813462081 
660	 0,145407730426513 
661	 0,145610693492578 
662	 0,145471325909112 
663	 0,145240532392011 
664	 0,145053709529078 
665	 0,144903197065891 
666	 0,144691647524247 
667	 0,144238362683969 
668	 0,144228891225645 
669	 0,144689772301192 
670	 0,144891083917451 
671	 0,145028187645818 
672	 0,145246512603142 
673	 0,145185875330508 
674	 0,144984711081188 
675	 0,145082455956351 
676	 0,145341858510634 
677	 0,145644083925828 
678	 0,145577000664257 
679	 0,145487084059093 
680	 0,145816273246223 
681	 0,145842423152428 
682	 0,145686206362845 
683	 0,146280449037023 
684	 0,146915261866118 
685	 0,147198717711817 
686	 0,14764906636086 
687	 0,148100138703728 
688	 0,148106775510313 
689	 0,148491013279967 
690	 0,149427891606295 
691	 0,15044953772434 
692	 0,151440893662484 
693	 0,15232457799064 
694	 0,153316852454261 
695	 0,154325132561758 
696	 0,154994186645997 
697	 0,155711925562614 
698	 0,156617557668578 
699	 0,157500968516568 
700	 0,158241919602824 
701	 0,158714853910645 
702	 0,159483471346782 
703	 0,160380392974499 
704	 0,160281853522144 
705	 0,16041821595205 
706	 0,161445811192124 
707	 0,161717915550051 
708	 0,161708968622464 
709	 0,162724904652952 
710	 0,163839149204212 
711	 0,164727032062874 
712	 0,165369338186771 
713	 0,165797064102986 
714	 0,166077509156787 
715	 0,166671672696281 
716	 0,167462519723755 
717	 0,16790905883299 
718	 0,16820603428848 
719	 0,168561181298467 
720	 0,169713249524245 
721	 0,171007152532975 
722	 0,17153852205526 
723	 0,172239439305807 
724	 0,173071921262367 
725	 0,173052101676738 
726	 0,173380803792741 
727	 0,174694931932456 
728	 0,175684162689236 
729	 0,176254158297929 
730	 0,176567252540638 
731	 0,17697901927684 
732	 0,177589843954863 
733	 0,178241341552915 
734	 0,178701250155897 
735	 0,178822054844401 
736	 0,179348504350212 
737	 0,180191746742573 
738	 0,180804109297131 
739	 0,181285906034982 
740	 0,181677616312353 
741	 0,182074903315194 
742	 0,182600981414706 
743	 0,183371061865488 
744	 0,183742472905211 
745	 0,183900696993143 
746	 0,184922173742818 
747	 0,185816082477425 
748	 0,186096063719297 
749	 0,186364180464467 
750	 0,186799427289084 
751	 0,187576982853395 
752	 0,187906409089583 
753	 0,187808532074568 
754	 0,188262796643844 
755	 0,188771891401309 
756	 0,189000545049475 
757	 0,189494770092886 
758	 0,190038871950707 
759	 0,190009842111412 
760	 0,190200808117248 
761	 0,190754986912373 
762	 0,191056654290252 
763	 0,191138998128998 
764	 0,191090599354955 
765	 0,191331328227825 
766	 0,191773819236434 
767	 0,192007303993155 
768	 0,19196710577255 
769	 0,191716584453074 
770	 0,191821224368178 
771	 0,192143549052881 
772	 0,192451702130082 
773	 0,192469619436416 
774	 0,192266724952356 
775	 0,192284738619728 
776	 0,192315014933247 
777	 0,192248499043579 
778	 0,192115239630552 
779	 0,191890343149933 
780	 0,191529944051971 
781	 0,191419578757342 
782	 0,191497461022752 
783	 0,191202482589548 
784	 0,190590057529266 
785	 0,189800059178619 
786	 0,189642304981893 
787	 0,18980150161418 
788	 0,189519665192536 
789	 0,189032340408423 
790	 0,188423691274639 
791	 0,187778976133951 
792	 0,187241392909832 
793	 0,186927213181327 
794	 0,186850257844596 
795	 0,1866897703689 
796	 0,18573278333515 
797	 0,185109420404285 
798	 0,185080140163805 
799	 0,184841652723002 
800	 0,184547473523187 
801	 0,184385057638285 
802	 0,184425121671018 
803	 0,184595494135488 
804	 0,184665154202194 
805	 0,184843741541763 
806	 0,185146082515824 
807	 0,185169552539406 
808	 0,185465055530478 
809	 0,186580882061464 
810	 0,187014772692968 
811	 0,186944371317554 
812	 0,187829730027705 
813	 0,188511620890908 
814	 0,18862559511554 
815	 0,189078490910883 
816	 0,189652956408961 
817	 0,190012931313751 
818	 0,190670311428966 
819	 0,191457410086093 
820	 0,191574260257307 
821	 0,191574501169164 
822	 0,191707165928339 
823	 0,191752914597231 
824	 0,191725426369007 
825	 0,191663262693211 
826	 0,191367237790305 
827	 0,191045324306022 
828	 0,191535300219613 
829	 0,191732808944656 
830	 0,191160940747683 
831	 0,190870002913162 
832	 0,190702486182634 
833	 0,190290570746839 
834	 0,189724469946785 
835	 0,18922399797589 
836	 0,189425250759169 
837	 0,189611488143691 
838	 0,189376587741406 
839	 0,188894544635426 
840	 0,188499946754971 
841	 0,188621451285382 
842	 0,188584180162515 
843	 0,188363781781445 
844	 0,188506481292242 
845	 0,188615673978956 
846	 0,188448633508086 
847	 0,1879364613539 
848	 0,187490183049513 
849	 0,187679264868575 
850	 0,187720262928314 
851	 0,187540266366028 
852	 0,187571862442158 
853	 0,187745090624686 
854	 0,188027624384005 
855	 0,188484049395973 
856	 0,188801331425899 
857	 0,188570304592271 
858	 0,18824809554228 
859	 0,188154643855793 
860	 0,188938757717835 
861	 0,189380560178818 
862	 0,18896677695653 
863	 0,188967849035223 
864	 0,189172945717761 
865	 0,189137405011311 
866	 0,189309081295708 
867	 0,18960779579194 
868	 0,189356824832918 
869	 0,189803770760446 
870	 0,191241410499083 
871	 0,191604533922692 
872	 0,191328637530519 
873	 0,191211025288849 
874	 0,192109056152617 
875	 0,193534984614565 
876	 0,193642509341289 
877	 0,192874614660591 
878	 0,191795812232086 
879	 0,192426284418691 
880	 0,19362305245538 
881	 0,193985150630887 
882	 0,194226516733721 
883	 0,194407789425982 
884	 0,194298991246927 
885	 0,194598037814054 
886	 0,195356235115767 
887	 0,19536682534845 
888	 0,195306176554902 
889	 0,195863468381989 
890	 0,196720892263081 
891	 0,197467244312701 
892	 0,197342493549562 
893	 0,197272654172354 
894	 0,197510252977706 
895	 0,197605861513126 
896	 0,197892101981398 
897	 0,198618056373725 
898	 0,199516800035768 
899	 0,200361878611611 
900	 0,200873138624282 
901	 0,201077313234434 
902	 0,201027810320824 
903	 0,200689963658478 
904	 0,201276934050286 
905	 0,203219802782108 
906	 0,20373810717941 
907	 0,203640147558962 
908	 0,204561559676192 
909	 0,205151528311322 
910	 0,205463092002173 
911	 0,206724711056627 
912	 0,207567994053982 
913	 0,207535372410176 
914	 0,208116645559085 
915	 0,208732347539421 
916	 0,20865582914675 
917	 0,209032712893577 
918	 0,209892158074712 
919	 0,210637899723103 
920	 0,211881740527615 
921	 0,213604688927323 
922	 0,214928310403822 
923	 0,215644575532599 
924	 0,215688676775656 
925	 0,215895650822413 
926	 0,216128848524754 
927	 0,215825261805623 
928	 0,2161839683589 
929	 0,217161917573005 
930	 0,217341928030894 
931	 0,217111583297459 
932	 0,216857173163576 
933	 0,217460442538993 
934	 0,218470339578261 
935	 0,219161014285471 
936	 0,219152374962304 
937	 0,218635030388113 
938	 0,218260189133148 
939	 0,218972696323037 
940	 0,220599360047795 
941	 0,22014249085713 
942	 0,219572502411044 
943	 0,220591714570159 
944	 0,22032681808801 
945	 0,219730154073845 
946	 0,221471564223225 
947	 0,221509630123707 
948	 0,219662480402212 
949	 0,219619096418035 
950	 0,220414492958394 
951	 0,221243191346382 
952	 0,220746620184648 
953	 0,21963951001537 
954	 0,218994364070957 
955	 0,218522667722268 
956	 0,218662753896037 
957	 0,22082704763686 
958	 0,221443569173889 
959	 0,219813869789542 
960	 0,219147228316788 
961	 0,218731480165799 
962	 0,218145324644675 
963	 0,219337345541541 
964	 0,220467827712346 
965	 0,218467002117141 
966	 0,218431104913783 
967	 0,220627773734456 
968	 0,222018850900157 
969	 0,221584973545762 
970	 0,21949948164764 
971	 0,219613567502897 
972	 0,220787585691257 
973	 0,221620696700994 
974	 0,221421445150651 
975	 0,220842521614337 
976	 0,221342509592391 
977	 0,220954294371724 
978	 0,219843052320878 
979	 0,220313247810073 
980	 0,221802178295886 
981	 0,22318737388247 
982	 0,219458796827982 
983	 0,217275745720918 
984	 0,22299772884141 
985	 0,224899630206176 
986	 0,223213769389497 
987	 0,22272978762367 
988	 0,221324519311006 
989	 0,219657551400375 
990	 0,221675662329722 
991	 0,223402765522006 
992	 0,223089473458585 
993	 0,223815417336193 
994	 0,225150661038558 
995	 0,226387713639113 
996	 0,22756140116438 
997	 0,228080949700304 
998	 0,226862437714393 
999	 0,227072679620521 
1000	 0,228884919818733 
1001	 0,229487306931804 
1002	 0,229293213523424 
1003	 0,228513920157285 
1004	 0,227291176462975 
1005	 0,226136199217838 
1006	 0,225864301109761 
1007	 0,230475430870671 
1008	 0,235627740413116 
1009	 0,232915409186496 
1010	 0,229632183187606 
1011	 0,228116459629173 
1012	 0,228809910070797 
1013	 0,231046548778294 
1014	 0,23354943425079 
1015	 0,231783390982251 
1016	 0,229989268804189 
1017	 0,231594686098041 
1018	 0,23157685240513 
1019	 0,230947983231527 
1020	 0,232200313022785 
1021	 0,231573905146225 
1022	 0,229905790582984 
1023	 0,231545555195864 
1024	 0,236709867823386 
1025	 0,242863529878589 
1026	 0,238557904840284 
1027	 0,233960807400926 
1028	 0,235613149066233 
1029	 0,236564587213928 
1030	 0,237523471087912 
1031	 0,239891348905496 
1032	 0,240509429933614 
1033	 0,24071195489253 
1034	 0,24460092419017 
1035	 0,243616052747226 
1036	 0,237853702425461 
1037	 0,236076012009538 
1038	 0,236529377105642 
1039	 0,238424973447842 
1040	 0,241487815083874 
1041	 0,242949458259944 
1042	 0,24130396679 
1043	 0,244589884863499 
1044	 0,247389305020901 
1045	 0,24134091769704 
1046	 0,235146754600794 
1047	 0,232593529793747 
1048	 0,237825007959151 
1049	 0,24188646177216 
1050	 0,242154506158604 
1051	 0,24099310099458 
1052	 0,239821880343929 
1053	 0,239737887228797 
1054	 0,241019537721126 
1055	 0,243910918181518 
1056	 0,24794255182255 
1057	 0,24833391361337 
1058	 0,244790593828502 
1059	 0,238280644253106 
1060	 0,234488990092483 
1061	 0,234314745865512 
1062	 0,236193776700162 
1063	 0,236327930942241 
1064	 0,233432365562931 
1065	 0,226706554906235 
1066	 0,229903669995863 
1067	 0,244552507796591 
1068	 0,244692994542295 
1069	 0,239185770578673 
1070	 0,237135845070565 
1071	 0,248697490782132 
1072	 0,257065867669488 
1073	 0,242816648209132 
1074	 0,240252824202655 
1075	 0,241509654557357 
