Wavelength	GOOSEBAR00306.asd
325	 0,171791316953628 
326	 0,330925728976182 
327	 0,252771756389192 
328	-8,33575651836774E-02 
329	-2,53736855404591E-02 
330	 0,210501304251304 
331	 0,426791789542154 
332	 0,187994166907661 
333	-9,12202418048112E-02 
334	 0,116230366492147 
335	 0,303788604496132 
336	 0,235629920015841 
337	 0,230809434895709 
338	 0,232051134761402 
339	 0,18796273822897 
340	 0,123406645302094 
341	 0,106286191654851 
342	 0,227389073029267 
343	 0,259704944347055 
344	 0,176372716455247 
345	 0,161463551985064 
346	 0,176536334879044 
347	 0,168221229715294 
348	 0,182893708380418 
349	 0,196825943163282 
350	 0,130272032362966 
351	 9,68019502445834E-02 
352	 0,126860789699635 
353	 0,144266755363948 
354	 0,149481954487119 
355	 0,153726244316312 
356	 0,140228724607913 
357	 0,11775514903147 
358	 0,121565358620601 
359	 0,140896751672137 
360	 0,163561296459738 
361	 0,153855674976365 
362	 0,137864824526588 
363	 0,157351460221551 
364	 0,155190454304732 
365	 0,13111750739831 
366	 0,141136117762226 
367	 0,15211216787095 
368	 0,14608010266734 
369	 0,14316975502123 
370	 0,14878341237193 
371	 0,169382109796127 
372	 0,164461014955022 
373	 0,134102083602923 
374	 0,137790152135833 
375	 0,152383885102699 
376	 0,162819415955562 
377	 0,186008053599793 
378	 0,199823642258546 
379	 0,158125118763211 
380	 0,135445716814562 
381	 0,150429898275479 
382	 0,145670600387521 
383	 0,141625539841646 
384	 0,158691454016471 
385	 0,155461452351711 
386	 0,143606153391389 
387	 0,174677313596393 
388	 0,18535038880323 
389	 0,157441726497408 
390	 0,147309033554612 
391	 0,151945747412866 
392	 0,16253800995632 
393	 0,161084107485086 
394	 0,149610052903943 
395	 0,146477474899679 
396	 0,147358251259559 
397	 0,150266480278979 
398	 0,158069130236151 
399	 0,164103279705274 
400	 0,157468369631166 
401	 0,153319070050031 
402	 0,154942247772725 
403	 0,159616688844057 
404	 0,161779146856287 
405	 0,158389813266375 
406	 0,157861961598339 
407	 0,15802018119091 
408	 0,151591236234866 
409	 0,147600594851458 
410	 0,149045756180967 
411	 0,155364254888294 
412	 0,158733943876189 
413	 0,152808633331544 
414	 0,151838409289227 
415	 0,156736069965782 
416	 0,164738729586568 
417	 0,164173135700431 
418	 0,153609507686338 
419	 0,156004098467598 
420	 0,162635847168073 
421	 0,160024196535445 
422	 0,154893541985866 
423	 0,150794718734547 
424	 0,154314416153812 
425	 0,157582348506322 
426	 0,155984455365126 
427	 0,152705702181807 
428	 0,151644459400745 
429	 0,15907691357099 
430	 0,16460173113189 
431	 0,164807857084272 
432	 0,160384151466629 
433	 0,157011777836332 
434	 0,159369759221838 
435	 0,16074089501002 
436	 0,160259494904971 
437	 0,159061893939541 
438	 0,157023817250805 
439	 0,155095823508492 
440	 0,15850304223642 
441	 0,161789125091634 
442	 0,157676266463531 
443	 0,15426715721861 
444	 0,154355043153146 
445	 0,160122155204537 
446	 0,165535372950925 
447	 0,16668943604667 
448	 0,164743427113368 
449	 0,163074625594807 
450	 0,167672997318624 
451	 0,170705357086518 
452	 0,169864406991741 
453	 0,166473390446133 
454	 0,165122721939505 
455	 0,169594039120711 
456	 0,171435519613168 
457	 0,170705527445723 
458	 0,171968862963826 
459	 0,173720533757602 
460	 0,175259553156736 
461	 0,175749796297042 
462	 0,176527548747039 
463	 0,179473103618063 
464	 0,178314782058388 
465	 0,174047849685294 
466	 0,175890083974615 
467	 0,177809426133021 
468	 0,175851707850465 
469	 0,171887388990694 
470	 0,169468493568658 
471	 0,17513158363599 
472	 0,178826227353785 
473	 0,178029997307866 
474	 0,177842401671149 
475	 0,178001401249771 
476	 0,177971288906308 
477	 0,177015471961322 
478	 0,176479981048566 
479	 0,180914614072662 
480	 0,183060800265868 
481	 0,180098465078311 
482	 0,178249656292637 
483	 0,178428339483506 
484	 0,180974050397662 
485	 0,180714223594659 
486	 0,177708881239255 
487	 0,178058839303642 
488	 0,17922799422926 
489	 0,17926272747028 
490	 0,179552456708435 
491	 0,179873081863754 
492	 0,178929853039645 
493	 0,179918297587851 
494	 0,183135951867715 
495	 0,183676293036451 
496	 0,18379122519886 
497	 0,186365344232382 
498	 0,186333299019565 
499	 0,184517266222708 
500	 0,187269735245781 
501	 0,188756668122064 
502	 0,186231335985421 
503	 0,185901472918836 
504	 0,1868631938155 
505	 0,185963789395962 
506	 0,186826943845826 
507	 0,189354097299173 
508	 0,188491928232959 
509	 0,187307815797745 
510	 0,188717677381993 
511	 0,191369661889676 
512	 0,1938109643658 
513	 0,193047284528849 
514	 0,192198934000416 
515	 0,192648560077862 
516	 0,193514455834247 
517	 0,194463628452753 
518	 0,195152869934204 
519	 0,195733575936525 
520	 0,196441595582649 
521	 0,198008674087511 
522	 0,199532329399363 
523	 0,200255211575279 
524	 0,199396867507576 
525	 0,198129850522333 
526	 0,199276610793182 
527	 0,200567390747231 
528	 0,20124766639049 
529	 0,201810128121243 
530	 0,202226341061174 
531	 0,202443239130841 
532	 0,202741482847398 
533	 0,203116769968296 
534	 0,2031302652915 
535	 0,204001275736336 
536	 0,206135916646435 
537	 0,206613780247134 
538	 0,206202129075095 
539	 0,206987305010507 
540	 0,208298441617162 
541	 0,209763336893665 
542	 0,210606531920836 
543	 0,211018359266788 
544	 0,211252599091083 
545	 0,211637280634108 
546	 0,212283903690617 
547	 0,213347220741021 
548	 0,213895524545135 
549	 0,21361318911367 
550	 0,213728733512658 
551	 0,214446394072096 
552	 0,215901308168237 
553	 0,216244651150564 
554	 0,21554528030985 
555	 0,216382712646466 
556	 0,217679097985095 
557	 0,218503066531268 
558	 0,219526736362685 
559	 0,22051667678524 
560	 0,220504224931579 
561	 0,221220511666403 
562	 0,223035229728607 
563	 0,223456143145593 
564	 0,223615452545998 
565	 0,225294314800874 
566	 0,22591036581727 
567	 0,225487141714137 
568	 0,226418948036602 
569	 0,227889525281901 
570	 0,229267571475078 
571	 0,230338241744403 
572	 0,231057834203917 
573	 0,231420562001477 
574	 0,231957104614822 
575	 0,232897654413336 
576	 0,234210282958297 
577	 0,235362846602291 
578	 0,235799535376428 
579	 0,23620091537997 
580	 0,236790488340759 
581	 0,237687302317717 
582	 0,23871688717515 
583	 0,239677337749223 
584	 0,240063653451762 
585	 0,239955157085855 
586	 0,23954593326838 
587	 0,239728787970965 
588	 0,240556839011947 
589	 0,240844219657971 
590	 0,240827459153455 
591	 0,24079658273726 
592	 0,241075654149607 
593	 0,241400372929062 
594	 0,240742532823181 
595	 0,240538310247287 
596	 0,241312540136658 
597	 0,241638239861905 
598	 0,241756061636358 
599	 0,242295165816278 
600	 0,24207570651797 
601	 0,241086651068029 
602	 0,240522205247048 
603	 0,240336162227035 
604	 0,240473396675986 
605	 0,240941713996878 
606	 0,241423307319298 
607	 0,241241320751257 
608	 0,240787921072648 
609	 0,240388409959148 
610	 0,241062065629433 
611	 0,241491353372193 
612	 0,239987236509531 
613	 0,239273186489329 
614	 0,239486327909697 
615	 0,238639390006208 
616	 0,237825124259947 
617	 0,237732609622059 
618	 0,237914299940049 
619	 0,238060892729864 
620	 0,237721317069327 
621	 0,237221521075237 
622	 0,236830217748849 
623	 0,237189803973591 
624	 0,237750980410156 
625	 0,237910520429079 
626	 0,237814299221126 
627	 0,23765228412029 
628	 0,237911333108507 
629	 0,238089491969531 
630	 0,238017626831241 
631	 0,238360341432296 
632	 0,239166066407752 
633	 0,240402381981569 
634	 0,241462724677455 
635	 0,242108146426113 
636	 0,242301300355155 
637	 0,242535024825667 
638	 0,243250899015868 
639	 0,244570692319444 
640	 0,245969729161419 
641	 0,246119038874943 
642	 0,246064742894565 
643	 0,24632342116678 
644	 0,247204626945593 
645	 0,248163444989233 
646	 0,248473882837086 
647	 0,248272501546021 
648	 0,247836972964461 
649	 0,248048219437705 
650	 0,247979458917009 
651	 0,247127258508134 
652	 0,246973878973722 
653	 0,247119536930201 
654	 0,24633586533058 
655	 0,245273177090118 
656	 0,24413035057224 
657	 0,242855087767899 
658	 0,241451874690414 
659	 0,239924735347265 
660	 0,238308156715177 
661	 0,236481584097375 
662	 0,234009209933002 
663	 0,231748332816256 
664	 0,230081251630678 
665	 0,228247473745169 
666	 0,226327292836481 
667	 0,224555797793998 
668	 0,223229476321742 
669	 0,222273238569028 
670	 0,220935091153341 
671	 0,219934390788741 
672	 0,219780950775594 
673	 0,219255987767579 
674	 0,218476911425569 
675	 0,218237983187478 
676	 0,218228246828109 
677	 0,218300367168539 
678	 0,218229626652789 
679	 0,218173327475422 
680	 0,21834418854574 
681	 0,219082227955703 
682	 0,220472142648601 
683	 0,222396735798372 
684	 0,224870397892906 
685	 0,227796728976917 
686	 0,230449162881531 
687	 0,233134513431288 
688	 0,236542446261284 
689	 0,240595752989227 
690	 0,245218463802276 
691	 0,250124324302174 
692	 0,255269502626695 
693	 0,260623314147188 
694	 0,266128966116211 
695	 0,271677141366702 
696	 0,277053980636376 
697	 0,282527881500794 
698	 0,288057950075562 
699	 0,292771369950952 
700	 0,296970682761805 
701	 0,301142777513052 
702	 0,305643538289805 
703	 0,31004952460692 
704	 0,312628835491063 
705	 0,314875805234751 
706	 0,317683407204109 
707	 0,319817325112381 
708	 0,321586414782688 
709	 0,323873367899149 
710	 0,325943915418055 
711	 0,32759708599382 
712	 0,329034996384643 
713	 0,330216547839293 
714	 0,331154228981137 
715	 0,332698553929862 
716	 0,334501154711759 
717	 0,335170787833058 
718	 0,336052458609435 
719	 0,337539977482994 
720	 0,33836475450028 
721	 0,338950370970374 
722	 0,339982464962475 
723	 0,340731381710689 
724	 0,341228491249474 
725	 0,342173950107475 
726	 0,343075425509195 
727	 0,343641559796492 
728	 0,344206584280648 
729	 0,344714606980657 
730	 0,344965966156556 
731	 0,34540557530436 
732	 0,345988819765434 
733	 0,345868683987643 
734	 0,345759605874537 
735	 0,346284813409375 
736	 0,346846162153012 
737	 0,347337894751303 
738	 0,347804052975164 
739	 0,348167322615297 
740	 0,348426799103771 
741	 0,34875226278069 
742	 0,349120463108804 
743	 0,349482454595673 
744	 0,349559761279634 
745	 0,349554018027473 
746	 0,350294987357032 
747	 0,350943827629992 
748	 0,3510972579889 
749	 0,351375403113031 
750	 0,351740276269369 
751	 0,352027214667313 
752	 0,352196778069389 
753	 0,352246248522272 
754	 0,35216062482454 
755	 0,352358635568763 
756	 0,353058553115218 
757	 0,353203998331857 
758	 0,353164139324358 
759	 0,354082093904438 
760	 0,354658017844009 
761	 0,354559920783738 
762	 0,354354151687986 
763	 0,354445463476936 
764	 0,35513028174046 
765	 0,355352747790294 
766	 0,355230013399835 
767	 0,355638616893455 
768	 0,356037605483926 
769	 0,356222048326732 
770	 0,356272887922208 
771	 0,356352941150206 
772	 0,356641106386227 
773	 0,356930764911482 
774	 0,357205218319417 
775	 0,357576092873383 
776	 0,357943708219265 
777	 0,35822206115239 
778	 0,358265298466054 
779	 0,358137180289728 
780	 0,357942078436442 
781	 0,358222576221798 
782	 0,358872116270775 
783	 0,358973745921546 
784	 0,358878757710343 
785	 0,358841065210567 
786	 0,358903203070249 
787	 0,35906098349389 
788	 0,359294452778691 
789	 0,359350624729007 
790	 0,359244057063684 
791	 0,359381802211572 
792	 0,359620981288617 
793	 0,359824922749175 
794	 0,359928898682269 
795	 0,359956266924469 
796	 0,359966485966517 
797	 0,360171833214075 
798	 0,360504582761268 
799	 0,360238177388417 
800	 0,360009980838866 
801	 0,360415702115259 
802	 0,360720961618829 
803	 0,360870296333619 
804	 0,361103461917477 
805	 0,361258064178087 
806	 0,361329532433282 
807	 0,361564033748947 
808	 0,361954306370953 
809	 0,362454946528228 
810	 0,362740223078431 
811	 0,362863449929018 
812	 0,363201697280943 
813	 0,363475607265249 
814	 0,363559197021219 
815	 0,363389253544885 
816	 0,363406222147511 
817	 0,36410488390873 
818	 0,364607899416079 
819	 0,364727961478222 
820	 0,364565228284252 
821	 0,36448599092902 
822	 0,364627617434154 
823	 0,36450683793568 
824	 0,364341860060001 
825	 0,364463737821813 
826	 0,3644216043346 
827	 0,364308600252084 
828	 0,364820864067059 
829	 0,365057539783508 
830	 0,364623689648703 
831	 0,364273977351088 
832	 0,364203467795277 
833	 0,364545218320301 
834	 0,364474288748923 
835	 0,364070177452859 
836	 0,36433642529287 
837	 0,364653348852888 
838	 0,364662502340544 
839	 0,364393821998165 
840	 0,364053329340087 
841	 0,363919614473182 
842	 0,36430947122183 
843	 0,364928118410186 
844	 0,364536221157274 
845	 0,364170211883478 
846	 0,364363042981817 
847	 0,364493721653145 
848	 0,364611435494507 
849	 0,364879381754399 
850	 0,364691269023476 
851	 0,364125098867606 
852	 0,363864135976562 
853	 0,3640424500276 
854	 0,364645279311526 
855	 0,365021924529022 
856	 0,365032111281678 
857	 0,364619924363325 
858	 0,364124895964166 
859	 0,363847495983402 
860	 0,364408103889919 
861	 0,364743716674605 
862	 0,36439704889657 
863	 0,364401796427876 
864	 0,36462182937708 
865	 0,36473983022633 
866	 0,365042656451203 
867	 0,36539292956594 
868	 0,365149337281347 
869	 0,365205601210105 
870	 0,365828062664982 
871	 0,365772175630584 
872	 0,365628488563876 
873	 0,366214987736886 
874	 0,366643254233818 
875	 0,366853211749083 
876	 0,367311736715364 
877	 0,367487577154519 
878	 0,367233551847859 
879	 0,367043875994236 
880	 0,367091951894748 
881	 0,367481962422556 
882	 0,367516044985614 
883	 0,367396439991563 
884	 0,368036887341479 
885	 0,368806202841069 
886	 0,369368100134187 
887	 0,369337308049273 
888	 0,369148459790353 
889	 0,369244384830233 
890	 0,36957787562586 
891	 0,369898805974076 
892	 0,369687821880137 
893	 0,36933080175022 
894	 0,369086987310414 
895	 0,369422793312173 
896	 0,369893985470326 
897	 0,370109454337512 
898	 0,369990608603714 
899	 0,369836639222081 
900	 0,370220067497498 
901	 0,370219282772334 
902	 0,369747302829788 
903	 0,36934909556529 
904	 0,369910559621328 
905	 0,371581723129502 
906	 0,371220592730925 
907	 0,369973769755388 
908	 0,370019671024647 
909	 0,370424979419412 
910	 0,370725462937658 
911	 0,369986478165208 
912	 0,369970758531974 
913	 0,371212004982953 
914	 0,371426765516554 
915	 0,371320213448483 
916	 0,371851210008107 
917	 0,371883121803899 
918	 0,371459341796607 
919	 0,371094089863899 
920	 0,371655294759445 
921	 0,373083832901131 
922	 0,373516201976411 
923	 0,373309913526979 
924	 0,372955517105901 
925	 0,373531504848862 
926	 0,374288364996105 
927	 0,37352838049451 
928	 0,373292567496507 
929	 0,373684950518641 
930	 0,372791820753598 
931	 0,372023624908919 
932	 0,372283447677677 
933	 0,373638929166857 
934	 0,374718871367902 
935	 0,373863531161237 
936	 0,373202460522271 
937	 0,373079402730869 
938	 0,373013995239324 
939	 0,372779125495234 
940	 0,372504450626129 
941	 0,373516904853264 
942	 0,374104308264249 
943	 0,372871614781118 
944	 0,37216913858411 
945	 0,372460876217984 
946	 0,373871970493829 
947	 0,373871869347684 
948	 0,372644896276098 
949	 0,374178284136583 
950	 0,374157143283864 
951	 0,370944024469573 
952	 0,371017135659948 
953	 0,372666744536892 
954	 0,372969074650863 
955	 0,37166850169288 
956	 0,370195227411955 
957	 0,372694229050917 
958	 0,373587688141631 
959	 0,371752211513837 
960	 0,371510278495989 
961	 0,372197710818529 
962	 0,373064278372949 
963	 0,373359066408136 
964	 0,372677679160019 
965	 0,370673182811697 
966	 0,370503756905567 
967	 0,372140647421703 
968	 0,37288729179709 
969	 0,372914670641224 
970	 0,372305361436294 
971	 0,371518474253013 
972	 0,371175717691102 
973	 0,371717027235821 
974	 0,372004628787068 
975	 0,372245736036817 
976	 0,373217856056005 
977	 0,372800721632438 
978	 0,37145977704385 
979	 0,372957815994832 
980	 0,374200953030802 
981	 0,373455492654693 
982	 0,370156528199646 
983	 0,368325678205149 
984	 0,37164703361611 
985	 0,373743539372005 
986	 0,373892169968734 
987	 0,373160068372823 
988	 0,372357064860629 
989	 0,371890949113944 
990	 0,371845592545614 
991	 0,371845281251499 
992	 0,372002130955359 
993	 0,374478865087677 
994	 0,376165368086346 
995	 0,374048535725542 
996	 0,373312600927689 
997	 0,373684942081268 
998	 0,372600090671782 
999	 0,373389920134981 
1000	 0,375808455402122 
1001	 0,375765014118719 
1002	 0,375192789071132 
1003	 0,374954467536397 
1004	 0,373912647319961 
1005	 0,373388547234394 
1006	 0,374537617633472 
1007	 0,374327879910816 
1008	 0,374931128066637 
1009	 0,381058721256252 
1010	 0,382559082947688 
1011	 0,379359931682972 
1012	 0,381326612286934 
1013	 0,3819852338704 
1014	 0,379078481485564 
1015	 0,375015971525928 
1016	 0,37526354976579 
1017	 0,382701930586265 
1018	 0,382203182414462 
1019	 0,378703053518034 
1020	 0,382779605166344 
1021	 0,382424391074448 
1022	 0,37851303750011 
1023	 0,381303027544387 
1024	 0,384245812731305 
1025	 0,384779198931717 
1026	 0,381610996861413 
1027	 0,379870596955463 
1028	 0,382162960941423 
1029	 0,380238033472883 
1030	 0,379832411011221 
1031	 0,387424099147887 
1032	 0,38550298018744 
1033	 0,378270644820679 
1034	 0,381240957064862 
1035	 0,381733753095345 
1036	 0,37876215950469 
1037	 0,381588674381939 
1038	 0,382742386545775 
1039	 0,380041832837459 
1040	 0,380822418395969 
1041	 0,383326263357398 
1042	 0,385372700154008 
1043	 0,38467890760092 
1044	 0,381462856059988 
1045	 0,376876671140608 
1046	 0,37549038704706 
1047	 0,376821429904736 
1048	 0,376987069655256 
1049	 0,37849081398073 
1050	 0,380423592509151 
1051	 0,376921786106074 
1052	 0,372933102803037 
1053	 0,372995659905132 
1054	 0,386082175375507 
1055	 0,395815397732607 
1056	 0,389644457562057 
1057	 0,387567641210627 
1058	 0,387721549902717 
1059	 0,383894387476269 
1060	 0,38434602144452 
1061	 0,388358014869013 
1062	 0,39025540250704 
1063	 0,390507954974885 
1064	 0,388061223489268 
1065	 0,377441527364499 
1066	 0,380283926111074 
1067	 0,398928190858951 
1068	 0,391111902082807 
1069	 0,381206408951116 
1070	 0,386935837366264 
1071	 0,386750285509185 
1072	 0,382290498494776 
1073	 0,379015615928241 
1074	 0,382759451927452 
1075	 0,390395484693402 
