Wavelength	GOOSEBAR00462.asd
325	 4,85523462173465E-03 
326	 0,126464264673252 
327	 7,64666491777928E-02 
328	-0,137426198212322 
329	-0,160331992147258 
330	-2,32545232545233E-02 
331	 0,202787492097599 
332	 0,105164871001286 
333	-8,17300261747476E-02 
334	-2,51134863888849E-02 
335	 0,160176797808514 
336	 0,267440317324565 
337	 0,206671613922536 
338	 7,63679279768557E-02 
339	-2,85971420041197E-02 
340	 2,29789003787709E-02 
341	 0,145207160257341 
342	 0,189053372855065 
343	 0,178247829851944 
344	 0,127717950743151 
345	 0,105156017340615 
346	 8,15915848935234E-02 
347	 2,52409503563421E-02 
348	 2,74622786745984E-02 
349	 6,44730963034541E-02 
350	 3,51602547276061E-02 
351	 3,02104673578663E-02 
352	 7,05343834908694E-02 
353	 7,57976983739497E-02 
354	 5,81463048173537E-02 
355	 3,70529238233394E-02 
356	 0,038477984632116 
357	 5,71442928833451E-02 
358	 5,36595356457949E-02 
359	 4,77678231534067E-02 
360	 4,71184979257967E-02 
361	 3,48951336020302E-02 
362	 3,10397985931209E-02 
363	 6,59780879147069E-02 
364	 6,49541682511613E-02 
365	 2,44367855554051E-02 
366	 6,85593289431155E-03 
367	 1,11016391872607E-02 
368	 0,031091100318689 
369	 3,55313772743638E-02 
370	 3,35655632307013E-02 
371	 5,17866822332486E-02 
372	 5,13999618478026E-02 
373	 2,91668197670425E-02 
374	 2,53387794615633E-02 
375	 2,94085746675897E-02 
376	 3,34029662458009E-02 
377	 4,47728275253639E-02 
378	 5,51739457239979E-02 
379	 5,13783754140633E-02 
380	 3,51649598111555E-02 
381	 1,59942814508419E-02 
382	 2,66669648463081E-02 
383	 4,01844625576498E-02 
384	 3,00574595341643E-02 
385	 2,79464771418132E-02 
386	 3,52333348791842E-02 
387	 4,22022317833008E-02 
388	 4,59201248455114E-02 
389	 4,55383361668048E-02 
390	 0,047862337212213 
391	 5,19463030652071E-02 
392	 5,60392608525417E-02 
393	 4,69230003282231E-02 
394	 2,91491339263005E-02 
395	 2,08873202710904E-02 
396	 2,42542681423529E-02 
397	 3,72953408454235E-02 
398	 4,02804232749668E-02 
399	 3,74822374517458E-02 
400	 3,86236958177556E-02 
401	 4,08607764509043E-02 
402	 4,28270784778367E-02 
403	 4,13589732583594E-02 
404	 4,02423137371978E-02 
405	 4,15855734255671E-02 
406	 3,97691232737136E-02 
407	 3,55462264332084E-02 
408	 3,13146530788863E-02 
409	 2,82429660524427E-02 
410	 2,71656349744874E-02 
411	 2,89608564697481E-02 
412	 2,88177718201161E-02 
413	 2,31116038325863E-02 
414	 2,77964471441578E-02 
415	 3,89773005313439E-02 
416	 4,07816189589425E-02 
417	 3,99865580899591E-02 
418	 3,88881258750504E-02 
419	 3,40648297784868E-02 
420	 3,06346951879295E-02 
421	 3,53706662300025E-02 
422	 3,29287512571124E-02 
423	 0,024929653591832 
424	 2,90652168788389E-02 
425	 0,031930087405205 
426	 2,67650779691338E-02 
427	 2,88237795063044E-02 
428	 3,41706494915331E-02 
429	 3,21770020188892E-02 
430	 3,34452466398408E-02 
431	 3,82098654478972E-02 
432	 3,30068135105324E-02 
433	 3,01506302888927E-02 
434	 3,98718422073958E-02 
435	 4,21246061406306E-02 
436	 3,80657271076553E-02 
437	 4,04273051203479E-02 
438	 3,97562037106948E-02 
439	 0,034274390980266 
440	 3,63776760782765E-02 
441	 3,94349241632546E-02 
442	 3,38880361453068E-02 
443	 3,25774254453525E-02 
444	 0,035977457421711 
445	 3,47727884506141E-02 
446	 3,43994134374973E-02 
447	 3,75062090772897E-02 
448	 3,67885389224613E-02 
449	 3,37272843383516E-02 
450	 3,27080255516486E-02 
451	 3,40168677469789E-02 
452	 3,63875776441926E-02 
453	 3,26034303721965E-02 
454	 3,13761681814905E-02 
455	 4,00719654679889E-02 
456	 3,98829523805618E-02 
457	 0,033181034185509 
458	 3,59707582316604E-02 
459	 3,89985582876208E-02 
460	 3,85270459072284E-02 
461	 3,60189590061651E-02 
462	 3,46936741892051E-02 
463	 3,86713016883031E-02 
464	 3,72747980462696E-02 
465	 3,15750249308543E-02 
466	 3,53808943586717E-02 
467	 3,89261817066386E-02 
468	 3,60285366847112E-02 
469	 3,21882130105717E-02 
470	 3,02469725760618E-02 
471	 3,40768313575002E-02 
472	 3,76285454074867E-02 
473	 3,87456252815413E-02 
474	 3,81128008687409E-02 
475	 3,65024626223824E-02 
476	 3,47508168596283E-02 
477	 0,03397399646477 
478	 3,45070528121289E-02 
479	 3,69323594072516E-02 
480	 3,72380833203773E-02 
481	 3,41561795026683E-02 
482	 3,33231951739827E-02 
483	 3,44469386253839E-02 
484	 3,62493185290341E-02 
485	 3,50302991407723E-02 
486	 0,031314733679291 
487	 3,10566514981553E-02 
488	 3,28950334828184E-02 
489	 3,53125992930121E-02 
490	 3,42663435700953E-02 
491	 3,18814623136334E-02 
492	 3,50504408413552E-02 
493	 3,56698534487776E-02 
494	 3,24382441243446E-02 
495	 3,44573431030991E-02 
496	 3,70018225432115E-02 
497	 0,034155850037535 
498	 3,34492793320213E-02 
499	 3,52850988993093E-02 
500	 3,54608989026096E-02 
501	 3,54489209468548E-02 
502	 3,58789019161456E-02 
503	 3,52228127291263E-02 
504	 3,39012364148014E-02 
505	 3,27320059625354E-02 
506	 3,36916013196846E-02 
507	 3,61330821292009E-02 
508	 3,45527856011197E-02 
509	 3,25123371953415E-02 
510	 3,33097934811217E-02 
511	 3,34102752454895E-02 
512	 3,28758704738594E-02 
513	 3,36890603923433E-02 
514	 3,39503655764867E-02 
515	 3,31543930399525E-02 
516	 3,38429278756572E-02 
517	 3,45062567510761E-02 
518	 3,26872813988821E-02 
519	 3,20857606801574E-02 
520	 0,03331849691248 
521	 3,49257531448527E-02 
522	 3,62648629848085E-02 
523	 3,67578990517639E-02 
524	 3,53539622261134E-02 
525	 3,33616756498779E-02 
526	 0,034070806837 
527	 3,44062088563339E-02 
528	 3,35577715127579E-02 
529	 3,31256918649712E-02 
530	 3,31976808962765E-02 
531	 3,37238771577177E-02 
532	 3,44513357520184E-02 
533	 3,49344810908049E-02 
534	 0,033946707805273 
535	 3,37446990278044E-02 
536	 3,53265296408955E-02 
537	 3,50467345102628E-02 
538	 3,36608033582704E-02 
539	 3,33906889432964E-02 
540	 3,37974826853688E-02 
541	 3,45892964661038E-02 
542	 0,03490187841141 
543	 3,48348516778687E-02 
544	 0,03456283954575 
545	 3,45528511533299E-02 
546	 0,034802691099678 
547	 3,50265522042604E-02 
548	 3,50523886660664E-02 
549	 3,47914001752928E-02 
550	 3,43777666339937E-02 
551	 3,39500987239109E-02 
552	 3,36620156774133E-02 
553	 3,37500567127484E-02 
554	 3,41275369341743E-02 
555	 3,40767279335195E-02 
556	 3,43684547959139E-02 
557	 3,55183034645811E-02 
558	 3,55145213426281E-02 
559	 0,034565931560556 
560	 3,40251097991897E-02 
561	 3,39741730361374E-02 
562	 0,034434535396038 
563	 3,48631193962033E-02 
564	 3,52352429191615E-02 
565	 3,56190594765654E-02 
566	 3,50150086531002E-02 
567	 3,38553131295281E-02 
568	 3,45501992452106E-02 
569	 3,53336340754669E-02 
570	 3,50174633141274E-02 
571	 0,03482614349365 
572	 3,49460165769357E-02 
573	 3,54561100938183E-02 
574	 3,54066857232775E-02 
575	 0,034712233739403 
576	 3,49261670226502E-02 
577	 3,54680004223811E-02 
578	 3,55664636254057E-02 
579	 3,54248295213485E-02 
580	 3,51056044921859E-02 
581	 3,45427733255776E-02 
582	 3,47196658555992E-02 
583	 3,59444937321858E-02 
584	 3,58749955260653E-02 
585	 3,50121348107208E-02 
586	 3,47601357343081E-02 
587	 3,49124865004069E-02 
588	 0,035304804111522 
589	 3,53066311169982E-02 
590	 3,52524901755798E-02 
591	 3,54609849057226E-02 
592	 3,55020521633812E-02 
593	 3,52472505318879E-02 
594	 3,44812342270526E-02 
595	 3,41363606387922E-02 
596	 0,034593894301493 
597	 3,51169860203933E-02 
598	 3,53116735174792E-02 
599	 3,47013779057198E-02 
600	 3,51108834204915E-02 
601	 3,63702504325484E-02 
602	 3,56935885837649E-02 
603	 3,47727768430907E-02 
604	 0,034979350266776 
605	 3,54236949546553E-02 
606	 0,035832140871997 
607	 3,59473948286796E-02 
608	 3,58130778847375E-02 
609	 3,55453794024299E-02 
610	 3,56642708444294E-02 
611	 3,60405053228823E-02 
612	 3,64521852922031E-02 
613	 3,66629276234288E-02 
614	 3,65003449638646E-02 
615	 3,55728379468379E-02 
616	 3,50307804297159E-02 
617	 3,55268455899278E-02 
618	 3,57054327172223E-02 
619	 0,035560094398682 
620	 3,54941389825259E-02 
621	 3,54157482264297E-02 
622	 3,53278965530571E-02 
623	 3,52714955410057E-02 
624	 0,035353408607592 
625	 3,56559370020151E-02 
626	 3,55690857811426E-02 
627	 3,51460984776175E-02 
628	 3,49259092601033E-02 
629	 3,47836917785918E-02 
630	 3,47177983502717E-02 
631	 3,50556943327293E-02 
632	 3,55662645051907E-02 
633	 3,58466900395465E-02 
634	 3,59479272238154E-02 
635	 3,58513856538498E-02 
636	 3,53695312041823E-02 
637	 3,53282436232567E-02 
638	 3,63191935064761E-02 
639	 3,65017243067417E-02 
640	 3,60652144234753E-02 
641	 3,64757383898768E-02 
642	 3,64640696303193E-02 
643	 3,57278299295833E-02 
644	 3,55591886800727E-02 
645	 3,58282971384626E-02 
646	 3,62034182163038E-02 
647	 3,63270708782447E-02 
648	 3,61604968232107E-02 
649	 3,60205733432771E-02 
650	 3,57746134682817E-02 
651	 3,54167285258719E-02 
652	 0,035713869741465 
653	 3,62711823798398E-02 
654	 3,60574516218944E-02 
655	 3,59232095646792E-02 
656	 3,60770275746756E-02 
657	 3,61126389960883E-02 
658	 3,60505281905077E-02 
659	 3,59485805320406E-02 
660	 3,61423816426838E-02 
661	 3,65590564273441E-02 
662	 3,68216861398348E-02 
663	 3,68497672116553E-02 
664	 0,0366301389148 
665	 3,64347524553103E-02 
666	 3,64149225795474E-02 
667	 3,67579927123155E-02 
668	 3,67201762138114E-02 
669	 3,63405405314925E-02 
670	 3,67175561848936E-02 
671	 3,70815066051679E-02 
672	 3,68290486899393E-02 
673	 3,66312122105131E-02 
674	 3,66820324863327E-02 
675	 3,71826611772344E-02 
676	 3,76116171380602E-02 
677	 3,77370957139545E-02 
678	 3,75833433110189E-02 
679	 0,03739015041502 
680	 3,74327200134419E-02 
681	 0,037257704977636 
682	 0,037001675984033 
683	 3,73705673230086E-02 
684	 3,80438923097645E-02 
685	 3,87508656024578E-02 
686	 3,90196971575483E-02 
687	 3,90243519145941E-02 
688	 3,91887063690025E-02 
689	 3,94590193709574E-02 
690	 0,039782053997829 
691	 3,98639124528607E-02 
692	 4,01906195862209E-02 
693	 4,11358394440223E-02 
694	 4,14692709448462E-02 
695	 4,13182056012821E-02 
696	 4,16132857361271E-02 
697	 0,042032263788406 
698	 4,24755151691658E-02 
699	 4,30465580249814E-02 
700	 4,35765877858955E-02 
701	 4,38479303855481E-02 
702	 0,044243188756143 
703	 4,46562551800054E-02 
704	 4,43542169472766E-02 
705	 4,41993574317786E-02 
706	 4,47153574610378E-02 
707	 4,53140934434865E-02 
708	 4,57876474242729E-02 
709	 4,58931544776928E-02 
710	 4,63018970959823E-02 
711	 4,70762828106409E-02 
712	 4,75128718425326E-02 
713	 4,75887263108397E-02 
714	 4,73740300734571E-02 
715	 0,047793421160729 
716	 4,86678416809338E-02 
717	 4,90652886560823E-02 
718	 4,92837185670391E-02 
719	 4,94683928497991E-02 
720	 0,049800806518687 
721	 5,02975351386822E-02 
722	 5,09499179135221E-02 
723	 5,13598414276039E-02 
724	 5,15788363400379E-02 
725	 5,21252091466477E-02 
726	 5,27905952031225E-02 
727	 5,34353053795179E-02 
728	 5,40872984996606E-02 
729	 0,054615842796442 
730	 5,47478401599353E-02 
731	 0,055389511665864 
732	 5,65101593879149E-02 
733	 5,66823114558495E-02 
734	 0,056707853126705 
735	 5,73230365922053E-02 
736	 0,058139244718017 
737	 5,90065777233628E-02 
738	 5,97565613639438E-02 
739	 6,03788812803635E-02 
740	 6,08756271677994E-02 
741	 6,12935943390767E-02 
742	 6,18642633313971E-02 
743	 6,28324507418375E-02 
744	 6,37105389418217E-02 
745	 6,44663137914941E-02 
746	 6,54227474261366E-02 
747	 6,62499680617157E-02 
748	 6,68045769812739E-02 
749	 6,73447310785781E-02 
750	 6,81318636395226E-02 
751	 6,95282845384836E-02 
752	 7,03874795289608E-02 
753	 7,06643316781874E-02 
754	 7,14773030654151E-02 
755	 7,25277059309046E-02 
756	 7,35856087030657E-02 
757	 7,47392571731444E-02 
758	 7,58028626450379E-02 
759	 0,07636982089577 
760	 7,71915334789431E-02 
761	 7,84240323946882E-02 
762	 7,95076426484633E-02 
763	 8,04755083941561E-02 
764	 8,14053216650054E-02 
765	 8,26312715768426E-02 
766	 8,39474273733054E-02 
767	 8,45710396169392E-02 
768	 0,085612503227079 
769	 8,73292386077442E-02 
770	 8,84342164218871E-02 
771	 0,089295604979239 
772	 9,04715723305677E-02 
773	 9,18393608862663E-02 
774	 9,31900855081451E-02 
775	 0,093929481862191 
776	 9,47720773694018E-02 
777	 9,60592906800034E-02 
778	 9,73063297699552E-02 
779	 0,098495457985309 
780	 9,96791990747603E-02 
781	 0,101050098642169 
782	 0,102509208687597 
783	 0,103518256469587 
784	 0,104515453304836 
785	 0,105768148062117 
786	 0,106818356737885 
787	 0,107973641470664 
788	 0,109907742716347 
789	 0,111605374301917 
790	 0,112720827776642 
791	 0,113208925362724 
792	 0,114076963526679 
793	 0,116023921905799 
794	 0,117497467891738 
795	 0,118509953706053 
796	 0,119665660791542 
797	 0,120907608513918 
798	 0,122205698828185 
799	 0,123343292192761 
800	 0,124560689440995 
801	 0,126075373067907 
802	 0,127566197840771 
803	 0,128924331678177 
804	 0,129983021462041 
805	 0,1313872652691 
806	 0,133206185147112 
807	 0,134372524630175 
808	 0,135319757225385 
809	 0,13658349201851 
810	 0,137828026152931 
811	 0,139057084307478 
812	 0,140454589102238 
813	 0,141784096086292 
814	 0,142954334629641 
815	 0,144092131681256 
816	 0,145233045833887 
817	 0,14641119306732 
818	 0,147786778445119 
819	 0,149239481788555 
820	 0,150341634713155 
821	 0,151315617454675 
822	 0,152286920998644 
823	 0,153280676262783 
824	 0,154454686530279 
825	 0,155986386834529 
826	 0,156671967438159 
827	 0,156837803389011 
828	 0,158526627331251 
829	 0,159948312335977 
830	 0,16034187955321 
831	 0,161307530339291 
832	 0,162533463729795 
833	 0,163372581828635 
834	 0,163921668249046 
835	 0,164382025270395 
836	 0,165317091763018 
837	 0,16640094545454 
838	 0,167397924194688 
839	 0,167978444914608 
840	 0,168545919944329 
841	 0,169706609037958 
842	 0,170913738984369 
843	 0,172078231865233 
844	 0,173466703169033 
845	 0,174508754301164 
846	 0,174983247603115 
847	 0,175746564647941 
848	 0,176550454353876 
849	 0,176905078195636 
850	 0,177528266397233 
851	 0,178392781310106 
852	 0,17869258154436 
853	 0,179434315457658 
854	 0,181003594722248 
855	 0,182058301046221 
856	 0,182721018971169 
857	 0,183383931215255 
858	 0,183496029661323 
859	 0,183495742318312 
860	 0,185185662544848 
861	 0,186601786392803 
862	 0,186767877489775 
863	 0,186596971811329 
864	 0,186821119104724 
865	 0,188213959588185 
866	 0,188956244552888 
867	 0,18899604482721 
868	 0,189540978148508 
869	 0,190528516468521 
870	 0,191773911661525 
871	 0,192193217438375 
872	 0,192422793791761 
873	 0,193331693755037 
874	 0,194159493822297 
875	 0,194845742891752 
876	 0,195845725173708 
877	 0,196033174982856 
878	 0,195296123533758 
879	 0,195856885284048 
880	 0,196966837611085 
881	 0,1976194509526 
882	 0,197976878316986 
883	 0,198258931989226 
884	 0,198994376509388 
885	 0,199860997274225 
886	 0,200613723658411 
887	 0,200691069921573 
888	 0,200678160089006 
889	 0,201127322115271 
890	 0,201423846291458 
891	 0,201561403758792 
892	 0,20168983863223 
893	 0,202440567246753 
894	 0,203715568301892 
895	 0,204129671823708 
896	 0,204195666299175 
897	 0,204398791375837 
898	 0,204986842431413 
899	 0,205573512816755 
900	 0,205422049057547 
901	 0,204837900802617 
902	 0,204178071972484 
903	 0,204156613414463 
904	 0,205172732402446 
905	 0,207099560624657 
906	 0,207301293250941 
907	 0,206675262084804 
908	 0,206975463057625 
909	 0,207356873492803 
910	 0,207691575711651 
911	 0,208169910200819 
912	 0,208489240135182 
913	 0,208464365329137 
914	 0,207909816630436 
915	 0,207536790354895 
916	 0,208110966340963 
917	 0,209038716952321 
918	 0,209812262758431 
919	 0,209371387732273 
920	 0,210113338568397 
921	 0,211975861273664 
922	 0,210286644895689 
923	 0,208926872516348 
924	 0,210911003167789 
925	 0,210975492227269 
926	 0,209825374584683 
927	 0,210254478964916 
928	 0,210244163073363 
929	 0,209595797392799 
930	 0,209665073724218 
931	 0,209492815795206 
932	 0,208680508803627 
933	 0,208548346023199 
934	 0,208834213255815 
935	 0,208995027129254 
936	 0,208595674180022 
937	 0,207663581254943 
938	 0,206528238249875 
939	 0,205844961869527 
940	 0,205865608337764 
941	 0,206350484300645 
942	 0,206206849064806 
943	 0,204615173009851 
944	 0,203247902185684 
945	 0,202457333837648 
946	 0,202263520571745 
947	 0,202614487893216 
948	 0,203002079655637 
949	 0,201947613716142 
950	 0,200310012721024 
951	 0,19871900995488 
952	 0,197587614510539 
953	 0,19688493533625 
954	 0,196450598202451 
955	 0,195461912422661 
956	 0,194214936685894 
957	 0,194103379898981 
958	 0,193097778456278 
959	 0,191036713429069 
960	 0,190530894899075 
961	 0,190350592374767 
962	 0,189657313865814 
963	 0,190449313088262 
964	 0,191149522893738 
965	 0,189070173761462 
966	 0,188675881405628 
967	 0,190073841752185 
968	 0,19016244213951 
969	 0,188901212866112 
970	 0,186767941768699 
971	 0,186596662635747 
972	 0,187496780762097 
973	 0,188358699559057 
974	 0,18850457771817 
975	 0,188459055400306 
976	 0,189539765216523 
977	 0,187401041043517 
978	 0,183407716017155 
979	 0,1863567296013 
980	 0,189734539952876 
981	 0,190083421227486 
982	 0,188021174338124 
983	 0,186264885565157 
984	 0,187417304106774 
985	 0,188710486547522 
986	 0,189709290685431 
987	 0,190652940479456 
988	 0,190853478269853 
989	 0,190297834358466 
990	 0,189691402664818 
991	 0,189076882056316 
992	 0,188890728538296 
993	 0,191440043269504 
994	 0,193620550381163 
995	 0,192352623086512 
996	 0,192228172076561 
997	 0,19292475689066 
998	 0,192129145238641 
999	 0,191937129017321 
1000	 0,19265101412992 
1001	 0,193056877425501 
1002	 0,194079670817996 
1003	 0,195687737193848 
1004	 0,195362071241642 
1005	 0,194008108881644 
1006	 0,192985119525606 
1007	 0,195020801484909 
1008	 0,198261990614725 
1009	 0,198718944262323 
1010	 0,198185464915854 
1011	 0,197666686065915 
1012	 0,198850491263588 
1013	 0,200430995094888 
1014	 0,201690809235054 
1015	 0,202120084504968 
1016	 0,202234891574993 
1017	 0,202365182749748 
1018	 0,200704532077933 
1019	 0,199524805576186 
1020	 0,202386201239652 
1021	 0,203040570710215 
1022	 0,202223976341987 
1023	 0,206516762001823 
1024	 0,209178071359865 
1025	 0,208406693945854 
1026	 0,206779241890498 
1027	 0,207728590446648 
1028	 0,2121194840752 
1029	 0,209088115984523 
1030	 0,206279785546279 
1031	 0,212821061273149 
1032	 0,211821107811938 
1033	 0,206034441607937 
1034	 0,207532147933768 
1035	 0,211920121229029 
1036	 0,215713150458123 
1037	 0,210593730129805 
1038	 0,209010118761008 
1039	 0,215196890408165 
1040	 0,21904449324351 
1041	 0,21887714979513 
1042	 0,214055528873763 
1043	 0,207898976211428 
1044	 0,204603265082307 
1045	 0,208275952310747 
1046	 0,204217061183902 
1047	 0,19836878251787 
1048	 0,212743228030931 
1049	 0,219828881043229 
1050	 0,215124946041996 
1051	 0,215769290607651 
1052	 0,220063672274464 
1053	 0,225361495064452 
1054	 0,221047277431008 
1055	 0,217621140902982 
1056	 0,223056061251124 
1057	 0,221358638885649 
1058	 0,215474804364404 
1059	 0,212318073624195 
1060	 0,206400781779621 
1061	 0,201729390056398 
1062	 0,209407131195703 
1063	 0,214477757066489 
1064	 0,213654245693623 
1065	 0,213688608355334 
1066	 0,213429883507094 
1067	 0,21335602145878 
1068	 0,217597509587342 
1069	 0,220393355142583 
1070	 0,218246876210133 
1071	 0,220445459588214 
1072	 0,221825202030344 
1073	 0,215763294591341 
1074	 0,215052525993446 
1075	 0,217917030732935 
