Wavelength	GOOSEBAR00373.asd
325	-0,29821725449138 
326	 0,118656128296747 
327	 0,177744487552984 
328	-9,28185224049795E-02 
329	 5,43860672148036E-03 
330	 0,129325535575536 
331	 1,69961008730098E-02 
332	-1,07186148251611E-02 
333	 3,05396983671943E-02 
334	 1,84304796159592E-02 
335	 7,55284047302937E-02 
336	 0,152129996903431 
337	 0,104448939531766 
338	 6,16416180141414E-03 
339	-6,63894443597217E-02 
340	 9,60628421619289E-03 
341	 0,132072516287774 
342	 0,135871384395373 
343	 0,109765402243014 
344	 7,96290133999034E-02 
345	 0,075813190130359 
346	 6,87917209390592E-02 
347	 2,94736617458927E-02 
348	 6,87043365243329E-02 
349	 0,138210539142853 
350	 7,49859590767759E-02 
351	 1,78882614128695E-02 
352	 1,68813815097439E-02 
353	 6,48966542712786E-02 
354	 0,102566751181645 
355	 8,21795801689564E-02 
356	 6,11990824375798E-02 
357	 0,047231361972356 
358	 1,78096494356339E-02 
359	 1,85779478081822E-02 
360	 5,89227623148669E-02 
361	 7,49297158779917E-02 
362	 7,37976594547807E-02 
363	 7,41004899727326E-02 
364	 4,55704530449126E-02 
365	-1,19013655441868E-03 
366	 1,14666446172803E-02 
367	 3,97900610874127E-02 
368	 5,77362574546227E-02 
369	 6,81681974738511E-02 
370	 7,50669120549647E-02 
371	 9,16646126449273E-02 
372	 6,46237479312024E-02 
373	 4,13930163862667E-03 
374	 2,67447811795139E-02 
375	 5,75519246693817E-02 
376	 4,88010123256069E-02 
377	 6,11677909017419E-02 
378	 7,87327372471589E-02 
379	 5,15137824000708E-02 
380	 3,29406069656496E-02 
381	 3,51958187394765E-02 
382	 1,16252084444474E-02 
383	-7,45198075231266E-04 
384	 3,31915061499375E-02 
385	 5,03785203440367E-02 
386	 4,65248329632717E-02 
387	 4,13511660424021E-02 
388	 3,16989180569267E-02 
389	 2,19679513298582E-02 
390	 3,22695719472107E-02 
391	 5,02793460429545E-02 
392	 6,06544831408682E-02 
393	 6,12615569577772E-02 
394	 5,39559813848711E-02 
395	 4,48604050664458E-02 
396	 4,10151826047564E-02 
397	 4,53935280603456E-02 
398	 4,92501626830378E-02 
399	 5,08499558199744E-02 
400	 4,87801807394308E-02 
401	 5,07769479205907E-02 
402	 5,61284751783312E-02 
403	 5,53697901017298E-02 
404	 5,16492680748382E-02 
405	 4,76336983976538E-02 
406	 4,69284268866649E-02 
407	 4,66214999639531E-02 
408	 3,87129875749521E-02 
409	 3,79968206215172E-02 
410	 4,61757167341533E-02 
411	 4,90922944925834E-02 
412	 4,82819779510473E-02 
413	 4,59956786907797E-02 
414	 4,32989598853912E-02 
415	 0,043104014516273 
416	 0,052734802926741 
417	 0,057760222368883 
418	 5,30121694531414E-02 
419	 4,74289190146746E-02 
420	 4,42763274520506E-02 
421	 4,66219898863185E-02 
422	 4,65376256268688E-02 
423	 4,45144798453971E-02 
424	 4,93028388252247E-02 
425	 5,16284594278266E-02 
426	 4,70114804841533E-02 
427	 4,72095394420749E-02 
428	 0,050636275796068 
429	 5,15654202038884E-02 
430	 5,45237247207815E-02 
431	 5,84209762238406E-02 
432	 5,31302497242454E-02 
433	 4,86097882153762E-02 
434	 0,053480530303048 
435	 5,69137639857983E-02 
436	 0,056847281220919 
437	 5,29582426907962E-02 
438	 4,97665637725166E-02 
439	 4,93750464788155E-02 
440	 5,05654839677792E-02 
441	 5,17244481023194E-02 
442	 5,09919146162974E-02 
443	 5,27703336930555E-02 
444	 5,68093757748295E-02 
445	 5,91616706460405E-02 
446	 5,92073859515134E-02 
447	 5,69158675830126E-02 
448	 5,53554280833357E-02 
449	 5,56831973695845E-02 
450	 5,90600392015789E-02 
451	 6,23716835720589E-02 
452	 6,41176418764917E-02 
453	 6,29733853199775E-02 
454	 6,25307599702561E-02 
455	 6,57490852573788E-02 
456	 6,40197988821873E-02 
457	 0,060005417726832 
458	 6,51976080565898E-02 
459	 7,03006883073103E-02 
460	 7,12214080177926E-02 
461	 6,92661324256757E-02 
462	 6,75885253710599E-02 
463	 7,02178554858014E-02 
464	 6,98969020899417E-02 
465	 6,68488629061073E-02 
466	 6,85261579780972E-02 
467	 7,03347393568802E-02 
468	 6,92479344801103E-02 
469	 6,63077684564857E-02 
470	 6,48447013236501E-02 
471	 7,13780031521963E-02 
472	 7,46479713900055E-02 
473	 7,25040315379551E-02 
474	 7,36988243852555E-02 
475	 7,52904608784379E-02 
476	 7,40343624002867E-02 
477	 7,31800723493644E-02 
478	 7,33965247708036E-02 
479	 7,50199032155046E-02 
480	 7,46893451670994E-02 
481	 7,15457917598941E-02 
482	 7,14976896877336E-02 
483	 7,35314649620331E-02 
484	 7,52928525737917E-02 
485	 7,40751865744094E-02 
486	 7,09266363390076E-02 
487	 7,31770537891438E-02 
488	 7,53127001718836E-02 
489	 7,33600798586371E-02 
490	 7,19739713465855E-02 
491	 7,20234134391728E-02 
492	 7,37807641316338E-02 
493	 7,52669570875363E-02 
494	 7,57215725200461E-02 
495	 7,57919617666592E-02 
496	 7,55007203561674E-02 
497	 7,48488726770126E-02 
498	 7,64963149490373E-02 
499	 7,91843904779101E-02 
500	 7,71630744894212E-02 
501	 7,53846818343021E-02 
502	 7,63536263612653E-02 
503	 7,60286834165388E-02 
504	 7,48194031138138E-02 
505	 7,41783339409131E-02 
506	 7,48876544823971E-02 
507	 7,66737991516191E-02 
508	 0,07715527200597 
509	 7,74117859104948E-02 
510	 7,84604274745698E-02 
511	 7,92145879131272E-02 
512	 7,95513916952126E-02 
513	 7,95259335921985E-02 
514	 8,01733500993992E-02 
515	 8,16856427739349E-02 
516	 8,19432792130214E-02 
517	 8,21183588031507E-02 
518	 0,084194500973165 
519	 8,39087640588543E-02 
520	 8,17470748752753E-02 
521	 8,34813572960982E-02 
522	 0,085804967587271 
523	 8,62448051694142E-02 
524	 8,58284511628596E-02 
525	 8,52569821007231E-02 
526	 8,57382125850277E-02 
527	 0,086268275428426 
528	 8,65062343494644E-02 
529	 0,086549501756326 
530	 8,67004242974002E-02 
531	 8,72870527589769E-02 
532	 8,81688251792632E-02 
533	 8,89586091081427E-02 
534	 8,85031533565777E-02 
535	 8,86617673893677E-02 
536	 9,02059237798465E-02 
537	 8,96973186564556E-02 
538	 8,83193094174324E-02 
539	 8,90601825426634E-02 
540	 9,00672590697701E-02 
541	 9,07445639825206E-02 
542	 9,11693428578719E-02 
543	 9,11700659410181E-02 
544	 9,06559662297336E-02 
545	 9,12235924791826E-02 
546	 9,23105331670055E-02 
547	 9,13151491666002E-02 
548	 9,06704444088953E-02 
549	 9,13751496879085E-02 
550	 9,15246913695617E-02 
551	 9,13115178792502E-02 
552	 9,13383738571136E-02 
553	 0,091881287295346 
554	 9,28266260161836E-02 
555	 0,093230540774178 
556	 0,093983504892355 
557	 9,56767846296099E-02 
558	 9,58537924151083E-02 
559	 9,48861847237176E-02 
560	 9,46503989410198E-02 
561	 9,53407056724269E-02 
562	 9,68237331355871E-02 
563	 9,73221189466454E-02 
564	 9,72942415938544E-02 
565	 9,75758916106185E-02 
566	 9,80055797577132E-02 
567	 0,098600559393993 
568	 9,95036152541012E-02 
569	 0,100211181442353 
570	 0,100437927460845 
571	 0,101132389098283 
572	 0,10196520437591 
573	 0,101901216863026 
574	 0,101706148861485 
575	 0,101851698487331 
576	 0,103251848805134 
577	 0,104636895038882 
578	 0,104567689187634 
579	 0,104718468516621 
580	 0,105196638637133 
581	 0,104953636549405 
582	 0,105235403143307 
583	 0,106528311782581 
584	 0,106762231271002 
585	 0,106212928014114 
586	 0,105805517934756 
587	 0,105907824480817 
588	 0,10646831928206 
589	 0,106513658270898 
590	 0,106432577198917 
591	 0,106603654421594 
592	 0,106429723732946 
593	 0,106041207777603 
594	 0,10607547349496 
595	 0,106194163136918 
596	 0,106262741460334 
597	 0,106486601016592 
598	 0,106611420443299 
599	 0,106217006469888 
600	 0,10646844384352 
601	 0,107203760630366 
602	 0,106469044567133 
603	 0,105563229283787 
604	 0,105545127751622 
605	 0,105854269423808 
606	 0,106077997335982 
607	 0,105439678235018 
608	 0,104828046828533 
609	 0,104535211491488 
610	 0,104055474857274 
611	 0,103609315845728 
612	 0,103507713596824 
613	 0,103412732106716 
614	 0,103151545379003 
615	 0,102414856392323 
616	 0,10191388157008 
617	 0,102037460906279 
618	 0,101836037921819 
619	 0,101398282498751 
620	 0,101180261268078 
621	 0,10094657597134 
622	 0,100714558773538 
623	 0,100842355275398 
624	 0,101143431012596 
625	 0,101403727384703 
626	 0,101684694958674 
627	 0,101905315553661 
628	 0,101875034622976 
629	 0,10155515341284 
630	 0,101105886675327 
631	 0,101700518762751 
632	 0,102838724786126 
633	 0,103505144707276 
634	 0,104051170742832 
635	 0,104650772597722 
636	 0,105726676645475 
637	 0,106718052315728 
638	 0,1071590866323 
639	 0,107610280188612 
640	 0,108168841988232 
641	 0,108845105101534 
642	 0,109224920348508 
643	 0,109305293504636 
644	 0,110204501282484 
645	 0,111211830092312 
646	 0,111298169960046 
647	 0,11112423466974 
648	 0,110971017383046 
649	 0,11125906217525 
650	 0,111206734085867 
651	 0,110388954694394 
652	 0,110054317535947 
653	 0,11001730297821 
654	 0,109604687757924 
655	 0,108433425801241 
656	 0,106560928555262 
657	 0,1050555895278 
658	 0,103701289962053 
659	 0,102194553111935 
660	 0,100419112900005 
661	 9,84625760612401E-02 
662	 9,67504813390299E-02 
663	 9,46525390548665E-02 
664	 9,19527157709155E-02 
665	 8,94644204545192E-02 
666	 8,74061489705632E-02 
667	 0,085916136802976 
668	 8,47580973075482E-02 
669	 8,37344767932348E-02 
670	 8,24226693817062E-02 
671	 8,13547913415359E-02 
672	 8,09061476033268E-02 
673	 8,01252588782942E-02 
674	 7,92322872623835E-02 
675	 7,91461478701229E-02 
676	 7,92989590176996E-02 
677	 7,94099096931619E-02 
678	 7,91108953560098E-02 
679	 7,89901216857025E-02 
680	 7,97637736194368E-02 
681	 8,07244921855564E-02 
682	 8,17773559141358E-02 
683	 8,31291744268837E-02 
684	 0,084929377269932 
685	 8,72354327361005E-02 
686	 8,96112325460899E-02 
687	 9,23838950266837E-02 
688	 9,62609133075729E-02 
689	 0,100232462516199 
690	 0,104126381057893 
691	 0,108629575558735 
692	 0,11375809916272 
693	 0,119471444452868 
694	 0,125295266229364 
695	 0,131129364793231 
696	 0,137081180733087 
697	 0,142902659346594 
698	 0,148556939927534 
699	 0,154470455699283 
700	 0,160413472244104 
701	 0,166043502745348 
702	 0,171181161741068 
703	 0,175727801858972 
704	 0,179517327862414 
705	 0,18326390510343 
706	 0,187376346040342 
707	 0,191075946069993 
708	 0,194252103259144 
709	 0,196895424513809 
710	 0,199625269033 
711	 0,202561508268882 
712	 0,205087496300674 
713	 0,207634082088124 
714	 0,210583507142796 
715	 0,213062835492809 
716	 0,215052306117109 
717	 0,216889908713867 
718	 0,219067226972409 
719	 0,221634263965932 
720	 0,223373679957198 
721	 0,22482380974835 
722	 0,226820565199117 
723	 0,228538630245505 
724	 0,22995523869834 
725	 0,231641629295737 
726	 0,233416665136608 
727	 0,235107650604605 
728	 0,23636459038829 
729	 0,237274379929336 
730	 0,238047962729371 
731	 0,23907443457439 
732	 0,240354372282959 
733	 0,241271277517808 
734	 0,241986590423919 
735	 0,242688496163749 
736	 0,243724049768407 
737	 0,244895561163152 
738	 0,245522316563129 
739	 0,246244743318254 
740	 0,247230190613259 
741	 0,2479701839807 
742	 0,248660404827813 
743	 0,249560484712564 
744	 0,250016684830771 
745	 0,250184530843495 
746	 0,251020125813899 
747	 0,251727775630815 
748	 0,251972937941968 
749	 0,252548848617474 
750	 0,253444736814613 
751	 0,254516544564822 
752	 0,255186505617645 
753	 0,255358237014776 
754	 0,255338695329347 
755	 0,255593124244857 
756	 0,256418278120549 
757	 0,257196253799007 
758	 0,257823714761359 
759	 0,258329415098981 
760	 0,258735884136624 
761	 0,259095058507383 
762	 0,259578028197479 
763	 0,260034088572661 
764	 0,260337453957264 
765	 0,260938656338242 
766	 0,261684860551235 
767	 0,261960609532565 
768	 0,26221919391861 
769	 0,262616701687493 
770	 0,262934497368255 
771	 0,263296915223051 
772	 0,263858901091346 
773	 0,26429907021968 
774	 0,264621573309206 
775	 0,265092159508769 
776	 0,265525600364005 
777	 0,265818728935506 
778	 0,265950256256804 
779	 0,266107514850052 
780	 0,266550238947292 
781	 0,267337890647528 
782	 0,268172805735059 
783	 0,267999802139753 
784	 0,267724423113357 
785	 0,26795172317471 
786	 0,268290819706941 
787	 0,268685790127068 
788	 0,269155691898525 
789	 0,269255608431603 
790	 0,26902656851661 
791	 0,269247454950995 
792	 0,269535472750909 
793	 0,269582723622938 
794	 0,269692757535286 
795	 0,269883544076138 
796	 0,270101874843033 
797	 0,270239642103487 
798	 0,270296798543774 
799	 0,270460413150706 
800	 0,270741664713605 
801	 0,271109592434548 
802	 0,271036662199683 
803	 0,270880380831457 
804	 0,271868222473601 
805	 0,272535347640865 
806	 0,272477422669912 
807	 0,272671038741646 
808	 0,27325312355391 
809	 0,274239318029323 
810	 0,274453624550613 
811	 0,274138322426858 
812	 0,274721551969691 
813	 0,275252144165344 
814	 0,275326074166125 
815	 0,274962879760186 
816	 0,274914401756204 
817	 0,276012212610569 
818	 0,27654543115603 
819	 0,276351915725888 
820	 0,276221457011974 
821	 0,276119335638423 
822	 0,276079811974616 
823	 0,276207276290214 
824	 0,276297948309199 
825	 0,276086508460282 
826	 0,27565622470151 
827	 0,275279667921593 
828	 0,275794407315339 
829	 0,275895974032583 
830	 0,275063629052256 
831	 0,274787947622085 
832	 0,274847789511116 
833	 0,274717495155259 
834	 0,274305200896887 
835	 0,273760209773621 
836	 0,273680988923652 
837	 0,273649829098427 
838	 0,273439569781925 
839	 0,273187131026976 
840	 0,272917226709468 
841	 0,272645948658165 
842	 0,272542303217628 
843	 0,272550393284103 
844	 0,272311688569161 
845	 0,272239943805789 
846	 0,272430668875 
847	 0,271918654854974 
848	 0,271072577391446 
849	 0,270562938306264 
850	 0,270178167956961 
851	 0,269832054232584 
852	 0,269377945942968 
853	 0,268870384809913 
854	 0,268410215794452 
855	 0,26845053141181 
856	 0,26861333096531 
857	 0,268327526831528 
858	 0,267732019247383 
859	 0,267070320817503 
860	 0,266988317512994 
861	 0,266990131490926 
862	 0,266796313770543 
863	 0,266380437706533 
864	 0,266100022813595 
865	 0,266406061818052 
866	 0,266779642092743 
867	 0,267000569519636 
868	 0,266802765313746 
869	 0,266763133682231 
870	 0,26717923776788 
871	 0,267962283580762 
872	 0,268665749178156 
873	 0,268799202403773 
874	 0,269379474889439 
875	 0,2703492400513 
876	 0,270923721549206 
877	 0,271268076816979 
878	 0,271488716099757 
879	 0,271807296088827 
880	 0,272417350853444 
881	 0,273455407115739 
882	 0,274068041196395 
883	 0,274439341793391 
884	 0,275611348041297 
885	 0,276441919272998 
886	 0,276588684420315 
887	 0,276527758186012 
888	 0,276882001988446 
889	 0,278109792282302 
890	 0,278840210773822 
891	 0,278995196271026 
892	 0,278943362565897 
893	 0,279376538301231 
894	 0,280270774946255 
895	 0,280318305971352 
896	 0,280133314114912 
897	 0,280273219175917 
898	 0,280895469867494 
899	 0,281583363746079 
900	 0,281562268867815 
901	 0,281454545002829 
902	 0,281443579858887 
903	 0,28140125378911 
904	 0,281812268936184 
905	 0,282791207751854 
906	 0,282870967668388 
907	 0,28258676650518 
908	 0,282953918202085 
909	 0,282914796587684 
910	 0,282417690210215 
911	 0,281991665693534 
912	 0,282118163874863 
913	 0,282878179910831 
914	 0,28317150486412 
915	 0,283225981537895 
916	 0,283396484953277 
917	 0,28325936468646 
918	 0,282972749167407 
919	 0,283026847305947 
920	 0,283676156125317 
921	 0,284702799984629 
922	 0,284707992748052 
923	 0,284263729752869 
924	 0,283949335593145 
925	 0,283952608080631 
926	 0,284063354820417 
927	 0,28381487917339 
928	 0,283723519734371 
929	 0,283775785215176 
930	 0,283292334998141 
931	 0,283245537959051 
932	 0,28399320744496 
933	 0,283781618819707 
934	 0,283263514654504 
935	 0,283499256837063 
936	 0,283703602937875 
937	 0,283571363727026 
938	 0,282687419090856 
939	 0,282010214492384 
940	 0,282006955839696 
941	 0,282887121903041 
942	 0,283329027484173 
943	 0,282294333300274 
944	 0,281634430856168 
945	 0,281720198158392 
946	 0,282658431516903 
947	 0,282503188210235 
948	 0,28116241663154 
949	 0,28067214464748 
950	 0,280055374146499 
951	 0,279067364498646 
952	 0,279873608785887 
953	 0,280950809221093 
954	 0,280269561848313 
955	 0,279349208339304 
956	 0,278867878755755 
957	 0,279951644078668 
958	 0,27929777154168 
959	 0,276686807998788 
960	 0,276781614697796 
961	 0,277437567581149 
962	 0,277032839221649 
963	 0,277596155641318 
964	 0,278059687316825 
965	 0,276484320495161 
966	 0,276677870763373 
967	 0,278578802393022 
968	 0,279148733471819 
969	 0,278123835672698 
970	 0,276100689793282 
971	 0,277153363970306 
972	 0,278911701458247 
973	 0,278942334997795 
974	 0,277966822861504 
975	 0,276931393646072 
976	 0,277355197742163 
977	 0,276646694512071 
978	 0,275269243552998 
979	 0,277569570671975 
980	 0,278639411850273 
981	 0,276462214453365 
982	 0,274609998964004 
983	 0,274353986628915 
984	 0,276474206961066 
985	 0,278413080865262 
986	 0,279109157319218 
987	 0,277588299935571 
988	 0,277315747144158 
989	 0,278576468220443 
990	 0,278173035554605 
991	 0,277913594330227 
992	 0,278563974736382 
993	 0,278829799859722 
994	 0,278661137967903 
995	 0,2781824649815 
996	 0,278251023138444 
997	 0,278438156087762 
998	 0,277540528851645 
999	 0,277698706158465 
1000	 0,279010212969496 
1001	 0,279739760852812 
1002	 0,279079239998819 
1003	 0,277519932987616 
1004	 0,280478671771256 
1005	 0,283358099323767 
1006	 0,281686330804268 
1007	 0,281650471895791 
1008	 0,283108151410551 
1009	 0,283989287704014 
1010	 0,282667028807616 
1011	 0,280242043239738 
1012	 0,282119258914891 
1013	 0,2833348379939 
1014	 0,282329297584066 
1015	 0,283070528019127 
1016	 0,283597033158403 
1017	 0,282181730153715 
1018	 0,279670886774358 
1019	 0,279060374840498 
1020	 0,284308486514482 
1021	 0,288794948641783 
1022	 0,289849471045152 
1023	 0,284410728255331 
1024	 0,283583670805076 
1025	 0,288823004582787 
1026	 0,287295725020814 
1027	 0,284966623784534 
1028	 0,285636324169027 
1029	 0,285017886041921 
1030	 0,284763209194161 
1031	 0,286806954620296 
1032	 0,284144881813577 
1033	 0,279996925879323 
1034	 0,283570903942598 
1035	 0,285042203680567 
1036	 0,282279470347568 
1037	 0,277418574011932 
1038	 0,27755080547085 
1039	 0,28426294461677 
1040	 0,286937715775144 
1041	 0,28753997289177 
1042	 0,287619549551126 
1043	 0,282293400677928 
1044	 0,277735232185535 
1045	 0,282307947206289 
1046	 0,278619738825607 
1047	 0,271098312047836 
1048	 0,279094112012436 
1049	 0,286549474096085 
1050	 0,288261842673242 
1051	 0,28428022597903 
1052	 0,281859235459705 
1053	 0,284517456179975 
1054	 0,288033797122977 
1055	 0,288799472864624 
1056	 0,284918025079598 
1057	 0,285534642718168 
1058	 0,286695322430156 
1059	 0,281574868528224 
1060	 0,279725661900527 
1061	 0,281878881402837 
1062	 0,284597265779492 
1063	 0,287372459269764 
1064	 0,287055539758335 
1065	 0,272200254175908 
1066	 0,270329825683598 
1067	 0,289704356840369 
1068	 0,302462712701219 
1069	 0,302729356545481 
1070	 0,288868957952765 
1071	 0,275317779880576 
1072	 0,270780311790132 
1073	 0,281339391482787 
1074	 0,28832523239285 
1075	 0,28979176068378 
