Wavelength	GRA-BER00657.asd
325	-0,109961839046179 
326	 7,69492207736498E-03 
327	 0,164682333208866 
328	 0,244173919796746 
329	 0,161688167323183 
330	 4,4877699934547E-03 
331	-0,096374296562786 
332	 0,028769730852761 
333	 0,223485418602116 
334	 0,178020625046286 
335	 0,101066004147101 
336	 3,82046013135098E-02 
337	-5,55147270022444E-02 
338	-9,22709291745845E-02 
339	 6,75968504661786E-03 
340	 0,05107462755139 
341	 0,032831650473106 
342	 4,85395706904944E-03 
343	 4,28533623954631E-02 
344	 0,13767313400022 
345	 9,56826215572571E-02 
346	 2,47770483093621E-02 
347	 4,42544002467909E-02 
348	 0,101091235154719 
349	 0,149501129368349 
350	 9,35217263854542E-02 
351	 7,43516876856148E-02 
352	 0,129439313447051 
353	 0,14713058627411 
354	 0,123334157810982 
355	 5,57830863064252E-02 
356	 1,76691146146657E-02 
357	 0,028720258511889 
358	 7,91408053890313E-02 
359	 9,66217019758414E-02 
360	 6,85352129625437E-02 
361	 7,91350605728997E-02 
362	 9,73751212304964E-02 
363	 6,46092965634125E-02 
364	 4,60356184709884E-02 
365	 5,02694362825734E-02 
366	 5,61511513828222E-02 
367	 5,88452800225971E-02 
368	 5,67064110109283E-02 
369	 6,64683547811949E-02 
370	 7,54014325320543E-02 
371	 6,09076028423548E-02 
372	 0,053350765217159 
373	 5,91306411228782E-02 
374	 6,08893066898617E-02 
375	 6,06496523911563E-02 
376	 0,059286449766652 
377	 0,043021364518686 
378	 2,45211232217849E-02 
379	 0,031993907656086 
380	 5,00036137065368E-02 
381	 7,09871121395875E-02 
382	 7,88852654644213E-02 
383	 6,84366100068951E-02 
384	 0,038879737194999 
385	 4,49720128281743E-02 
386	 7,13002106622082E-02 
387	 5,06735626079557E-02 
388	 5,43123820085284E-02 
389	 9,43237921856912E-02 
390	 8,40570610301867E-02 
391	 5,67600852263257E-02 
392	 5,85407764400945E-02 
393	 5,80991333719761E-02 
394	 5,36694439205154E-02 
395	 6,17440099351329E-02 
396	 6,29497282601229E-02 
397	 5,04633375165364E-02 
398	 4,83612643609848E-02 
399	 5,51429502956939E-02 
400	 6,52138505526909E-02 
401	 6,39086744153447E-02 
402	 5,29658658198649E-02 
403	 5,35910433191176E-02 
404	 5,58756895443451E-02 
405	 5,29420865633773E-02 
406	 4,92957296131366E-02 
407	 4,79001161565294E-02 
408	 5,31013622329355E-02 
409	 5,85604272168694E-02 
410	 6,17611874756905E-02 
411	 6,50436999316289E-02 
412	 6,01311118363156E-02 
413	 0,040659982925086 
414	 3,89840006372355E-02 
415	 5,18910448239745E-02 
416	 5,57089414494079E-02 
417	 5,77007035272281E-02 
418	 5,92237989036058E-02 
419	 5,32209504314249E-02 
420	 0,047419557922936 
421	 5,22998994602632E-02 
422	 5,32585159323558E-02 
423	 5,05181554822834E-02 
424	 5,68013423827452E-02 
425	 0,061149158333632 
426	 5,80768512263268E-02 
427	 5,98821859088605E-02 
428	 6,40337032855043E-02 
429	 6,34294452101999E-02 
430	 5,99065960583375E-02 
431	 5,60171526683189E-02 
432	 6,05489260181714E-02 
433	 6,47844849669545E-02 
434	 6,13490890727359E-02 
435	 6,01356569419325E-02 
436	 0,061502299253574 
437	 6,16944063914071E-02 
438	 6,11800307889183E-02 
439	 0,060243657542594 
440	 5,99804266311615E-02 
441	 0,060535520351734 
442	 6,19163645887008E-02 
443	 6,29653596189382E-02 
444	 0,062767316870609 
445	 5,85999630679973E-02 
446	 5,86233327447791E-02 
447	 6,64894135648861E-02 
448	 6,66455813138666E-02 
449	 6,26636851172944E-02 
450	 6,54326821581227E-02 
451	 6,58510376532009E-02 
452	 6,27253826185551E-02 
453	 6,32998465551984E-02 
454	 6,49208233913157E-02 
455	 6,49631789589074E-02 
456	 6,58657546594161E-02 
457	 6,74291364543372E-02 
458	 6,81020712650968E-02 
459	 6,83547037426174E-02 
460	 6,84584278694813E-02 
461	 6,92978239302555E-02 
462	 6,90671537737474E-02 
463	 6,52525539513659E-02 
464	 6,46967672253399E-02 
465	 6,74923233486479E-02 
466	 6,74231354756545E-02 
467	 6,69338684240365E-02 
468	 6,75393046519971E-02 
469	 6,77246456110328E-02 
470	 6,72446655584022E-02 
471	 6,57264248568634E-02 
472	 6,62444333844047E-02 
473	 0,069079705303706 
474	 7,07080645437279E-02 
475	 6,98475571246519E-02 
476	 6,58441525440536E-02 
477	 6,79052052225254E-02 
478	 7,33851665991786E-02 
479	 6,92838557854762E-02 
480	 0,066708566719264 
481	 7,01411503377694E-02 
482	 7,21411688596832E-02 
483	 7,29706986744563E-02 
484	 7,42880417362575E-02 
485	 7,37356533116532E-02 
486	 7,17101735312142E-02 
487	 7,15236045292561E-02 
488	 7,35316548040164E-02 
489	 0,077335419974128 
490	 7,62679881752877E-02 
491	 7,25020843426339E-02 
492	 7,37592981910848E-02 
493	 7,40811828889248E-02 
494	 7,22935832899381E-02 
495	 7,31917409108678E-02 
496	 7,48695497159013E-02 
497	 7,48196381268561E-02 
498	 7,50596822595836E-02 
499	 7,56998526922186E-02 
500	 7,56037848648504E-02 
501	 7,60271661743901E-02 
502	 7,74651109650229E-02 
503	 0,077811192202355 
504	 7,76643647322729E-02 
505	 7,86326581575069E-02 
506	 7,85449578085643E-02 
507	 7,75046433171463E-02 
508	 7,89022120688485E-02 
509	 8,00171750787981E-02 
510	 0,078512302728463 
511	 7,90700205079992E-02 
512	 8,11993087142386E-02 
513	 8,13829831110117E-02 
514	 8,10079997517225E-02 
515	 8,07868243893438E-02 
516	 8,14294667874239E-02 
517	 8,23349984270372E-02 
518	 8,25795994294354E-02 
519	 8,28216365339197E-02 
520	 0,083011533433413 
521	 0,082193791681584 
522	 8,20903821760285E-02 
523	 8,38159782987418E-02 
524	 8,54592214396483E-02 
525	 8,60890420626727E-02 
526	 8,40077512274772E-02 
527	 8,38564216684035E-02 
528	 8,65409478156549E-02 
529	 8,70881271956962E-02 
530	 8,68142608074882E-02 
531	 8,76400014910721E-02 
532	 8,75691940077523E-02 
533	 8,68336262541782E-02 
534	 8,74361838841603E-02 
535	 0,088274428405568 
536	 0,088690442337893 
537	 8,88877400051535E-02 
538	 8,92096260868163E-02 
539	 9,02920982124583E-02 
540	 9,10909689957762E-02 
541	 9,12217509074807E-02 
542	 9,05781289768037E-02 
543	 9,02151397463006E-02 
544	 0,091116659877957 
545	 9,23597621070518E-02 
546	 9,32748537224792E-02 
547	 9,25419820812014E-02 
548	 9,21652291313517E-02 
549	 9,31271946489872E-02 
550	 9,47697205253404E-02 
551	 9,60105613519191E-02 
552	 9,53220628862177E-02 
553	 9,51442137620066E-02 
554	 9,58709600846906E-02 
555	 9,59364284979474E-02 
556	 9,60026326125535E-02 
557	 9,65679751476872E-02 
558	 9,63408270588812E-02 
559	 9,56792106281102E-02 
560	 9,59442820538893E-02 
561	 9,67557053748202E-02 
562	 9,78341487476975E-02 
563	 9,84426104122202E-02 
564	 9,85678643547035E-02 
565	 9,83019036268776E-02 
566	 9,86285481699287E-02 
567	 9,93650408738241E-02 
568	 9,87089869728053E-02 
569	 9,85464665038777E-02 
570	 0,100051938287879 
571	 0,101083007448851 
572	 0,101240022371104 
573	 0,100342925217629 
574	 9,99522458177829E-02 
575	 0,100549013534097 
576	 0,10109328638668 
577	 0,101459253660462 
578	 0,101604227457176 
579	 0,102063662391259 
580	 0,102754722066633 
581	 0,103015939430047 
582	 0,10324192704355 
583	 0,103551785884644 
584	 0,103000956016997 
585	 0,10226352192148 
586	 0,10264718717099 
587	 0,103767576844462 
588	 0,105049418177185 
589	 0,10463080847452 
590	 0,103886820457319 
591	 0,104153142529847 
592	 0,104436224645653 
593	 0,104555298297439 
594	 0,104521833363634 
595	 0,104496170788546 
596	 0,104648722756914 
597	 0,105486052785834 
598	 0,106452023321877 
599	 0,106663907411089 
600	 0,10682810138647 
601	 0,106909633420435 
602	 0,105902606679777 
603	 0,10529236603987 
604	 0,106160062012503 
605	 0,106649469637245 
606	 0,106506045419526 
607	 0,10588147913078 
608	 0,105529420509679 
609	 0,105738506632785 
610	 0,105977829466294 
611	 0,106437469974117 
612	 0,107397436178148 
613	 0,107879833970522 
614	 0,107766210767361 
615	 0,107543283055542 
616	 0,107409951380688 
617	 0,107504369339404 
618	 0,107684061624206 
619	 0,107891229177887 
620	 0,108052518668011 
621	 0,108345796114267 
622	 0,108686116415616 
623	 0,108349418759796 
624	 0,108121390863171 
625	 0,108811252628714 
626	 0,109329299013339 
627	 0,109564325395877 
628	 0,109909445001557 
629	 0,110430970589357 
630	 0,110980878924943 
631	 0,110190660157781 
632	 0,1090477963958 
633	 0,109347075663786 
634	 0,110126713030665 
635	 0,110831355270875 
636	 0,110396240970347 
637	 0,11001776912774 
638	 0,110673810560657 
639	 0,11086934195573 
640	 0,110765095467955 
641	 0,111570288360761 
642	 0,111908891314654 
643	 0,111330464881044 
644	 0,110683599831072 
645	 0,110477664518476 
646	 0,111242853599837 
647	 0,111573566447545 
648	 0,111310608647759 
649	 0,111262301911684 
650	 0,11152325821511 
651	 0,1120297979215 
652	 0,111460616486181 
653	 0,110581982778813 
654	 0,111405323061078 
655	 0,111845503920953 
656	 0,111433592066224 
657	 0,111499663799117 
658	 0,111842089458484 
659	 0,112149238619925 
660	 0,111745662461091 
661	 0,110991909480784 
662	 0,111386373342371 
663	 0,111731677451917 
664	 0,111463599802115 
665	 0,111182879191381 
666	 0,110950956167758 
667	 0,110733967195128 
668	 0,110863574993837 
669	 0,111272638311759 
670	 0,111349330590579 
671	 0,111277953194312 
672	 0,111214705319608 
673	 0,110973722870977 
674	 0,110819146157226 
675	 0,111500430554918 
676	 0,111844944503671 
677	 0,111635626584671 
678	 0,112320466021418 
679	 0,113321055349741 
680	 0,113819860339642 
681	 0,113993615843693 
682	 0,114048345709543 
683	 0,114486149690226 
684	 0,115166320325593 
685	 0,115919002117799 
686	 0,116050457643955 
687	 0,116112392270794 
688	 0,117294697573917 
689	 0,117948265138042 
690	 0,11780479651883 
691	 0,118031764211372 
692	 0,118591878098636 
693	 0,11934317472717 
694	 0,119197492166178 
695	 0,118664905080852 
696	 0,119639539514568 
697	 0,120397056811553 
698	 0,120426950542619 
699	 0,121358940981769 
700	 0,122136409095713 
701	 0,121246511605378 
702	 0,12125084448417 
703	 0,122313119496897 
704	 0,122702844807918 
705	 0,122931613657642 
706	 0,123263342749119 
707	 0,12301260516529 
708	 0,122886667978074 
709	 0,124428685665964 
710	 0,125252381662137 
711	 0,124870170860338 
712	 0,12476413614952 
713	 0,12514210691503 
714	 0,126052316053552 
715	 0,126130889216779 
716	 0,125601559776552 
717	 0,125721995382366 
718	 0,126142900246919 
719	 0,1266966666431 
720	 0,127134365322843 
721	 0,127464765197242 
722	 0,127744821625814 
723	 0,127592755586559 
724	 0,12733521802771 
725	 0,128350362136232 
726	 0,129299845078405 
727	 0,129385623735262 
728	 0,129408563057694 
729	 0,129546585225941 
730	 0,129904963475758 
731	 0,130360355911059 
732	 0,130820159884808 
733	 0,131104342186487 
734	 0,131362101118769 
735	 0,131702898848101 
736	 0,131665568876142 
737	 0,131491921371909 
738	 0,13200177786362 
739	 0,132403761374732 
740	 0,13243499252002 
741	 0,132433783519986 
742	 0,132507609759405 
743	 0,132747372152878 
744	 0,133165701915 
745	 0,133625920503203 
746	 0,133744649112542 
747	 0,133775835067103 
748	 0,133877354125386 
749	 0,134101763337066 
750	 0,134407446910496 
751	 0,134714749046158 
752	 0,135042035843025 
753	 0,135385684151054 
754	 0,135750812853606 
755	 0,13604510389622 
756	 0,13621028270133 
757	 0,136346488669478 
758	 0,136533631749833 
759	 0,136899942694849 
760	 0,137213326629672 
761	 0,137421189855946 
762	 0,137691036299763 
763	 0,137964395657787 
764	 0,13816990038463 
765	 0,13815889242189 
766	 0,138077815537171 
767	 0,138318178033737 
768	 0,138867774456501 
769	 0,139575864726254 
770	 0,139630844810802 
771	 0,139480486893683 
772	 0,13972687276616 
773	 0,139873434883289 
774	 0,139952601377721 
775	 0,140407615277209 
776	 0,140762929613969 
777	 0,140822341132526 
778	 0,141111744237874 
779	 0,14142271018326 
780	 0,141368860266221 
781	 0,141398326591325 
782	 0,141575885110976 
783	 0,141611858461649 
784	 0,141930307810863 
785	 0,14268533444216 
786	 0,142668644646177 
787	 0,142397949679364 
788	 0,143120255321252 
789	 0,143505177281843 
790	 0,143381053339951 
791	 0,143821554861427 
792	 0,1441399436922 
793	 0,143856765955038 
794	 0,144146870653522 
795	 0,144850436173296 
796	 0,14522238235738 
797	 0,145468558421115 
798	 0,145611721571061 
799	 0,145519302644158 
800	 0,145549891581092 
801	 0,14599901724246 
802	 0,146086104858888 
803	 0,145938508397034 
804	 0,14631539601337 
805	 0,146412121641649 
806	 0,146121413498966 
807	 0,146507169851443 
808	 0,147114358645043 
809	 0,1473735125836 
810	 0,14728728966366 
811	 0,147064359952713 
812	 0,147258634364178 
813	 0,14766252960202 
814	 0,148098692604633 
815	 0,148055719755513 
816	 0,14793669196518 
817	 0,148262456881073 
818	 0,148593723663572 
819	 0,148746862633314 
820	 0,148405458951408 
821	 0,148499694586864 
822	 0,149293943262623 
823	 0,149331298921455 
824	 0,149080359876746 
825	 0,149323894919825 
826	 0,149463422183496 
827	 0,149457088437383 
828	 0,149616375974481 
829	 0,14971308562384 
830	 0,149675563841678 
831	 0,149837694186592 
832	 0,150114697643933 
833	 0,150340756338592 
834	 0,150446878138552 
835	 0,150435866230165 
836	 0,150366790064853 
837	 0,150420647262408 
838	 0,150693691827261 
839	 0,151093811009731 
840	 0,151370094995214 
841	 0,151203669602561 
842	 0,151161055469679 
843	 0,151332968416164 
844	 0,151532667176626 
845	 0,151471087310827 
846	 0,151094837155123 
847	 0,151250602610298 
848	 0,151636419643171 
849	 0,151694713183356 
850	 0,151534187596803 
851	 0,151369998076967 
852	 0,151851372258916 
853	 0,152201834040853 
854	 0,152105704456992 
855	 0,152591716711414 
856	 0,153117161448882 
857	 0,152814340268209 
858	 0,152496599268158 
859	 0,152419992433992 
860	 0,152786583575332 
861	 0,152693809507097 
862	 0,151853179018201 
863	 0,151706152875727 
864	 0,152097298622983 
865	 0,152603708738313 
866	 0,153010894331675 
867	 0,153250000413857 
868	 0,153412287497941 
869	 0,153367020784669 
870	 0,153218739312107 
871	 0,153973431039023 
872	 0,154763180037851 
873	 0,154464382415813 
874	 0,153686241617999 
875	 0,152923545157718 
876	 0,153052689357066 
877	 0,153683255110269 
878	 0,154398076598333 
879	 0,153959344248542 
880	 0,153244853791469 
881	 0,153307985932001 
882	 0,153842356312824 
883	 0,154545776434511 
884	 0,154797010243296 
885	 0,155010494682563 
886	 0,155233534986606 
887	 0,154962748741864 
888	 0,154693842783435 
889	 0,154914234544674 
890	 0,155570781265552 
891	 0,155953765290146 
892	 0,15442038543069 
893	 0,154147084165698 
894	 0,155629053670818 
895	 0,156034307632508 
896	 0,155797793694074 
897	 0,155413125244597 
898	 0,155503011727165 
899	 0,155926250782059 
900	 0,156243051503278 
901	 0,156011014832429 
902	 0,15540696454235 
903	 0,155454926980866 
904	 0,156485280110245 
905	 0,158275462683073 
906	 0,15780295044559 
907	 0,156292469329497 
908	 0,156020901764091 
909	 0,15644774189632 
910	 0,157077119600249 
911	 0,156590454911304 
912	 0,156457627634756 
913	 0,157248252841538 
914	 0,157960382106346 
915	 0,158073960041992 
916	 0,157214238004395 
917	 0,157266065572912 
918	 0,157842813399672 
919	 0,156791899328868 
920	 0,156597490939335 
921	 0,157722223359976 
922	 0,158076127943206 
923	 0,157788117243767 
924	 0,157212725208287 
925	 0,158058286175009 
926	 0,159312565612754 
927	 0,158629618321327 
928	 0,158875964223516 
929	 0,1600502130568 
930	 0,159017933025087 
931	 0,15824771621954 
932	 0,158905395119325 
933	 0,158178649779839 
934	 0,157154195952701 
935	 0,157558187804623 
936	 0,158393794732757 
937	 0,159051071898587 
938	 0,158480778745769 
939	 0,157894853061661 
940	 0,157933394949644 
941	 0,159211510812229 
942	 0,160034392188432 
943	 0,159079595179402 
944	 0,159080146936747 
945	 0,159880071052467 
946	 0,160359852118197 
947	 0,16011407594395 
948	 0,159235684006311 
949	 0,158525859843193 
950	 0,15858763178828 
951	 0,159563355596698 
952	 0,159907463373096 
953	 0,159990855032803 
954	 0,160422634902921 
955	 0,15959333645958 
956	 0,158844911090612 
957	 0,162866012719869 
958	 0,1635114297282 
959	 0,159708712492658 
960	 0,160643946320596 
961	 0,162355185765361 
962	 0,161723357803047 
963	 0,160965891391249 
964	 0,160847016175709 
965	 0,162061679988171 
966	 0,161835424132127 
967	 0,160233802380012 
968	 0,159497628694715 
969	 0,160358977859266 
970	 0,16242628139316 
971	 0,161474392544603 
972	 0,160656448490914 
973	 0,162756569684866 
974	 0,16284592333127 
975	 0,162196836242297 
976	 0,164571020037636 
977	 0,164871022655978 
978	 0,162672374445933 
979	 0,161258466977333 
980	 0,161732252249173 
981	 0,164102530883894 
982	 0,164668877432458 
983	 0,163739794791398 
984	 0,16215038913159 
985	 0,161452434095817 
986	 0,161895094559607 
987	 0,163318900235405 
988	 0,163132359838992 
989	 0,161821157373095 
990	 0,164427054461165 
991	 0,165469862245601 
992	 0,163055117045757 
993	 0,164732845817815 
994	 0,166509246131079 
995	 0,163964992763743 
996	 0,161666073512595 
997	 0,160950629119971 
998	 0,162735943168681 
999	 0,16231244226358 
1000	 0,160432905482823 
1001	 0,165734779722488 
1002	 0,166764288232719 
1003	 0,160181616977278 
1004	 0,162297559731274 
1005	 0,166899811514028 
1006	 0,166929565919698 
1007	 0,166906301051853 
1008	 0,167031820659639 
1009	 0,166490334996988 
1010	 0,166222741372171 
1011	 0,166529004568928 
1012	 0,167504228672353 
1013	 0,168227368395326 
1014	 0,168157811353559 
1015	 0,166931344383274 
1016	 0,165644109518931 
1017	 0,165500188573643 
1018	 0,168297772850754 
1019	 0,171305045918234 
1020	 0,170183321569133 
1021	 0,167673842173527 
1022	 0,165709704467577 
1023	 0,167683760550344 
1024	 0,168685429007762 
1025	 0,167211911647568 
1026	 0,164893803001419 
1027	 0,164213387173149 
1028	 0,166045280421342 
1029	 0,16430079426672 
1030	 0,162359514064835 
1031	 0,164710672542633 
1032	 0,16732428099308 
1033	 0,168951525392588 
1034	 0,168761897371651 
1035	 0,166829112266521 
1036	 0,164354174488341 
1037	 0,164908823134235 
1038	 0,164928209314081 
1039	 0,163632743680388 
1040	 0,165619712372532 
1041	 0,16987202167874 
1042	 0,174261921967514 
1043	 0,171603524887594 
1044	 0,167286209504404 
1045	 0,170051525611398 
1046	 0,172195571683203 
1047	 0,17296342456136 
1048	 0,174791452701639 
1049	 0,172150089568827 
1050	 0,165681367395625 
1051	 0,164464468803087 
1052	 0,16473881739865 
1053	 0,16478604141324 
1054	 0,166292541625037 
1055	 0,167516574255692 
1056	 0,167264266826877 
1057	 0,170095860307493 
1058	 0,171080618625359 
1059	 0,163425557317591 
1060	 0,168082001314306 
1061	 0,180378733622614 
1062	 0,179213599631784 
1063	 0,178655644886166 
1064	 0,180022151246861 
1065	 0,172719910265302 
1066	 0,171814466090581 
1067	 0,179745001391828 
1068	 0,170324988952284 
1069	 0,163550481638136 
1070	 0,174129131911677 
1071	 0,184756970162437 
1072	 0,181854624001607 
1073	 0,155455383416195 
1074	 0,156791871674867 
1075	 0,174229683716218 
