Wavelength	GRA-VAN00039.asd
325	 0,615578337082723 
326	 0,524941832221114 
327	 0,476960734637242 
328	 0,548095993653312 
329	 0,703612369780234 
330	 0,785023712455279 
331	 0,578343578147661 
332	 0,513692983142113 
333	 0,504090323858572 
334	 0,445982998378458 
335	 0,483383729685106 
336	 0,595474224017236 
337	 0,571429627945073 
338	 0,490995262412185 
339	 0,410371611631346 
340	 0,427734504193178 
341	 0,481091723297636 
342	 0,422992149500147 
343	 0,394859357870463 
344	 0,431480496656107 
345	 0,436594503941666 
346	 0,432902860224736 
347	 0,441689437213519 
348	 0,415790633821487 
349	 0,369123417101351 
350	 0,370879258581095 
351	 0,390401273675335 
352	 0,4064813273865 
353	 0,404862155269029 
354	 0,390086903577515 
355	 0,3684984089493 
356	 0,378807632536329 
357	 0,412442568438366 
358	 0,433661147128273 
359	 0,437553750093836 
360	 0,425150707771963 
361	 0,439232264102267 
362	 0,440394144883049 
363	 0,367058626666944 
364	 0,378138289846487 
365	 0,468661169732308 
366	 0,462135970922828 
367	 0,447370274107791 
368	 0,472383134566244 
369	 0,455430593151258 
370	 0,422460421718961 
371	 0,434727241171183 
372	 0,452021799463144 
373	 0,4566071089256 
374	 0,439281421908349 
375	 0,426378289674311 
376	 0,438865990773983 
377	 0,45133381951828 
378	 0,458257016542372 
379	 0,455076340092744 
380	 0,448743853014063 
381	 0,442751045878054 
382	 0,440326956828982 
383	 0,443161322058514 
384	 0,451817952218819 
385	 0,452278328856799 
386	 0,445475927286916 
387	 0,439276901506443 
388	 0,438986530154146 
389	 0,444382618623862 
390	 0,435106843735009 
391	 0,430398706528654 
392	 0,453122051813459 
393	 0,455253302721216 
394	 0,438431547173335 
395	 0,437854124865609 
396	 0,448178464862857 
397	 0,463196008425162 
398	 0,459749415695805 
399	 0,445753198687406 
400	 0,435212817500184 
401	 0,438180804409275 
402	 0,451261507787405 
403	 0,45399507626866 
404	 0,449685043626114 
405	 0,442121660476959 
406	 0,444759195688555 
407	 0,45264822388552 
408	 0,454017640637558 
409	 0,448698421547121 
410	 0,43955975969388 
411	 0,438584121382441 
412	 0,443374236240942 
413	 0,45044224964913 
414	 0,450350251720257 
415	 0,445290681657237 
416	 0,445481077654004 
417	 0,444413715967003 
418	 0,440590722956102 
419	 0,440484230850073 
420	 0,443476454174976 
421	 0,448228865097942 
422	 0,449075409857489 
423	 0,445495535846998 
424	 0,439953954372671 
425	 0,438680628771027 
426	 0,444379579233253 
427	 0,445518424464879 
428	 0,444464968480174 
429	 0,448844702178324 
430	 0,448997392871371 
431	 0,44418893810162 
432	 0,444079091474703 
433	 0,445417086210739 
434	 0,445075611863258 
435	 0,445858105750798 
436	 0,446708911593054 
437	 0,443494102543014 
438	 0,44177956933966 
439	 0,443189647995034 
440	 0,442433719816264 
441	 0,442174161948196 
442	 0,446277590998792 
443	 0,447396282273966 
444	 0,445624938108155 
445	 0,447887758146974 
446	 0,448430121314151 
447	 0,444428841393201 
448	 0,443865217603287 
449	 0,44589902940883 
450	 0,44687020104073 
451	 0,448009509671397 
452	 0,449126033836353 
453	 0,448226422738779 
454	 0,447692721440693 
455	 0,449684423855689 
456	 0,451777983791105 
457	 0,452876175119949 
458	 0,451347992559488 
459	 0,45071270506667 
460	 0,452180345436739 
461	 0,452411585039369 
462	 0,452241744708631 
463	 0,453218939424281 
464	 0,451465633427066 
465	 0,448428979097536 
466	 0,452549711901453 
467	 0,456040023449515 
468	 0,45411899791601 
469	 0,45305128049457 
470	 0,453338995647096 
471	 0,454355615621637 
472	 0,453080858879145 
473	 0,450165771245368 
474	 0,453681891034308 
475	 0,457884028370033 
476	 0,456793431157156 
477	 0,455091315538866 
478	 0,45431325079423 
479	 0,456048840910115 
480	 0,456922377639781 
481	 0,455678342060796 
482	 0,456072422117378 
483	 0,456984070839233 
484	 0,456202945534009 
485	 0,45557575263835 
486	 0,455421288918064 
487	 0,454763467728274 
488	 0,455069947392457 
489	 0,457046486459358 
490	 0,455627885226522 
491	 0,452313073058594 
492	 0,45199219874189 
493	 0,453423038750568 
494	 0,455724879978112 
495	 0,456295730944455 
496	 0,455631221189511 
497	 0,454590966081213 
498	 0,455579931645856 
499	 0,457651772063507 
500	 0,455943480829469 
501	 0,454761031752271 
502	 0,456254289555354 
503	 0,456665453268587 
504	 0,456477121668641 
505	 0,457328671537533 
506	 0,458597598444982 
507	 0,460031952917108 
508	 0,461700455456724 
509	 0,461897695924488 
510	 0,459372562990061 
511	 0,459221724631219 
512	 0,460802466292931 
513	 0,459544927971295 
514	 0,459283195047677 
515	 0,461094999131911 
516	 0,460692909525249 
517	 0,459933403698616 
518	 0,461976312967665 
519	 0,462749463164756 
520	 0,461913008616867 
521	 0,462299910083279 
522	 0,462573851541951 
523	 0,46183978213856 
524	 0,461574683214927 
525	 0,461903734798565 
526	 0,462696309459581 
527	 0,462925320930309 
528	 0,462312739101077 
529	 0,46165210208144 
530	 0,461342370012799 
531	 0,461733902294684 
532	 0,461971534479381 
533	 0,462033058219307 
534	 0,462638993291689 
535	 0,462912522139681 
536	 0,462405307840328 
537	 0,461974741009514 
538	 0,461810564121995 
539	 0,461981372522562 
540	 0,462556473420393 
541	 0,463326993695093 
542	 0,463391391019176 
543	 0,463246112632899 
544	 0,463396227120889 
545	 0,462988889227745 
546	 0,462492079785409 
547	 0,46366316685826 
548	 0,464849110662476 
549	 0,465161703641401 
550	 0,464576767069501 
551	 0,464012911340386 
552	 0,464908944032147 
553	 0,46524428452945 
554	 0,464624116697553 
555	 0,463875106874884 
556	 0,463713215003727 
557	 0,464577342741651 
558	 0,464297742380927 
559	 0,46335332374664 
560	 0,464042979665232 
561	 0,464398090471953 
562	 0,463783612878533 
563	 0,463357890850249 
564	 0,463307706119037 
565	 0,463724009778367 
566	 0,464028334055703 
567	 0,464173178092114 
568	 0,464627055683034 
569	 0,465105667901015 
570	 0,465440589065897 
571	 0,465982265146193 
572	 0,46678807738629 
573	 0,467908269665691 
574	 0,46886061554724 
575	 0,469535608813718 
576	 0,470498393832035 
577	 0,471466174725906 
578	 0,472079401124319 
579	 0,472564108228325 
580	 0,473107942561654 
581	 0,474062145078307 
582	 0,475173995296713 
583	 0,476290393038565 
584	 0,477526427007929 
585	 0,47857337221577 
586	 0,478841798898707 
587	 0,479667323617118 
588	 0,48110937520238 
589	 0,481435807025013 
590	 0,481520955205627 
591	 0,482250684421894 
592	 0,483429941074381 
593	 0,484623704304811 
594	 0,484793047669094 
595	 0,48474919309826 
596	 0,484863737701508 
597	 0,484894909328225 
598	 0,484821281529509 
599	 0,484619451231771 
600	 0,484751240872639 
601	 0,485160593727694 
602	 0,485174647601145 
603	 0,484756984252821 
604	 0,483949871262121 
605	 0,4833831016846 
606	 0,483136930937029 
607	 0,483171474346167 
608	 0,482804633664732 
609	 0,481935347559687 
610	 0,481716087014316 
611	 0,481773375597249 
612	 0,481526228598881 
613	 0,481554971460789 
614	 0,481586340929139 
615	 0,480225160452271 
616	 0,479133826509353 
617	 0,47931169416196 
618	 0,479418505381302 
619	 0,479254147778172 
620	 0,478753656604942 
621	 0,478937356282067 
622	 0,479788843114621 
623	 0,479372905448129 
624	 0,478863678935074 
625	 0,479537658445041 
626	 0,480070045997142 
627	 0,480204464149319 
628	 0,480088626388722 
629	 0,479812328222465 
630	 0,479543884509871 
631	 0,479956906072624 
632	 0,480619638586804 
633	 0,480675141522493 
634	 0,481362262711394 
635	 0,482660382723735 
636	 0,483019182877846 
637	 0,483059027457067 
638	 0,483367543605827 
639	 0,483981417334378 
640	 0,484707856888812 
641	 0,484961629500286 
642	 0,485545734073499 
643	 0,486562845801651 
644	 0,486576144271758 
645	 0,486337071835443 
646	 0,486983539508839 
647	 0,486965157002395 
648	 0,486139450174401 
649	 0,485378511027165 
650	 0,484837818407849 
651	 0,484525741477608 
652	 0,483327622344547 
653	 0,48188996589274 
654	 0,481938297022631 
655	 0,481492571339359 
656	 0,480050931086127 
657	 0,478658755007716 
658	 0,477443181698674 
659	 0,476470103145267 
660	 0,47567952749525 
661	 0,474896507201178 
662	 0,473698065945339 
663	 0,4724784681169 
664	 0,47150629633574 
665	 0,471134319563631 
666	 0,470827142216097 
667	 0,469683533542277 
668	 0,468854209621986 
669	 0,468705322567815 
670	 0,469348815322587 
671	 0,469645324419526 
672	 0,468780169991331 
673	 0,468532273418921 
674	 0,468781375303539 
675	 0,468462044560137 
676	 0,468117586339897 
677	 0,467970172525861 
678	 0,468151508414591 
679	 0,468442665665133 
680	 0,468571223586018 
681	 0,468586447280703 
682	 0,468725594219322 
683	 0,469682096279101 
684	 0,470766171727818 
685	 0,471544463585409 
686	 0,47201501959009 
687	 0,472760978049749 
688	 0,474835146068328 
689	 0,476525536686069 
690	 0,477780381744419 
691	 0,480683071326701 
692	 0,484336508708302 
693	 0,487902074300994 
694	 0,492126837883269 
695	 0,496952886894683 
696	 0,501975113104872 
697	 0,507053481681744 
698	 0,512194085402691 
699	 0,517931762544571 
700	 0,524058807217683 
701	 0,530233746332981 
702	 0,53637217966133 
703	 0,542299674664265 
704	 0,547687788830369 
705	 0,552873373125955 
706	 0,558036886390355 
707	 0,56285102988096 
708	 0,56742394025444 
709	 0,572008892321153 
710	 0,576399161101054 
711	 0,580463428290124 
712	 0,583932813327904 
713	 0,587093685883453 
714	 0,590211797524157 
715	 0,59303573272486 
716	 0,595616805186553 
717	 0,598182019254072 
718	 0,600574650701422 
719	 0,602718353955902 
720	 0,604510828580855 
721	 0,606177715756253 
722	 0,608017220423792 
723	 0,609453760062831 
724	 0,610597180745486 
725	 0,612356614967317 
726	 0,613703465277552 
727	 0,614047636982582 
728	 0,614073950321165 
729	 0,614302670112561 
730	 0,615446820848499 
731	 0,616623753839982 
732	 0,617484774053023 
733	 0,617964185554821 
734	 0,618133148262306 
735	 0,61810678067201 
736	 0,618363365755879 
737	 0,618953975247201 
738	 0,619854894800455 
739	 0,620240369632205 
740	 0,619921325884392 
741	 0,619924959591258 
742	 0,62016485651188 
743	 0,620434110569634 
744	 0,620680811433458 
745	 0,620854029594275 
746	 0,620850599180105 
747	 0,620992968836181 
748	 0,62137336519571 
749	 0,621260782878291 
750	 0,621078436214287 
751	 0,621612487048334 
752	 0,621844024247135 
753	 0,621622911027873 
754	 0,621478886987703 
755	 0,621584324676077 
756	 0,622000459842551 
757	 0,622083143317947 
758	 0,621856653674709 
759	 0,621560951691269 
760	 0,621477202732053 
761	 0,621694196137026 
762	 0,622075180863198 
763	 0,622275537187576 
764	 0,622004811025921 
765	 0,621756378625221 
766	 0,62161285058833 
767	 0,621509962772568 
768	 0,621350769243689 
769	 0,621176817805028 
770	 0,621483580490267 
771	 0,62182677198085 
772	 0,621652046510646 
773	 0,621581967482991 
774	 0,621644379440265 
775	 0,621427397492235 
776	 0,621438789336035 
777	 0,621828386002172 
778	 0,621718884492169 
779	 0,621280668717421 
780	 0,620905596111891 
781	 0,620772031705859 
782	 0,620872747448858 
783	 0,620957009036208 
784	 0,620905566641547 
785	 0,620656857606344 
786	 0,620392556745711 
787	 0,620281839585051 
788	 0,620574583199606 
789	 0,620761654118793 
790	 0,620695586145802 
791	 0,620546276604343 
792	 0,620287408526553 
793	 0,619936818042964 
794	 0,619871693562337 
795	 0,620063339250637 
796	 0,620341827764499 
797	 0,620376903951084 
798	 0,620123536655712 
799	 0,620053539160921 
800	 0,619998383398158 
801	 0,61979699085999 
802	 0,619791082269663 
803	 0,619915823170585 
804	 0,619870376404039 
805	 0,619665919811451 
806	 0,619398707243235 
807	 0,619628435073899 
808	 0,619807749127384 
809	 0,619348767241185 
810	 0,619137558880572 
811	 0,619257355294732 
812	 0,619380124690485 
813	 0,619619297861414 
814	 0,619908541538114 
815	 0,619662384404591 
816	 0,619408384121553 
817	 0,61980280933056 
818	 0,619794812310728 
819	 0,61940116393813 
820	 0,619389042761602 
821	 0,61950211089592 
822	 0,619540328542815 
823	 0,618939963446254 
824	 0,618451940435831 
825	 0,619075729034254 
826	 0,61952363769885 
827	 0,619497881893888 
828	 0,619111504232149 
829	 0,618901853384748 
830	 0,619082468246592 
831	 0,618918290687909 
832	 0,618535942253526 
833	 0,618217180375251 
834	 0,618410079507933 
835	 0,618950813614348 
836	 0,618921691401269 
837	 0,618824213737706 
838	 0,618871461512831 
839	 0,618581101354461 
840	 0,618174089348933 
841	 0,618022005952894 
842	 0,61811578725875 
843	 0,618305719662396 
844	 0,618104743528684 
845	 0,617873438519918 
846	 0,61784746654218 
847	 0,618158709496118 
848	 0,618483294959358 
849	 0,618359069916433 
850	 0,618215794132839 
851	 0,618108278415142 
852	 0,617800525125579 
853	 0,617643241013287 
854	 0,617822801055491 
855	 0,618268351138874 
856	 0,618383282195642 
857	 0,617405683964861 
858	 0,616999042944081 
859	 0,617318430377869 
860	 0,617457159822578 
861	 0,617320471433536 
862	 0,616884994882556 
863	 0,616478228338307 
864	 0,616333192171974 
865	 0,616677961064782 
866	 0,61720094734871 
867	 0,617602382988992 
868	 0,617292307035717 
869	 0,616976435661494 
870	 0,616910912207256 
871	 0,616302810290499 
872	 0,615818732194003 
873	 0,616300056007592 
874	 0,616828547824301 
875	 0,617035570289696 
876	 0,616492108482158 
877	 0,616143376110788 
878	 0,616372712748463 
879	 0,616733594958947 
880	 0,616913408971538 
881	 0,61665063711289 
882	 0,616726436442996 
883	 0,617001116128092 
884	 0,616628261990717 
885	 0,616491396702893 
886	 0,616785835137884 
887	 0,616832465380175 
888	 0,616507927685682 
889	 0,615779593918166 
890	 0,61508884695535 
891	 0,614880750073633 
892	 0,615958260858859 
893	 0,616468405558554 
894	 0,615994018203979 
895	 0,615761433586687 
896	 0,615841741617285 
897	 0,616238269327581 
898	 0,616696879413638 
899	 0,617020784446281 
900	 0,616995530511778 
901	 0,616501780201661 
902	 0,615686837937362 
903	 0,615017028868666 
904	 0,615112701366514 
905	 0,616092887349557 
906	 0,615861288193669 
907	 0,614923099218544 
908	 0,614383126713023 
909	 0,614497736181523 
910	 0,614986470071111 
911	 0,614692048772018 
912	 0,614250008531656 
913	 0,61404549190657 
914	 0,614505322388839 
915	 0,614783352943341 
916	 0,614020615564976 
917	 0,614839678956989 
918	 0,61642065129444 
919	 0,615255449489646 
920	 0,61485215080333 
921	 0,615933532163237 
922	 0,615845636127558 
923	 0,615222499047003 
924	 0,61470524785051 
925	 0,614225280608766 
926	 0,613820674302221 
927	 0,613513726259601 
928	 0,613547706452533 
929	 0,61370098218687 
930	 0,612964567555266 
931	 0,612086070778786 
932	 0,611626121281942 
933	 0,612118052856068 
934	 0,612631555862688 
935	 0,61196615064021 
936	 0,61237434095389 
937	 0,613271287519098 
938	 0,611472898333079 
939	 0,610252084309918 
940	 0,610639086778634 
941	 0,610963551309464 
942	 0,610886541714581 
943	 0,610208458362052 
944	 0,609171054917029 
945	 0,608623237275421 
946	 0,610062646213751 
947	 0,609682404311777 
948	 0,607442521578388 
949	 0,607648941787815 
950	 0,60763751063126 
951	 0,606182942389715 
952	 0,605842334590103 
953	 0,606013806074563 
954	 0,605695050844981 
955	 0,60623776158235 
956	 0,606727023033704 
957	 0,604067974985406 
958	 0,602225323928369 
959	 0,602236864638722 
960	 0,60188710912058 
961	 0,601136830905586 
962	 0,600270954200212 
963	 0,601704771803929 
964	 0,603339784961219 
965	 0,601579704843722 
966	 0,60036269509037 
967	 0,600354137886262 
968	 0,600375989360679 
969	 0,600298820570999 
970	 0,599999829346523 
971	 0,599420455130423 
972	 0,599037782560979 
973	 0,599308061628661 
974	 0,600537013985285 
975	 0,601324545379864 
976	 0,59912165433798 
977	 0,599120913214645 
978	 0,601345829620499 
979	 0,600647380077576 
980	 0,599337578554144 
981	 0,598666642954954 
982	 0,598805651299312 
983	 0,599338194636439 
984	 0,599717478810351 
985	 0,59917429207316 
986	 0,598075000302085 
987	 0,597243968068759 
988	 0,599730609255649 
989	 0,604454738975426 
990	 0,604440504555836 
991	 0,603050318529102 
992	 0,60213287658107 
993	 0,601048772453476 
994	 0,601297386609169 
995	 0,604042854733657 
996	 0,604234932947008 
997	 0,603190743096393 
998	 0,605378644920909 
999	 0,607255784735575 
1000	 0,607054576892191 
1001	 0,601755381989062 
1002	 0,6003209016242 
1003	 0,605633268482193 
1004	 0,605190961391403 
1005	 0,603889296090551 
1006	 0,606864633613449 
1007	 0,605934984343716 
1008	 0,602950249721412 
1009	 0,603459007414571 
1010	 0,605379335010158 
1011	 0,60698489865686 
1012	 0,604224750800137 
1013	 0,603058346224093 
1014	 0,60559778695945 
1015	 0,607417183978642 
1016	 0,609571310309202 
1017	 0,612702763805271 
1018	 0,612916109426099 
1019	 0,61079068774781 
1020	 0,608236795126063 
1021	 0,608084036693541 
1022	 0,610128366762686 
1023	 0,611320202864437 
1024	 0,614665951008021 
1025	 0,618863300718864 
1026	 0,614246974202185 
1027	 0,611726833915392 
1028	 0,617043595964742 
1029	 0,615213370374498 
1030	 0,610634231140478 
1031	 0,61033680880826 
1032	 0,613574518710493 
1033	 0,617725499748305 
1034	 0,617691575095666 
1035	 0,617646579580135 
1036	 0,617260024788967 
1037	 0,61075566524167 
1038	 0,607296452567182 
1039	 0,610907785950966 
1040	 0,618890201730157 
1041	 0,623607717388791 
1042	 0,620176509123953 
1043	 0,622310753025066 
1044	 0,62303015047467 
1045	 0,611199656870587 
1046	 0,607294976989382 
1047	 0,613229168889889 
1048	 0,623171747590782 
1049	 0,624205370071431 
1050	 0,617696938009438 
1051	 0,627437929400995 
1052	 0,630101049220719 
1053	 0,617355777480903 
1054	 0,614554292917842 
1055	 0,618875927385869 
1056	 0,625086035107176 
1057	 0,621830119412256 
1058	 0,617887880998197 
1059	 0,627303992289878 
1060	 0,62817371156487 
1061	 0,622875313973299 
1062	 0,627500729069572 
1063	 0,630255095054611 
1064	 0,628524105606985 
1065	 0,62576443602411 
1066	 0,620668014160894 
1067	 0,614613634611118 
1068	 0,614819048789634 
1069	 0,615653115634278 
1070	 0,614166152532401 
1071	 0,62416682108161 
1072	 0,633410907399174 
1073	 0,626117339127858 
1074	 0,614917818831527 
1075	 0,610384996268913 
