Wavelength	GRA-VAN00714.asd
325	 0,248999743330364 
326	 0,357674311574749 
327	 0,418012020486276 
328	 0,356508553953244 
329	 0,337309752215024 
330	 0,294080206339962 
331	 0,239570833435373 
332	 0,267679554924983 
333	 0,305873031593543 
334	 0,212729104220923 
335	 0,15094453818946 
336	 0,185426896432073 
337	 0,201136706103786 
338	 0,165887522876203 
339	 4,76293740758995E-02 
340	 9,57127865546579E-02 
341	 0,196887045561949 
342	 6,84519411593603E-02 
343	 1,64181838801699E-02 
344	 0,105343146729155 
345	 8,39989204465768E-02 
346	 5,51968609636404E-02 
347	 0,12537008742622 
348	 0,117539923023555 
349	 5,35079160568572E-02 
350	 0,071621393536112 
351	 9,39034098135177E-02 
352	 9,08983490880043E-02 
353	 9,17490144870209E-02 
354	 8,71114995810174E-02 
355	 0,065094363935982 
356	 8,22905618843763E-02 
357	 0,114466057248844 
358	 6,42968077554611E-02 
359	 3,31627378338762E-02 
360	 6,64595069607124E-02 
361	 7,78602722063788E-02 
362	 7,16741172678023E-02 
363	 6,25578717026817E-02 
364	 0,062304197425996 
365	 7,00661071539556E-02 
366	 6,82183051046627E-02 
367	 6,50387235979052E-02 
368	 6,56239173709532E-02 
369	 0,069912208146214 
370	 6,78558999562114E-02 
371	 3,87139056618925E-02 
372	 3,36288987609571E-02 
373	 5,44699975240256E-02 
374	 3,57320966919078E-02 
375	 3,05228790558673E-02 
376	 7,45127389727539E-02 
377	 7,38122616084177E-02 
378	 0,042543800481124 
379	 4,29346176821724E-02 
380	 4,70342212359753E-02 
381	 4,94545887563664E-02 
382	 6,35511095849695E-02 
383	 7,03933834865951E-02 
384	 5,47609326844015E-02 
385	 5,68067272594311E-02 
386	 6,89718559190396E-02 
387	 5,24863125970678E-02 
388	 4,05434076329709E-02 
389	 4,50636354477988E-02 
390	 0,043993450896941 
391	 3,95702753418869E-02 
392	 3,64014393369003E-02 
393	 2,83771735857578E-02 
394	 2,10542829175851E-02 
395	 3,46920132302488E-02 
396	 0,043989746479111 
397	 3,84690600171695E-02 
398	 4,43319616536831E-02 
399	 4,90190786243364E-02 
400	 2,92642283627405E-02 
401	 2,46727449681817E-02 
402	 3,71641809297655E-02 
403	 3,53133781858007E-02 
404	 2,59019945060211E-02 
405	 0,01609350155128 
406	 2,54192133596962E-02 
407	 4,12514974005603E-02 
408	 0,035561290676373 
409	 3,20868487168716E-02 
410	 3,50421435318497E-02 
411	 2,87514075343441E-02 
412	 2,38658210147969E-02 
413	 3,00781424939137E-02 
414	 2,96269687759049E-02 
415	 2,31928393058347E-02 
416	 2,01067194240656E-02 
417	 1,89953862763625E-02 
418	 2,01388521919398E-02 
419	 2,72839112530938E-02 
420	 0,034112539053092 
421	 3,32316660913502E-02 
422	 2,81882631705012E-02 
423	 2,23750998085009E-02 
424	 2,33172040568982E-02 
425	 2,48262800814787E-02 
426	 0,023594674719001 
427	 2,57549769604311E-02 
428	 2,92732836312173E-02 
429	 2,97072594707571E-02 
430	 2,67494085304028E-02 
431	 2,13045494147778E-02 
432	 1,71359116505287E-02 
433	 1,74054853005205E-02 
434	 2,38315200616463E-02 
435	 2,45329357757468E-02 
436	 2,10240012933785E-02 
437	 2,36588031962519E-02 
438	 2,39823006568371E-02 
439	 1,97252893624257E-02 
440	 1,75035093236999E-02 
441	 1,82683208861648E-02 
442	 2,23732546578936E-02 
443	 2,37834129109401E-02 
444	 0,021747540780873 
445	 1,91709390618011E-02 
446	 1,77292888664562E-02 
447	 0,018193057085122 
448	 1,68570619584328E-02 
449	 1,45984546502424E-02 
450	 1,37099883349229E-02 
451	 0,016169068702624 
452	 2,11323787282557E-02 
453	 0,022368577746035 
454	 2,14103056964282E-02 
455	 2,00991817742613E-02 
456	 2,08175007713338E-02 
457	 2,21900908387568E-02 
458	 1,87865524655316E-02 
459	 1,72913713182579E-02 
460	 0,01977596927069 
461	 1,93665610199201E-02 
462	 1,79922232521753E-02 
463	 1,90499408237313E-02 
464	 1,87099182743951E-02 
465	 1,69698179015027E-02 
466	 0,016465835506089 
467	 1,93609628042336E-02 
468	 2,59474019103022E-02 
469	 2,54266640926034E-02 
470	 0,020700140066816 
471	 2,03215184808166E-02 
472	 2,21319401906054E-02 
473	 2,43249551785925E-02 
474	 0,020848121911138 
475	 1,76393731112098E-02 
476	 2,06479652510431E-02 
477	 2,26901405059474E-02 
478	 2,25381411665604E-02 
479	 2,10102488596228E-02 
480	 1,98603864102778E-02 
481	 2,00260085009232E-02 
482	 0,020931632558738 
483	 2,15142808809427E-02 
484	 2,03586410451227E-02 
485	 1,95664264276819E-02 
486	 1,95832851867911E-02 
487	 1,96564056064852E-02 
488	 1,97618140688149E-02 
489	 1,98095139109424E-02 
490	 1,88211388696849E-02 
491	 1,78005125069384E-02 
492	 1,94460230922282E-02 
493	 2,05712914525056E-02 
494	 2,01655435922494E-02 
495	 1,97293427466985E-02 
496	 1,85543530417736E-02 
497	 1,58019572083185E-02 
498	 0,016780736986225 
499	 2,07584736795999E-02 
500	 2,21690474874938E-02 
501	 2,12254997797928E-02 
502	 1,85176253158199E-02 
503	 1,79625740265634E-02 
504	 1,91098721142711E-02 
505	 2,02967579581924E-02 
506	 2,03406228932573E-02 
507	 1,94315929277909E-02 
508	 2,06817338462273E-02 
509	 2,12445924457657E-02 
510	 1,86929887371739E-02 
511	 1,81857270179544E-02 
512	 1,93896310487908E-02 
513	 1,87274297884925E-02 
514	 1,82512305652714E-02 
515	 1,88063007769372E-02 
516	 2,01140865292314E-02 
517	 0,021181897339025 
518	 2,07165325266531E-02 
519	 2,05632848621099E-02 
520	 2,09168413132884E-02 
521	 2,07198294484064E-02 
522	 1,98524719452591E-02 
523	 1,84494283710666E-02 
524	 1,86504468234246E-02 
525	 1,99595765167332E-02 
526	 2,06870550540742E-02 
527	 2,05124942164321E-02 
528	 1,94635349759248E-02 
529	 1,87168866954198E-02 
530	 1,84457612445507E-02 
531	 1,87029447747321E-02 
532	 1,86555565881815E-02 
533	 1,82283467550133E-02 
534	 1,78163453109102E-02 
535	 0,017769727060552 
536	 1,82163543828605E-02 
537	 1,82508435442693E-02 
538	 1,81994238461951E-02 
539	 1,89142929350775E-02 
540	 1,95806371694177E-02 
541	 1,98590127527612E-02 
542	 0,019500075841879 
543	 1,91713730773975E-02 
544	 1,94732794475293E-02 
545	 1,87637381302257E-02 
546	 1,74980028995329E-02 
547	 1,77983866950693E-02 
548	 1,84432687645224E-02 
549	 1,88463550013372E-02 
550	 1,93982102670383E-02 
551	 1,96749271965589E-02 
552	 1,89857381781697E-02 
553	 1,82915843551905E-02 
554	 1,79253161960572E-02 
555	 1,78938389765463E-02 
556	 1,78182908586385E-02 
557	 1,74450030261856E-02 
558	 1,77713142380371E-02 
559	 1,85182162498475E-02 
560	 1,85541274777488E-02 
561	 0,018618190625344 
562	 1,89467845863638E-02 
563	 1,92855268585863E-02 
564	 1,91856785864609E-02 
565	 1,80985804134957E-02 
566	 1,78127363965785E-02 
567	 1,83461852505596E-02 
568	 1,79679440149058E-02 
569	 1,74265066611335E-02 
570	 1,72546861880889E-02 
571	 0,017153529188177 
572	 1,73491005377544E-02 
573	 1,84225891912981E-02 
574	 1,96264168353014E-02 
575	 2,04564521078329E-02 
576	 0,020074705350954 
577	 1,94752800820364E-02 
578	 1,98256216372092E-02 
579	 2,01581496230537E-02 
580	 2,03621345885478E-02 
581	 2,08667756849487E-02 
582	 0,020996840888741 
583	 2,04918879913588E-02 
584	 2,05644408804442E-02 
585	 2,09559187160774E-02 
586	 2,09121182916842E-02 
587	 2,09393406512416E-02 
588	 2,11826412327751E-02 
589	 2,16090015204844E-02 
590	 2,20312669343562E-02 
591	 2,22698638907482E-02 
592	 2,22593262216119E-02 
593	 0,022120548308614 
594	 2,21822004460185E-02 
595	 2,23526747073717E-02 
596	 2,25777516299057E-02 
597	 2,27660401128923E-02 
598	 2,28957341377666E-02 
599	 2,29876892371463E-02 
600	 2,22858029862093E-02 
601	 2,11275422234361E-02 
602	 2,15585494587092E-02 
603	 2,24046004720156E-02 
604	 2,26264429124008E-02 
605	 2,18314867534615E-02 
606	 2,06180883856105E-02 
607	 2,05770177553469E-02 
608	 2,07624079592749E-02 
609	 2,08853206088988E-02 
610	 2,13631329954903E-02 
611	 2,17430592537863E-02 
612	 2,14547768800774E-02 
613	 2,10769711222138E-02 
614	 2,06927378021796E-02 
615	 1,99629024920366E-02 
616	 1,95371390210919E-02 
617	 1,98050729844346E-02 
618	 2,02518196218916E-02 
619	 2,05711220442058E-02 
620	 2,03425917008171E-02 
621	 2,01816181621415E-02 
622	 2,02051918074491E-02 
623	 1,98038331282488E-02 
624	 1,96286522646652E-02 
625	 2,03217756021704E-02 
626	 2,02774291048419E-02 
627	 1,97167132010899E-02 
628	 2,04162710045892E-02 
629	 2,07608644679843E-02 
630	 2,01002663731073E-02 
631	 2,01494274331419E-02 
632	 2,05809962299169E-02 
633	 2,05311114129451E-02 
634	 2,05279358999563E-02 
635	 2,07646751156482E-02 
636	 2,14706204500068E-02 
637	 2,19492671052338E-02 
638	 2,16827293673725E-02 
639	 2,20585924498992E-02 
640	 2,27481327714019E-02 
641	 2,21661398144309E-02 
642	 2,20235264135825E-02 
643	 2,28358065698045E-02 
644	 2,31767458459175E-02 
645	 2,33479466544848E-02 
646	 2,39138386158182E-02 
647	 2,39609265923976E-02 
648	 2,33556529265528E-02 
649	 2,23460620356007E-02 
650	 2,18894654778668E-02 
651	 2,24824126172999E-02 
652	 0,022194270337567 
653	 2,16100467714005E-02 
654	 2,26415953435051E-02 
655	 2,29818450435235E-02 
656	 2,20005850431105E-02 
657	 2,06729077520563E-02 
658	 1,97194635809692E-02 
659	 1,97802752928978E-02 
660	 1,97365498678763E-02 
661	 1,93896650069007E-02 
662	 1,88888616426607E-02 
663	 1,87009467130712E-02 
664	 1,90162853167813E-02 
665	 1,93815702070692E-02 
666	 1,93034747591277E-02 
667	 1,80793027485951E-02 
668	 0,017707182877073 
669	 1,83774356065868E-02 
670	 0,018368433215777 
671	 0,018008005361597 
672	 1,76505293054898E-02 
673	 1,78551055046444E-02 
674	 1,84864519542638E-02 
675	 1,91174232761164E-02 
676	 1,89708389449524E-02 
677	 1,80177182034133E-02 
678	 1,79545132138896E-02 
679	 1,85607377336531E-02 
680	 0,019375778923896 
681	 0,01887155096558 
682	 1,75472433306868E-02 
683	 1,81741646359221E-02 
684	 1,93678813069207E-02 
685	 2,01522949104396E-02 
686	 1,96660821146601E-02 
687	 1,88751320277132E-02 
688	 1,97215005947818E-02 
689	 2,02748649373875E-02 
690	 2,02493501721237E-02 
691	 2,09149642846975E-02 
692	 2,23126068562209E-02 
693	 2,43682991182602E-02 
694	 2,60693590371017E-02 
695	 0,027553018117169 
696	 2,97014328102025E-02 
697	 3,21492488255937E-02 
698	 3,48462050373952E-02 
699	 3,81997175588998E-02 
700	 4,21170895962263E-02 
701	 4,64202157726636E-02 
702	 5,11477666623384E-02 
703	 5,61162882422742E-02 
704	 6,07253996746147E-02 
705	 6,59015639214984E-02 
706	 7,20353318181803E-02 
707	 7,72433620894516E-02 
708	 8,19666133077417E-02 
709	 8,75169347138437E-02 
710	 9,30614177589048E-02 
711	 9,83351814056876E-02 
712	 0,103295196919364 
713	 0,108221639451538 
714	 0,113323437838395 
715	 0,117667690758804 
716	 0,121611379184034 
717	 0,126675168356689 
718	 0,130926356355783 
719	 0,133791318198692 
720	 0,137043411655944 
721	 0,140513715711332 
722	 0,143775713873421 
723	 0,146395172861696 
724	 0,148481304473951 
725	 0,150737802479544 
726	 0,153113803559192 
727	 0,155523932075621 
728	 0,157491861427628 
729	 0,15905670463884 
730	 0,160408448477076 
731	 0,161760805227941 
732	 0,163154347633025 
733	 0,164352905373332 
734	 0,165447657964775 
735	 0,166522301758799 
736	 0,167478558166602 
737	 0,16835559391294 
738	 0,169280002804632 
739	 0,17022183458968 
740	 0,171093424111921 
741	 0,171468685305814 
742	 0,171850088275345 
743	 0,172829220011516 
744	 0,173146207753714 
745	 0,172925087083948 
746	 0,173417554328332 
747	 0,174109457989663 
748	 0,174677693188572 
749	 0,174799607987342 
750	 0,17494416886957 
751	 0,175909912341757 
752	 0,176294469982328 
753	 0,17607382175408 
754	 0,176765127569194 
755	 0,1773682468722 
756	 0,177203222015435 
757	 0,177229992770146 
758	 0,177465934998733 
759	 0,177611795787745 
760	 0,177934502510492 
761	 0,17842759036361 
762	 0,17870123972051 
763	 0,178858009162071 
764	 0,179000988409318 
765	 0,178822681662817 
766	 0,178582562834437 
767	 0,179088124078915 
768	 0,179549691836229 
769	 0,179686400221522 
770	 0,179843767253741 
771	 0,180163722237122 
772	 0,180759022477848 
773	 0,180692868571878 
774	 0,180108872971047 
775	 0,180067201333402 
776	 0,180366559534702 
777	 0,180821877206962 
778	 0,180804315780566 
779	 0,180632834791753 
780	 0,180888842642993 
781	 0,180925182894739 
782	 0,180699146714723 
783	 0,180662448989328 
784	 0,180734022721451 
785	 0,180847125322282 
786	 0,180860689370434 
787	 0,180950838596859 
788	 0,181488231820627 
789	 0,181784502412841 
790	 0,181697777828911 
791	 0,181617126650179 
792	 0,181557846672197 
793	 0,181542743755616 
794	 0,181739493366757 
795	 0,181977538775839 
796	 0,181836890636719 
797	 0,181685523565568 
798	 0,181722862357306 
799	 0,18226072077674 
800	 0,182714535737177 
801	 0,182533477594581 
802	 0,182004300314668 
803	 0,181580226669072 
804	 0,182318111662299 
805	 0,182636573040877 
806	 0,182159278025674 
807	 0,18239761615319 
808	 0,182733196202056 
809	 0,182438380309389 
810	 0,182550664751805 
811	 0,183078814702231 
812	 0,183483081366682 
813	 0,18367158253749 
814	 0,183626321852982 
815	 0,183643301079759 
816	 0,183754593568819 
817	 0,183954583862463 
818	 0,183955370804495 
819	 0,183913939957327 
820	 0,184556880362089 
821	 0,184925522734825 
822	 0,184667364385046 
823	 0,184737258391759 
824	 0,185041126803772 
825	 0,185332655632567 
826	 0,185910450470299 
827	 0,186502750370225 
828	 0,186062575026128 
829	 0,185753711821068 
830	 0,186097462274746 
831	 0,186088013781649 
832	 0,185987270128852 
833	 0,18628505209646 
834	 0,186743750992829 
835	 0,187181317883679 
836	 0,187245021605832 
837	 0,187231354932696 
838	 0,187237307619636 
839	 0,18666783321043 
840	 0,186166085618341 
841	 0,186688806520879 
842	 0,187248624763279 
843	 0,187495363851316 
844	 0,187196562250527 
845	 0,186920976577658 
846	 0,18699967257411 
847	 0,187263848925906 
848	 0,187440750890648 
849	 0,187183280687821 
850	 0,187426693705499 
851	 0,187998216158437 
852	 0,187488051404097 
853	 0,187186690086806 
854	 0,187633650451204 
855	 0,187379840785197 
856	 0,186757121669195 
857	 0,186433591116063 
858	 0,18691262974801 
859	 0,187813095570547 
860	 0,187485346803617 
861	 0,187101547749719 
862	 0,187285333796072 
863	 0,187882229099464 
864	 0,188243069641925 
865	 0,187584247059701 
866	 0,18750668536384 
867	 0,188050389826839 
868	 0,188093658641584 
869	 0,188029136441122 
870	 0,188098622661999 
871	 0,188733156711528 
872	 0,189175097655286 
873	 0,18852614199556 
874	 0,188436928697607 
875	 0,189006230112959 
876	 0,189386314515863 
877	 0,18979181621268 
878	 0,190243346233516 
879	 0,19060005886626 
880	 0,190644739476237 
881	 0,190206350915604 
882	 0,19020585223658 
883	 0,190503586267776 
884	 0,19002336255802 
885	 0,190571220296656 
886	 0,192268938882027 
887	 0,192242916597187 
888	 0,191753609226229 
889	 0,192069702215602 
890	 0,191652891672341 
891	 0,191061711201943 
892	 0,192078897701311 
893	 0,192928988608947 
894	 0,19301525744643 
895	 0,192535033615875 
896	 0,192183037293857 
897	 0,192503185896487 
898	 0,193243974951306 
899	 0,193784083390715 
900	 0,193109300412218 
901	 0,192859031766061 
902	 0,193281007137692 
903	 0,193390719443467 
904	 0,193203781478291 
905	 0,192796763405839 
906	 0,192641280600351 
907	 0,192730748793258 
908	 0,192951995250747 
909	 0,193442728233559 
910	 0,194036215840664 
911	 0,194197880016462 
912	 0,194241339592342 
913	 0,19423032425327 
914	 0,193687128705039 
915	 0,192831843014897 
916	 0,192025541799097 
917	 0,192581311824998 
918	 0,194031315239229 
919	 0,194662431211439 
920	 0,19443413862959 
921	 0,193483741335152 
922	 0,192860215000562 
923	 0,192315250857056 
924	 0,191704418360437 
925	 0,192219574883269 
926	 0,192852831117972 
927	 0,191489281818116 
928	 0,190649098803999 
929	 0,190901994946769 
930	 0,191605896541576 
931	 0,191457215830041 
932	 0,190001018709995 
933	 0,189927040647546 
934	 0,190393800898401 
935	 0,189921299844731 
936	 0,188065838537787 
937	 0,185934363140515 
938	 0,186986222211831 
939	 0,187573620504922 
940	 0,186660867302448 
941	 0,186756500918188 
942	 0,187050052799332 
943	 0,186646583451046 
944	 0,185113822670909 
945	 0,183260930708772 
946	 0,182683044772381 
947	 0,181804700143936 
948	 0,180610704589232 
949	 0,180859537461506 
950	 0,180369699861218 
951	 0,178263866072037 
952	 0,177776233582976 
953	 0,177285897479109 
954	 0,174622058135554 
955	 0,174472320058053 
956	 0,175759668719141 
957	 0,173013720599139 
958	 0,171255920572286 
959	 0,171685783057593 
960	 0,17153791448905 
961	 0,170626894871231 
962	 0,1691831938985 
963	 0,169900135660411 
964	 0,171255463787916 
965	 0,170399820412982 
966	 0,169281142857935 
967	 0,168391716858133 
968	 0,16744373465853 
969	 0,168072088088968 
970	 0,170170985032593 
971	 0,169444009980907 
972	 0,167359405754287 
973	 0,165817952069634 
974	 0,167580307182628 
975	 0,169891763505838 
976	 0,166974290530667 
977	 0,16632482348128 
978	 0,168876686511004 
979	 0,170633736286642 
980	 0,170222151175888 
981	 0,167666340630613 
982	 0,167762640104815 
983	 0,168993530844299 
984	 0,169397249839671 
985	 0,16993902628848 
986	 0,170121182562265 
987	 0,1686820999228 
988	 0,168828668961794 
989	 0,170935212343246 
990	 0,172727619217118 
991	 0,173788503120844 
992	 0,174202242493406 
993	 0,176654994115152 
994	 0,1771918237013 
995	 0,172320674746329 
996	 0,172770560268212 
997	 0,176974655882014 
998	 0,1778960971837 
999	 0,178627892367788 
1000	 0,179178637605243 
1001	 0,176879995153254 
1002	 0,175361860954516 
1003	 0,176477964022965 
1004	 0,179185007864149 
1005	 0,181099288245746 
1006	 0,180226468610162 
1007	 0,179644960914247 
1008	 0,179556744772311 
1009	 0,179272419877911 
1010	 0,180683905976546 
1011	 0,183028792762406 
1012	 0,182226002749095 
1013	 0,181689647022641 
1014	 0,182764712543076 
1015	 0,183710581179257 
1016	 0,185689418844839 
1017	 0,189282499328223 
1018	 0,190249073830883 
1019	 0,189620024397265 
1020	 0,189937388557043 
1021	 0,189078592115535 
1022	 0,188146030268332 
1023	 0,191414015961239 
1024	 0,194396964174784 
1025	 0,195174141396301 
1026	 0,192992516892424 
1027	 0,193574828893509 
1028	 0,199199928337119 
1029	 0,197623712734446 
1030	 0,194300629422269 
1031	 0,196779954165656 
1032	 0,198706533433278 
1033	 0,198917836390546 
1034	 0,197495333398582 
1035	 0,195552024905699 
1036	 0,19534134968434 
1037	 0,204023884420185 
1038	 0,204517432717456 
1039	 0,19358394243985 
1040	 0,198581425411586 
1041	 0,205648827930745 
1042	 0,20288679421085 
1043	 0,201140305361095 
1044	 0,200612935491711 
1045	 0,199681001738611 
1046	 0,196496726434045 
1047	 0,195791967725112 
1048	 0,209470211079731 
1049	 0,22053580310407 
1050	 0,222485684442206 
1051	 0,214424723453928 
1052	 0,206886636406663 
1053	 0,206476000468299 
1054	 0,210157532445154 
1055	 0,218295629285252 
1056	 0,228018333362214 
1057	 0,214010507817884 
1058	 0,19715767596848 
1059	 0,211212047841069 
1060	 0,218159606288089 
1061	 0,213750062658773 
1062	 0,20647495525955 
1063	 0,20856863949795 
1064	 0,217632586895378 
1065	 0,207269100501867 
1066	 0,203800834970761 
1067	 0,214878507891559 
1068	 0,212504183072875 
1069	 0,210115736961585 
1070	 0,217548764443428 
1071	 0,223781930804458 
1072	 0,224392949419608 
1073	 0,216545947399323 
1074	 0,205207389674835 
1075	 0,201408831027815 
