Wavelength	GRA-BER00553.asd
325	 6,80762947950628E-02 
326	 1,06151648039808E-02 
327	 6,35302975581986E-02 
328	 0,182720631063922 
329	 3,26927790857423E-02 
330	-0,127581755593804 
331	-7,7510247603858E-03 
332	 6,07957123654763E-02 
333	 7,53385199063718E-02 
334	 0,181473561430793 
335	 0,149854809091429 
336	-1,27885893871631E-02 
337	-0,072005720839664 
338	-5,57312167523793E-03 
339	 0,177617676049046 
340	 0,138454932437089 
341	-1,77859274782498E-02 
342	 1,59089522091384E-02 
343	 3,79861196081165E-02 
344	 5,39875783225239E-03 
345	 1,69400570275206E-02 
346	 4,44360112835692E-02 
347	 5,23905008369181E-02 
348	 0,058035062741034 
349	 5,72766713856236E-02 
350	 2,10545367982231E-02 
351	 3,78563734590666E-02 
352	 0,111824762525158 
353	 0,114878532420748 
354	 7,07900979241043E-02 
355	 7,29912382314986E-03 
356	-1,49661562676171E-02 
357	 1,52269142227778E-02 
358	 6,77554441078654E-02 
359	 7,87594016896951E-02 
360	 4,04003247955605E-02 
361	 4,36291701058329E-02 
362	 7,23760450356528E-02 
363	 8,56303020254774E-02 
364	 4,80238041896004E-02 
365	-1,62393501764099E-02 
366	 2,06618941226809E-02 
367	 0,055290576058877 
368	 2,74568713711745E-02 
369	 3,59512144550067E-02 
370	 5,69738211770149E-02 
371	 3,39706482519636E-02 
372	 4,02080943498239E-02 
373	 7,52522323278032E-02 
374	 0,039642395295313 
375	 6,06254155314549E-03 
376	 2,76641125419558E-02 
377	 2,17838209953431E-02 
378	 1,9833362937657E-04 
379	 1,83797555260628E-02 
380	 2,75944311941871E-02 
381	 2,00754184754151E-02 
382	 2,98262470809715E-02 
383	 3,45334812283279E-02 
384	 1,41578317791808E-02 
385	 1,98852074394188E-02 
386	 4,00364313521865E-02 
387	 2,09967015099746E-02 
388	 1,50079978191983E-02 
389	 0,034984647755868 
390	 0,028572801506934 
391	 1,67725434330741E-02 
392	 2,83473877749275E-02 
393	 2,40944353564701E-02 
394	 8,13273460635208E-03 
395	 2,18144448950693E-02 
396	 2,89246751019883E-02 
397	 1,46786365730861E-02 
398	 1,29503618352166E-02 
399	 1,66431903581713E-02 
400	 9,66067482796961E-03 
401	 6,98215741451042E-03 
402	 1,21740146097799E-02 
403	 2,57767590620134E-02 
404	 3,22767861046507E-02 
405	 2,26962339585594E-02 
406	 1,82084477838542E-02 
407	 1,91195083724262E-02 
408	 1,89336688561097E-02 
409	 2,17053136072254E-02 
410	 2,65485919595976E-02 
411	 2,70655615376887E-02 
412	 2,18016332514366E-02 
413	 1,02937380351456E-02 
414	 7,54341516313089E-03 
415	 1,13441314152577E-02 
416	 7,15760793175405E-03 
417	 8,60892558452982E-03 
418	 1,81729790671191E-02 
419	 1,84003897215762E-02 
420	 1,34526971294239E-02 
421	 1,05672686480237E-02 
422	 8,65568617018142E-03 
423	 9,23717084849894E-03 
424	 1,78890887164072E-02 
425	 2,34855142587482E-02 
426	 2,01871606612757E-02 
427	 1,84043728373339E-02 
428	 1,89163957113726E-02 
429	 2,10205892487939E-02 
430	 1,73428290293617E-02 
431	 9,34117347446515E-03 
432	 1,40095251666807E-02 
433	 1,84433733610256E-02 
434	 1,18190586586184E-02 
435	 1,38959580752389E-02 
436	 2,16941160378057E-02 
437	 1,82702475747682E-02 
438	 1,64183115853345E-02 
439	 0,019721581569959 
440	 1,80109844152741E-02 
441	 1,41106158882749E-02 
442	 1,26229943197563E-02 
443	 1,13815376348549E-02 
444	 1,00945189852421E-02 
445	 8,60125139367314E-03 
446	 1,02832388019342E-02 
447	 1,60258230208733E-02 
448	 0,014062343671057 
449	 9,50987906319454E-03 
450	 1,51628316546822E-02 
451	 0,016888068161356 
452	 1,28254894422196E-02 
453	 1,52509378942749E-02 
454	 1,95918095443243E-02 
455	 2,10988267162052E-02 
456	 1,94437695475388E-02 
457	 1,69085558808779E-02 
458	 0,019924348304561 
459	 2,21588609447874E-02 
460	 2,11347325647071E-02 
461	 1,97607917699288E-02 
462	 1,83544336928104E-02 
463	 1,69393504272044E-02 
464	 1,57620845160117E-02 
465	 1,44705808208831E-02 
466	 1,09706258793156E-02 
467	 9,7860209844432E-03 
468	 1,34253736623511E-02 
469	 1,56285027075895E-02 
470	 1,57716034412054E-02 
471	 1,44313042983629E-02 
472	 1,43067577927197E-02 
473	 1,57579526010765E-02 
474	 1,55542542536833E-02 
475	 1,41464620505054E-02 
476	 1,23049670444817E-02 
477	 1,36266650941741E-02 
478	 1,67301175256937E-02 
479	 1,56365641046724E-02 
480	 1,51773635381034E-02 
481	 1,70563996034745E-02 
482	 1,65349365188733E-02 
483	 1,54917326647266E-02 
484	 0,017475590832771 
485	 1,63650541522572E-02 
486	 1,24337568510574E-02 
487	 1,27252329958131E-02 
488	 1,54640670024006E-02 
489	 1,86903988414554E-02 
490	 1,77114144611101E-02 
491	 0,013975167581822 
492	 1,23420713727963E-02 
493	 1,26151465035749E-02 
494	 1,41944637312195E-02 
495	 1,31245549820869E-02 
496	 1,20615231797875E-02 
497	 1,42571129957159E-02 
498	 1,49518184457249E-02 
499	 1,38828769814111E-02 
500	 1,35129232398168E-02 
501	 1,40808343359071E-02 
502	 1,54508357546723E-02 
503	 1,52338137256086E-02 
504	 1,39693675742773E-02 
505	 1,30950934026988E-02 
506	 1,26212221482277E-02 
507	 1,27227146027296E-02 
508	 1,37986962513662E-02 
509	 1,49595761346197E-02 
510	 1,53829615450909E-02 
511	 0,014890633310251 
512	 1,41029328557737E-02 
513	 1,48010069373875E-02 
514	 0,014840369285739 
515	 1,36220826298047E-02 
516	 1,35881581602973E-02 
517	 1,44498825912649E-02 
518	 1,55171567044558E-02 
519	 1,53062902109292E-02 
520	 1,40066109645909E-02 
521	 1,37796593038232E-02 
522	 1,41552999716497E-02 
523	 1,46974321691956E-02 
524	 1,47941178647697E-02 
525	 1,46129325770057E-02 
526	 1,47562581639003E-02 
527	 1,51710396570524E-02 
528	 1,56329577254564E-02 
529	 1,50481657377895E-02 
530	 1,41278639090488E-02 
531	 1,37729781932344E-02 
532	 1,44175429646208E-02 
533	 1,56496323110168E-02 
534	 1,60751184528669E-02 
535	 1,55342613575217E-02 
536	 0,014207146502389 
537	 1,45087703949795E-02 
538	 1,55347613721677E-02 
539	 1,50299644303486E-02 
540	 1,42627662728727E-02 
541	 1,38029260771139E-02 
542	 1,44332077316836E-02 
543	 1,50114568896583E-02 
544	 1,44842590285947E-02 
545	 1,53528462192014E-02 
546	 0,017073408756373 
547	 1,68369684363343E-02 
548	 1,59843783313947E-02 
549	 1,53041226645004E-02 
550	 1,55516960308465E-02 
551	 1,61044307241016E-02 
552	 0,015832975020183 
553	 1,59412057124041E-02 
554	 1,64534534175456E-02 
555	 1,61063619006392E-02 
556	 0,015647494643529 
557	 1,56895025544963E-02 
558	 1,54088759126907E-02 
559	 1,50420680805916E-02 
560	 1,55030143247282E-02 
561	 1,61797642605748E-02 
562	 1,67692723899715E-02 
563	 1,70713870334084E-02 
564	 1,73483674770046E-02 
565	 1,79725632840167E-02 
566	 1,84495183732572E-02 
567	 1,85725641631775E-02 
568	 1,79256438452627E-02 
569	 1,79753070204242E-02 
570	 0,019625676939257 
571	 2,10142052251154E-02 
572	 2,18056128019986E-02 
573	 2,20025183040642E-02 
574	 2,20201777814874E-02 
575	 0,022219009066872 
576	 2,34815265920074E-02 
577	 2,45082348637475E-02 
578	 2,38300139259422E-02 
579	 0,023541772027839 
580	 2,39109013932776E-02 
581	 2,41365323689882E-02 
582	 2,42834515779176E-02 
583	 2,44192179304443E-02 
584	 2,50531714020851E-02 
585	 2,54520991052833E-02 
586	 2,41721065632638E-02 
587	 0,023407400730598 
588	 0,023721678351378 
589	 2,43664165750383E-02 
590	 2,43757833493403E-02 
591	 2,29785951544525E-02 
592	 2,22219980047869E-02 
593	 2,21419260870819E-02 
594	 2,15764546437649E-02 
595	 2,11370662858381E-02 
596	 2,11082399777514E-02 
597	 2,13896061075314E-02 
598	 2,19311483607849E-02 
599	 2,27140741980883E-02 
600	 2,28618959696311E-02 
601	 2,22284635211244E-02 
602	 2,13571143279882E-02 
603	 0,020531191898995 
604	 2,00236356920668E-02 
605	 2,02632924690092E-02 
606	 0,020837302363763 
607	 2,06679469380732E-02 
608	 2,01191966856464E-02 
609	 0,019408255141233 
610	 1,89858287063032E-02 
611	 0,018963580587883 
612	 1,94041835874726E-02 
613	 1,96401627775312E-02 
614	 1,96843523256602E-02 
615	 2,03884114296607E-02 
616	 0,020446758629866 
617	 1,92258772423544E-02 
618	 1,89141646773343E-02 
619	 1,95263983214891E-02 
620	 0,020502063523486 
621	 2,09700786663604E-02 
622	 2,06656354181598E-02 
623	 2,00843217082638E-02 
624	 1,98992476397391E-02 
625	 2,07160882187706E-02 
626	 2,11937515065145E-02 
627	 2,13023921706788E-02 
628	 2,19377636996902E-02 
629	 2,23431197531739E-02 
630	 2,22582605350363E-02 
631	 0,022775532393572 
632	 2,35311805248492E-02 
633	 2,37095740884128E-02 
634	 2,43054100218374E-02 
635	 2,53114598168003E-02 
636	 2,55306176898934E-02 
637	 2,55441780442046E-02 
638	 2,58959766163458E-02 
639	 2,66692229335138E-02 
640	 2,75462385816141E-02 
641	 2,77116695818077E-02 
642	 2,77001054639211E-02 
643	 2,77387859621943E-02 
644	 2,77624565191271E-02 
645	 0,027967484589832 
646	 2,85982364728488E-02 
647	 0,029170181778256 
648	 2,93912888113693E-02 
649	 0,028719500585279 
650	 2,83345633502701E-02 
651	 2,89077172682343E-02 
652	 2,87284329050384E-02 
653	 2,81181093305288E-02 
654	 2,82498712565137E-02 
655	 2,84514583627521E-02 
656	 2,85343805805152E-02 
657	 2,87274624490748E-02 
658	 2,87067205970542E-02 
659	 2,81351776506199E-02 
660	 2,70478040829459E-02 
661	 2,59006417091974E-02 
662	 2,59319057107701E-02 
663	 2,58217291173437E-02 
664	 2,49945651793244E-02 
665	 2,45495316138406E-02 
666	 2,42435970367118E-02 
667	 2,34787223448094E-02 
668	 2,31619044554643E-02 
669	 2,33971992181507E-02 
670	 0,023664112556322 
671	 2,33275179008848E-02 
672	 2,20124079857652E-02 
673	 2,13672879569589E-02 
674	 2,14627904453265E-02 
675	 2,17701754737559E-02 
676	 0,021816609537994 
677	 2,15013396711818E-02 
678	 2,16416375353737E-02 
679	 2,18691929831418E-02 
680	 2,16771499152994E-02 
681	 2,17426857182201E-02 
682	 2,19534256284699E-02 
683	 2,12489583735366E-02 
684	 2,14057744792914E-02 
685	 0,023171781058257 
686	 2,34042891033758E-02 
687	 2,29416477748624E-02 
688	 2,40158966779193E-02 
689	 2,52849073610609E-02 
690	 2,63924736113073E-02 
691	 2,75358178730071E-02 
692	 0,028810597588097 
693	 3,03338809250631E-02 
694	 3,24912771436909E-02 
695	 0,035271185274089 
696	 3,84434214855151E-02 
697	 4,19741890559404E-02 
698	 0,045848789139294 
699	 5,01098150117548E-02 
700	 0,054859009186687 
701	 6,02149328546745E-02 
702	 6,62923167982594E-02 
703	 0,072837772500707 
704	 7,90749740945214E-02 
705	 0,08528168699008 
706	 9,16311121274352E-02 
707	 9,79717426854373E-02 
708	 0,10453346124536 
709	 0,111853727283643 
710	 0,118649059646446 
711	 0,124583647440039 
712	 0,130251073290501 
713	 0,136002372000449 
714	 0,142078308756848 
715	 0,147563053202748 
716	 0,152590613312758 
717	 0,158028577268463 
718	 0,163082944240384 
719	 0,167473828528726 
720	 0,171676390937467 
721	 0,175786079738681 
722	 0,17986199574196 
723	 0,183236478585736 
724	 0,186100752159252 
725	 0,189589982386468 
726	 0,193005841677688 
727	 0,195913614504978 
728	 0,198474653486744 
729	 0,200797926543889 
730	 0,203040878730653 
731	 0,205145610447681 
732	 0,207132740766792 
733	 0,209114545678418 
734	 0,211011181219154 
735	 0,212736398920445 
736	 0,214122862641611 
737	 0,215311362575828 
738	 0,216693156214058 
739	 0,218126679309514 
740	 0,219527640594947 
741	 0,220727769007358 
742	 0,221721500911879 
743	 0,222526710114967 
744	 0,223171859452133 
745	 0,223757279820932 
746	 0,224492442862609 
747	 0,225352745833238 
748	 0,226267087003579 
749	 0,226802837884652 
750	 0,227292798918838 
751	 0,228326014739923 
752	 0,229276938193577 
753	 0,229928277473063 
754	 0,230181755510971 
755	 0,230422306325135 
756	 0,230935539016783 
757	 0,231552960400408 
758	 0,232128998375631 
759	 0,232424075159781 
760	 0,232705474542401 
761	 0,233136397263666 
762	 0,234050799874082 
763	 0,234750075342966 
764	 0,234624587866315 
765	 0,234914052112724 
766	 0,235493642847521 
767	 0,235307175504976 
768	 0,235503274584378 
769	 0,236376847997503 
770	 0,236828901251956 
771	 0,237004812061938 
772	 0,237190960645599 
773	 0,237453652415096 
774	 0,237717672414274 
775	 0,237589751202356 
776	 0,237819518843526 
777	 0,238693804275152 
778	 0,239280249832157 
779	 0,239534451997322 
780	 0,239564510574679 
781	 0,239671809148387 
782	 0,239913854952687 
783	 0,240076890428078 
784	 0,240418815765845 
785	 0,240998171575692 
786	 0,240792000890947 
787	 0,240351300886535 
788	 0,240904510817192 
789	 0,241388322489644 
790	 0,241632991987525 
791	 0,242375117915187 
792	 0,242925310004063 
793	 0,242780147105608 
794	 0,242789786214213 
795	 0,243126126159055 
796	 0,24389422891962 
797	 0,244160238807574 
798	 0,243786246992012 
799	 0,243784437321826 
800	 0,24421279934012 
801	 0,245009356784282 
802	 0,245199360588613 
803	 0,245007364078665 
804	 0,245589974281514 
805	 0,245769214547345 
806	 0,245351823228443 
807	 0,245712990166569 
808	 0,246282593647996 
809	 0,246371067917146 
810	 0,246590271342203 
811	 0,246947230290977 
812	 0,247099608194998 
813	 0,247393105647829 
814	 0,247885990951213 
815	 0,248015133453652 
816	 0,248048866918301 
817	 0,248355860763522 
818	 0,248666389240978 
819	 0,248913170980801 
820	 0,249054960164399 
821	 0,249308783921603 
822	 0,249738232799051 
823	 0,249997583997837 
824	 0,25023569683403 
825	 0,250682988054955 
826	 0,251049146372747 
827	 0,251243289886111 
828	 0,251184336727285 
829	 0,251281443624723 
830	 0,251711046084243 
831	 0,252032611772729 
832	 0,252282734285079 
833	 0,252578807103816 
834	 0,25264203295918 
835	 0,252619418599072 
836	 0,25323358526211 
837	 0,2536317111611 
838	 0,253514342484961 
839	 0,254333133000651 
840	 0,255297036666942 
841	 0,255097302238899 
842	 0,254957794206548 
843	 0,255164642556615 
844	 0,255605840657487 
845	 0,255867086166034 
846	 0,255763278909151 
847	 0,255813449404615 
848	 0,255961701020445 
849	 0,256039574210854 
850	 0,256448534178791 
851	 0,257067689676789 
852	 0,257203366868432 
853	 0,257213306616788 
854	 0,257340623883976 
855	 0,257820723549306 
856	 0,25835095821953 
857	 0,258491305328871 
858	 0,258425190333175 
859	 0,258428814983985 
860	 0,259334685610515 
861	 0,259591813836949 
862	 0,258693959340208 
863	 0,259171125311344 
864	 0,259866956533294 
865	 0,258988588315427 
866	 0,259091946152468 
867	 0,260255612962157 
868	 0,260900078956323 
869	 0,261142263624791 
870	 0,261063975443985 
871	 0,261143228891009 
872	 0,261163064799854 
873	 0,260826368754012 
874	 0,260938659158624 
875	 0,261362445579632 
876	 0,261100243476797 
877	 0,261303624429613 
878	 0,262123740782692 
879	 0,261472236135413 
880	 0,260761459369911 
881	 0,261597352571926 
882	 0,262174829456922 
883	 0,262142627606685 
884	 0,261464631361853 
885	 0,261387898844046 
886	 0,262151587627763 
887	 0,262258634465922 
888	 0,262033727160674 
889	 0,261908706076248 
890	 0,262377503099183 
891	 0,262965246064681 
892	 0,262391898156184 
893	 0,262134785299111 
894	 0,262507834697499 
895	 0,262578234572451 
896	 0,262601459801248 
897	 0,262742887123069 
898	 0,262376816993845 
899	 0,261932437031699 
900	 0,262325189529909 
901	 0,262697869368781 
902	 0,262779215567692 
903	 0,262486491174234 
904	 0,262586835393771 
905	 0,263398172966521 
906	 0,263521625582358 
907	 0,263106383819048 
908	 0,262630570894032 
909	 0,262513466889835 
910	 0,26266644982809 
911	 0,262364593174085 
912	 0,262180874886945 
913	 0,262290269920942 
914	 0,261961554844027 
915	 0,261835793098819 
916	 0,262611614808481 
917	 0,26283478463135 
918	 0,262531081639006 
919	 0,262619021133076 
920	 0,262275303557914 
921	 0,261503169648296 
922	 0,261696820735623 
923	 0,261646571199692 
924	 0,260447506905285 
925	 0,260013839198466 
926	 0,260064482768777 
927	 0,259506240511806 
928	 0,259464236618352 
929	 0,259785259913749 
930	 0,258790741533054 
931	 0,257840195757628 
932	 0,257564993089662 
933	 0,256373053165502 
934	 0,254750517512393 
935	 0,253547249914952 
936	 0,253405916675145 
937	 0,253952015757885 
938	 0,253799127500943 
939	 0,253032500570616 
940	 0,251886220406975 
941	 0,251678641852423 
942	 0,251206297623621 
943	 0,24946925584064 
944	 0,24824238715828 
945	 0,247575998703917 
946	 0,247009340487926 
947	 0,245956190054955 
948	 0,244303644653579 
949	 0,24235465509221 
950	 0,240886355459134 
951	 0,240204198140336 
952	 0,239111146591246 
953	 0,237614640137898 
954	 0,23589814227444 
955	 0,233963390370076 
956	 0,23265423588358 
957	 0,23432585170895 
958	 0,233814149920002 
959	 0,230247302007033 
960	 0,228552002106389 
961	 0,228564208813266 
962	 0,22965827732614 
963	 0,228803695922299 
964	 0,227366633952345 
965	 0,228125007666398 
966	 0,227089193176452 
967	 0,224473240365816 
968	 0,223926465104073 
969	 0,223992757835871 
970	 0,223913382342619 
971	 0,222734622819659 
972	 0,222566968109082 
973	 0,225020622329176 
974	 0,22558423452292 
975	 0,224854270892851 
976	 0,22530964245501 
977	 0,225570158558531 
978	 0,225164573267207 
979	 0,22328631919844 
980	 0,223887494339687 
981	 0,227601728736047 
982	 0,22572610518765 
983	 0,222244044334617 
984	 0,221903097958356 
985	 0,222596313646679 
986	 0,224034420569727 
987	 0,226306548460361 
988	 0,227657539867445 
989	 0,227378952227819 
990	 0,225116486414541 
991	 0,223170638210505 
992	 0,223186131213149 
993	 0,226435413952535 
994	 0,229500001439693 
995	 0,228974667840198 
996	 0,227744212533981 
997	 0,226724007045294 
998	 0,226541899240709 
999	 0,227175633761716 
1000	 0,228649153094931 
1001	 0,231569014500257 
1002	 0,231298310325188 
1003	 0,227174093014819 
1004	 0,229817684907691 
1005	 0,233844435019295 
1006	 0,233508234820983 
1007	 0,233776244512521 
1008	 0,235031198033777 
1009	 0,236572519302766 
1010	 0,236027263929707 
1011	 0,234409867296553 
1012	 0,237464036335704 
1013	 0,239220829639851 
1014	 0,238112713397307 
1015	 0,240318636311545 
1016	 0,242802002244554 
1017	 0,242883296716661 
1018	 0,243299739519853 
1019	 0,24382929498708 
1020	 0,243573910217633 
1021	 0,24026182784778 
1022	 0,236528261274242 
1023	 0,240921891467974 
1024	 0,244829244829245 
1025	 0,245976253751747 
1026	 0,249511660582987 
1027	 0,249592683561175 
1028	 0,243691519751035 
1029	 0,241796609156699 
1030	 0,243343867788134 
1031	 0,246118908763661 
1032	 0,248276309282957 
1033	 0,249480537002998 
1034	 0,249988191659488 
1035	 0,252506747629936 
1036	 0,255528797054058 
1037	 0,251451867924106 
1038	 0,246175960733057 
1039	 0,244237587812871 
1040	 0,252751702152372 
1041	 0,260300696175933 
1042	 0,257719466506211 
1043	 0,254489714622011 
1044	 0,252534082490367 
1045	 0,252952582559973 
1046	 0,258247278932906 
1047	 0,263966497459035 
1048	 0,259089155011496 
1049	 0,25230963599631 
1050	 0,247583618310683 
1051	 0,24933336831685 
1052	 0,248438213311557 
1053	 0,242996064649728 
1054	 0,249860672311086 
1055	 0,260739053473393 
1056	 0,265730283146178 
1057	 0,254923830231689 
1058	 0,241407545789649 
1059	 0,244824738978759 
1060	 0,251082728193894 
1061	 0,256574699261222 
1062	 0,260767904223487 
1063	 0,25978903717915 
1064	 0,255179357248175 
1065	 0,255481165236401 
1066	 0,262921556213295 
1067	 0,272500870849089 
1068	 0,254990759169266 
1069	 0,243216013882477 
1070	 0,260515706444463 
1071	 0,271549853207058 
1072	 0,272520972522228 
1073	 0,264311218019437 
1074	 0,250475352347427 
1075	 0,237840709550408 
