Wavelength	GRA-VAN00789.asd
325	 0,272296287349207 
326	 0,350916987182999 
327	 0,435972591420397 
328	 0,414949904671725 
329	 0,395753566370567 
330	 0,436654463765704 
331	 0,520967175778157 
332	 0,502925832002056 
333	 0,422352073773288 
334	 0,264549653579677 
335	 0,274907458740761 
336	 0,44621883662098 
337	 0,365827818977519 
338	 0,204590737351674 
339	 9,57851158206013E-02 
340	 0,165680124284675 
341	 0,294968210662677 
342	 0,284391240167432 
343	 0,268548971028274 
344	 0,277382891702511 
345	 0,228517652937717 
346	 0,209256023198267 
347	 0,309842159429754 
348	 0,292537916841467 
349	 0,187697275975799 
350	 0,186888096687245 
351	 0,210734859796796 
352	 0,223190986553056 
353	 0,240186371763375 
354	 0,23387152456305 
355	 0,171119435681074 
356	 0,176287674044556 
357	 0,232783654878293 
358	 0,233559583670643 
359	 0,222270878083922 
360	 0,219188701000168 
361	 0,206266418892201 
362	 0,19503382011862 
363	 0,203879095660064 
364	 0,192739028629228 
365	 0,168113800935398 
366	 0,190934002414393 
367	 0,2205337540082 
368	 0,22987473679873 
369	 0,21497679736834 
370	 0,196246460585489 
371	 0,210278289386769 
372	 0,226264804053878 
373	 0,228935023905629 
374	 0,207722130187464 
375	 0,19263606596121 
376	 0,206862523939515 
377	 0,210658281179769 
378	 0,205998748751694 
379	 0,210913255151293 
380	 0,212630194970701 
381	 0,209537812450642 
382	 0,211077586395553 
383	 0,215378831719052 
384	 0,220395777512348 
385	 0,22867662271468 
386	 0,229406252542074 
387	 0,18871927963934 
388	 0,181769342914656 
389	 0,227313543100843 
390	 0,229962793895532 
391	 0,20909470474205 
392	 0,19563490931947 
393	 0,194029284598592 
394	 0,202620959131646 
395	 0,211530860308569 
396	 0,216664714720418 
397	 0,216312290910315 
398	 0,217225779743452 
399	 0,214430565400219 
400	 0,198188046828689 
401	 0,199564810897905 
402	 0,216155792806481 
403	 0,211145295152389 
404	 0,199678462987979 
405	 0,193848091326076 
406	 0,197762701342592 
407	 0,205708256111541 
408	 0,206805200680674 
409	 0,205469507772736 
410	 0,203430825186215 
411	 0,202660721720995 
412	 0,202998353934274 
413	 0,204027284521311 
414	 0,203119713706117 
415	 0,201034971771483 
416	 0,201241818668527 
417	 0,199530160626887 
418	 0,195570168921032 
419	 0,197745367592554 
420	 0,202394970754438 
421	 0,204404068705387 
422	 0,204483597022084 
423	 0,202853029291775 
424	 0,199555704823924 
425	 0,198194858107948 
426	 0,200779776433277 
427	 0,205090525958135 
428	 0,20780638257389 
429	 0,203972692676035 
430	 0,199971146205776 
431	 0,197371717629654 
432	 0,192356942128904 
433	 0,192672543095108 
434	 0,203708203193065 
435	 0,203197814871963 
436	 0,194535327440204 
437	 0,197112095138601 
438	 0,200901479021913 
439	 0,201860307269854 
440	 0,199641727230764 
441	 0,19797445013893 
442	 0,201537312048108 
443	 0,204001996555085 
444	 0,204608147161888 
445	 0,206841936420964 
446	 0,206621752529163 
447	 0,202184481820727 
448	 0,201005636023104 
449	 0,202519339593749 
450	 0,203637983237783 
451	 0,204752975197895 
452	 0,205919077608165 
453	 0,207850916194217 
454	 0,208670762069223 
455	 0,206951045927365 
456	 0,209430181001072 
457	 0,213318319233621 
458	 0,207228113259307 
459	 0,20443239432593 
460	 0,209251166359792 
461	 0,209344770204236 
462	 0,207778344621052 
463	 0,210148135120404 
464	 0,209007969578543 
465	 0,204881613660053 
466	 0,205689572701474 
467	 0,208348223507425 
468	 0,210587746686199 
469	 0,211651607377312 
470	 0,21150180836553 
471	 0,210460334536369 
472	 0,208929244534433 
473	 0,207639434339411 
474	 0,208340505503849 
475	 0,210275233084099 
476	 0,212462610606091 
477	 0,212658882062021 
478	 0,21147844092141 
479	 0,212101108631058 
480	 0,212024826126626 
481	 0,210322781179217 
482	 0,20895201324029 
483	 0,208350954896488 
484	 0,208807354459874 
485	 0,208918767350866 
486	 0,208502176253043 
487	 0,208496808374736 
488	 0,208942656612354 
489	 0,209695771943659 
490	 0,208755044633518 
491	 0,207357906963571 
492	 0,209245584826926 
493	 0,209915486640314 
494	 0,208339342171599 
495	 0,20834534627459 
496	 0,208208274679517 
497	 0,205746947559846 
498	 0,205220111203887 
499	 0,206823970326395 
500	 0,208331314487943 
501	 0,208435255965596 
502	 0,206837286499189 
503	 0,207865020041195 
504	 0,210160538946059 
505	 0,210347901477532 
506	 0,210954325976243 
507	 0,212311062340045 
508	 0,212754288506545 
509	 0,212724850384434 
510	 0,212710823514399 
511	 0,213085296814032 
512	 0,213491680110604 
513	 0,212523260568248 
514	 0,212793602958549 
515	 0,214967222810754 
516	 0,215511305424987 
517	 0,215040615194791 
518	 0,21487599184562 
519	 0,215730400466802 
520	 0,217214395815563 
521	 0,217288903823739 
522	 0,216457299343107 
523	 0,215330813184551 
524	 0,215991918047982 
525	 0,217617809186278 
526	 0,217726278583146 
527	 0,217212598996044 
528	 0,21644925447085 
529	 0,215892258021059 
530	 0,215745660054964 
531	 0,216158377079797 
532	 0,215720738555016 
533	 0,214593946759467 
534	 0,214352375946997 
535	 0,214260130416367 
536	 0,21394390777843 
537	 0,21390570365968 
538	 0,214403751764663 
539	 0,21584731676196 
540	 0,217151549983344 
541	 0,217685135836535 
542	 0,216574874349376 
543	 0,215261115580869 
544	 0,215188744821122 
545	 0,216011219992603 
546	 0,217106178475479 
547	 0,216867559665389 
548	 0,217161973112429 
549	 0,218589392381987 
550	 0,218564979158224 
551	 0,217945705571541 
552	 0,218551971293864 
553	 0,218228594799888 
554	 0,21693073168525 
555	 0,216851389295186 
556	 0,217325842268399 
557	 0,217689498163628 
558	 0,217389355728075 
559	 0,21657335181895 
560	 0,215820582633881 
561	 0,215468121645122 
562	 0,215579048432974 
563	 0,21537896455486 
564	 0,215015555876059 
565	 0,214778580380626 
566	 0,214749645379528 
567	 0,214907040670312 
568	 0,215036452096793 
569	 0,215235105293386 
570	 0,215631865019433 
571	 0,216736758959541 
572	 0,218247134843897 
573	 0,219297752537376 
574	 0,220921551710465 
575	 0,22325939174786 
576	 0,225274531799556 
577	 0,226718853212125 
578	 0,22742665577266 
579	 0,228373594084991 
580	 0,229814829474656 
581	 0,231749936715213 
582	 0,233339643667933 
583	 0,234174109078597 
584	 0,23528557316744 
585	 0,236566524108873 
586	 0,237584723523051 
587	 0,238507505346195 
588	 0,239467920897944 
589	 0,240825222364328 
590	 0,242169223286342 
591	 0,243112426491567 
592	 0,243941909622397 
593	 0,244640776534628 
594	 0,244956293085761 
595	 0,245466870515527 
596	 0,246292926741563 
597	 0,246253271399758 
598	 0,245878791900993 
599	 0,246133431723154 
600	 0,246420061748663 
601	 0,246493862786777 
602	 0,246117535609558 
603	 0,245503801264427 
604	 0,244810492010306 
605	 0,243653243099849 
606	 0,242408699393349 
607	 0,242130746786199 
608	 0,241845912166918 
609	 0,24114765032049 
610	 0,240010168159474 
611	 0,238931096187693 
612	 0,238511354281173 
613	 0,238330948692249 
614	 0,238015482619816 
615	 0,236680815644317 
616	 0,235534460355979 
617	 0,235334239440221 
618	 0,235368838300398 
619	 0,235319109812895 
620	 0,234800559934567 
621	 0,234116180182141 
622	 0,233569524235203 
623	 0,233975337676181 
624	 0,234640249511242 
625	 0,234817738226214 
626	 0,235118678266184 
627	 0,235504592901397 
628	 0,235543492354271 
629	 0,235409803404888 
630	 0,235330549053198 
631	 0,236193079985502 
632	 0,237356688604326 
633	 0,23761941071103 
634	 0,23805967924697 
635	 0,238961209113658 
636	 0,240154110433505 
637	 0,241257993159012 
638	 0,241977593712852 
639	 0,242737351943105 
640	 0,243674808163038 
641	 0,244973577278584 
642	 0,246127885224923 
643	 0,246838997981603 
644	 0,246827684451277 
645	 0,246763080587921 
646	 0,247526969037075 
647	 0,247959518281033 
648	 0,24762761049836 
649	 0,246110515386849 
650	 0,244750051376529 
651	 0,244364874632074 
652	 0,243440245795692 
653	 0,242136844137367 
654	 0,241328326054441 
655	 0,23999155521532 
656	 0,237890371826614 
657	 0,235643197664911 
658	 0,233446889015713 
659	 0,231462958912664 
660	 0,22953084410824 
661	 0,2275521731026 
662	 0,225301525561648 
663	 0,223357005144022 
664	 0,221990226773312 
665	 0,22084440613721 
666	 0,219622591843556 
667	 0,217934197776769 
668	 0,216531357324379 
669	 0,215759945526661 
670	 0,21604998512367 
671	 0,216173721355206 
672	 0,215234441000023 
673	 0,21502095106262 
674	 0,215307116554406 
675	 0,214747188452792 
676	 0,214450650157441 
677	 0,214702426002043 
678	 0,214667060476099 
679	 0,214727258239707 
680	 0,215398729961092 
681	 0,215608964056472 
682	 0,215514176186822 
683	 0,216359730470772 
684	 0,217687970726606 
685	 0,219187550205076 
686	 0,22044865409284 
687	 0,222170934668105 
688	 0,22570507058318 
689	 0,229177874663943 
690	 0,232451810615106 
691	 0,237399804736019 
692	 0,243494157701376 
693	 0,250201627340182 
694	 0,257433595052166 
695	 0,265429806552658 
696	 0,274907273751848 
697	 0,284998577650088 
698	 0,29542003552125 
699	 0,306905114723857 
700	 0,319090917444051 
701	 0,331419484908438 
702	 0,343910097498945 
703	 0,35625950467727 
704	 0,367714786318806 
705	 0,379051953582029 
706	 0,390649677342632 
707	 0,401540093044295 
708	 0,411811060227829 
709	 0,421850107387849 
710	 0,431296336662016 
711	 0,440072132775306 
712	 0,448232772637507 
713	 0,456093790765619 
714	 0,463885431806897 
715	 0,470741124115056 
716	 0,476758154850969 
717	 0,482596033116147 
718	 0,488025168129867 
719	 0,493051774890002 
720	 0,498063843753437 
721	 0,502720718327743 
722	 0,506569611098955 
723	 0,509717470434533 
724	 0,512539194763519 
725	 0,516092527366323 
726	 0,519378491953356 
727	 0,521784012981881 
728	 0,523749344512743 
729	 0,525444448150299 
730	 0,527026071314364 
731	 0,528699126860563 
732	 0,53049886886288 
733	 0,532283964459303 
734	 0,533626526310558 
735	 0,534231184070496 
736	 0,535090651499196 
737	 0,53630180478454 
738	 0,53766982245188 
739	 0,538664339495475 
740	 0,539128832379505 
741	 0,539657813729097 
742	 0,540087897526401 
743	 0,540189298738349 
744	 0,540902292671296 
745	 0,541993632488755 
746	 0,542007912624148 
747	 0,542259921937179 
748	 0,543301902930336 
749	 0,543733363920666 
750	 0,543742569692246 
751	 0,543856754209074 
752	 0,544387264657594 
753	 0,545162578803445 
754	 0,545144197934895 
755	 0,544989057715536 
756	 0,545190664862184 
757	 0,54546688170847 
758	 0,545865257698512 
759	 0,546635383765713 
760	 0,546793606598506 
761	 0,546278094107791 
762	 0,546472181675897 
763	 0,546906597295218 
764	 0,547061761860635 
765	 0,546896558284365 
766	 0,546615376723604 
767	 0,546798645290594 
768	 0,546863014579575 
769	 0,546712595349586 
770	 0,547201814180269 
771	 0,547792799953833 
772	 0,547782813758654 
773	 0,547537734946404 
774	 0,547236966663759 
775	 0,547082270169946 
776	 0,547295661282882 
777	 0,547861801828644 
778	 0,547829439202715 
779	 0,547466884106766 
780	 0,547336141506189 
781	 0,547049966791182 
782	 0,546728347379683 
783	 0,547127064562284 
784	 0,547392979764466 
785	 0,547047411639088 
786	 0,547158928825625 
787	 0,547550297596007 
788	 0,547640824680568 
789	 0,547674643300205 
790	 0,547750102105972 
791	 0,548105685368506 
792	 0,548017940150065 
793	 0,54704494054205 
794	 0,5469176877388 
795	 0,547410106414207 
796	 0,547399085927133 
797	 0,547306184315845 
798	 0,547260270800121 
799	 0,547362519867209 
800	 0,547333568653359 
801	 0,546941770312803 
802	 0,546765740455288 
803	 0,546828710604088 
804	 0,546891221114237 
805	 0,546956814195491 
806	 0,547033602834124 
807	 0,547281751731006 
808	 0,547385032575981 
809	 0,547038840187601 
810	 0,547151463891067 
811	 0,547699450761167 
812	 0,548092535886326 
813	 0,548302929594594 
814	 0,548333524101474 
815	 0,548485120019896 
816	 0,548543556478728 
817	 0,548240323694393 
818	 0,548109451118199 
819	 0,548338243373893 
820	 0,549115753563467 
821	 0,549758553474419 
822	 0,549857876329166 
823	 0,549266164847375 
824	 0,548772017503475 
825	 0,549366733519417 
826	 0,549887286624225 
827	 0,549995971911603 
828	 0,549577631084712 
829	 0,549349084408075 
830	 0,549574328558525 
831	 0,549125565930692 
832	 0,548625756909461 
833	 0,549060719794662 
834	 0,549690417189154 
835	 0,550094624734404 
836	 0,549557846949282 
837	 0,549152169745664 
838	 0,549420651181199 
839	 0,549681838644795 
840	 0,549621527048943 
841	 0,548926173293262 
842	 0,548740770448983 
843	 0,549136291469455 
844	 0,549328724779363 
845	 0,549224980972944 
846	 0,548848781918959 
847	 0,548816155716429 
848	 0,549119863987292 
849	 0,549634508596932 
850	 0,549793554859101 
851	 0,549559559871142 
852	 0,549345707896505 
853	 0,549292179966868 
854	 0,549452279236609 
855	 0,549560680147272 
856	 0,549467657408931 
857	 0,549026742142196 
858	 0,549003436187145 
859	 0,549499633252775 
860	 0,55024106544745 
861	 0,550616841479724 
862	 0,550322426652199 
863	 0,549797258543065 
864	 0,549420763669389 
865	 0,549595199848935 
866	 0,549952351172 
867	 0,550321151342622 
868	 0,550555561225389 
869	 0,550487371315015 
870	 0,550188046208049 
871	 0,550659320421072 
872	 0,55112723213438 
873	 0,550589840416161 
874	 0,550176798681938 
875	 0,550087338349377 
876	 0,550084007205252 
877	 0,550282918597855 
878	 0,550621525025157 
879	 0,550556499027135 
880	 0,550440426848122 
881	 0,550666942911723 
882	 0,550495051217141 
883	 0,550076012171774 
884	 0,550152810727179 
885	 0,550452944908605 
886	 0,550779807046602 
887	 0,550646870019715 
888	 0,550387980706216 
889	 0,550357636512474 
890	 0,550518446104909 
891	 0,550882522924209 
892	 0,551584603558077 
893	 0,551396034748276 
894	 0,550296178693081 
895	 0,550048883329535 
896	 0,550527517726101 
897	 0,551433332768377 
898	 0,551352073313702 
899	 0,551009140358129 
900	 0,552165657828598 
901	 0,552201674068116 
902	 0,55102187483133 
903	 0,551127980411794 
904	 0,551817596350253 
905	 0,552452193587538 
906	 0,551882244865698 
907	 0,550934861316002 
908	 0,550979527153076 
909	 0,551173119969843 
910	 0,55136783544657 
911	 0,551787320471345 
912	 0,551982455677967 
913	 0,551698691930977 
914	 0,550921595951979 
915	 0,550002857828964 
916	 0,549364783559139 
917	 0,549503645974989 
918	 0,550224631331637 
919	 0,550901197356528 
920	 0,550847665120829 
921	 0,550012169544015 
922	 0,549545337920125 
923	 0,549530858351391 
924	 0,549904938650736 
925	 0,549912891156925 
926	 0,549262538256025 
927	 0,547597762155897 
928	 0,547997950544746 
929	 0,550045972777171 
930	 0,548725933400482 
931	 0,547170045779644 
932	 0,547146918853985 
933	 0,547238776749323 
934	 0,546934691686128 
935	 0,545801560149255 
936	 0,544670554558542 
937	 0,544042451822767 
938	 0,544777314113109 
939	 0,544991085180473 
940	 0,544154702763832 
941	 0,543773218022762 
942	 0,543762822016337 
943	 0,543816527289674 
944	 0,542220758295311 
945	 0,540084770353822 
946	 0,539952865099221 
947	 0,539583046884957 
948	 0,538486536701705 
949	 0,537282621394158 
950	 0,536418346958016 
951	 0,536045535798396 
952	 0,535330897271876 
953	 0,53427577386052 
954	 0,533021338768235 
955	 0,532329233346098 
956	 0,531590307293141 
957	 0,528572203529683 
958	 0,527154183455056 
959	 0,528006694676723 
960	 0,527544302400919 
961	 0,526298343997876 
962	 0,525065589988018 
963	 0,526248936409959 
964	 0,527919228645408 
965	 0,526694311216554 
966	 0,525696137596396 
967	 0,525245966454281 
968	 0,52355611633503 
969	 0,523488400240239 
970	 0,525526895658441 
971	 0,525276684006391 
972	 0,524317734938047 
973	 0,524334829270277 
974	 0,52444092107708 
975	 0,524815407425764 
976	 0,525970445723567 
977	 0,52705786942706 
978	 0,527564337426514 
979	 0,526654962112295 
980	 0,526153017084371 
981	 0,526816560260355 
982	 0,527095900906949 
983	 0,527258432402544 
984	 0,527640973053787 
985	 0,527538834866519 
986	 0,526906980436681 
987	 0,525772413770484 
988	 0,52709964134373 
989	 0,53045433164483 
990	 0,531217601154736 
991	 0,53019772822327 
992	 0,528601220698644 
993	 0,53101749202689 
994	 0,533308823043245 
995	 0,531258949792848 
996	 0,531873699403171 
997	 0,534370177834681 
998	 0,534755192171886 
999	 0,534755105449966 
1000	 0,53456403677711 
1001	 0,533127998069119 
1002	 0,532737732694266 
1003	 0,534530045434552 
1004	 0,5375659301519 
1005	 0,54032790249597 
1006	 0,541234325285219 
1007	 0,537805023025362 
1008	 0,534572377557659 
1009	 0,539992978470494 
1010	 0,543339352454444 
1011	 0,542790340948871 
1012	 0,542406886296207 
1013	 0,544203003926421 
1014	 0,547997570881308 
1015	 0,546911654702212 
1016	 0,545889156473423 
1017	 0,548821782074014 
1018	 0,549247289592566 
1019	 0,547339548067579 
1020	 0,544919899020876 
1021	 0,544321866481573 
1022	 0,54623720219966 
1023	 0,550908411528649 
1024	 0,553955346688948 
1025	 0,554085271764028 
1026	 0,554251781122726 
1027	 0,554567185879296 
1028	 0,555123001928948 
1029	 0,556274585170548 
1030	 0,555907018292654 
1031	 0,552186705864134 
1032	 0,554497954637398 
1033	 0,560518523764591 
1034	 0,56196706863169 
1035	 0,559448859209615 
1036	 0,55551932101258 
1037	 0,559057157413303 
1038	 0,56050077758188 
1039	 0,55738143915905 
1040	 0,5611890819383 
1041	 0,565179556426965 
1042	 0,563557164826699 
1043	 0,560282376659901 
1044	 0,557996008199649 
1045	 0,559471808003213 
1046	 0,562361165729591 
1047	 0,564541567545174 
1048	 0,562073960870913 
1049	 0,565256765624342 
1050	 0,572372401516423 
1051	 0,564466547942033 
1052	 0,560874386897201 
1053	 0,569130904058005 
1054	 0,570421958078742 
1055	 0,566371149827818 
1056	 0,560985981389385 
1057	 0,567524552010604 
1058	 0,57434117085386 
1059	 0,563251752468146 
1060	 0,5646628520174 
1061	 0,574871144371652 
1062	 0,570159790387644 
1063	 0,569460865365786 
1064	 0,575645727198842 
1065	 0,578979862775641 
1066	 0,57802127701521 
1067	 0,573053034736293 
1068	 0,567446738739552 
1069	 0,572191117549561 
1070	 0,592049271086996 
1071	 0,598642030865341 
1072	 0,596421556532146 
1073	 0,594412618455781 
1074	 0,566909499514939 
1075	 0,540839932238786 
