Wavelength	GRA-VAN00911.asd
325	 0,280633521054459 
326	 6,69011640860993E-02 
327	-1,08316898059728E-02 
328	 0,19148507376745 
329	 0,196292577902818 
330	 9,86146934021133E-02 
331	 8,32700685436581E-02 
332	 0,111331315004524 
333	 0,153257843363815 
334	 0,165810033904968 
335	 0,212228761508646 
336	 0,25682174890154 
337	 0,163646482183038 
338	 7,29511039612728E-02 
339	 0,104699852143913 
340	 0,160179204485118 
341	 0,179080185225168 
342	 0,122962128765619 
343	 0,079795107113674 
344	 9,07418989665203E-02 
345	 0,113988348837182 
346	 0,145941906919446 
347	 0,168387929813884 
348	 0,102137523528199 
349	-9,23053508958466E-03 
350	 1,75984696982871E-02 
351	 6,71741270566512E-02 
352	 8,25847090933298E-02 
353	 6,97194336090307E-02 
354	 5,03493090710513E-02 
355	 4,96416914407688E-02 
356	 7,14793992892682E-02 
357	 9,77428479324638E-02 
358	 8,24085087009172E-02 
359	 7,14775826714307E-02 
360	 8,60868632550929E-02 
361	 9,72883604431288E-02 
362	 9,64148677292451E-02 
363	 7,37770505463875E-02 
364	 6,49340851556082E-02 
365	 7,59258711677629E-02 
366	 9,05838120320345E-02 
367	 0,103092843097173 
368	 0,108336415355133 
369	 9,55089363307016E-02 
370	 7,42509373113581E-02 
371	 5,98616194820704E-02 
372	 7,84955568022067E-02 
373	 0,1141294646713 
374	 0,083567878659337 
375	 5,80615127165162E-02 
376	 9,15752086630677E-02 
377	 0,101300965931553 
378	 8,90111064131455E-02 
379	 8,67500658666442E-02 
380	 7,31922435678511E-02 
381	 5,24076075586035E-02 
382	 7,29183121209818E-02 
383	 0,095583551030643 
384	 8,56426684693957E-02 
385	 9,27864525818684E-02 
386	 0,106520773783511 
387	 7,68809021302179E-02 
388	 5,53145544730605E-02 
389	 0,063217367943853 
390	 7,69778569620474E-02 
391	 8,63759216876017E-02 
392	 8,26086798251974E-02 
393	 7,83202463397192E-02 
394	 7,38589677083576E-02 
395	 5,86782077532545E-02 
396	 0,053820961159435 
397	 6,71340909792071E-02 
398	 7,45307021956912E-02 
399	 7,39230985550954E-02 
400	 6,62952924664377E-02 
401	 6,71039051850901E-02 
402	 7,54762413819424E-02 
403	 7,43592029005552E-02 
404	 6,47382081495025E-02 
405	 4,98768458429692E-02 
406	 5,28044391877999E-02 
407	 6,68385199349261E-02 
408	 7,52753457780885E-02 
409	 7,50602064452432E-02 
410	 6,70063611836016E-02 
411	 6,19104866812325E-02 
412	 6,01852798054422E-02 
413	 6,14606487451307E-02 
414	 6,18665714150924E-02 
415	 6,08295151878309E-02 
416	 5,86634390441254E-02 
417	 5,85265173622092E-02 
418	 6,11544755756732E-02 
419	 6,14399045962949E-02 
420	 6,27654799673944E-02 
421	 0,069885730387377 
422	 7,15181843854848E-02 
423	 6,68074433404378E-02 
424	 6,20996910202638E-02 
425	 5,80623220090488E-02 
426	 5,56122591214181E-02 
427	 5,83914112324341E-02 
428	 6,30887832749787E-02 
429	 6,34932249829141E-02 
430	 6,24581773461378E-02 
431	 6,07680084304291E-02 
432	 5,77175679062716E-02 
433	 5,78059373159373E-02 
434	 6,39935087742239E-02 
435	 6,17428152496185E-02 
436	 5,33445960101794E-02 
437	 5,08155849655532E-02 
438	 5,32156747280268E-02 
439	 5,87597209588402E-02 
440	 5,75752641638366E-02 
441	 5,52753107760579E-02 
442	 6,00063566012585E-02 
443	 6,31318732943467E-02 
444	 6,29163855866437E-02 
445	 6,09353663412774E-02 
446	 5,81075347697915E-02 
447	 5,55984028285326E-02 
448	 5,67872005376291E-02 
449	 6,01857668603437E-02 
450	 6,23168247124449E-02 
451	 6,32879392179537E-02 
452	 0,063184029872725 
453	 6,27449989182057E-02 
454	 6,30885060447972E-02 
455	 6,50795981352464E-02 
456	 6,66378929044462E-02 
457	 6,66346651259023E-02 
458	 6,28985972409837E-02 
459	 6,12616307062092E-02 
460	 0,063730446879179 
461	 6,46062224180267E-02 
462	 6,46831309190006E-02 
463	 6,58294342005748E-02 
464	 6,18750664592868E-02 
465	 5,53098943764106E-02 
466	 5,95139177984978E-02 
467	 0,06536290086914 
468	 6,66439091817166E-02 
469	 0,065626001853675 
470	 6,35237771369351E-02 
471	 6,18884677408299E-02 
472	 6,16732735216787E-02 
473	 6,27584593538864E-02 
474	 6,21851133862215E-02 
475	 6,26035635928042E-02 
476	 0,066507467800778 
477	 6,76313249499892E-02 
478	 6,56352829907263E-02 
479	 6,30458110702931E-02 
480	 6,10814460917453E-02 
481	 6,07349295882701E-02 
482	 6,32340884503742E-02 
483	 6,52948943420227E-02 
484	 0,062014026162817 
485	 6,09992544677001E-02 
486	 6,30509662207967E-02 
487	 6,28393314874626E-02 
488	 6,21621172204676E-02 
489	 6,22997702067732E-02 
490	 6,11899667116377E-02 
491	 5,94325812526146E-02 
492	 5,88109633870239E-02 
493	 0,059375656539898 
494	 6,07311813183905E-02 
495	 6,07074612914695E-02 
496	 5,93887040519838E-02 
497	 0,057145584434245 
498	 5,83771246942187E-02 
499	 6,20877799700279E-02 
500	 6,21862112151466E-02 
501	 6,12977054623202E-02 
502	 0,061021132452178 
503	 6,15964673612241E-02 
504	 6,27148940038496E-02 
505	 6,37382679600795E-02 
506	 6,48838045899843E-02 
507	 6,59244463817657E-02 
508	 6,60084955721866E-02 
509	 6,52034989430587E-02 
510	 6,37783224864236E-02 
511	 6,47167838676139E-02 
512	 6,68408152580753E-02 
513	 6,55394904098314E-02 
514	 6,43596871987398E-02 
515	 0,064849076022476 
516	 6,64313971463374E-02 
517	 6,79356872822149E-02 
518	 6,78811062652446E-02 
519	 6,76432397257982E-02 
520	 6,76599539093513E-02 
521	 6,82264647430076E-02 
522	 6,81207175184721E-02 
523	 6,66991565497674E-02 
524	 6,71756096764359E-02 
525	 6,86690766332159E-02 
526	 6,82769028362234E-02 
527	 6,66650024125984E-02 
528	 6,44217261024199E-02 
529	 6,33903271649247E-02 
530	 6,36040100637348E-02 
531	 6,48618771878717E-02 
532	 6,51091837112744E-02 
533	 6,41523426651071E-02 
534	 6,29304885350106E-02 
535	 6,27179593188876E-02 
536	 6,40459458525631E-02 
537	 6,43500730367033E-02 
538	 6,40285997152984E-02 
539	 6,44717038104865E-02 
540	 6,51655447438847E-02 
541	 6,57918018761569E-02 
542	 6,57093152651424E-02 
543	 6,50658906504093E-02 
544	 0,064114132639129 
545	 6,43105248920845E-02 
546	 6,52530285641752E-02 
547	 6,48730513886763E-02 
548	 6,47145930214003E-02 
549	 6,53792145225268E-02 
550	 6,55631355722465E-02 
551	 6,55471783149238E-02 
552	 0,066031206833278 
553	 6,58376988521108E-02 
554	 6,49758277811524E-02 
555	 6,47505028439882E-02 
556	 6,50703658533308E-02 
557	 6,57676120357114E-02 
558	 6,60926303558418E-02 
559	 6,60524714231358E-02 
560	 6,61485312901093E-02 
561	 6,57925176999946E-02 
562	 6,50051348675335E-02 
563	 6,52996832177327E-02 
564	 6,59172227242357E-02 
565	 6,56969486978534E-02 
566	 6,52663630178281E-02 
567	 6,49333982920168E-02 
568	 6,50896938552329E-02 
569	 6,57381010646229E-02 
570	 6,68163204759176E-02 
571	 6,76566802854294E-02 
572	 6,84574665411398E-02 
573	 6,98486585554667E-02 
574	 7,18620433449675E-02 
575	 7,43103778462506E-02 
576	 7,62618535546211E-02 
577	 7,78202318454258E-02 
578	 7,91969640148133E-02 
579	 8,11004722333941E-02 
580	 8,33368069372131E-02 
581	 8,47105876670701E-02 
582	 8,60191984970268E-02 
583	 8,77692094597895E-02 
584	 9,00714829561522E-02 
585	 9,25249058325478E-02 
586	 0,094498824729767 
587	 9,56996522304595E-02 
588	 9,62792058083566E-02 
589	 9,73759445639217E-02 
590	 9,85025100295445E-02 
591	 0,099212203193655 
592	 0,100699787354379 
593	 0,102566457193186 
594	 0,10311072374988 
595	 0,103533865605358 
596	 0,104372894965882 
597	 0,105368937535889 
598	 0,105976132468583 
599	 0,105426542947306 
600	 0,104877108629277 
601	 0,104788779102451 
602	 0,105510884591469 
603	 0,105928232055522 
604	 0,105183860386602 
605	 0,104146036797288 
606	 0,103128253508651 
607	 0,102395731553691 
608	 0,102119959583478 
609	 0,102146047268163 
610	 0,101165164879993 
611	 0,100021355664191 
612	 9,98774397311451E-02 
613	 9,90890489691359E-02 
614	 9,77440210057217E-02 
615	 9,74954927881563E-02 
616	 9,72537693272981E-02 
617	 9,64530674632733E-02 
618	 9,66815543381333E-02 
619	 9,73113331763381E-02 
620	 9,67143734851067E-02 
621	 9,58737858095848E-02 
622	 0,095256857237569 
623	 0,095434725807361 
624	 9,58343763998731E-02 
625	 9,58400280463121E-02 
626	 0,095901027578873 
627	 9,61469661108061E-02 
628	 9,67600534583429E-02 
629	 9,70594947556904E-02 
630	 9,68352608960145E-02 
631	 9,73399997814902E-02 
632	 9,82974045164045E-02 
633	 9,90511416744811E-02 
634	 9,92650180118414E-02 
635	 9,91497189245713E-02 
636	 0,100031593211882 
637	 0,10121048666116 
638	 0,102065962329278 
639	 0,103033916153075 
640	 0,103957583168094 
641	 0,104215380045781 
642	 0,104874959084015 
643	 0,106102479112311 
644	 0,106061365461226 
645	 0,105687960647359 
646	 0,106405317864071 
647	 0,106326800700989 
648	 0,105274915076936 
649	 0,104334111952208 
650	 0,103458434126606 
651	 0,102590893468485 
652	 0,101405194923616 
653	 9,99562483034303E-02 
654	 9,85125050989667E-02 
655	 0,096715659575827 
656	 9,44944015385344E-02 
657	 9,20339072480942E-02 
658	 8,97829858494105E-02 
659	 8,81556067994997E-02 
660	 8,61253676152263E-02 
661	 8,37054749474265E-02 
662	 8,15952768725445E-02 
663	 7,96612659675022E-02 
664	 7,78692995345052E-02 
665	 7,63289136920071E-02 
666	 7,49517105446275E-02 
667	 7,35824498426411E-02 
668	 7,24718100469446E-02 
669	 7,16667951285601E-02 
670	 7,10394150568138E-02 
671	 7,06046659141332E-02 
672	 7,03563387101116E-02 
673	 7,00818080478992E-02 
674	 6,97751819752592E-02 
675	 6,94913867568468E-02 
676	 6,94772381665971E-02 
677	 6,97245606959294E-02 
678	 6,95593543514666E-02 
679	 6,94859258669025E-02 
680	 7,01497366075234E-02 
681	 7,04131975263844E-02 
682	 7,03908143064477E-02 
683	 7,12326202646695E-02 
684	 7,26339565701222E-02 
685	 7,43385647502943E-02 
686	 7,56830424650814E-02 
687	 7,72066619262801E-02 
688	 8,00779195830246E-02 
689	 8,25411238145235E-02 
690	 8,45414138345984E-02 
691	 8,80878169119822E-02 
692	 9,27302644372594E-02 
693	 9,79868932957019E-02 
694	 0,103721842174323 
695	 0,109994550033864 
696	 0,117005642809506 
697	 0,124990846608192 
698	 0,133919708497798 
699	 0,142892187972598 
700	 0,152434519220194 
701	 0,163304520783849 
702	 0,17444978778589 
703	 0,185365062128381 
704	 0,195442793257571 
705	 0,205958214547398 
706	 0,217477326533364 
707	 0,227743899907462 
708	 0,237012785618492 
709	 0,246348871785776 
710	 0,255196622282939 
711	 0,263475393431745 
712	 0,271473245967879 
713	 0,278926192566586 
714	 0,285604773894176 
715	 0,292101866473245 
716	 0,298371071776118 
717	 0,30394774236277 
718	 0,309111030751357 
719	 0,313950990485891 
720	 0,318137431069425 
721	 0,322053900947469 
722	 0,326220632279433 
723	 0,330101496775363 
724	 0,333598654047307 
725	 0,336832663611501 
726	 0,339747913656293 
727	 0,342357426122067 
728	 0,3449733001346 
729	 0,347499897761634 
730	 0,349665605982251 
731	 0,351903064850992 
732	 0,354205802686684 
733	 0,355937398982471 
734	 0,357495231467865 
735	 0,359241899279123 
736	 0,360893276940272 
737	 0,362569624660609 
738	 0,364748425124671 
739	 0,366609123758588 
740	 0,36785621894409 
741	 0,368808715835597 
742	 0,369973642577372 
743	 0,371870375565154 
744	 0,373291018310054 
745	 0,374278452140854 
746	 0,375872122214377 
747	 0,377513192535425 
748	 0,378907849652434 
749	 0,380242860050582 
750	 0,381470316481725 
751	 0,382483507118918 
752	 0,383667138496916 
753	 0,385084145459218 
754	 0,38652892381279 
755	 0,387878996385258 
756	 0,389043221302846 
757	 0,390036010233024 
758	 0,391033743905853 
759	 0,392362237650116 
760	 0,393837247068596 
761	 0,395271259915942 
762	 0,39613028531319 
763	 0,396972455004704 
764	 0,398312605361534 
765	 0,399356236515444 
766	 0,400139827391443 
767	 0,401143236371815 
768	 0,402184218045895 
769	 0,403249438294617 
770	 0,40464243146669 
771	 0,405963854502632 
772	 0,406732134663575 
773	 0,407442237197784 
774	 0,408299599237952 
775	 0,409531422323083 
776	 0,410758229681874 
777	 0,411773960290066 
778	 0,412723536722419 
779	 0,413599586061778 
780	 0,414370107640424 
781	 0,415201893271985 
782	 0,416183179866629 
783	 0,417448704654118 
784	 0,418595200542144 
785	 0,41941226024755 
786	 0,42058234713976 
787	 0,421868268797275 
788	 0,422666323259158 
789	 0,423540776693688 
790	 0,424650136045421 
791	 0,425931166423051 
792	 0,42701858550421 
793	 0,427668845797256 
794	 0,428499135433769 
795	 0,429600119713199 
796	 0,430996229290573 
797	 0,431820059513763 
798	 0,432062113695576 
799	 0,433243313987684 
800	 0,434654083456561 
801	 0,435557142851983 
802	 0,436175616436333 
803	 0,436777011511325 
804	 0,437988126760068 
805	 0,438908129424877 
806	 0,439403218530182 
807	 0,440719996009861 
808	 0,442043297760996 
809	 0,442473499860984 
810	 0,443482152946885 
811	 0,444941909685482 
812	 0,44555561370792 
813	 0,446562173083057 
814	 0,448209757190527 
815	 0,448697040854194 
816	 0,448900937843218 
817	 0,450021677383052 
818	 0,451187313110837 
819	 0,45218194307241 
820	 0,452933020333716 
821	 0,453823360490764 
822	 0,454974541003135 
823	 0,455893259914855 
824	 0,456558721528526 
825	 0,457026047643946 
826	 0,458040087895473 
827	 0,459372515552936 
828	 0,459647871636501 
829	 0,460148809614145 
830	 0,461397928741065 
831	 0,462156066280753 
832	 0,46246673408205 
833	 0,462580208826111 
834	 0,463595831066819 
835	 0,465244536783739 
836	 0,465645448064399 
837	 0,466135135420445 
838	 0,467285667213987 
839	 0,467746992805184 
840	 0,467877662844999 
841	 0,468381974533794 
842	 0,468732211311035 
843	 0,46909061764484 
844	 0,470377690197984 
845	 0,471661737069864 
846	 0,472399294251325 
847	 0,47275203737862 
848	 0,473289777866628 
849	 0,474763177752496 
850	 0,475837821812764 
851	 0,476332429757275 
852	 0,476867434409237 
853	 0,477515113315686 
854	 0,478286808267693 
855	 0,478866197462155 
856	 0,479278447092132 
857	 0,479609663213873 
858	 0,480447330196462 
859	 0,481703145417374 
860	 0,482638989806219 
861	 0,483334821500219 
862	 0,483814041024174 
863	 0,484073843674711 
864	 0,484291435538679 
865	 0,484685870512207 
866	 0,485442061692423 
867	 0,486375639376251 
868	 0,486791689590835 
869	 0,487227618083956 
870	 0,487901873473465 
871	 0,488523981080248 
872	 0,488945376080132 
873	 0,489052683211473 
874	 0,489955485452186 
875	 0,49134898883712 
876	 0,491655075815599 
877	 0,491875729451763 
878	 0,492387073481609 
879	 0,492823399129659 
880	 0,49318959576238 
881	 0,493537855691185 
882	 0,494376836249801 
883	 0,49536168118534 
884	 0,49525899948427 
885	 0,495620460038043 
886	 0,496714774061817 
887	 0,496746984147468 
888	 0,496885485506397 
889	 0,498205563831072 
890	 0,498846935876522 
891	 0,499055475267623 
892	 0,500142411448495 
893	 0,501047527681691 
894	 0,501473434100506 
895	 0,50177408987596 
896	 0,501842903776131 
897	 0,501678722379927 
898	 0,50199727219858 
899	 0,502785835536786 
900	 0,503833068393073 
901	 0,504331579730077 
902	 0,504413473520823 
903	 0,505678428232844 
904	 0,506659557460378 
905	 0,506490682206062 
906	 0,50608580080328 
907	 0,506102052545461 
908	 0,507260271645672 
909	 0,507772210360436 
910	 0,507679672815363 
911	 0,508702721196075 
912	 0,509343927653113 
913	 0,509114392966318 
914	 0,50961296331942 
915	 0,510293341005667 
916	 0,510410359185035 
917	 0,510292687082754 
918	 0,510199232411848 
919	 0,510571598064549 
920	 0,511228598556455 
921	 0,511891808132364 
922	 0,511604856420083 
923	 0,511376635027578 
924	 0,511960811637878 
925	 0,511803126530635 
926	 0,511014351054321 
927	 0,510169019048545 
928	 0,510625812597423 
929	 0,512079554796304 
930	 0,511837625820856 
931	 0,511431869212624 
932	 0,511609672386604 
933	 0,510855731257021 
934	 0,510051732811198 
935	 0,510455679170543 
936	 0,510376263173405 
937	 0,509724572442458 
938	 0,509404630025275 
939	 0,50882822440233 
940	 0,508005736650098 
941	 0,508040824666397 
942	 0,508212567311808 
943	 0,507795851798273 
944	 0,506780120413872 
945	 0,505486805502005 
946	 0,504511184297318 
947	 0,503327795458272 
948	 0,501999140913963 
949	 0,50123611520003 
950	 0,500560241539587 
951	 0,499634244271407 
952	 0,498332269614475 
953	 0,496701623086757 
954	 0,49489743237415 
955	 0,495059430238807 
956	 0,495852984705057 
957	 0,492546997063967 
958	 0,490309710674607 
959	 0,490461083776966 
960	 0,490188106028432 
961	 0,489627271495627 
962	 0,488977520950259 
963	 0,488552931959517 
964	 0,488301948321202 
965	 0,488059286506246 
966	 0,488193065670839 
967	 0,488547280185941 
968	 0,488339534822521 
969	 0,488469170171356 
970	 0,48909186020701 
971	 0,488954428073639 
972	 0,488218629094128 
973	 0,48741096124198 
974	 0,49001316898682 
975	 0,492866241463772 
976	 0,48936904512047 
977	 0,488013745241601 
978	 0,490184360717618 
979	 0,491915042772092 
980	 0,493657561932665 
981	 0,495118884601021 
982	 0,493913817309339 
983	 0,492923598079989 
984	 0,495003461680812 
985	 0,496249085477646 
986	 0,495810180234173 
987	 0,49329594965268 
988	 0,494672422488694 
989	 0,499323615128381 
990	 0,498250237434769 
991	 0,496573532435754 
992	 0,497002795638851 
993	 0,498563010134831 
994	 0,499372308058503 
995	 0,49799901473587 
996	 0,500528051344673 
997	 0,505399630741865 
998	 0,507517226325403 
999	 0,507697543176114 
1000	 0,506419092465135 
1001	 0,504489396277191 
1002	 0,504663770935723 
1003	 0,508146675963459 
1004	 0,512901836602289 
1005	 0,515646168159636 
1006	 0,513851062563017 
1007	 0,512747750807039 
1008	 0,512892286912674 
1009	 0,51346549442531 
1010	 0,514486859011987 
1011	 0,515661269855563 
1012	 0,51601343200845 
1013	 0,51797791789638 
1014	 0,521626330047166 
1015	 0,52113955638506 
1016	 0,521492025557064 
1017	 0,526232083332612 
1018	 0,526047758332794 
1019	 0,523036734441415 
1020	 0,522420386266019 
1021	 0,521609621015234 
1022	 0,521377913826677 
1023	 0,524904890193132 
1024	 0,530815268619636 
1025	 0,536739967088534 
1026	 0,536164062837089 
1027	 0,534727458659133 
1028	 0,535902332374241 
1029	 0,534573924172555 
1030	 0,533899695681257 
1031	 0,537685311213312 
1032	 0,539678233176629 
1033	 0,540168659385811 
1034	 0,542388749329266 
1035	 0,540770489900466 
1036	 0,536891384338135 
1037	 0,541836484151098 
1038	 0,545256169402758 
1039	 0,543633251502845 
1040	 0,544916707964989 
1041	 0,547002596708531 
1042	 0,547326571897054 
1043	 0,541931732761364 
1044	 0,536787084788306 
1045	 0,540532616041326 
1046	 0,546040632605992 
1047	 0,550076533557927 
1048	 0,548728273726994 
1049	 0,549916018277313 
1050	 0,554433363876299 
1051	 0,555752567637053 
1052	 0,55619492845878 
1053	 0,555782452572679 
1054	 0,547895816036534 
1055	 0,544204162847279 
1056	 0,552443812923461 
1057	 0,543880702186244 
1058	 0,53757856244787 
1059	 0,563547072385751 
1060	 0,565349947467123 
1061	 0,548623912681552 
1062	 0,554214063001012 
1063	 0,55863332875499 
1064	 0,556257722626387 
1065	 0,550447105553303 
1066	 0,544626201784288 
1067	 0,543498068208536 
1068	 0,559485336799182 
1069	 0,568112584550823 
1070	 0,554444520486378 
1071	 0,555795325197872 
1072	 0,562529823985495 
1073	 0,557585285418759 
1074	 0,546272569286926 
1075	 0,540726160464964 
