Wavelength	GRA-VIE-00096.asd
325	 0,33842300642523 
326	 0,386787681352773 
327	 0,326963321754746 
328	 0,219412992754513 
329	 0,265767616587914 
330	 0,328656054629303 
331	 0,273021335737982 
332	 0,237791686303042 
333	 0,228038369075734 
334	 0,198946269562269 
335	 0,180319239742787 
336	 0,165554036356448 
337	 0,125138885727823 
338	 8,40705681570122E-02 
339	 7,33970939004687E-02 
340	 0,135758245796422 
341	 0,214267648421226 
342	 0,218814903591949 
343	 0,190986582702181 
344	 0,142562355949644 
345	 0,065915565751521 
346	 3,55939432469687E-02 
347	 9,71224436717147E-02 
348	 0,126188056030488 
349	 0,114591691010418 
350	 0,106495092907973 
351	 0,109245036975739 
352	 0,118637730705152 
353	 8,22519083969466E-02 
354	 4,72197212274657E-02 
355	 0,074396673707289 
356	 0,100824368049611 
357	 0,114581315439856 
358	 0,114284959288723 
359	 0,100041190093282 
360	 7,79630297301774E-02 
361	 8,31665689408412E-02 
362	 0,095004597374108 
363	 8,02080808525953E-02 
364	 0,072962850944955 
365	 7,72370814997736E-02 
366	 0,072991855840506 
367	 7,61199979376082E-02 
368	 9,09093764625692E-02 
369	 7,81153223531499E-02 
370	 5,53742690940956E-02 
371	 6,29766472455118E-02 
372	 7,75997839161741E-02 
373	 8,89526922876738E-02 
374	 8,71319745712218E-02 
375	 7,46829458818252E-02 
376	 5,75874920152551E-02 
377	 7,25928905697204E-02 
378	 0,100061817026738 
379	 9,50285915812278E-02 
380	 8,22666821016276E-02 
381	 7,08201787787151E-02 
382	 6,45453932183426E-02 
383	 6,65353193291519E-02 
384	 7,74285816467427E-02 
385	 6,97508363953196E-02 
386	 5,19972183732673E-02 
387	 5,89417844174966E-02 
388	 6,62935699837552E-02 
389	 6,47808006338377E-02 
390	 5,51695592345433E-02 
391	 5,28337243164927E-02 
392	 7,43797024180659E-02 
393	 7,75757658719838E-02 
394	 6,14849471829212E-02 
395	 0,047935160979949 
396	 4,63834972510106E-02 
397	 5,99916792022216E-02 
398	 6,95572431099856E-02 
399	 7,06513292743362E-02 
400	 6,02567631622262E-02 
401	 0,054530431885308 
402	 5,50885117858176E-02 
403	 4,90769991569085E-02 
404	 0,046466453747057 
405	 5,36036431838435E-02 
406	 6,49903588334216E-02 
407	 7,36354016589224E-02 
408	 6,75002756047184E-02 
409	 6,31044574978052E-02 
410	 6,46535888440891E-02 
411	 6,50012288377891E-02 
412	 6,61038396361042E-02 
413	 6,96314957017273E-02 
414	 0,066699687127031 
415	 5,95747980514193E-02 
416	 5,73881949006405E-02 
417	 5,99256699820434E-02 
418	 6,49542721054406E-02 
419	 5,90660368642306E-02 
420	 5,20786099883479E-02 
421	 5,73857364462235E-02 
422	 6,34444214017785E-02 
423	 6,64783613078772E-02 
424	 6,35217196913779E-02 
425	 6,04970038194167E-02 
426	 6,08152558798315E-02 
427	 6,05596616869832E-02 
428	 6,08418985648383E-02 
429	 6,45969917182105E-02 
430	 0,068567788480091 
431	 7,02079972789806E-02 
432	 6,30205005989926E-02 
433	 5,81019147124388E-02 
434	 6,47203909277587E-02 
435	 6,57306400030422E-02 
436	 6,26205729970424E-02 
437	 6,72451610844911E-02 
438	 7,20084383267331E-02 
439	 7,34529426904598E-02 
440	 7,02045935112066E-02 
441	 0,065273154823552 
442	 6,24122035467044E-02 
443	 6,31862410866904E-02 
444	 0,066248923986247 
445	 6,57882334771396E-02 
446	 6,44911194051007E-02 
447	 6,42269373685206E-02 
448	 6,59916709079415E-02 
449	 6,81989837334147E-02 
450	 6,77012902706073E-02 
451	 6,68293536183334E-02 
452	 6,65809765228414E-02 
453	 6,77730156232712E-02 
454	 0,069480072668978 
455	 0,070715484353212 
456	 7,06033988865849E-02 
457	 6,93828355702983E-02 
458	 6,77057222402427E-02 
459	 6,83161027961515E-02 
460	 7,16575441044988E-02 
461	 7,23699160366712E-02 
462	 7,14526674661048E-02 
463	 7,09543227368819E-02 
464	 7,04537116144939E-02 
465	 7,01056778908076E-02 
466	 7,04747838267326E-02 
467	 7,08516064969147E-02 
468	 0,070811427495693 
469	 7,09259127987711E-02 
470	 7,17109511861379E-02 
471	 7,43661812664692E-02 
472	 7,42640955817895E-02 
473	 7,13561650097861E-02 
474	 7,33095809531192E-02 
475	 7,56662688263006E-02 
476	 7,37714377192351E-02 
477	 7,05107005735113E-02 
478	 6,81987368407656E-02 
479	 7,11148642673281E-02 
480	 7,49954234062631E-02 
481	 7,71182989490565E-02 
482	 7,45692407497203E-02 
483	 7,19402835226005E-02 
484	 7,64475399267069E-02 
485	 7,70022624126905E-02 
486	 7,31631316298787E-02 
487	 7,50749074092836E-02 
488	 0,078146118405051 
489	 0,078805632262183 
490	 7,86993788297126E-02 
491	 7,81549785736324E-02 
492	 7,73874911519594E-02 
493	 7,63048441942038E-02 
494	 7,52572120105079E-02 
495	 7,59118648154701E-02 
496	 7,68338609111823E-02 
497	 7,63314876100378E-02 
498	 7,77853653834392E-02 
499	 8,03810066957847E-02 
500	 7,92512379542278E-02 
501	 7,85568430151039E-02 
502	 8,02812183609756E-02 
503	 8,00990125885446E-02 
504	 7,90167589648185E-02 
505	 7,96699815052846E-02 
506	 8,10793547495274E-02 
507	 8,24458239789497E-02 
508	 8,16349491309107E-02 
509	 0,08037156472099 
510	 8,03305570076562E-02 
511	 8,19239958227187E-02 
512	 8,39204397414281E-02 
513	 8,29478373690565E-02 
514	 8,20803987432127E-02 
515	 8,25449038117977E-02 
516	 8,28761080930629E-02 
517	 8,31766943888341E-02 
518	 0,083790651137646 
519	 8,41029299906263E-02 
520	 8,41280118611753E-02 
521	 8,44554623710027E-02 
522	 8,51353917157686E-02 
523	 0,086082762819888 
524	 8,60366587847833E-02 
525	 8,55040920408485E-02 
526	 8,60427172039571E-02 
527	 8,68160729949999E-02 
528	 8,73788766501883E-02 
529	 8,68826273444026E-02 
530	 8,63920487236735E-02 
531	 8,71621472508417E-02 
532	 8,83053147930058E-02 
533	 8,91401869746273E-02 
534	 8,81780465584405E-02 
535	 0,087551503654306 
536	 8,84663605312124E-02 
537	 8,95009217064686E-02 
538	 9,03658371311676E-02 
539	 9,09800531469529E-02 
540	 9,11278579186346E-02 
541	 9,08161556917293E-02 
542	 9,02390963209026E-02 
543	 0,090270374627305 
544	 9,16522205241669E-02 
545	 9,25731072755285E-02 
546	 9,26955170535109E-02 
547	 9,21655737317325E-02 
548	 9,19453663852382E-02 
549	 9,25778532744319E-02 
550	 9,40102215719252E-02 
551	 9,52171906246681E-02 
552	 0,094647200723403 
553	 9,43703992174108E-02 
554	 9,48298276547446E-02 
555	 9,51195449832226E-02 
556	 9,54571846593805E-02 
557	 9,60242636690727E-02 
558	 9,66845876760722E-02 
559	 9,71499453518126E-02 
560	 9,67156125994344E-02 
561	 9,65678731720959E-02 
562	 9,70986767440176E-02 
563	 9,72941652170526E-02 
564	 9,76242420373729E-02 
565	 9,88220231565188E-02 
566	 9,91651158918695E-02 
567	 9,86812357385035E-02 
568	 9,91548732009167E-02 
569	 9,96215289018381E-02 
570	 9,94757900820264E-02 
571	 0,099709553606253 
572	 0,100357281826584 
573	 0,101242218022303 
574	 0,101661376817777 
575	 0,101465543805219 
576	 0,10150090678041 
577	 0,101623198837849 
578	 0,101604144500791 
579	 0,101706633253115 
580	 0,101920328784149 
581	 0,101940135694556 
582	 0,102377073442257 
583	 0,103422477276333 
584	 0,103697606622672 
585	 0,103534479208408 
586	 0,103858335575011 
587	 0,103948658755849 
588	 0,103840379477476 
589	 0,104579823759914 
590	 0,105447829872004 
591	 0,10573203302062 
592	 0,10560796025687 
593	 0,105205976416925 
594	 0,104731554370414 
595	 0,10444969888721 
596	 0,104491634897009 
597	 0,104656867817939 
598	 0,104796859192933 
599	 0,104709667824254 
600	 0,10527915417566 
601	 0,106327198469954 
602	 0,106186274505579 
603	 0,106018097389256 
604	 0,106672519200761 
605	 0,10656105800967 
606	 0,105898904853594 
607	 0,10579793608302 
608	 0,106001618532908 
609	 0,1063468034338 
610	 0,106267716527951 
611	 0,106153671324058 
612	 0,106541388857265 
613	 0,106350044156955 
614	 0,105793225573984 
615	 0,106557389927873 
616	 0,106944065028074 
617	 0,106106125576183 
618	 0,106914322159657 
619	 0,108439675955555 
620	 0,108090930612312 
621	 0,107493382449133 
622	 0,107278508400426 
623	 0,107809408866536 
624	 0,108458737286106 
625	 0,108574751446868 
626	 0,108845263715497 
627	 0,109236865350767 
628	 0,109276393579459 
629	 0,10908879770226 
630	 0,108800475771601 
631	 0,108788112988445 
632	 0,109009590908199 
633	 0,109293950572905 
634	 0,109904852596936 
635	 0,110684482145966 
636	 0,110874911643888 
637	 0,110489628589059 
638	 0,109668585769468 
639	 0,109733906636535 
640	 0,110543900169323 
641	 0,111170003161301 
642	 0,111290554521021 
643	 0,110904582096946 
644	 0,111183534305655 
645	 0,111733480843903 
646	 0,111902692575571 
647	 0,111733051040698 
648	 0,111434420165891 
649	 0,111710331882926 
650	 0,112035460936903 
651	 0,112084080783817 
652	 0,112430135413174 
653	 0,112669029096705 
654	 0,11175475563704 
655	 0,111297069715892 
656	 0,111660536875139 
657	 0,11172646764311 
658	 0,111407690073679 
659	 0,110719632709132 
660	 0,110497405836467 
661	 0,1107624402724 
662	 0,111071151395167 
663	 0,111003980295481 
664	 0,110400712154817 
665	 0,109895736218489 
666	 0,10969168684629 
667	 0,109957566032928 
668	 0,11030705034451 
669	 0,110568068786413 
670	 0,11068023698262 
671	 0,110569651999404 
672	 0,11023507202427 
673	 0,11033420018738 
674	 0,110703199972048 
675	 0,110583484261007 
676	 0,110852289962759 
677	 0,111671243867189 
678	 0,112057449109768 
679	 0,112234179303253 
680	 0,112564844398897 
681	 0,113187847586516 
682	 0,113903369154517 
683	 0,113926711331412 
684	 0,114053243186947 
685	 0,114687566249836 
686	 0,114940880121286 
687	 0,115146180426711 
688	 0,116094444208753 
689	 0,117137589651702 
690	 0,117925989651415 
691	 0,117877418653196 
692	 0,118001993237158 
693	 0,119158989811817 
694	 0,119922700322639 
695	 0,120392106503897 
696	 0,121586809960677 
697	 0,122614241438742 
698	 0,123169783163256 
699	 0,123819496093675 
700	 0,124527074233136 
701	 0,125173082031019 
702	 0,126047865038425 
703	 0,127094243852377 
704	 0,127958914243032 
705	 0,128432017126575 
706	 0,128500394970025 
707	 0,129233127078266 
708	 0,130400126608199 
709	 0,131327173204234 
710	 0,13177262545559 
711	 0,13181464421067 
712	 0,132241585223715 
713	 0,132954260779635 
714	 0,133791673252172 
715	 0,134317997050928 
716	 0,134548141799151 
717	 0,134739422785557 
718	 0,135118151032939 
719	 0,135683873990516 
720	 0,135655119437818 
721	 0,135678974657037 
722	 0,136657913650217 
723	 0,137002091992279 
724	 0,136749946357613 
725	 0,137415423700346 
726	 0,138096107723053 
727	 0,138255787556055 
728	 0,138339915135865 
729	 0,138557226245582 
730	 0,139201607470058 
731	 0,139425598444517 
732	 0,139254684293102 
733	 0,140043811807989 
734	 0,14083876936653 
735	 0,14080823395093 
736	 0,140815839633197 
737	 0,141006191372016 
738	 0,141299045424411 
739	 0,141795623059324 
740	 0,142416551625056 
741	 0,142560146933231 
742	 0,142587428505239 
743	 0,142966170970828 
744	 0,143244909935276 
745	 0,14339582512936 
746	 0,143665878923149 
747	 0,143848881675664 
748	 0,14387758192155 
749	 0,144070127236577 
750	 0,144399912618608 
751	 0,144762424466922 
752	 0,14521488935574 
753	 0,145663650049775 
754	 0,145698675022207 
755	 0,145909964932514 
756	 0,146654029119509 
757	 0,146971550536359 
758	 0,146951445670798 
759	 0,147104085869894 
760	 0,147067676429212 
761	 0,146893764867727 
762	 0,147299181536129 
763	 0,147748873932003 
764	 0,147740412643218 
765	 0,1480215394029 
766	 0,148502824032418 
767	 0,148569022861356 
768	 0,148704114371305 
769	 0,149068553453202 
770	 0,149462784243927 
771	 0,149681960837531 
772	 0,149518858412819 
773	 0,149280063637762 
774	 0,149300319634202 
775	 0,150348065482431 
776	 0,151269330139217 
777	 0,151448585775361 
778	 0,151258692117176 
779	 0,151242457186878 
780	 0,152127551245541 
781	 0,152232178317814 
782	 0,151536252385332 
783	 0,151658403598213 
784	 0,152036311939403 
785	 0,152297522181402 
786	 0,152596076423362 
787	 0,152896080985612 
788	 0,153099245219146 
789	 0,153574896154658 
790	 0,154213991466352 
791	 0,154135625105292 
792	 0,153831929732408 
793	 0,153751321271493 
794	 0,154014927739049 
795	 0,154492843129916 
796	 0,154865565689791 
797	 0,155127235969436 
798	 0,155260081431383 
799	 0,15526179391049 
800	 0,155362098355191 
801	 0,155743499571172 
802	 0,155880446812575 
803	 0,15579701115727 
804	 0,155762036264351 
805	 0,156024536064624 
806	 0,15660521569428 
807	 0,157004719147463 
808	 0,15722283244039 
809	 0,157299569321745 
810	 0,157100293596553 
811	 0,156871487666426 
812	 0,157342759466158 
813	 0,157739920761774 
814	 0,15779831990294 
815	 0,158089347414407 
816	 0,158486216189997 
817	 0,158777768434322 
818	 0,158709554649999 
819	 0,158488737658998 
820	 0,158936058278689 
821	 0,159221307774072 
822	 0,159059038553281 
823	 0,159380352464133 
824	 0,159769733829082 
825	 0,159594136769836 
826	 0,159647777755221 
827	 0,159907314499285 
828	 0,159564444830088 
829	 0,159798880277769 
830	 0,160963229200845 
831	 0,161067048510917 
832	 0,160579172944506 
833	 0,160439854888885 
834	 0,160445665630459 
835	 0,16057674160197 
836	 0,160859183274177 
837	 0,160999661697933 
838	 0,160878933708778 
839	 0,160891600418609 
840	 0,16108332926374 
841	 0,161446973185868 
842	 0,161438416471997 
843	 0,161144755945222 
844	 0,161287635076771 
845	 0,161786422651034 
846	 0,162477221390206 
847	 0,162617183429949 
848	 0,162308266742139 
849	 0,161833176563474 
850	 0,161587559354665 
851	 0,161780289698863 
852	 0,162700758508938 
853	 0,163289046619655 
854	 0,163029978513018 
855	 0,162909940757038 
856	 0,162748030054292 
857	 0,162153422934306 
858	 0,161949985201889 
859	 0,162303136120413 
860	 0,163088155847875 
861	 0,163565186486128 
862	 0,163418657731505 
863	 0,163498869319241 
864	 0,163764600373732 
865	 0,164033018682992 
866	 0,163914385030376 
867	 0,163555041218947 
868	 0,163695447978677 
869	 0,163885588643801 
870	 0,163932075010074 
871	 0,164072728585839 
872	 0,164067915417829 
873	 0,163647657472077 
874	 0,163957496562177 
875	 0,164729076473332 
876	 0,164429558662844 
877	 0,164173936614306 
878	 0,164360138094529 
879	 0,164382461531202 
880	 0,164490353706554 
881	 0,164954484333832 
882	 0,164947186921108 
883	 0,164624823566484 
884	 0,164843974867603 
885	 0,16507296616039 
886	 0,16518666521852 
887	 0,165558200594217 
888	 0,165820285267949 
889	 0,165617764571854 
890	 0,165032664338687 
891	 0,164676658075703 
892	 0,165948890173296 
893	 0,165934070804006 
894	 0,164445948303306 
895	 0,165283037591864 
896	 0,166299715868324 
897	 0,165817449421501 
898	 0,165488031883187 
899	 0,165504724197183 
900	 0,165760545970963 
901	 0,165975879845343 
902	 0,166154559152913 
903	 0,166728386696113 
904	 0,167187459079649 
905	 0,167173844630847 
906	 0,166520660077394 
907	 0,16618388143896 
908	 0,167486076932548 
909	 0,168281806245283 
910	 0,168127980253783 
911	 0,167427162303984 
912	 0,1670696758662 
913	 0,167389122911995 
914	 0,167314764194364 
915	 0,167112278582424 
916	 0,167189109816375 
917	 0,167774908102426 
918	 0,168419583752585 
919	 0,167857023192317 
920	 0,167490190026988 
921	 0,167712150286819 
922	 0,167753398973216 
923	 0,168037409286703 
924	 0,168835849576766 
925	 0,169081040416995 
926	 0,168888545796343 
927	 0,16879312585849 
928	 0,168718851802199 
929	 0,168624817380829 
930	 0,16840976379827 
931	 0,167854685289063 
932	 0,167093283319661 
933	 0,167910637191306 
934	 0,168987023479884 
935	 0,168468265929361 
936	 0,168849641508314 
937	 0,170092033608222 
938	 0,170680836991358 
939	 0,170235348282937 
940	 0,168922772487554 
941	 0,168391392490219 
942	 0,169073591745763 
943	 0,170956458201779 
944	 0,170919731352524 
945	 0,169799647845652 
946	 0,170189923146639 
947	 0,17013238589391 
948	 0,169762539591363 
949	 0,171703550981612 
950	 0,17247174650843 
951	 0,170758768963536 
952	 0,172377858083929 
953	 0,173983128161813 
954	 0,171102818535637 
955	 0,169397401652347 
956	 0,169643176693748 
957	 0,170670181059681 
958	 0,171088740501608 
959	 0,170598280705086 
960	 0,170746510249271 
961	 0,171168822736422 
962	 0,171510707228592 
963	 0,171611418392944 
964	 0,171538716022291 
965	 0,171449871964692 
966	 0,171179540221825 
967	 0,170898776271167 
968	 0,171185420240425 
969	 0,171563245779888 
970	 0,171969295873142 
971	 0,173242531372007 
972	 0,174518229144355 
973	 0,174899455594782 
974	 0,174033247105428 
975	 0,172924963277863 
976	 0,173416188842499 
977	 0,17407483933337 
978	 0,174262321531627 
979	 0,173212282289977 
980	 0,172568175447723 
981	 0,172972328782335 
982	 0,172686094398517 
983	 0,172718865300467 
984	 0,1739448012576 
985	 0,172318713747712 
986	 0,17009117062266 
987	 0,173018361994049 
988	 0,17546169667801 
989	 0,175842731767669 
990	 0,174563890969421 
991	 0,174350469919499 
992	 0,176247628077397 
993	 0,176927948694442 
994	 0,176470143857339 
995	 0,175383531218875 
996	 0,175162317521266 
997	 0,175418233494086 
998	 0,174710187709565 
999	 0,175149335848841 
1000	 0,176534458659454 
1001	 0,175824105128623 
1002	 0,176100390245506 
1003	 0,178165685405848 
1004	 0,176854777446416 
1005	 0,176447928379723 
1006	 0,180778782564088 
1007	 0,181397395815849 
1008	 0,178924722378519 
1009	 0,177035316024597 
1010	 0,178900704614124 
1011	 0,182446011504095 
1012	 0,177189609740241 
1013	 0,174460980413867 
1014	 0,1779874817063 
1015	 0,179113790678312 
1016	 0,179454864462351 
1017	 0,180428686974545 
1018	 0,178836344208393 
1019	 0,176772195645414 
1020	 0,177870026845449 
1021	 0,179719963607941 
1022	 0,180468130262855 
1023	 0,175800517860865 
1024	 0,178299767463213 
1025	 0,188210194501795 
1026	 0,186013151905574 
1027	 0,182808463393256 
1028	 0,18492796458703 
1029	 0,179422819731174 
1030	 0,175094549259063 
1031	 0,182730373690074 
1032	 0,186102939812949 
1033	 0,184659982123576 
1034	 0,183866019074835 
1035	 0,185881450683962 
1036	 0,189941089137033 
1037	 0,19161021127694 
1038	 0,18714753443924 
1039	 0,178682645989245 
1040	 0,187489578555635 
1041	 0,194964337680528 
1042	 0,186723707531102 
1043	 0,182475016652246 
1044	 0,182912653392723 
1045	 0,185020326329892 
1046	 0,187603802642152 
1047	 0,190195380735918 
1048	 0,193233725915625 
1049	 0,190017658236868 
1050	 0,183515396178129 
1051	 0,192537503371757 
1052	 0,195630070287889 
1053	 0,185572428587466 
1054	 0,188231748065031 
1055	 0,190997037606411 
1056	 0,183554826345719 
1057	 0,188061859010763 
1058	 0,196437360021741 
1059	 0,193963243325196 
1060	 0,190999078457223 
1061	 0,191053895443082 
1062	 0,196952623422165 
1063	 0,199670501635229 
1064	 0,19676893997879 
1065	 0,191610434468513 
1066	 0,185442728183443 
1067	 0,181632881748768 
1068	 0,19391561974471 
1069	 0,196954289774836 
1070	 0,174403923888599 
1071	 0,156745721619815 
1072	 0,15934523343863 
1073	 0,190174104749691 
1074	 0,200366915563611 
1075	 0,196197306522853 
