Wavelength	GRA-VIE-00045.asd
325	 0,338108692919013 
326	 0,364868040095739 
327	 0,37248469802067 
328	 0,355542183470465 
329	 0,408568857061799 
330	 0,417737574867896 
331	 0,261767471617154 
332	 0,249052630998741 
333	 0,348120641534339 
334	 0,356352272524492 
335	 0,293768443472535 
336	 0,191466448121638 
337	 0,239111048579486 
338	 0,314857811910857 
339	 0,288956857408024 
340	 0,246075954137935 
341	 0,209753415158844 
342	 0,191186153900384 
343	 0,170629449975889 
344	 0,145427415261641 
345	 0,128646510914989 
346	 0,123698753447477 
347	 0,129885627736094 
348	 0,160128247655353 
349	 0,185612455739807 
350	 0,120742135090214 
351	 0,106228305051118 
352	 0,163861782460999 
353	 0,139315603333567 
354	 0,086517306507626 
355	 9,38512662800058E-02 
356	 0,109532621319912 
357	 0,11792260356688 
358	 9,79482763176706E-02 
359	 9,13845946380779E-02 
360	 0,111184302414339 
361	 8,30076856633062E-02 
362	 4,94422489134739E-02 
363	 0,07827759782787 
364	 9,65592984161754E-02 
365	 0,09078274530682 
366	 8,41275702254344E-02 
367	 8,61741578982675E-02 
368	 0,100659314426076 
369	 0,116155227070311 
370	 0,122931127160065 
371	 0,104213134302538 
372	 8,61862727875524E-02 
373	 7,67704358827557E-02 
374	 6,91639131954874E-02 
375	 0,069257883573126 
376	 8,07597886357709E-02 
377	 9,41661506768449E-02 
378	 0,105439983972095 
379	 0,113499760687206 
380	 0,115641880691901 
381	 0,112958704762093 
382	 0,115459763526419 
383	 0,121706535959514 
384	 0,128554202067447 
385	 0,132848506827913 
386	 0,133577763592865 
387	 0,127986937634692 
388	 0,127172222335345 
389	 0,133154071596387 
390	 0,12803248670626 
391	 0,12691310135178 
392	 0,148167149640361 
393	 0,156862330817178 
394	 0,149204396955954 
395	 0,133049564759597 
396	 0,135502354633625 
397	 0,162549091513661 
398	 0,141785572171919 
399	 0,115831946178049 
400	 0,157970496796053 
401	 0,176088983739847 
402	 0,158718658278695 
403	 0,155500410040309 
404	 0,154853664139393 
405	 0,149251410166887 
406	 0,150687172073049 
407	 0,155468694661986 
408	 0,153254077043132 
409	 0,153557506198826 
410	 0,15708127481933 
411	 0,153350682112228 
412	 0,151001130133128 
413	 0,157595046586222 
414	 0,16032857274673 
415	 0,158438560467796 
416	 0,155621689727377 
417	 0,15655345630625 
418	 0,161334245210405 
419	 0,157406800018478 
420	 0,151251545429237 
421	 0,1521488241651 
422	 0,154752348774531 
423	 0,156341623016102 
424	 0,152067342849446 
425	 0,148579992479511 
426	 0,149743188340974 
427	 0,152585770151255 
428	 0,154824752708772 
429	 0,153308862271697 
430	 0,152049838745083 
431	 0,152031296976305 
432	 0,151350518412735 
433	 0,152301225378461 
434	 0,156462196421127 
435	 0,156374721553202 
436	 0,15314478648204 
437	 0,152685976506683 
438	 0,153889623481537 
439	 0,156185726950355 
440	 0,158588742433725 
441	 0,158656548574032 
442	 0,153623505366003 
443	 0,151549570203 
444	 0,153224358428697 
445	 0,154025364613056 
446	 0,153451598194446 
447	 0,151427325859833 
448	 0,150369422913839 
449	 0,15112601073664 
450	 0,154763101065079 
451	 0,156251952205173 
452	 0,155075079178867 
453	 0,157266054008317 
454	 0,1591261803445 
455	 0,157227986455807 
456	 0,156724737882129 
457	 0,157333381439666 
458	 0,15544793453989 
459	 0,153766455102829 
460	 0,153796407817307 
461	 0,157158532579948 
462	 0,160545202386543 
463	 0,159441818773679 
464	 0,158982976368157 
465	 0,160149402403118 
466	 0,16196850060596 
467	 0,161447818994255 
468	 0,157452623747062 
469	 0,159091222212272 
470	 0,162745141800689 
471	 0,158435021505894 
472	 0,15582497389767 
473	 0,157241636659958 
474	 0,157751859212149 
475	 0,158064532479642 
476	 0,159069265440211 
477	 0,159329429041561 
478	 0,159105893414067 
479	 0,160108229251376 
480	 0,16019427276421 
481	 0,158726616211485 
482	 0,158388478054763 
483	 0,159611524564496 
484	 0,16272805783147 
485	 0,161951373983069 
486	 0,157629920014664 
487	 0,157340554481619 
488	 0,158712907125199 
489	 0,159808332167408 
490	 0,161138581606847 
491	 0,162116252385788 
492	 0,161626304803386 
493	 0,159837670682321 
494	 0,157590860059825 
495	 0,158768581797586 
496	 0,160272463210577 
497	 0,158394959527323 
498	 0,157659834419689 
499	 0,158206802085606 
500	 0,156913334351497 
501	 0,157014230793264 
502	 0,159825842446551 
503	 0,160567064905843 
504	 0,159802065064137 
505	 0,159688904369582 
506	 0,158828057978938 
507	 0,157486886878114 
508	 0,158188953501807 
509	 0,159503030503253 
510	 0,160045718205035 
511	 0,160321289357336 
512	 0,160380905944837 
513	 0,160198141621522 
514	 0,159854685075162 
515	 0,1594438979899 
516	 0,159115824393917 
517	 0,159078180117301 
518	 0,159605010000267 
519	 0,15949243549167 
520	 0,158927415404018 
521	 0,159794433737431 
522	 0,160808509165609 
523	 0,160999038968188 
524	 0,160796957027299 
525	 0,16019806134121 
526	 0,158678658016849 
527	 0,15910297328771 
528	 0,161511054787998 
529	 0,160165135525336 
530	 0,158159957182487 
531	 0,15944591767803 
532	 0,160235103941685 
533	 0,160047499835998 
534	 0,160167497045565 
535	 0,160258642632314 
536	 0,160219768497896 
537	 0,160910744734681 
538	 0,161568761276825 
539	 0,160596223246012 
540	 0,159617894092649 
541	 0,159266869781112 
542	 0,159768457445242 
543	 0,160393755600762 
544	 0,160449988513687 
545	 0,160765692127012 
546	 0,1612916725874 
547	 0,161499578847902 
548	 0,161366138344384 
549	 0,161004953045497 
550	 0,161370714765636 
551	 0,161853283656374 
552	 0,161317129516361 
553	 0,161240387621013 
554	 0,161745110041345 
555	 0,161451423928451 
556	 0,161390069045526 
557	 0,162345319264002 
558	 0,162730880615192 
559	 0,162531648995691 
560	 0,162496162191832 
561	 0,162154730067273 
562	 0,161608764156183 
563	 0,162417477801306 
564	 0,163539430224563 
565	 0,163450236779804 
566	 0,163033814040839 
567	 0,162821960402872 
568	 0,163877118229901 
569	 0,164856219674037 
570	 0,164843720915391 
571	 0,164645891404303 
572	 0,164907102177151 
573	 0,166871303420253 
574	 0,168011281684513 
575	 0,167653367499508 
576	 0,167649635388322 
577	 0,167864452117683 
578	 0,168004885961578 
579	 0,168587429662186 
580	 0,169500271575422 
581	 0,1700594891513 
582	 0,170601127329241 
583	 0,171251095960047 
584	 0,171534817742242 
585	 0,171542518117971 
586	 0,17150599824736 
587	 0,171701616136308 
588	 0,172152039635312 
589	 0,172517767699118 
590	 0,172614768270018 
591	 0,172320679591363 
592	 0,172197703143567 
593	 0,172315025786693 
594	 0,172602855858957 
595	 0,172414817258761 
596	 0,171601171624276 
597	 0,171523580091046 
598	 0,171576455838556 
599	 0,170602299903709 
600	 0,170434532177603 
601	 0,171229201474785 
602	 0,171503101871163 
603	 0,171659460785495 
604	 0,171956903111261 
605	 0,171303218817359 
606	 0,170279687052799 
607	 0,170846810363402 
608	 0,170706698267253 
609	 0,169351097803122 
610	 0,16916251919406 
611	 0,169488009996059 
612	 0,169276786555295 
613	 0,169196998159147 
614	 0,169248242896518 
615	 0,168986621510879 
616	 0,168561622763847 
617	 0,168135413231074 
618	 0,168212525156018 
619	 0,168547231889071 
620	 0,168528246343859 
621	 0,168336969410742 
622	 0,168227669831796 
623	 0,169221916964235 
624	 0,170050025345702 
625	 0,169424555259237 
626	 0,169364958038081 
627	 0,169971287651258 
628	 0,170244263931466 
629	 0,170230067042611 
630	 0,170046678111271 
631	 0,170501284826844 
632	 0,171289832121598 
633	 0,171761748995925 
634	 0,17223461691041 
635	 0,172754944349979 
636	 0,173261895798438 
637	 0,173483222087093 
638	 0,173268002207815 
639	 0,173704664916856 
640	 0,174730430605362 
641	 0,175749077232395 
642	 0,176355628797189 
643	 0,176433252198384 
644	 0,17657905967857 
645	 0,17711580815602 
646	 0,178373956296192 
647	 0,178680981452925 
648	 0,177995131446326 
649	 0,17770419899113 
650	 0,177934557486175 
651	 0,17864987878477 
652	 0,17863190649861 
653	 0,178061629828967 
654	 0,177682599178142 
655	 0,177461681939826 
656	 0,177337760889398 
657	 0,176995744828477 
658	 0,17619619967692 
659	 0,174769717763097 
660	 0,174005448878932 
661	 0,17386508260139 
662	 0,173349023346001 
663	 0,172817341448317 
664	 0,172382489202639 
665	 0,171625248977849 
666	 0,170854177809606 
667	 0,170606848791693 
668	 0,170444882763452 
669	 0,170154658072939 
670	 0,169459320466193 
671	 0,168686288605388 
672	 0,168156039661305 
673	 0,168307271316571 
674	 0,168780181803851 
675	 0,168529539712841 
676	 0,16836651480194 
677	 0,168517624413011 
678	 0,168532483379951 
679	 0,168510255783385 
680	 0,168606676109497 
681	 0,168571691216105 
682	 0,168410179027512 
683	 0,168192619849516 
684	 0,168561103923776 
685	 0,16978142330112 
686	 0,170654436813828 
687	 0,171269075063494 
688	 0,172043934731362 
689	 0,173434859656293 
690	 0,175438094860505 
691	 0,177108753980461 
692	 0,179395351697501 
693	 0,183132989383207 
694	 0,187333913759208 
695	 0,19187555338224 
696	 0,196874999111273 
697	 0,202829894519279 
698	 0,209851390877631 
699	 0,21708529984939 
700	 0,225070390002402 
701	 0,234566738510235 
702	 0,243949328884097 
703	 0,2530165299169 
704	 0,26263459049928 
705	 0,272499702748122 
706	 0,282374136733812 
707	 0,292037830262954 
708	 0,301588141842362 
709	 0,311344794158444 
710	 0,320509659785924 
711	 0,328924051773397 
712	 0,337189628379164 
713	 0,345292936365914 
714	 0,353175548162678 
715	 0,360712391760338 
716	 0,367738153011967 
717	 0,373908406752778 
718	 0,379750185493529 
719	 0,385456561677928 
720	 0,390753652886239 
721	 0,395676890993909 
722	 0,40028854230783 
723	 0,404455659296133 
724	 0,408314383958271 
725	 0,412466254795739 
726	 0,415969333322606 
727	 0,418406037628327 
728	 0,421536840386637 
729	 0,424799725868598 
730	 0,426756504570328 
731	 0,428440220320521 
732	 0,430278569092435 
733	 0,432682082899117 
734	 0,434761215188276 
735	 0,435815551786781 
736	 0,437345226191974 
737	 0,439154647674499 
738	 0,439966813269149 
739	 0,44115177221009 
740	 0,443000642456466 
741	 0,444081466169568 
742	 0,444768941669874 
743	 0,445631386661186 
744	 0,446475445906877 
745	 0,447219470024259 
746	 0,4476190268924 
747	 0,448394165475135 
748	 0,44975507813616 
749	 0,450182121847879 
750	 0,450212044447941 
751	 0,450950824813255 
752	 0,451607404059067 
753	 0,452017227967296 
754	 0,452348247020718 
755	 0,452778527807544 
756	 0,453421007374667 
757	 0,454055982257421 
758	 0,454587643267352 
759	 0,454930402568324 
760	 0,455018032357799 
761	 0,454942228741047 
762	 0,455156715475004 
763	 0,45555978540185 
764	 0,456014558323353 
765	 0,45632119272043 
766	 0,456486341936002 
767	 0,456601962305503 
768	 0,456989911051465 
769	 0,45766906654049 
770	 0,457943034259386 
771	 0,457914873775494 
772	 0,457788696717737 
773	 0,457762188936428 
774	 0,457956664560281 
775	 0,458521502850324 
776	 0,459183412297536 
777	 0,459702239847874 
778	 0,459616719546517 
779	 0,459360619238387 
780	 0,459636011554219 
781	 0,459828619995506 
782	 0,459837700696724 
783	 0,459859033812337 
784	 0,460058358514868 
785	 0,460494239970018 
786	 0,460703188552682 
787	 0,460674710131184 
788	 0,460493773989942 
789	 0,460678274217229 
790	 0,461131956321506 
791	 0,460657394755068 
792	 0,460359187681545 
793	 0,461066140624286 
794	 0,46151863335301 
795	 0,461649431003281 
796	 0,461763978258856 
797	 0,462064516832435 
798	 0,462499317814955 
799	 0,462399204546657 
800	 0,462225872277856 
801	 0,462440694588159 
802	 0,462855915134237 
803	 0,463253536441927 
804	 0,463169741649578 
805	 0,463086847095612 
806	 0,463217472066752 
807	 0,463591478186875 
808	 0,464060644060652 
809	 0,464462712434118 
810	 0,464881917963045 
811	 0,465340208682794 
812	 0,46593011427981 
813	 0,466171536000573 
814	 0,465996621780301 
815	 0,46632818110343 
816	 0,466862905903643 
817	 0,467142024093543 
818	 0,467153358659265 
819	 0,467158258229759 
820	 0,467998680051689 
821	 0,468599807820193 
822	 0,46856406577786 
823	 0,468979061691712 
824	 0,469541970528369 
825	 0,469734277344484 
826	 0,469889234448461 
827	 0,470069314690685 
828	 0,47016369908971 
829	 0,470541826874212 
830	 0,471295724710292 
831	 0,471699292530565 
832	 0,471798358244621 
833	 0,471775222364439 
834	 0,472206701992858 
835	 0,472954784038749 
836	 0,473056514095845 
837	 0,473038494716896 
838	 0,473158341790153 
839	 0,473034162350436 
840	 0,473070278492386 
841	 0,47386293240017 
842	 0,474289433777503 
843	 0,474186169438624 
844	 0,473988980668876 
845	 0,474146789279648 
846	 0,474797276934906 
847	 0,47492975614561 
848	 0,474774787859875 
849	 0,474822601868235 
850	 0,475134059221983 
851	 0,475612697612324 
852	 0,47594347439356 
853	 0,475797355029897 
854	 0,475156161394167 
855	 0,475156506854297 
856	 0,475650924000314 
857	 0,476238079082871 
858	 0,476522413988291 
859	 0,476489244639691 
860	 0,476530562477771 
861	 0,476425189503138 
862	 0,476229891794707 
863	 0,477003025257471 
864	 0,477974572384629 
865	 0,478023229458777 
866	 0,477938126744053 
867	 0,477945799522789 
868	 0,478111179488413 
869	 0,478462770148071 
870	 0,478946698542346 
871	 0,479151913548922 
872	 0,479325086050283 
873	 0,479801493866211 
874	 0,480299667740505 
875	 0,480688084837612 
876	 0,480779720929552 
877	 0,480871884039735 
878	 0,481119149430075 
879	 0,481555122091688 
880	 0,481963341062485 
881	 0,482131582618706 
882	 0,482537557927099 
883	 0,483107753254736 
884	 0,483413883078164 
885	 0,483650293028086 
886	 0,483807848601567 
887	 0,483471456400789 
888	 0,483341038002838 
889	 0,48404774440819 
890	 0,484800112570653 
891	 0,485406444117517 
892	 0,485877254988513 
893	 0,485674117216236 
894	 0,484947251433964 
895	 0,485110993201647 
896	 0,485466119450105 
897	 0,485476571811788 
898	 0,485868859613649 
899	 0,486416607598492 
900	 0,486519525345675 
901	 0,487119183189447 
902	 0,488051637906721 
903	 0,487718867785678 
904	 0,487267453087992 
905	 0,487394109882026 
906	 0,487439963387315 
907	 0,487430871439094 
908	 0,487503025928522 
909	 0,487734850344312 
910	 0,488078920493434 
911	 0,488407856769576 
912	 0,488307805059876 
913	 0,487743815744533 
914	 0,487780000627471 
915	 0,488025017870821 
916	 0,48794597347566 
917	 0,487800805046452 
918	 0,487735329252579 
919	 0,488057007546825 
920	 0,487985497219225 
921	 0,487431054288787 
922	 0,487304320236112 
923	 0,487696378542538 
924	 0,488509591314195 
925	 0,488595178398207 
926	 0,487686031348078 
927	 0,485623808601629 
928	 0,485096012463552 
929	 0,486167703326452 
930	 0,485956316429542 
931	 0,485129866387291 
932	 0,484226675661432 
933	 0,484094805251023 
934	 0,484326214391775 
935	 0,484254793764332 
936	 0,483973175245263 
937	 0,483488904992946 
938	 0,48268571970068 
939	 0,482763636862295 
940	 0,483508117662231 
941	 0,481234454423493 
942	 0,479123961677256 
943	 0,479896478980065 
944	 0,479368309124791 
945	 0,477931359715096 
946	 0,477682479573051 
947	 0,475946091110515 
948	 0,473067135709509 
949	 0,47318655880995 
950	 0,472517826886444 
951	 0,469601071645215 
952	 0,470309887674724 
953	 0,471355681072147 
954	 0,468278821299776 
955	 0,465847731113105 
956	 0,46465818574196 
957	 0,463564175741285 
958	 0,462356441200762 
959	 0,461156267435918 
960	 0,46115137668034 
961	 0,461210179463956 
962	 0,460459688884824 
963	 0,459529864405798 
964	 0,458729312254044 
965	 0,458384751400415 
966	 0,456927994577095 
967	 0,454956037795222 
968	 0,455300839619911 
969	 0,456964855084791 
970	 0,458985838807715 
971	 0,458877991890957 
972	 0,458132774634441 
973	 0,458215570235825 
974	 0,45760282087348 
975	 0,456991271834111 
976	 0,4579907914765 
977	 0,458604480965089 
978	 0,458465090976035 
979	 0,458618669901387 
980	 0,457570679092977 
981	 0,455307828596975 
982	 0,455998930139987 
983	 0,457955727590731 
984	 0,459053216025478 
985	 0,459116714111803 
986	 0,458702547239617 
987	 0,458992086969793 
988	 0,46032415891008 
989	 0,462641070416362 
990	 0,465837475483398 
991	 0,465500677942935 
992	 0,460733038103644 
993	 0,460953572358829 
994	 0,463165544863799 
995	 0,463506712838864 
996	 0,463954254534411 
997	 0,464204482106581 
998	 0,463008625910974 
999	 0,465325292081163 
1000	 0,469993603343486 
1001	 0,467473707770403 
1002	 0,465680404983469 
1003	 0,468103811311886 
1004	 0,470015113611035 
1005	 0,470276490519371 
1006	 0,468551077873057 
1007	 0,470020057668558 
1008	 0,472598416156525 
1009	 0,470941502414784 
1010	 0,471560293546704 
1011	 0,474211884377676 
1012	 0,471851895351767 
1013	 0,471826718311125 
1014	 0,476159161958114 
1015	 0,477576056097675 
1016	 0,478119150039021 
1017	 0,479450495224635 
1018	 0,477226228784902 
1019	 0,475269439038854 
1020	 0,47982691123623 
1021	 0,48254414693169 
1022	 0,482050840709687 
1023	 0,479975789236422 
1024	 0,482443293339459 
1025	 0,488873273675559 
1026	 0,485922986503155 
1027	 0,483826584099744 
1028	 0,488492875285189 
1029	 0,488934275628949 
1030	 0,48956664625299 
1031	 0,495989976845503 
1032	 0,493864619723363 
1033	 0,486368433353597 
1034	 0,484904291941463 
1035	 0,48721384600133 
1036	 0,492007293872114 
1037	 0,497364684675132 
1038	 0,497544529312429 
1039	 0,492854660239021 
1040	 0,502095605233609 
1041	 0,508265486734033 
1042	 0,498547397602953 
1043	 0,493092304720675 
1044	 0,490830192510247 
1045	 0,486708661516144 
1046	 0,494572365280203 
1047	 0,507419049884936 
1048	 0,501524838860453 
1049	 0,496200712405869 
1050	 0,495770914103187 
1051	 0,491923158655535 
1052	 0,492162226596696 
1053	 0,498809865565417 
1054	 0,503350118934034 
1055	 0,500727908344323 
1056	 0,49014913295936 
1057	 0,499805958923477 
1058	 0,512554046835906 
1059	 0,500786488259337 
1060	 0,491560956704881 
1061	 0,49343733784909 
1062	 0,511708126878697 
1063	 0,519650287697939 
1064	 0,511403669787592 
1065	 0,501824113058889 
1066	 0,492493752389946 
1067	 0,487690289868023 
1068	 0,501172934190337 
1069	 0,511462738622456 
1070	 0,503865966099878 
1071	 0,501574314406974 
1072	 0,501480454387276 
1073	 0,497011840876501 
1074	 0,493800848961372 
1075	 0,495893248404593 
