Wavelength	GRA-VAN00549.asd
325	 0,113792218380566 
326	 0,245787630078495 
327	 0,284122356389489 
328	 0,196385842791519 
329	 0,374632101725066 
330	 0,608478242782261 
331	 0,457748644228755 
332	 0,387769374280831 
333	 0,350797266514806 
334	 0,265075426268979 
335	 0,235479677237392 
336	 0,28766133945539 
337	 0,305266972475368 
338	 0,260434500265659 
339	 0,119349433218334 
340	 0,106948821959343 
341	 0,190242311600428 
342	 0,242615754819261 
343	 0,217475507943016 
344	 0,133402800203119 
345	 9,22900321626779E-02 
346	 0,119089508391078 
347	 0,230891231807337 
348	 0,206683481350633 
349	 9,36167019001038E-02 
350	 0,123838847772828 
351	 0,17754110947296 
352	 0,197535281587006 
353	 0,191955608825812 
354	 0,1809659509963 
355	 0,186241618369169 
356	 0,186797036638663 
357	 0,17933453081266 
358	 0,162335851765844 
359	 0,155750486302534 
360	 0,171364426384159 
361	 0,210383116705384 
362	 0,236102940966705 
363	 0,196477132921439 
364	 0,18773408292026 
365	 0,218263516985393 
366	 0,224674576461135 
367	 0,208559339223762 
368	 0,178979916070654 
369	 0,194406225149837 
370	 0,220774584419935 
371	 0,181708489082653 
372	 0,179049850649029 
373	 0,219725934584372 
374	 0,20486554963858 
375	 0,184560068004391 
376	 0,19807168748807 
377	 0,198166246369408 
378	 0,191377613520001 
379	 0,209744611325933 
380	 0,209572474289069 
381	 0,187282255176879 
382	 0,192075797069675 
383	 0,200304053029183 
384	 0,1896735528637 
385	 0,197731023541954 
386	 0,214402602520188 
387	 0,199320269352001 
388	 0,184278620320358 
389	 0,183881258605057 
390	 0,19273532521191 
391	 0,201306188058882 
392	 0,199639437733997 
393	 0,19144815151116 
394	 0,183917840777929 
395	 0,19579946448993 
396	 0,202221103809777 
397	 0,193754508152729 
398	 0,201639356703543 
399	 0,210823784435141 
400	 0,194036232584893 
401	 0,189584598903607 
402	 0,200290427857121 
403	 0,199869479115122 
404	 0,190458737791409 
405	 0,176510117605755 
406	 0,184580874417055 
407	 0,204434725878315 
408	 0,21230903161571 
409	 0,212892833932711 
410	 0,20809648229151 
411	 0,203682236295746 
412	 0,198193077113658 
413	 0,190676754345387 
414	 0,19290196052002 
415	 0,198745648304556 
416	 0,186424158309625 
417	 0,180855319885697 
418	 0,190291600952036 
419	 0,196575006081013 
420	 0,199851199464396 
421	 0,202804310926226 
422	 0,200848190137692 
423	 0,195098116317431 
424	 0,19152327308889 
425	 0,190833585563366 
426	 0,193315630816319 
427	 0,198064995977488 
428	 0,201395910269533 
429	 0,19743424307836 
430	 0,193797944129829 
431	 0,192417467710512 
432	 0,189681842349294 
433	 0,190571357032712 
434	 0,198520559450852 
435	 0,197979646754019 
436	 0,191744625971471 
437	 0,194787935368001 
438	 0,196640687810063 
439	 0,194084174138837 
440	 0,193195547400175 
441	 0,194342535685639 
442	 0,197269172608193 
443	 0,198413961088353 
444	 0,197681905902876 
445	 0,198420569680498 
446	 0,197481587084625 
447	 0,193752621690102 
448	 0,19490713767187 
449	 0,198901136389747 
450	 0,200160167893833 
451	 0,199600646096488 
452	 0,197827074932885 
453	 0,196797147152891 
454	 0,196103318090321 
455	 0,195491265125876 
456	 0,199029548318821 
457	 0,204133367033538 
458	 0,202314686863614 
459	 0,200562969304663 
460	 0,20147942673311 
461	 0,201007064930478 
462	 0,200225031729043 
463	 0,201025644597604 
464	 0,19970326577187 
465	 0,197195254158581 
466	 0,200110542950747 
467	 0,202300526320251 
468	 0,200324216779194 
469	 0,202291782594149 
470	 0,206017429938298 
471	 0,205120204995853 
472	 0,203267315635056 
473	 0,20208171520926 
474	 0,203051538367481 
475	 0,204910515238856 
476	 0,206233194928749 
477	 0,206232010442007 
478	 0,205125576961489 
479	 0,203762551657248 
480	 0,203504670869892 
481	 0,204715534612955 
482	 0,204512586496893 
483	 0,203908261318353 
484	 0,204910107169889 
485	 0,204417211880708 
486	 0,202409574193301 
487	 0,201885355251428 
488	 0,202115615910079 
489	 0,202444348515941 
490	 0,202200005309042 
491	 0,201985306516744 
492	 0,203643732743162 
493	 0,204525109908462 
494	 0,203880215642208 
495	 0,20353062110614 
496	 0,202488437902001 
497	 0,199572835188748 
498	 0,200142526755409 
499	 0,203609089398262 
500	 0,204447339303449 
501	 0,204540024476738 
502	 0,204848189877667 
503	 0,204324652729092 
504	 0,20399608319489 
505	 0,205884358924315 
506	 0,206740491438223 
507	 0,206203575255497 
508	 0,20735543014881 
509	 0,208506588185281 
510	 0,208137811287403 
511	 0,209075800898911 
512	 0,210340755614642 
513	 0,207749944771461 
514	 0,206307215585786 
515	 0,207931741761469 
516	 0,209692269606414 
517	 0,210926486158343 
518	 0,211218639827112 
519	 0,210879263722553 
520	 0,21038525579091 
521	 0,211068038634792 
522	 0,211328055751748 
523	 0,210223743624952 
524	 0,211024426395329 
525	 0,212809598174543 
526	 0,212562430962104 
527	 0,211237656164882 
528	 0,20953702052512 
529	 0,209458137096778 
530	 0,210047451906522 
531	 0,210031119412387 
532	 0,209561469223002 
533	 0,208930892678313 
534	 0,208991121770398 
535	 0,20918649030206 
536	 0,209233478558494 
537	 0,209700480747644 
538	 0,21031193800623 
539	 0,210437293317357 
540	 0,210727532479727 
541	 0,21110912592775 
542	 0,210313520233549 
543	 0,209427187173763 
544	 0,209562184077084 
545	 0,210410948337585 
546	 0,21140857410436 
547	 0,211209484480566 
548	 0,2109470470463 
549	 0,211179145086447 
550	 0,211645803370156 
551	 0,212054593715426 
552	 0,212012095568963 
553	 0,211779656729172 
554	 0,21149500292902 
555	 0,21131176794044 
556	 0,2113150884296 
557	 0,211529660872757 
558	 0,211401902905105 
559	 0,211024660935212 
560	 0,210992800414722 
561	 0,210400528898056 
562	 0,209195885093075 
563	 0,209325266902399 
564	 0,209907518330032 
565	 0,209563044498049 
566	 0,20938302241398 
567	 0,209626473763257 
568	 0,210258109037585 
569	 0,210749793609657 
570	 0,210784208704392 
571	 0,21108771790942 
572	 0,211815387382227 
573	 0,213052652045972 
574	 0,214339839183537 
575	 0,215469017941711 
576	 0,216480375319496 
577	 0,217563031323155 
578	 0,218908872148728 
579	 0,219930711323538 
580	 0,220728232004513 
581	 0,22207906651039 
582	 0,223330658401056 
583	 0,224098951505317 
584	 0,224484856403999 
585	 0,224886552377341 
586	 0,225991542352712 
587	 0,226701805763622 
588	 0,226999106959818 
589	 0,228363551911884 
590	 0,229918813667672 
591	 0,230801919337297 
592	 0,23152632313527 
593	 0,232089599464734 
594	 0,232231817516788 
595	 0,232253257941612 
596	 0,232342826894629 
597	 0,232606187831624 
598	 0,233012236528933 
599	 0,233526586081871 
600	 0,233193456542363 
601	 0,232303473571712 
602	 0,233152539596169 
603	 0,23392500869695 
604	 0,233133266949783 
605	 0,231169368151138 
606	 0,229188953980434 
607	 0,229892215752723 
608	 0,230145053342031 
609	 0,228925355454321 
610	 0,227839112174894 
611	 0,227137451351652 
612	 0,226949634464488 
613	 0,226765969849116 
614	 0,2264833850922 
615	 0,22633172794707 
616	 0,225926837941923 
617	 0,225162371261869 
618	 0,225386493002401 
619	 0,22612670632919 
620	 0,226169744864916 
621	 0,225465452392458 
622	 0,224309072142193 
623	 0,224233976754523 
624	 0,224769898062493 
625	 0,225313677006628 
626	 0,225631858296314 
627	 0,225720507558701 
628	 0,225868877755248 
629	 0,225770109187883 
630	 0,225410015236424 
631	 0,225735131003734 
632	 0,22656709775624 
633	 0,227444115735252 
634	 0,228177975934656 
635	 0,228692770140741 
636	 0,229051373244408 
637	 0,229498253219231 
638	 0,230252788281342 
639	 0,231389381299293 
640	 0,232629276377728 
641	 0,233281345589302 
642	 0,233909094679219 
643	 0,234653490018301 
644	 0,234964926276928 
645	 0,235115816694265 
646	 0,235514493284046 
647	 0,235905683569019 
648	 0,235967472544609 
649	 0,234880182233505 
650	 0,233522696848086 
651	 0,232552521283639 
652	 0,231997596179304 
653	 0,231709222206083 
654	 0,231466180373598 
655	 0,230560318559987 
656	 0,228855400525708 
657	 0,227127417913414 
658	 0,225420335539273 
659	 0,223738025859062 
660	 0,22226074276278 
661	 0,220962200143835 
662	 0,219661212763878 
663	 0,218369892516446 
664	 0,217138660252447 
665	 0,21629356075295 
666	 0,215654051420674 
667	 0,214883549761229 
668	 0,214216320424508 
669	 0,213735578435054 
670	 0,213495894001805 
671	 0,213403784507001 
672	 0,213364489330383 
673	 0,213237542467145 
674	 0,213053559542324 
675	 0,213000270219081 
676	 0,212699706456998 
677	 0,212208089690132 
678	 0,21263139327767 
679	 0,213271088483398 
680	 0,213204724825546 
681	 0,213034736025691 
682	 0,213111820878434 
683	 0,213965091803206 
684	 0,215342618203446 
685	 0,216992162127051 
686	 0,218179083257397 
687	 0,219372235895339 
688	 0,22155906535922 
689	 0,224081980026307 
690	 0,226934929055729 
691	 0,230750937554689 
692	 0,235342408484863 
693	 0,240545696158511 
694	 0,246549354214099 
695	 0,253398221441472 
696	 0,26114475747087 
697	 0,269426932117121 
698	 0,27816417547869 
699	 0,287932554725462 
700	 0,298429747668532 
701	 0,309185599765796 
702	 0,320470651237218 
703	 0,331968555706713 
704	 0,342670199313898 
705	 0,353236776765631 
706	 0,364008424436298 
707	 0,374359491766264 
708	 0,384365627340245 
709	 0,394298585524605 
710	 0,403774514241738 
711	 0,412630222293484 
712	 0,420615430408214 
713	 0,428504304530941 
714	 0,436925256821678 
715	 0,444303774753878 
716	 0,450679193003485 
717	 0,456932612988964 
718	 0,462920033538015 
719	 0,468616896972802 
720	 0,473939308691144 
721	 0,478822317202176 
722	 0,483216490139924 
723	 0,487141899137579 
724	 0,4906855487628 
725	 0,494050635224642 
726	 0,497047378660884 
727	 0,499597702364859 
728	 0,501998112102046 
729	 0,50426012834539 
730	 0,50630507298187 
731	 0,508338506811711 
732	 0,510335414874921 
733	 0,511924538632015 
734	 0,513228692496182 
735	 0,5143719255282 
736	 0,515248122540597 
737	 0,516135344846154 
738	 0,517847399307693 
739	 0,518923057271848 
740	 0,519014016320346 
741	 0,519654260359793 
742	 0,520480119099453 
743	 0,520932342850134 
744	 0,52159164851716 
745	 0,522360340717786 
746	 0,52253342838313 
747	 0,522762451487363 
748	 0,523346410490514 
749	 0,523698660792099 
750	 0,523987996573528 
751	 0,524579496129606 
752	 0,525045880883868 
753	 0,525328774814182 
754	 0,525719383248412 
755	 0,525978342745332 
756	 0,525969023536033 
757	 0,526166397864412 
758	 0,526435818693308 
759	 0,52630838229406 
760	 0,526494014244818 
761	 0,527047934696535 
762	 0,527028612411695 
763	 0,527088950860894 
764	 0,527804600374781 
765	 0,527655438652222 
766	 0,526924179901515 
767	 0,527090320038769 
768	 0,527304244900972 
769	 0,527319146556984 
770	 0,527647436136219 
771	 0,528000898131899 
772	 0,528001768626957 
773	 0,527701683391718 
774	 0,52733349101528 
775	 0,527563780119274 
776	 0,527730881609668 
777	 0,527507524621948 
778	 0,527194737072101 
779	 0,5270360920489 
780	 0,527333352610727 
781	 0,527333924010792 
782	 0,527025002415657 
783	 0,527178499432227 
784	 0,527238771499952 
785	 0,526908341537826 
786	 0,526912578455487 
787	 0,527229123879177 
788	 0,527653536849872 
789	 0,527825896299638 
790	 0,527674054728801 
791	 0,527492154648674 
792	 0,527321189398117 
793	 0,52717833500996 
794	 0,526893880944083 
795	 0,526587380499193 
796	 0,526565522165479 
797	 0,526572282887997 
798	 0,526538088845727 
799	 0,526611919347184 
800	 0,526546453725012 
801	 0,526146167206844 
802	 0,526053106852676 
803	 0,526258280215791 
804	 0,526419197875605 
805	 0,526545971221277 
806	 0,526650214029174 
807	 0,526961244151391 
808	 0,526996249129888 
809	 0,526295706045464 
810	 0,526351685216493 
811	 0,527076522639282 
812	 0,527340448150594 
813	 0,527411106779332 
814	 0,527393667297553 
815	 0,52741144526639 
816	 0,527462739664174 
817	 0,527525342271506 
818	 0,527543762039118 
819	 0,527543862272708 
820	 0,527632202931838 
821	 0,527815867637235 
822	 0,528004656605189 
823	 0,527600072538884 
824	 0,527181392056911 
825	 0,527545160969338 
826	 0,528010736475683 
827	 0,528277002786527 
828	 0,527963151618256 
829	 0,527708267478618 
830	 0,527788626489959 
831	 0,527563700945374 
832	 0,527176309438971 
833	 0,526907573953205 
834	 0,527411808911638 
835	 0,528344434787363 
836	 0,52805420228241 
837	 0,52767441017228 
838	 0,527797731644746 
839	 0,527995614126679 
840	 0,527951023860702 
841	 0,527296287022351 
842	 0,526976077130331 
843	 0,527133647153508 
844	 0,527390921031181 
845	 0,527414840120335 
846	 0,527098139426697 
847	 0,527177952691218 
848	 0,527478712959902 
849	 0,527633197550291 
850	 0,527787507660726 
851	 0,527833928489617 
852	 0,527309266000796 
853	 0,526970098810887 
854	 0,527185010919454 
855	 0,527434133620463 
856	 0,527270254746332 
857	 0,526195806555267 
858	 0,526368368302238 
859	 0,527564439727123 
860	 0,527208442566252 
861	 0,526984160199939 
862	 0,52758679972557 
863	 0,527609530339883 
864	 0,527194541423172 
865	 0,526726661271213 
866	 0,526751125363851 
867	 0,527254117508802 
868	 0,527805848608638 
869	 0,527851794286047 
870	 0,527303751068902 
871	 0,527547714089455 
872	 0,527920287994799 
873	 0,527504531179712 
874	 0,527563932625599 
875	 0,528072119529254 
876	 0,528217704618667 
877	 0,527944506486846 
878	 0,52736353156353 
879	 0,527293086039336 
880	 0,527576626315915 
881	 0,527940769881235 
882	 0,527989426374941 
883	 0,527750174830042 
884	 0,527467973182053 
885	 0,527703403654435 
886	 0,528389282275798 
887	 0,527932310742192 
888	 0,527502405547458 
889	 0,528159265670921 
890	 0,527777074557961 
891	 0,527068890679955 
892	 0,528518675796682 
893	 0,529033849017666 
894	 0,528064198143976 
895	 0,527982018231759 
896	 0,528266806607029 
897	 0,528418608933611 
898	 0,528254322480592 
899	 0,527978311235262 
900	 0,528021480577227 
901	 0,528022601314505 
902	 0,527957824391225 
903	 0,528123207483564 
904	 0,52832896509145 
905	 0,528405992670117 
906	 0,528041414165112 
907	 0,527781266605478 
908	 0,528426134280053 
909	 0,528229350884998 
910	 0,527322192833746 
911	 0,527540838088917 
912	 0,527722830173297 
913	 0,527434375416868 
914	 0,527553513936827 
915	 0,527655234175296 
916	 0,527236161919903 
917	 0,527225246162231 
918	 0,527518941075952 
919	 0,527457635019746 
920	 0,526802389913263 
921	 0,525790435690682 
922	 0,525991191606934 
923	 0,526428001271329 
924	 0,526222319767847 
925	 0,525804773159156 
926	 0,52518125785502 
927	 0,524216209321963 
928	 0,52409473984363 
929	 0,524619705487368 
930	 0,523757283884267 
931	 0,522613711610554 
932	 0,521978084027687 
933	 0,522463773704039 
934	 0,52293467833716 
935	 0,521904632795021 
936	 0,520941562478717 
937	 0,520405132333372 
938	 0,520334188424058 
939	 0,519730169758253 
940	 0,518436386394329 
941	 0,517864231176497 
942	 0,51764986495323 
943	 0,517273050491074 
944	 0,515483674861362 
945	 0,513374308494018 
946	 0,513349113545157 
947	 0,512304360517037 
948	 0,510191800295595 
949	 0,510356413527545 
950	 0,510010849391968 
951	 0,507802358068971 
952	 0,506059468824967 
953	 0,505033444272088 
954	 0,504704491101433 
955	 0,505424826952596 
956	 0,505854957051096 
957	 0,502436537867085 
958	 0,499815284385082 
959	 0,499287035840475 
960	 0,498473148065714 
961	 0,497642586257898 
962	 0,497097388487167 
963	 0,49727930562099 
964	 0,497427364686057 
965	 0,496337040164363 
966	 0,496023069006073 
967	 0,496455228899991 
968	 0,495955044152493 
969	 0,495088907593386 
970	 0,494358592201453 
971	 0,495085898482187 
972	 0,495901430139271 
973	 0,49558436407425 
974	 0,496011478346629 
975	 0,49623495260336 
976	 0,494022180310876 
977	 0,493384904202245 
978	 0,494854664750568 
979	 0,4963723140623 
980	 0,496049001142096 
981	 0,493797122583628 
982	 0,495284989745323 
983	 0,497517595691739 
984	 0,497107247660177 
985	 0,497016606339815 
986	 0,497204311138555 
987	 0,496561431780028 
988	 0,496569721371801 
989	 0,497941174431184 
990	 0,502107264244369 
991	 0,502766221863152 
992	 0,498075473968349 
993	 0,498475322423771 
994	 0,500887903528055 
995	 0,501282962502684 
996	 0,501841563823177 
997	 0,50309817589789 
998	 0,505568843122148 
999	 0,505627641890107 
1000	 0,50330264595722 
1001	 0,502388585912972 
1002	 0,503224902954102 
1003	 0,505484505533763 
1004	 0,505554554922006 
1005	 0,50597935436549 
1006	 0,509178175410647 
1007	 0,51078780346456 
1008	 0,510492631531118 
1009	 0,509159661438087 
1010	 0,507807917680397 
1011	 0,507467045003705 
1012	 0,509753446826064 
1013	 0,513684049241259 
1014	 0,517579014416338 
1015	 0,515563812221749 
1016	 0,514542450625056 
1017	 0,51953029818381 
1018	 0,519297511662409 
1019	 0,515302551933347 
1020	 0,512380624940089 
1021	 0,513045918875355 
1022	 0,51653392133761 
1023	 0,518668064417759 
1024	 0,519903854976961 
1025	 0,520852891107517 
1026	 0,524695776896068 
1027	 0,526787279825198 
1028	 0,524526019448133 
1029	 0,523244129680188 
1030	 0,523394442254102 
1031	 0,52470541152082 
1032	 0,52577968394164 
1033	 0,526955779407298 
1034	 0,529744618137147 
1035	 0,527651787713352 
1036	 0,52216646160506 
1037	 0,525437580474797 
1038	 0,526889073056322 
1039	 0,523621315270723 
1040	 0,527113980635946 
1041	 0,531087391843714 
1042	 0,530101070936967 
1043	 0,527765841117618 
1044	 0,526531408803871 
1045	 0,528806951951373 
1046	 0,527555214854337 
1047	 0,524299199421223 
1048	 0,525651921777824 
1049	 0,534457590448416 
1050	 0,546379113974223 
1051	 0,544253686634227 
1052	 0,537611239916817 
1053	 0,532396360737924 
1054	 0,528580509575041 
1055	 0,52973947163992 
1056	 0,536906894938398 
1057	 0,532093505831699 
1058	 0,528093307008456 
1059	 0,544934723886289 
1060	 0,544735140832221 
1061	 0,532222311918494 
1062	 0,537293109265611 
1063	 0,535324372821299 
1064	 0,524819006966607 
1065	 0,527390213981356 
1066	 0,530368611333034 
1067	 0,528811060056078 
1068	 0,529505487567451 
1069	 0,532928311835035 
1070	 0,53898984874238 
1071	 0,545290785398523 
1072	 0,550454846350088 
1073	 0,552532360994507 
1074	 0,539383449305909 
1075	 0,526410591781458 
