Wavelength	GRA-VAN00590.asd
325	 0,294659761750185 
326	 0,180179489146276 
327	 0,100922973784115 
328	 0,159297385829996 
329	 0,105542428071354 
330	 0,100653132540145 
331	 0,25748905451112 
332	 0,262688101169663 
333	 0,197735300914463 
334	 0,133563461254975 
335	 0,118360815283047 
336	 0,161357611752412 
337	 0,169448342550119 
338	 0,148811544365075 
339	 9,93770330211927E-02 
340	 8,88817775997969E-02 
341	 9,88013509902178E-02 
342	 4,63501475371332E-02 
343	 3,28290979304248E-02 
344	 7,72186681808524E-02 
345	 9,60507908671666E-02 
346	 0,109543150464429 
347	 0,126792322046327 
348	 6,10011407303722E-02 
349	-3,99628485295773E-02 
350	 2,68273347074679E-02 
351	 8,88077664049289E-02 
352	 8,02764279057382E-02 
353	 7,74931313935229E-02 
354	 6,49501457808297E-02 
355	 2,13074965093909E-02 
356	 3,12963740374761E-02 
357	 6,99771653389631E-02 
358	 1,89151837369156E-02 
359	 6,51915380066667E-05 
360	 6,31083462731973E-02 
361	 0,102611706702897 
362	 0,103789393805398 
363	 5,48785178555084E-02 
364	 3,11562899917851E-02 
365	 4,37911774928824E-02 
366	 5,01381013337918E-02 
367	 0,058354449403933 
368	 0,070462394840314 
369	 6,72362477887408E-02 
370	 4,62092377532888E-02 
371	 7,61585029414279E-04 
372	 4,75284344714622E-03 
373	 5,18539098323055E-02 
374	 2,61205152163072E-02 
375	-8,91509362039522E-03 
376	-3,5024526301273E-04 
377	 1,25082810895116E-02 
378	 2,23432023808123E-02 
379	 2,43954398544065E-02 
380	 0,022809670977478 
381	 2,36638437537988E-02 
382	 4,99180936775959E-02 
383	 6,37658876155799E-02 
384	 3,44779523327554E-02 
385	 3,98059404819958E-02 
386	 6,44481529621521E-02 
387	 3,12624587296312E-02 
388	 1,18466275402545E-02 
389	 2,98770945968636E-02 
390	 2,90388239582194E-02 
391	 1,80358066295418E-02 
392	 1,19210633765689E-02 
393	 2,16526426474463E-02 
394	 3,76314451319961E-02 
395	 2,40261865793781E-02 
396	 1,12287026837678E-02 
397	 1,43603069916557E-02 
398	 2,38512641950973E-02 
399	 2,92318742225597E-02 
400	 1,67856480129645E-02 
401	 1,40576594373506E-02 
402	 2,35760200292747E-02 
403	 2,82822570482815E-02 
404	 2,40963879630785E-02 
405	 0,01041716462533 
406	 1,29289551783894E-02 
407	 2,39244905569915E-02 
408	 2,23829084260007E-02 
409	 1,93004496285278E-02 
410	 1,72196237897692E-02 
411	 1,21445209264231E-02 
412	 9,59511488274263E-03 
413	 0,01442858520685 
414	 2,00010783197083E-02 
415	 2,24147012958715E-02 
416	 1,48542037764651E-02 
417	 8,61061767874794E-03 
418	 9,34657993694942E-03 
419	 1,81868972256207E-02 
420	 2,70762321344744E-02 
421	 2,68712693665388E-02 
422	 0,02363560699666 
423	 1,98559138581177E-02 
424	 1,81862485455254E-02 
425	 1,77315837383079E-02 
426	 1,78214569472292E-02 
427	 1,78812671499398E-02 
428	 1,78248646223801E-02 
429	 1,80014619557774E-02 
430	 0,015634641609826 
431	 1,12893290778058E-02 
432	 1,06363224831029E-02 
433	 1,31312857276451E-02 
434	 0,017448780409185 
435	 1,46238189266665E-02 
436	 8,02272905092048E-03 
437	 0,010835385091896 
438	 1,30102889103573E-02 
439	 0,011160040408816 
440	 9,96831788970904E-03 
441	 1,05140894587647E-02 
442	 1,35925798659168E-02 
443	 1,48386558048137E-02 
444	 1,41807126978389E-02 
445	 1,58072801217855E-02 
446	 1,50937313532657E-02 
447	 1,02800667166338E-02 
448	 1,20441032862243E-02 
449	 1,70568230716555E-02 
450	 1,62041618263177E-02 
451	 1,74922867800508E-02 
452	 2,14306902217189E-02 
453	 1,98193622833159E-02 
454	 1,58952327401131E-02 
455	 1,32528744281722E-02 
456	 0,016162742745175 
457	 2,06611127187512E-02 
458	 1,35773757699812E-02 
459	 9,53472020644925E-03 
460	 1,35236428063975E-02 
461	 1,33052198385427E-02 
462	 1,16205979267989E-02 
463	 1,35906906065002E-02 
464	 1,37949296494571E-02 
465	 1,22469552555467E-02 
466	 1,35626873046592E-02 
467	 1,59706876605852E-02 
468	 1,81282934052965E-02 
469	 1,93581060717902E-02 
470	 1,93939455997517E-02 
471	 1,79476336877318E-02 
472	 0,016654508132375 
473	 1,63258975921064E-02 
474	 1,72729558644456E-02 
475	 1,86549941008871E-02 
476	 1,95597424062242E-02 
477	 1,91918839615854E-02 
478	 1,79789766670211E-02 
479	 1,76939430541047E-02 
480	 1,62543869409967E-02 
481	 1,35010754094789E-02 
482	 1,52362734883453E-02 
483	 1,78796618417454E-02 
484	 1,53418508424783E-02 
485	 1,44433707207152E-02 
486	 1,58591849829607E-02 
487	 0,014986128198221 
488	 1,33961693589861E-02 
489	 1,24834454097391E-02 
490	 1,33864660494265E-02 
491	 1,52820407216676E-02 
492	 1,60398604570518E-02 
493	 1,63379381186806E-02 
494	 0,01625844599562 
495	 1,54325973561017E-02 
496	 1,42629783176077E-02 
497	 1,32314184649969E-02 
498	 1,44454260100873E-02 
499	 1,69367604535542E-02 
500	 1,64644279442204E-02 
501	 1,51587404846506E-02 
502	 1,44040245679223E-02 
503	 1,48950093111419E-02 
504	 1,59626935182343E-02 
505	 1,62887561123685E-02 
506	 1,64485396571887E-02 
507	 1,66288706145628E-02 
508	 1,71308185851817E-02 
509	 1,71478246664708E-02 
510	 1,60126913569744E-02 
511	 1,50629649452518E-02 
512	 1,44509671276553E-02 
513	 1,33041208507333E-02 
514	 1,47529303302516E-02 
515	 0,018997836676627 
516	 1,82846610207434E-02 
517	 1,55546270105688E-02 
518	 1,58901566361529E-02 
519	 1,70047431428571E-02 
520	 0,017997115488894 
521	 1,78223437391332E-02 
522	 1,66804194035643E-02 
523	 1,50434822169589E-02 
524	 0,016031138648839 
525	 1,83251204909458E-02 
526	 0,018056807978219 
527	 1,67422106925132E-02 
528	 1,51935463339748E-02 
529	 1,49356319302652E-02 
530	 0,015542773309338 
531	 1,63522729929347E-02 
532	 1,65572872448646E-02 
533	 1,59756934500264E-02 
534	 1,45507620088025E-02 
535	 1,42549718379133E-02 
536	 1,59282312278294E-02 
537	 1,59510588229815E-02 
538	 0,015095939935456 
539	 1,56991331821925E-02 
540	 1,64747911817903E-02 
541	 1,69361328969853E-02 
542	 1,67933494310904E-02 
543	 1,61906087738033E-02 
544	 1,53354206934954E-02 
545	 1,49912369029026E-02 
546	 1,52722783572531E-02 
547	 1,60692426543282E-02 
548	 1,64889151955904E-02 
549	 1,61504436917028E-02 
550	 0,016006650733567 
551	 1,59582514800244E-02 
552	 1,56806598816528E-02 
553	 1,51838029809434E-02 
554	 1,46555606362182E-02 
555	 1,48171535870316E-02 
556	 1,49262742591695E-02 
557	 1,44395540690651E-02 
558	 1,47966877164377E-02 
559	 1,57442315263926E-02 
560	 1,61301968793139E-02 
561	 1,59357191860417E-02 
562	 1,53143412571154E-02 
563	 1,55550953535091E-02 
564	 0,01583602899839 
565	 1,49256532567868E-02 
566	 1,46819868718735E-02 
567	 1,51814767175508E-02 
568	 1,49211221137095E-02 
569	 0,014550126625622 
570	 1,45252997161163E-02 
571	 1,46123221959833E-02 
572	 1,47726732061445E-02 
573	 1,49399844054517E-02 
574	 1,55085533748879E-02 
575	 1,64656422880081E-02 
576	 0,017079629842665 
577	 0,017302533275823 
578	 1,71577535426278E-02 
579	 1,69563030704463E-02 
580	 1,69581925210214E-02 
581	 1,77288953096134E-02 
582	 1,80693937288034E-02 
583	 1,74507291564063E-02 
584	 0,017598360437486 
585	 1,82303726268982E-02 
586	 1,84611736639926E-02 
587	 1,84856773416808E-02 
588	 1,84757178600444E-02 
589	 1,90521458170156E-02 
590	 1,95199982905938E-02 
591	 1,92505084855615E-02 
592	 1,92039550102575E-02 
593	 1,94383043177067E-02 
594	 1,96255964805053E-02 
595	 1,94812504887249E-02 
596	 1,89685001107142E-02 
597	 1,89467431433667E-02 
598	 1,89883599135506E-02 
599	 1,82994224583027E-02 
600	 1,80405690743093E-02 
601	 1,83903363807789E-02 
602	 1,87034551869292E-02 
603	 1,88993928516105E-02 
604	 1,88603527908141E-02 
605	 0,017801713817389 
606	 0,016569732881077 
607	 1,75932925436628E-02 
608	 0,018277781405905 
609	 1,77791129874602E-02 
610	 1,74215020376883E-02 
611	 1,72935439610801E-02 
612	 1,73630657415221E-02 
613	 1,76373184198561E-02 
614	 1,78305739101198E-02 
615	 1,70367832781374E-02 
616	 1,62651019235159E-02 
617	 1,62289005904217E-02 
618	 0,01705818297839 
619	 1,79714512569435E-02 
620	 0,017441212463038 
621	 1,68179062859018E-02 
622	 1,65891517472622E-02 
623	 1,67273818200544E-02 
624	 0,016957319954072 
625	 0,01699561345056 
626	 0,017004199881808 
627	 1,70343261275523E-02 
628	 1,72205121187353E-02 
629	 1,69883606975578E-02 
630	 1,62754925788035E-02 
631	 1,69415495858052E-02 
632	 1,80567169969888E-02 
633	 1,77696257393948E-02 
634	 1,76312806085274E-02 
635	 1,79711104021786E-02 
636	 1,82397313489674E-02 
637	 1,83853195849094E-02 
638	 1,83951774968552E-02 
639	 1,85632570003694E-02 
640	 1,88472812733186E-02 
641	 1,88875529036692E-02 
642	 1,95205234394903E-02 
643	 2,07763746004967E-02 
644	 2,06743942353301E-02 
645	 2,02458309873404E-02 
646	 0,021054571697837 
647	 2,14223543213191E-02 
648	 2,09719341252806E-02 
649	 1,97878304430717E-02 
650	 1,92306396414063E-02 
651	 2,00647412156731E-02 
652	 2,02072860070962E-02 
653	 1,98495074991849E-02 
654	 2,00979928292801E-02 
655	 2,01235027583044E-02 
656	 1,96045322376247E-02 
657	 1,82282934133054E-02 
658	 1,73327062450352E-02 
659	 1,82165945124309E-02 
660	 1,81573812209589E-02 
661	 1,72419940030063E-02 
662	 1,75461104954704E-02 
663	 0,017807384662456 
664	 1,74841111875315E-02 
665	 1,75035574050527E-02 
666	 1,74926621515928E-02 
667	 1,67129040283571E-02 
668	 1,59597884726325E-02 
669	 1,56401565284128E-02 
670	 1,63107493864949E-02 
671	 1,70409430302583E-02 
672	 1,70734180101045E-02 
673	 1,69266094408498E-02 
674	 1,67675687487224E-02 
675	 1,68038563452682E-02 
676	 1,66411772702556E-02 
677	 1,62975285910391E-02 
678	 0,016676943494075 
679	 1,73490006326378E-02 
680	 1,77151064273782E-02 
681	 0,017495907226373 
682	 1,70189103117885E-02 
683	 1,75119995551492E-02 
684	 1,83143727606832E-02 
685	 1,89435522260899E-02 
686	 1,88676859680555E-02 
687	 1,86595805439016E-02 
688	 1,95149505221239E-02 
689	 1,97381788683036E-02 
690	 1,92385583305984E-02 
691	 1,97473382059732E-02 
692	 2,13390518738023E-02 
693	 2,39025930973411E-02 
694	 2,57791809406274E-02 
695	 2,71236436815668E-02 
696	 2,91633634705478E-02 
697	 3,18112358599275E-02 
698	 3,50638711395876E-02 
699	 3,86835063594751E-02 
700	 4,28593660129697E-02 
701	 0,047850906356862 
702	 5,31227373383794E-02 
703	 5,85088312871998E-02 
704	 6,40329002905092E-02 
705	 6,98859588358072E-02 
706	 7,60834139107213E-02 
707	 8,17671193318061E-02 
708	 8,74289963803227E-02 
709	 9,42006407824659E-02 
710	 0,100869464645652 
711	 0,107063652892088 
712	 0,112980763381051 
713	 0,118906151921722 
714	 0,125043958699366 
715	 0,13050070172191 
716	 0,135533088180026 
717	 0,141333313739355 
718	 0,146586891854023 
719	 0,150881146318834 
720	 0,155288120227883 
721	 0,159509931961595 
722	 0,16305786036902 
723	 0,166478273346524 
724	 0,169959342767761 
725	 0,173657268391736 
726	 0,176871016524682 
727	 0,179231527160318 
728	 0,181527582288498 
729	 0,183898255795796 
730	 0,186403988480417 
731	 0,188438497193083 
732	 0,189952510937442 
733	 0,191643946520046 
734	 0,19328201575697 
735	 0,194647958796173 
736	 0,195827040495853 
737	 0,19692524460415 
738	 0,198158569729865 
739	 0,199358313731938 
740	 0,200409626221931 
741	 0,201068616519153 
742	 0,201699462563948 
743	 0,20272852303146 
744	 0,203511157113671 
745	 0,203962430030522 
746	 0,204248540441321 
747	 0,204758130922838 
748	 0,205609438947361 
749	 0,205937231868852 
750	 0,206060434554029 
751	 0,206625076353596 
752	 0,207189156172305 
753	 0,207617098357313 
754	 0,207862496176371 
755	 0,208132613356273 
756	 0,208560475697655 
757	 0,208847978421667 
758	 0,20907808396034 
759	 0,209536754577237 
760	 0,209782501712443 
761	 0,209796234907799 
762	 0,210206066727287 
763	 0,210680074671949 
764	 0,210874920408262 
765	 0,21084732125061 
766	 0,210787830285278 
767	 0,211132339459807 
768	 0,211620729392011 
769	 0,21207796682872 
770	 0,212138349152107 
771	 0,212212211409901 
772	 0,212800360266041 
773	 0,213118974766471 
774	 0,213090164218118 
775	 0,213027452165256 
776	 0,213100614323488 
777	 0,213357388960069 
778	 0,213367203283414 
779	 0,213253583946415 
780	 0,213266322434945 
781	 0,213361171135213 
782	 0,213576380047222 
783	 0,214129432870699 
784	 0,214372233037503 
785	 0,213967910674222 
786	 0,213888499773998 
787	 0,214241545723224 
788	 0,214978687414267 
789	 0,215334477977266 
790	 0,215224604375313 
791	 0,215509910312452 
792	 0,215639439364517 
793	 0,215228091237193 
794	 0,215204492032614 
795	 0,215488475202341 
796	 0,21558945250937 
797	 0,215469589261425 
798	 0,21524591832481 
799	 0,215620392603015 
800	 0,216030854206302 
801	 0,215933419589905 
802	 0,215713378604773 
803	 0,215645904465063 
804	 0,216320917063232 
805	 0,216524220862894 
806	 0,216025724613856 
807	 0,216279056082942 
808	 0,216822890323356 
809	 0,217069866674588 
810	 0,217528058980441 
811	 0,218150066412231 
812	 0,218589891708268 
813	 0,21882551284061 
814	 0,218845708997631 
815	 0,218697559422803 
816	 0,218648843470541 
817	 0,21898955313065 
818	 0,219204318200207 
819	 0,219351264397754 
820	 0,220024859825711 
821	 0,220489980646434 
822	 0,220455230392404 
823	 0,220536426154353 
824	 0,220740870881892 
825	 0,220996360877129 
826	 0,221600784699351 
827	 0,222265669246089 
828	 0,221888023931789 
829	 0,221566065956036 
830	 0,221810521075413 
831	 0,221860279965216 
832	 0,221679189408776 
833	 0,22133054823157 
834	 0,221687052749622 
835	 0,222541350009709 
836	 0,222457434837135 
837	 0,222394092168427 
838	 0,222752273302409 
839	 0,222477181557813 
840	 0,222059823156486 
841	 0,222328786665316 
842	 0,222836681838965 
843	 0,223241622220659 
844	 0,222739240309599 
845	 0,22267866288764 
846	 0,223628924349221 
847	 0,223936460324011 
848	 0,22371492007884 
849	 0,223403544779508 
850	 0,22332439789602 
851	 0,223450398214089 
852	 0,223278554563562 
853	 0,223283562161328 
854	 0,223631487265615 
855	 0,22365374708868 
856	 0,22333110094833 
857	 0,222753351864006 
858	 0,223168098483749 
859	 0,224276164159977 
860	 0,224073068081194 
861	 0,223795487032687 
862	 0,224029595840633 
863	 0,224186536515384 
864	 0,224169392907587 
865	 0,223937004117425 
866	 0,224103363813857 
867	 0,224532252531377 
868	 0,224267114727846 
869	 0,224318672796119 
870	 0,225022961254218 
871	 0,22528432032682 
872	 0,225348353854298 
873	 0,225629855749591 
874	 0,226011864442876 
875	 0,22636445622555 
876	 0,226359036652235 
877	 0,226486202947964 
878	 0,226857301484346 
879	 0,226817654944443 
880	 0,226676394479615 
881	 0,226813219315914 
882	 0,227099634219955 
883	 0,227241796090031 
884	 0,226321505930892 
885	 0,226671951950903 
886	 0,228582728062263 
887	 0,228840295386744 
888	 0,22830000277901 
889	 0,227984755156541 
890	 0,227929121501022 
891	 0,228287703650542 
892	 0,229362528211593 
893	 0,229897531406431 
894	 0,229639761286913 
895	 0,229675722563401 
896	 0,229548237708365 
897	 0,229003487766478 
898	 0,22932154305403 
899	 0,230131118039828 
900	 0,230451679730639 
901	 0,230293951380954 
902	 0,229895622632232 
903	 0,230203632865291 
904	 0,230549557616451 
905	 0,230505773743683 
906	 0,230225315914314 
907	 0,230165364239805 
908	 0,230921630958174 
909	 0,231231778173129 
910	 0,231114800032291 
911	 0,231800067475838 
912	 0,231967997516463 
913	 0,231132250498804 
914	 0,230303502730411 
915	 0,230050424212938 
916	 0,23080363098668 
917	 0,230820299674818 
918	 0,230270374761621 
919	 0,230544348725534 
920	 0,230927370050148 
921	 0,231098135398991 
922	 0,230765814924791 
923	 0,230216685441181 
924	 0,229704639711506 
925	 0,229020726869291 
926	 0,22843999874598 
927	 0,228471548068061 
928	 0,228568542954661 
929	 0,22842717995134 
930	 0,227605064489377 
931	 0,22684522405311 
932	 0,226630068393759 
933	 0,227049374213695 
934	 0,227092933366483 
935	 0,225552333883577 
936	 0,224898911181138 
937	 0,225036204800473 
938	 0,224012545973355 
939	 0,222981651376147 
940	 0,222358765488329 
941	 0,222037854366067 
942	 0,221454983431338 
943	 0,220182539744937 
944	 0,219149770314104 
945	 0,218387272768605 
946	 0,217643730496938 
947	 0,216663986804113 
948	 0,21550451057151 
949	 0,214839854574682 
950	 0,213414355739245 
951	 0,210937900890489 
952	 0,210652022534698 
953	 0,210374112601007 
954	 0,207291189279306 
955	 0,207099318027501 
956	 0,208466468387201 
957	 0,204612437568253 
958	 0,202534535371584 
959	 0,203708653384478 
960	 0,203346539959166 
961	 0,20170191875328 
962	 0,199504467695261 
963	 0,200268681254819 
964	 0,201652907513907 
965	 0,199395346690688 
966	 0,19898865512485 
967	 0,200554455352892 
968	 0,200086635924161 
969	 0,199750409943795 
970	 0,20017351192301 
971	 0,199977977122131 
972	 0,198640199139524 
973	 0,196212803783732 
974	 0,197662435508629 
975	 0,200667703565183 
976	 0,199619353964056 
977	 0,198596843280493 
978	 0,198683914016926 
979	 0,199645302916702 
980	 0,200748884242546 
981	 0,201307214881471 
982	 0,199923668628095 
983	 0,198645984682263 
984	 0,199523457605263 
985	 0,199933049275627 
986	 0,200019572015512 
987	 0,200976575708161 
988	 0,201967394725966 
989	 0,202927152486611 
990	 0,204726227815021 
991	 0,205260422497453 
992	 0,204051259744305 
993	 0,205433535157929 
994	 0,206700348305954 
995	 0,205103982073726 
996	 0,206991385352389 
997	 0,210014071132954 
998	 0,207407908107343 
999	 0,206127298407656 
1000	 0,207470799315879 
1001	 0,208545663481429 
1002	 0,209536220558162 
1003	 0,210472699444283 
1004	 0,211723637339655 
1005	 0,211548395140423 
1006	 0,208794154167769 
1007	 0,209851893338005 
1008	 0,212196100635179 
1009	 0,209380042388475 
1010	 0,210199773706388 
1011	 0,214594550824561 
1012	 0,214567957414504 
1013	 0,213790142667982 
1014	 0,214093968466096 
1015	 0,216356002316671 
1016	 0,218985163920949 
1017	 0,2205808551294 
1018	 0,221750656906747 
1019	 0,221790827266232 
1020	 0,219736134205882 
1021	 0,220231304375432 
1022	 0,222970798592211 
1023	 0,223561252296606 
1024	 0,225897252886222 
1025	 0,229774468933989 
1026	 0,228746922919192 
1027	 0,228237220467064 
1028	 0,231284746137039 
1029	 0,231915088649841 
1030	 0,230975765050313 
1031	 0,230253205919804 
1032	 0,229873649636819 
1033	 0,230888231659256 
1034	 0,23527636185258 
1035	 0,235808239311006 
1036	 0,232371287303382 
1037	 0,232205691608749 
1038	 0,234571879053437 
1039	 0,238630017848882 
1040	 0,241606799282867 
1041	 0,241072865505354 
1042	 0,236441946648147 
1043	 0,238553169461909 
1044	 0,240782655795626 
1045	 0,23271006200279 
1046	 0,232660861755609 
1047	 0,241053755179081 
1048	 0,249568863447551 
1049	 0,254907247426295 
1050	 0,254297581743234 
1051	 0,242964895886166 
1052	 0,238352999810461 
1053	 0,246947475113587 
1054	 0,246518530488675 
1055	 0,244947462981773 
1056	 0,24853021192535 
1057	 0,240293728022491 
1058	 0,2323534282968 
1059	 0,244208937327245 
1060	 0,252240784205976 
1061	 0,252670169652781 
1062	 0,248105798570799 
1063	 0,250732447294189 
1064	 0,257595980820355 
1065	 0,240182962756368 
1066	 0,234930814964884 
1067	 0,251910384934345 
1068	 0,250472561202497 
1069	 0,241510074195664 
1070	 0,235348450242699 
1071	 0,234859305926887 
1072	 0,243518072655848 
1073	 0,261033741035223 
1074	 0,245611909464618 
1075	 0,223856372687817 
