Wavelength	GRA-VIE00377.asd
325	 3,66880086943168E-02 
326	 0,163338691350497 
327	 0,194642274393872 
328	 6,72367592004648E-02 
329	 0,19129659210586 
330	 0,326849405632843 
331	 0,221697772773856 
332	 0,158436839863982 
333	 0,146220916915653 
334	 0,227578576230988 
335	 0,297434625469492 
336	 0,307046587458516 
337	 0,287593074461269 
338	 0,262190332514618 
339	 0,245645688535748 
340	 0,246478182087178 
341	 0,241112670049446 
342	 0,155779999170434 
343	 0,155692219784406 
344	 0,234403413674759 
345	 0,206112688686295 
346	 0,140833686693773 
347	 0,126074068358762 
348	 0,128429790880729 
349	 0,139428273776887 
350	 0,154885251120498 
351	 0,154415878277487 
352	 0,135179465349076 
353	 0,120272561165687 
354	 0,122657205611061 
355	 0,150287009278072 
356	 0,156325359585722 
357	 0,136976558002898 
358	 0,108800573511445 
359	 0,097025341729381 
360	 0,112119271760077 
361	 0,13421838353359 
362	 0,148406911897396 
363	 0,142028576644153 
364	 0,119821527850169 
365	 9,62559490906149E-02 
366	 0,117443806018413 
367	 0,133439741846435 
368	 0,116660572671659 
369	 0,121020361895129 
370	 0,138280570387942 
371	 0,144065493236557 
372	 0,147074228841186 
373	 0,14672970949487 
374	 0,133380562161408 
375	 0,119704339263192 
376	 0,114393626405529 
377	 0,105077754184942 
378	 9,91153148962876E-02 
379	 0,116568777420166 
380	 0,127480881272528 
381	 0,125502346402818 
382	 0,126032554133151 
383	 0,120237639619164 
384	 0,100981962316887 
385	 0,110652285712377 
386	 0,137821077040145 
387	 0,140974118690824 
388	 0,133816451414753 
389	 0,12541830185647 
390	 0,137396197407633 
391	 0,150927234452007 
392	 0,142078548283187 
393	 0,126972523428467 
394	 0,115242016748323 
395	 0,125696575307466 
396	 0,134447468596941 
397	 0,130314765964431 
398	 0,122336297249178 
399	 0,113039014808654 
400	 0,102736460103817 
401	 0,10511961368734 
402	 0,11715558669655 
403	 0,114708680044335 
404	 0,111672049037099 
405	 0,11684248693922 
406	 0,114499946607734 
407	 0,109757655215797 
408	 0,118004598179269 
409	 0,121522768513425 
410	 0,115989135168161 
411	 0,10472930605188 
412	 9,98681732028346E-02 
413	 0,110984814181293 
414	 0,115710792817243 
415	 0,112731907172251 
416	 0,110421572272876 
417	 0,107151835032015 
418	 0,103865049315114 
419	 0,108842067824515 
420	 0,114606032493203 
421	 0,111229270237073 
422	 0,104812704389435 
423	 9,97803220949419E-02 
424	 0,104754560432677 
425	 0,108955414761605 
426	 0,106380454528603 
427	 0,106087559375283 
428	 0,107202151187956 
429	 0,105794502485247 
430	 0,106666014312035 
431	 0,109859460392366 
432	 0,109688435030299 
433	 0,107569160908966 
434	 0,105323451273722 
435	 0,108482262905488 
436	 0,114419715827154 
437	 0,114399394044867 
438	 0,112651332104209 
439	 0,11121341655943 
440	 0,111758588101995 
441	 0,113204300838839 
442	 0,114021010522399 
443	 0,113307347408705 
444	 0,11169160477379 
445	 0,112023197556634 
446	 0,113187439617127 
447	 0,114243336517637 
448	 0,113297744850978 
449	 0,111955271772707 
450	 0,113760612776234 
451	 0,114637959878208 
452	 0,113925496514335 
453	 0,11516027550476 
454	 0,115065977446682 
455	 0,110941475983673 
456	 0,11139425905935 
457	 0,11506568338136 
458	 0,113428051249272 
459	 0,114133794957338 
460	 0,118857584615342 
461	 0,117351840425963 
462	 0,113040903179683 
463	 0,111743191647315 
464	 0,112083372448954 
465	 0,113591629783258 
466	 0,115932356880284 
467	 0,115860620435552 
468	 0,112049895686265 
469	 0,11329321116835 
470	 0,116845788091165 
471	 0,114756328407297 
472	 0,113049525464824 
473	 0,113156008417938 
474	 0,112115666551652 
475	 0,111685072739344 
476	 0,113575391756731 
477	 0,114588683314327 
478	 0,114389255824349 
479	 0,114055859969277 
480	 0,11349854459248 
481	 0,112701572381329 
482	 0,111231009244592 
483	 0,110379490549778 
484	 0,112077268239987 
485	 0,114167669780812 
486	 0,114999997783773 
487	 0,110528721960099 
488	 0,108268429804528 
489	 0,113173623216105 
490	 0,11406544963863 
491	 0,111007134786534 
492	 0,107978130990786 
493	 0,106991545794118 
494	 0,108595253956078 
495	 0,110177379710204 
496	 0,110526028968092 
497	 0,108640610445768 
498	 0,109313963653257 
499	 0,111816298083394 
500	 0,110197796412965 
501	 0,109296190230917 
502	 0,111513969782895 
503	 0,112778867057236 
504	 0,112703312403131 
505	 0,111487469857207 
506	 0,111234380908548 
507	 0,112179214335636 
508	 0,11210293683633 
509	 0,111508191005793 
510	 0,111024231762952 
511	 0,111977714884088 
512	 0,113768421742535 
513	 0,114348804112887 
514	 0,114262312931701 
515	 0,113809372900464 
516	 0,113491023013826 
517	 0,113452322225638 
518	 0,113767513648681 
519	 0,114511516786409 
520	 0,115370882207409 
521	 0,115338975069625 
522	 0,114988203540825 
523	 0,114706282155489 
524	 0,11354985022872 
525	 0,112562188386775 
526	 0,114610839924963 
527	 0,115446913158174 
528	 0,113989888303713 
529	 0,113153227541436 
530	 0,113017306839955 
531	 0,113385529452258 
532	 0,113314022324787 
533	 0,112796614459054 
534	 0,112507685754344 
535	 0,112768312003862 
536	 0,113662383352052 
537	 0,114302769321287 
538	 0,114204971628365 
539	 0,112605328806809 
540	 0,112124032069581 
541	 0,11324409101504 
542	 0,113891826244486 
543	 0,113931360279633 
544	 0,11337908894319 
545	 0,11297849025844 
546	 0,11302459775752 
547	 0,113963139443776 
548	 0,114091694864487 
549	 0,112909414706645 
550	 0,113395668504755 
551	 0,114580956615066 
552	 0,114440759791193 
553	 0,114361178642546 
554	 0,114516644129921 
555	 0,114089026261869 
556	 0,11351675171818 
557	 0,11322228055741 
558	 0,113617937884284 
559	 0,114260904125848 
560	 0,113887875217839 
561	 0,113438034031398 
562	 0,11329779761924 
563	 0,113333301532436 
564	 0,113467646477306 
565	 0,113610007999695 
566	 0,113654061680656 
567	 0,113792710454311 
568	 0,114914553164272 
569	 0,115592707721482 
570	 0,114990129441605 
571	 0,115366791939124 
572	 0,116441408803054 
573	 0,116789998519349 
574	 0,117209934115004 
575	 0,11803708132112 
576	 0,119787013410801 
577	 0,120880121686531 
578	 0,119629025779025 
579	 0,120430869813687 
580	 0,12312439365002 
581	 0,124002853631664 
582	 0,124024749495682 
583	 0,123867778265696 
584	 0,124620494736362 
585	 0,125914277893132 
586	 0,126836320400835 
587	 0,127539302272883 
588	 0,127966910456345 
589	 0,12777840724439 
590	 0,127794817716749 
591	 0,128729395181734 
592	 0,129255292674172 
593	 0,129227073349859 
594	 0,128937145199124 
595	 0,128974663937149 
596	 0,129575264701121 
597	 0,130200262302918 
598	 0,130290616731516 
599	 0,129097733519471 
600	 0,128659137001482 
601	 0,129307590399211 
602	 0,129867128992592 
603	 0,130024337070454 
604	 0,129578961053868 
605	 0,129210659283418 
606	 0,128754850251789 
607	 0,12733279164155 
608	 0,126591893022424 
609	 0,126891678529667 
610	 0,126252721301604 
611	 0,125285034208802 
612	 0,124942916678911 
613	 0,12462010307856 
614	 0,124318008707382 
615	 0,124536891896876 
616	 0,124686795474565 
617	 0,124350712233878 
618	 0,123365969653834 
619	 0,122557061532441 
620	 0,12362969588801 
621	 0,124255378657551 
622	 0,123830249573743 
623	 0,12358777379241 
624	 0,123489546929024 
625	 0,123427234401967 
626	 0,123330789445555 
627	 0,123432329563017 
628	 0,124568746454293 
629	 0,125219882973515 
630	 0,124728543204578 
631	 0,124598350352555 
632	 0,124929304972449 
633	 0,125579848618072 
634	 0,126060361584368 
635	 0,12625950478932 
636	 0,126395145859876 
637	 0,126852514741929 
638	 0,127916120474877 
639	 0,129041740470294 
640	 0,129870803870582 
641	 0,129770241048978 
642	 0,129806064858411 
643	 0,130416428761399 
644	 0,131218632680005 
645	 0,131991549681713 
646	 0,132504228364943 
647	 0,132390381146938 
648	 0,131779283709334 
649	 0,131401863423685 
650	 0,131221475000745 
651	 0,131105341091197 
652	 0,129991071866942 
653	 0,128537569328699 
654	 0,128428100544149 
655	 0,127991371522359 
656	 0,126813866185119 
657	 0,125774306201352 
658	 0,124830192435776 
659	 0,123875348559163 
660	 0,122559101787023 
661	 0,121055101200206 
662	 0,120043476923282 
663	 0,119173558307118 
664	 0,118258535650024 
665	 0,11727061663297 
666	 0,116303749602154 
667	 0,115488558898113 
668	 0,115067202217464 
669	 0,114969956950701 
670	 0,114592481882981 
671	 0,114432719858033 
672	 0,114822352475096 
673	 0,114672784682431 
674	 0,114105942919352 
675	 0,113835732216922 
676	 0,113828829431673 
677	 0,114011874299798 
678	 0,113862836734418 
679	 0,1137069419468 
680	 0,113975323866378 
681	 0,114113590416281 
682	 0,114127946137524 
683	 0,114422758076325 
684	 0,114914444814491 
685	 0,11561416191514 
686	 0,116886150516437 
687	 0,118651451342527 
688	 0,120648974400844 
689	 0,123250478445772 
690	 0,126364423389173 
691	 0,12895336454282 
692	 0,132428536268763 
693	 0,13799795345783 
694	 0,143848191854294 
695	 0,149843260254904 
696	 0,156514475701821 
697	 0,164230195709745 
698	 0,173008937383818 
699	 0,181845992055095 
700	 0,191158854099202 
701	 0,201594837388934 
702	 0,21174357050424 
703	 0,221480634619794 
704	 0,231745073895203 
705	 0,242178447977344 
706	 0,252450720904323 
707	 0,261975690912905 
708	 0,271008581234905 
709	 0,280188038551567 
710	 0,288911077505797 
711	 0,297011561461311 
712	 0,304629419507689 
713	 0,31179431846132 
714	 0,318555120989092 
715	 0,324936757675679 
716	 0,33094712167772 
717	 0,336583773463308 
718	 0,341861459845947 
719	 0,346797502859875 
720	 0,351365848577287 
721	 0,355533164784146 
722	 0,359286259410303 
723	 0,363092736595433 
724	 0,366827779537912 
725	 0,369651848276744 
726	 0,372358800635381 
727	 0,375359358935273 
728	 0,377696236368169 
729	 0,379615872572054 
730	 0,381766703276263 
731	 0,383874419431884 
732	 0,385870669037338 
733	 0,38776588013298 
734	 0,389550847312767 
735	 0,391207268463341 
736	 0,392643839097051 
737	 0,393847418292536 
738	 0,394758616396991 
739	 0,395878181759958 
740	 0,397304547816967 
741	 0,398374689853402 
742	 0,399145738965989 
743	 0,399760084339679 
744	 0,40067528566481 
745	 0,401817296431218 
746	 0,402524420966994 
747	 0,40350104890226 
748	 0,404956052180199 
749	 0,405536355666231 
750	 0,405801598200751 
751	 0,406852360100644 
752	 0,407843165898393 
753	 0,408528272151561 
754	 0,408872565190969 
755	 0,409263729279407 
756	 0,409972145296918 
757	 0,410682735326972 
758	 0,411274780568245 
759	 0,411581648084208 
760	 0,412128010022455 
761	 0,412975021787645 
762	 0,413541711209468 
763	 0,413878873066263 
764	 0,414085365479638 
765	 0,414483143301449 
766	 0,415017785843597 
767	 0,415330757797315 
768	 0,415789351708192 
769	 0,416459785622849 
770	 0,416835145042168 
771	 0,417197501551503 
772	 0,417910519725433 
773	 0,418066800383826 
774	 0,417878927778388 
775	 0,418671534901954 
776	 0,419274854867307 
777	 0,419197511760821 
778	 0,419564064130317 
779	 0,420118682105066 
780	 0,420302341889459 
781	 0,420669722930756 
782	 0,421258351743265 
783	 0,421706342098282 
784	 0,422017438294326 
785	 0,422189440335116 
786	 0,422202829588877 
787	 0,422188877948297 
788	 0,422367511848347 
789	 0,422558991811193 
790	 0,422748870667025 
791	 0,423127627338545 
792	 0,423419282714304 
793	 0,423443574207867 
794	 0,423794200445678 
795	 0,424317423982027 
796	 0,424497935402586 
797	 0,424466596276455 
798	 0,424382679013316 
799	 0,424759640024396 
800	 0,425366712157838 
801	 0,425916776711911 
802	 0,425871005090031 
803	 0,425513278098383 
804	 0,425808371954781 
805	 0,42623811664605 
806	 0,426663424589625 
807	 0,427334891093057 
808	 0,427960272829648 
809	 0,428232818923057 
810	 0,428608957639702 
811	 0,429081661337419 
812	 0,429310539372509 
813	 0,429738679531045 
814	 0,430452862767669 
815	 0,430798948251227 
816	 0,430944399967401 
817	 0,431161669856309 
818	 0,431599111657303 
819	 0,432172703317345 
820	 0,432496163892166 
821	 0,432850483777602 
822	 0,433339987715306 
823	 0,433739864056282 
824	 0,434107878333104 
825	 0,434542408372821 
826	 0,434934454102931 
827	 0,435166732656002 
828	 0,434925857286646 
829	 0,434809533455239 
830	 0,435178908778047 
831	 0,43608068236262 
832	 0,436943783626893 
833	 0,437014969661484 
834	 0,437241314599674 
835	 0,43764787899434 
836	 0,437508427703178 
837	 0,43729623128707 
838	 0,437319183005439 
839	 0,437692435873867 
840	 0,438293841034612 
841	 0,43893002125444 
842	 0,439177598992056 
843	 0,43910578404891 
844	 0,439382789151539 
845	 0,439532294131476 
846	 0,43941786615294 
847	 0,440023167311624 
848	 0,440658914343948 
849	 0,440228585881739 
850	 0,440447888795868 
851	 0,441269056940805 
852	 0,441061887692122 
853	 0,440767439113098 
854	 0,440901699413739 
855	 0,44124446935536 
856	 0,441619163550905 
857	 0,441817207905453 
858	 0,441880040175013 
859	 0,441953359656281 
860	 0,442491512311429 
861	 0,442874831252846 
862	 0,442853267246151 
863	 0,443056983644724 
864	 0,443547921108547 
865	 0,444298279569873 
866	 0,444484484569731 
867	 0,44429270824468 
868	 0,444926270789494 
869	 0,445649453111532 
870	 0,446086735490133 
871	 0,446234912808407 
872	 0,44640932737422 
873	 0,44696454997495 
874	 0,44701568608517 
875	 0,446762072908667 
876	 0,447351145924118 
877	 0,447781999453173 
878	 0,447891452789028 
879	 0,449359743615794 
880	 0,450634556256051 
881	 0,450045893202763 
882	 0,450251063378846 
883	 0,451298648625049 
884	 0,451957418329334 
885	 0,451977468950455 
886	 0,45144473937033 
887	 0,45148463156943 
888	 0,452006258379261 
889	 0,452800032984143 
890	 0,453303036776102 
891	 0,453514976507008 
892	 0,453666680492992 
893	 0,454238505257267 
894	 0,455117109670693 
895	 0,455021655415512 
896	 0,45476353443238 
897	 0,454987974362882 
898	 0,455031399634876 
899	 0,455260932993425 
900	 0,456526826600567 
901	 0,456823982101734 
902	 0,456171179769533 
903	 0,456954686468507 
904	 0,457932771388537 
905	 0,458284100138611 
906	 0,458120459244587 
907	 0,457972603922737 
908	 0,458563853047925 
909	 0,458672012074933 
910	 0,458341525160477 
911	 0,458645885985408 
912	 0,459228383411303 
913	 0,459826292298296 
914	 0,459882664333277 
915	 0,46004039356579 
916	 0,460990577645842 
917	 0,461212299408371 
918	 0,460577611904534 
919	 0,459417837643534 
920	 0,459260122374689 
921	 0,460203118128967 
922	 0,459622391468373 
923	 0,45902391607038 
924	 0,459660602647453 
925	 0,460105616242667 
926	 0,460219843496838 
927	 0,460194579159197 
928	 0,459699633068177 
929	 0,459064816792263 
930	 0,45971989420016 
931	 0,460541538734506 
932	 0,460744905441575 
933	 0,460040018346374 
934	 0,459030973615389 
935	 0,458545362682044 
936	 0,459016990862022 
937	 0,45964457632838 
938	 0,457595839261191 
939	 0,457457374522884 
940	 0,459875441310643 
941	 0,458467005483353 
942	 0,456416138432211 
943	 0,456743181426155 
944	 0,45708035081253 
945	 0,456841018959981 
946	 0,455637674305051 
947	 0,454760504717534 
948	 0,454316967089814 
949	 0,453083464053141 
950	 0,452186934699509 
951	 0,452058368061044 
952	 0,451027014439891 
953	 0,449671761359906 
954	 0,448900209579575 
955	 0,448355927899811 
956	 0,447926477421218 
957	 0,447546173807864 
958	 0,446784826639384 
959	 0,445707425857646 
960	 0,445358364714673 
961	 0,445228678572584 
962	 0,444863483967713 
963	 0,444085645102154 
964	 0,443443427432677 
965	 0,443782064569323 
966	 0,444669489975766 
967	 0,445480504137815 
968	 0,444859947072299 
969	 0,443459473553955 
970	 0,442121503495535 
971	 0,443391953600364 
972	 0,44484127729371 
973	 0,444294813184073 
974	 0,445219732476397 
975	 0,446438250223319 
976	 0,444885888789486 
977	 0,44382300079015 
978	 0,444197897334779 
979	 0,446060743503167 
980	 0,446791480091117 
981	 0,445648743956974 
982	 0,446993167264605 
983	 0,44820390317449 
984	 0,446621437187432 
985	 0,447584758351183 
986	 0,44965177146081 
987	 0,448058210686702 
988	 0,448616018514562 
989	 0,451602483877767 
990	 0,451930443907054 
991	 0,451274442967428 
992	 0,450806638958871 
993	 0,451872163512151 
994	 0,453449383291571 
995	 0,454386829846624 
996	 0,455402823942235 
997	 0,456806862045962 
998	 0,459027481059323 
999	 0,460519046478348 
1000	 0,460744129613394 
1001	 0,459459779868844 
1002	 0,459607431191448 
1003	 0,462197629880582 
1004	 0,463372499851927 
1005	 0,464108420424259 
1006	 0,465442129965172 
1007	 0,464763210957511 
1008	 0,463374249879602 
1009	 0,464226473203385 
1010	 0,465856280222145 
1011	 0,467916129240659 
1012	 0,471132285037263 
1013	 0,471382236068329 
1014	 0,467880403875932 
1015	 0,466774895085543 
1016	 0,466964720721412 
1017	 0,467309036787575 
1018	 0,468811871698465 
1019	 0,4710783920793 
1020	 0,473323276198104 
1021	 0,475367780594634 
1022	 0,477301635299821 
1023	 0,480077477710291 
1024	 0,479777587771458 
1025	 0,476925975541468 
1026	 0,480227850850298 
1027	 0,483357965061056 
1028	 0,481818899472968 
1029	 0,475816484365301 
1030	 0,473254468906999 
1031	 0,482160891374449 
1032	 0,484398744742442 
1033	 0,481117099438147 
1034	 0,48223072424961 
1035	 0,48052319712845 
1036	 0,477947985341778 
1037	 0,488039195227831 
1038	 0,494445280017259 
1039	 0,490745786044974 
1040	 0,488344983139929 
1041	 0,485588691802969 
1042	 0,481419044264786 
1043	 0,480559674197251 
1044	 0,484532306833069 
1045	 0,493976333642493 
1046	 0,496014529906729 
1047	 0,491495953824392 
1048	 0,490259747584183 
1049	 0,489653516396056 
1050	 0,489725436307995 
1051	 0,492708762901702 
1052	 0,493154141471357 
1053	 0,490425027537849 
1054	 0,497407263072474 
1055	 0,502820276084927 
1056	 0,497683831645443 
1057	 0,500263659877112 
1058	 0,501335590502409 
1059	 0,4860450127012 
1060	 0,492142638774674 
1061	 0,506866384289257 
1062	 0,483973009639679 
1063	 0,482510406076949 
1064	 0,505877170765012 
1065	 0,495729151907724 
1066	 0,490720108849708 
1067	 0,503091936264036 
1068	 0,504398668928333 
1069	 0,497700754050827 
1070	 0,488813253113331 
1071	 0,492223563262609 
1072	 0,497751362044648 
1073	 0,492378604257113 
1074	 0,494483905938318 
1075	 0,501494791496359 
