Wavelength	GRA-VAN00785.asd
325	 0,284519801307505 
326	 0,377789222615486 
327	 0,507273095781916 
328	 0,496321224296554 
329	 0,37555590335966 
330	 0,266831683168317 
331	 0,38664446276629 
332	 0,396098890663926 
333	 0,341795692890077 
334	 0,260257481204855 
335	 0,234467715265858 
336	 0,292345681004813 
337	 0,345354906343774 
338	 0,357523687939076 
339	 0,289951700344998 
340	 0,264557235845903 
341	 0,265686690451422 
342	 0,167529697972745 
343	 0,158031562693559 
344	 0,252900621960574 
345	 0,231690314307972 
346	 0,207728320822251 
347	 0,291632061775278 
348	 0,23321079539279 
349	 8,99109365422864E-02 
350	 0,157769401126245 
351	 0,224165916937904 
352	 0,210552855811477 
353	 0,206673767602417 
354	 0,209385366680371 
355	 0,209619982202063 
356	 0,227722404073013 
357	 0,249248434785944 
358	 0,228193153760879 
359	 0,208520731567586 
360	 0,213100667672604 
361	 0,218940886455662 
362	 0,21527853456613 
363	 0,18926721018104 
364	 0,190760186204546 
365	 0,220526413571131 
366	 0,230208422304467 
367	 0,236735762023023 
368	 0,247485756989491 
369	 0,231197686820845 
370	 0,205717187361912 
371	 0,207219515227815 
372	 0,216388360596299 
373	 0,224948513167769 
374	 0,233467181806544 
375	 0,229405228409368 
376	 0,206156097053099 
377	 0,200637034656924 
378	 0,209744345163454 
379	 0,214535703199249 
380	 0,220380065848246 
381	 0,224675444958161 
382	 0,208881215738906 
383	 0,196170268160333 
384	 0,206739725299036 
385	 0,22339187432728 
386	 0,232011096911691 
387	 0,206943512428564 
388	 0,1929501153974 
389	 0,206072735820545 
390	 0,210611023028682 
391	 0,208238675783025 
392	 0,20435805295163 
393	 0,204729607343144 
394	 0,207966740900982 
395	 0,205326339288771 
396	 0,202760790569884 
397	 0,203642421675747 
398	 0,209806273200494 
399	 0,214255188298199 
400	 0,20652082871545 
401	 0,205501435371099 
402	 0,211358061239077 
403	 0,206965143547361 
404	 0,197325106229584 
405	 0,187793436428083 
406	 0,191583591574403 
407	 0,2021452333242 
408	 0,205375476189252 
409	 0,202217442187843 
410	 0,194792841320784 
411	 0,191946625901557 
412	 0,191755702967109 
413	 0,192094693635966 
414	 0,196409060581349 
415	 0,200887319725714 
416	 0,193992186283928 
417	 0,191442022367854 
418	 0,197606480163018 
419	 0,195274705012871 
420	 0,191920159110953 
421	 0,19835558170376 
422	 0,199158160363845 
423	 0,193812673300914 
424	 0,192686274243213 
425	 0,192535341271922 
426	 0,191784817945789 
427	 0,194697286172891 
428	 0,198267885192556 
429	 0,196456927079267 
430	 0,194773315201403 
431	 0,194331082288042 
432	 0,191722479703546 
433	 0,19179755418211 
434	 0,198132001232196 
435	 0,199242770290603 
436	 0,19595211088051 
437	 0,196037729025544 
438	 0,195642600780368 
439	 0,194137988696407 
440	 0,196184148470509 
441	 0,199229952264318 
442	 0,199587777869702 
443	 0,199836989104862 
444	 0,200519217372263 
445	 0,201733901858862 
446	 0,201280818381983 
447	 0,198294964711291 
448	 0,197879522046304 
449	 0,198700288668995 
450	 0,196629987283809 
451	 0,197381810767244 
452	 0,201413223470723 
453	 0,202851858322453 
454	 0,202988841505043 
455	 0,203276739039155 
456	 0,203830850653837 
457	 0,204242274272279 
458	 0,202988203263675 
459	 0,202795475124025 
460	 0,204709410009248 
461	 0,207480667960479 
462	 0,208428194108428 
463	 0,204304456823381 
464	 0,199856309543773 
465	 0,197392109068921 
466	 0,199351765579919 
467	 0,202244534804193 
468	 0,203641168113403 
469	 0,204472766177507 
470	 0,204651684170079 
471	 0,203666912157855 
472	 0,203923569256925 
473	 0,205578685956008 
474	 0,205237904372639 
475	 0,204360455237413 
476	 0,204574809021829 
477	 0,205629274478507 
478	 0,206986554745632 
479	 0,20750292530284 
480	 0,207488829015354 
481	 0,206995660945883 
482	 0,205528229677962 
483	 0,203933709601765 
484	 0,203415286848767 
485	 0,203357691318899 
486	 0,203554838522878 
487	 0,204073132097322 
488	 0,20374155893046 
489	 0,202007414150536 
490	 0,203105881500509 
491	 0,20550546138208 
492	 0,204165265543819 
493	 0,203007751132932 
494	 0,20315370494577 
495	 0,203085008134615 
496	 0,202379355069547 
497	 0,200723333308963 
498	 0,20042013292225 
499	 0,20131406428392 
500	 0,201089432725696 
501	 0,201185605061773 
502	 0,202394526640094 
503	 0,204355177763713 
504	 0,206095322098923 
505	 0,206031174073182 
506	 0,206352066945088 
507	 0,20748502101808 
508	 0,208249871715268 
509	 0,208476816037841 
510	 0,208133084965096 
511	 0,208716340848613 
512	 0,209424612007809 
513	 0,20697435124282 
514	 0,206502192798267 
515	 0,209618979950722 
516	 0,211225170378521 
517	 0,211338679985105 
518	 0,210733219267645 
519	 0,210930151152943 
520	 0,211995555205988 
521	 0,212441953956664 
522	 0,212534399781953 
523	 0,212513797860539 
524	 0,212751955368454 
525	 0,212989238415729 
526	 0,212557385508657 
527	 0,211618995476763 
528	 0,210525479438096 
529	 0,210593385459217 
530	 0,211456837687355 
531	 0,21255238066058 
532	 0,211933347378442 
533	 0,21000177139577 
534	 0,209385600545649 
535	 0,209506734852444 
536	 0,209964230933697 
537	 0,210198635236445 
538	 0,210403465655479 
539	 0,211143096372061 
540	 0,211777981416521 
541	 0,212075586894636 
542	 0,212080595091394 
543	 0,211812770808639 
544	 0,211323590434045 
545	 0,211185215415139 
546	 0,21148957927925 
547	 0,212093782985036 
548	 0,212881550480212 
549	 0,213603251527543 
550	 0,213181291609019 
551	 0,212454764283848 
552	 0,212926341394543 
553	 0,212773244384352 
554	 0,211837963105161 
555	 0,211559097964616 
556	 0,211713987270906 
557	 0,212041620990304 
558	 0,212107541083803 
559	 0,211766478353619 
560	 0,210805386648096 
561	 0,210279340981001 
562	 0,210534070796986 
563	 0,210671446616149 
564	 0,210429353952841 
565	 0,209581064322438 
566	 0,20969928102082 
567	 0,210658347233605 
568	 0,210431255333342 
569	 0,210163276336489 
570	 0,210707447984642 
571	 0,212066021992197 
572	 0,213716495335262 
573	 0,21447111402928 
574	 0,215923793176799 
575	 0,218313446177025 
576	 0,219853474035321 
577	 0,221059554039413 
578	 0,222646056693505 
579	 0,224487249885369 
580	 0,226343911070136 
581	 0,227524585586532 
582	 0,228709841651201 
583	 0,230241835421704 
584	 0,231393999418803 
585	 0,232613263025282 
586	 0,234998252365245 
587	 0,235616082605434 
588	 0,23455081240082 
589	 0,236296206019371 
590	 0,238981048500437 
591	 0,240629446990613 
592	 0,241064215229575 
593	 0,240682728543513 
594	 0,240650936405136 
595	 0,241043916486681 
596	 0,241817380725969 
597	 0,242104679223444 
598	 0,242032320321568 
599	 0,241942419522204 
600	 0,24185415228525 
601	 0,241712327868636 
602	 0,241156877794816 
603	 0,240800715307597 
604	 0,241011092124927 
605	 0,240115013939006 
606	 0,238525067997606 
607	 0,2379692519099 
608	 0,23729061498294 
609	 0,236237108034698 
610	 0,235817050513993 
611	 0,23552641090825 
612	 0,234657146853049 
613	 0,233736207126123 
614	 0,232828293299406 
615	 0,231606913218723 
616	 0,230754606416464 
617	 0,230695330044638 
618	 0,231038153705962 
619	 0,231296089186579 
620	 0,230685014138427 
621	 0,22996032532328 
622	 0,229499229989446 
623	 0,229667780634163 
624	 0,230135685207673 
625	 0,230521692808558 
626	 0,230490063151303 
627	 0,230302538524615 
628	 0,231089365149595 
629	 0,231283704260269 
630	 0,23034639933412 
631	 0,230534341898441 
632	 0,231714736758509 
633	 0,233268204299773 
634	 0,234105309370874 
635	 0,234217546155889 
636	 0,235228312327397 
637	 0,236395540786352 
638	 0,237098855143999 
639	 0,238257305778328 
640	 0,239671814088423 
641	 0,24045043012837 
642	 0,241218360465013 
643	 0,242174903763891 
644	 0,243067178603938 
645	 0,243588014600989 
646	 0,243383962229623 
647	 0,243061162019784 
648	 0,242700332988042 
649	 0,241967870665357 
650	 0,241055916115877 
651	 0,240083024854241 
652	 0,238751521010725 
653	 0,237480445537886 
654	 0,237338189670335 
655	 0,236181999302773 
656	 0,233534817751385 
657	 0,230973495256015 
658	 0,228702952602571 
659	 0,226807984245466 
660	 0,224458409007976 
661	 0,221946986188464 
662	 0,220701577301806 
663	 0,219372983573552 
664	 0,217404608784533 
665	 0,216092155209787 
666	 0,215084218220326 
667	 0,213608142781507 
668	 0,212247213344271 
669	 0,211288791541794 
670	 0,211177925659028 
671	 0,211125403518744 
672	 0,210528287189293 
673	 0,210267370286112 
674	 0,21026536875918 
675	 0,209963467525704 
676	 0,209774156044109 
677	 0,209808770102577 
678	 0,209745119577823 
679	 0,209948458580241 
680	 0,210857393909167 
681	 0,210935127811912 
682	 0,210492135063599 
683	 0,211665469448481 
684	 0,213234960525624 
685	 0,214535007163003 
686	 0,216245436166817 
687	 0,218510622261623 
688	 0,221439402932296 
689	 0,224441086818079 
690	 0,227763543245049 
691	 0,233087399996214 
692	 0,239466432525997 
693	 0,246046763278519 
694	 0,253672468455433 
695	 0,262347171661587 
696	 0,271651499147711 
697	 0,281927082930148 
698	 0,293226059657896 
699	 0,305100955491499 
700	 0,317388618766558 
701	 0,32992884914042 
702	 0,342886537490346 
703	 0,355940198044213 
704	 0,368122255114605 
705	 0,380103862369362 
706	 0,39216685100918 
707	 0,403182807116095 
708	 0,413551427147429 
709	 0,424280945794972 
710	 0,43423520927726 
711	 0,44321836327114 
712	 0,451967752764277 
713	 0,460329196272104 
714	 0,468105720173433 
715	 0,475082985148303 
716	 0,481399502260448 
717	 0,487425367492943 
718	 0,493314851002858 
719	 0,499051450843234 
720	 0,503909870818997 
721	 0,508170211488137 
722	 0,512292251932154 
723	 0,515990696128925 
724	 0,519342984423204 
725	 0,522787109345159 
726	 0,525727476363997 
727	 0,527892022174132 
728	 0,530247956394243 
729	 0,532581452157218 
730	 0,534254064266527 
731	 0,535814685477313 
732	 0,537414229891934 
733	 0,538930575657943 
734	 0,540249871432222 
735	 0,541280182039296 
736	 0,541996838570822 
737	 0,542761194915187 
738	 0,544545824978347 
739	 0,545836420596061 
740	 0,546162770665902 
741	 0,546527014843642 
742	 0,547060420758283 
743	 0,547804404932125 
744	 0,548251496434329 
745	 0,548470182664554 
746	 0,549059864183129 
747	 0,549646578815414 
748	 0,550030042828497 
749	 0,550302443500585 
750	 0,550551739634833 
751	 0,550897987784994 
752	 0,551105864738811 
753	 0,551284290147509 
754	 0,552137673390824 
755	 0,552774793968595 
756	 0,552597191842861 
757	 0,552490128468939 
758	 0,552651925905845 
759	 0,553193367500914 
760	 0,553633502696799 
761	 0,553796558888275 
762	 0,55375938658506 
763	 0,553801674749707 
764	 0,554149493257636 
765	 0,554165692390291 
766	 0,553917787065701 
767	 0,55390954347354 
768	 0,553859378580778 
769	 0,553737365634349 
770	 0,553930766288001 
771	 0,554313984877688 
772	 0,554689275511488 
773	 0,554539916167397 
774	 0,554016018760834 
775	 0,553914903766075 
776	 0,554077410499671 
777	 0,554355722076198 
778	 0,554262713406983 
779	 0,55400183910658 
780	 0,553956363052561 
781	 0,553953864031213 
782	 0,553932392351194 
783	 0,553813192585061 
784	 0,553682273042948 
785	 0,553629057605711 
786	 0,553873589899623 
787	 0,554218941405236 
788	 0,554259890193355 
789	 0,55440669002946 
790	 0,554647461156587 
791	 0,554473697579314 
792	 0,554046382077461 
793	 0,553559366143127 
794	 0,553462455274718 
795	 0,553648000774339 
796	 0,553702957617113 
797	 0,553813965593783 
798	 0,553947138548869 
799	 0,553731480038779 
800	 0,553492474143209 
801	 0,553536461259727 
802	 0,553503077627531 
803	 0,553436203950179 
804	 0,553681576286561 
805	 0,553564003178411 
806	 0,553036846552221 
807	 0,553313662012147 
808	 0,553717693189842 
809	 0,553481515194118 
810	 0,553795405028379 
811	 0,554547734236907 
812	 0,554736980947171 
813	 0,555022233493008 
814	 0,555501045225668 
815	 0,555084721962974 
816	 0,554620250066966 
817	 0,555179470584394 
818	 0,555392804981321 
819	 0,555169135702541 
820	 0,555139667634939 
821	 0,555475390260162 
822	 0,556084347872347 
823	 0,555681011911917 
824	 0,555181839723947 
825	 0,555896903492904 
826	 0,556515226909107 
827	 0,556661196098364 
828	 0,556156091198505 
829	 0,556023952109656 
830	 0,556619869616514 
831	 0,556313636163384 
832	 0,555629209092925 
833	 0,555511264170898 
834	 0,555665251972345 
835	 0,555954985850595 
836	 0,556166618073134 
837	 0,556241148434284 
838	 0,556153405260752 
839	 0,556015953909204 
840	 0,555943950432845 
841	 0,556069787647399 
842	 0,556043724379937 
843	 0,555935790494789 
844	 0,556368692862897 
845	 0,556387512898982 
846	 0,555655755442037 
847	 0,555788704651659 
848	 0,556280104246453 
849	 0,556168730381772 
850	 0,555946301011299 
851	 0,555785605877331 
852	 0,555837687419864 
853	 0,556035232162878 
854	 0,556283853871434 
855	 0,556274266695726 
856	 0,556084525643545 
857	 0,555876528404527 
858	 0,556048619483781 
859	 0,55650488144756 
860	 0,556626644394689 
861	 0,556541016613351 
862	 0,556364009969599 
863	 0,556489810997453 
864	 0,556503835546745 
865	 0,555842171962378 
866	 0,556246469417537 
867	 0,557467092722251 
868	 0,5575329667322 
869	 0,557057706020696 
870	 0,556460140911465 
871	 0,55649893344533 
872	 0,556732442365723 
873	 0,556551256706821 
874	 0,556722199752782 
875	 0,557130608146659 
876	 0,556970409177726 
877	 0,556936826846225 
878	 0,557156487049745 
879	 0,556516036480371 
880	 0,55611339237888 
881	 0,557116460221975 
882	 0,55754896649183 
883	 0,557203611898597 
884	 0,556534863331614 
885	 0,556571981693622 
886	 0,557409555058977 
887	 0,557132414277723 
888	 0,556850297487189 
889	 0,557599044513333 
890	 0,557655207645665 
891	 0,557085919376284 
892	 0,556644084934166 
893	 0,556913693784695 
894	 0,557740568988062 
895	 0,557362746060731 
896	 0,556975353900525 
897	 0,557524098066062 
898	 0,558313390227917 
899	 0,558747921113674 
900	 0,557970290082598 
901	 0,557629226279602 
902	 0,558052450709168 
903	 0,558567819317821 
904	 0,558407162731014 
905	 0,557296921192029 
906	 0,557021061199904 
907	 0,557326476238606 
908	 0,55751512056987 
909	 0,557662707740323 
910	 0,557700109142062 
911	 0,557439737262588 
912	 0,557305496542688 
913	 0,557409187931591 
914	 0,557064788910657 
915	 0,556659370275558 
916	 0,556685683101017 
917	 0,557107125132874 
918	 0,557619621368107 
919	 0,557467385981744 
920	 0,557626683318736 
921	 0,558059333038968 
922	 0,556890189123875 
923	 0,555782678894149 
924	 0,556052546668544 
925	 0,555733202002199 
926	 0,554862849651387 
927	 0,554021998177398 
928	 0,554149156543028 
929	 0,554992537916218 
930	 0,554559972043534 
931	 0,553856022103001 
932	 0,553460117036383 
933	 0,553011991024358 
934	 0,552517420601255 
935	 0,552016587012385 
936	 0,551522423537485 
937	 0,551110253166637 
938	 0,55103297347229 
939	 0,550595116520458 
940	 0,549700165030629 
941	 0,549284313835243 
942	 0,54936461177033 
943	 0,54975247589621 
944	 0,548885303209389 
945	 0,547383454135619 
946	 0,54692275943641 
947	 0,545600221454096 
948	 0,543551372180072 
949	 0,543217021117513 
950	 0,542960973667939 
951	 0,541916391524155 
952	 0,541126066664665 
953	 0,540242275503829 
954	 0,53880240869309 
955	 0,538818460722825 
956	 0,539308612313098 
957	 0,536545185808594 
958	 0,534730435849806 
959	 0,534798030260527 
960	 0,533828010286429 
961	 0,53259562056918 
962	 0,531919694469552 
963	 0,532976115693753 
964	 0,534087923581921 
965	 0,532549007542427 
966	 0,530569701297969 
967	 0,529205350845076 
968	 0,529770289443528 
969	 0,530422258634961 
970	 0,530374185784834 
971	 0,530279111584268 
972	 0,530260217085703 
973	 0,530432480550754 
974	 0,531206706528558 
975	 0,531723598381612 
976	 0,530337404291272 
977	 0,530423808255412 
978	 0,532337040945663 
979	 0,534080751746263 
980	 0,534139845430326 
981	 0,532197222172823 
982	 0,531483363348904 
983	 0,531126396331743 
984	 0,530140454286495 
985	 0,53126979066518 
986	 0,532879100435379 
987	 0,530792730399728 
988	 0,531526751382862 
989	 0,535088160628224 
990	 0,534475847412296 
991	 0,533192420013932 
992	 0,53321639914348 
993	 0,534637803037972 
994	 0,535818981821902 
995	 0,53522164098259 
996	 0,535115707958208 
997	 0,536683944345752 
998	 0,541429401288329 
999	 0,543115674991842 
1000	 0,54100656659862 
1001	 0,539321572808191 
1002	 0,539706272123741 
1003	 0,542349610163976 
1004	 0,542234145342265 
1005	 0,542004860168545 
1006	 0,544221013881423 
1007	 0,543410465862893 
1008	 0,54100501759287 
1009	 0,541050870719699 
1010	 0,542947400700437 
1011	 0,545795946934435 
1012	 0,547097127488693 
1013	 0,548395134950728 
1014	 0,550398145731655 
1015	 0,553309682653848 
1016	 0,555266780073676 
1017	 0,554984013901025 
1018	 0,555567180245308 
1019	 0,555038624592145 
1020	 0,55006605664636 
1021	 0,550630390644504 
1022	 0,555915865832401 
1023	 0,557121978612341 
1024	 0,555383765738034 
1025	 0,553082315724569 
1026	 0,559825963248024 
1027	 0,564390404507861 
1028	 0,560417207464635 
1029	 0,560996569838117 
1030	 0,562949297493028 
1031	 0,561301984788859 
1032	 0,561457860665017 
1033	 0,564199834799628 
1034	 0,569286282587221 
1035	 0,5671278885375 
1036	 0,559089105544174 
1037	 0,559905215213726 
1038	 0,56439347590992 
1039	 0,568629673961154 
1040	 0,564233618534687 
1041	 0,561494598813554 
1042	 0,567701294172908 
1043	 0,566668606803938 
1044	 0,561692015838795 
1045	 0,560576781239041 
1046	 0,563752165548907 
1047	 0,569347420761636 
1048	 0,57286053055951 
1049	 0,570187735486384 
1050	 0,563918586676739 
1051	 0,568711235121187 
1052	 0,571308043646749 
1053	 0,566583484755418 
1054	 0,566816858535749 
1055	 0,573068894236692 
1056	 0,583109393682095 
1057	 0,576919076702608 
1058	 0,568465740959173 
1059	 0,580501653886192 
1060	 0,579993280610676 
1061	 0,568944077371959 
1062	 0,56781634517781 
1063	 0,573843875407082 
1064	 0,580417511888164 
1065	 0,561897976193941 
1066	 0,560354895431506 
1067	 0,584926917398234 
1068	 0,576904924575055 
1069	 0,563566681170416 
1070	 0,567034255642538 
1071	 0,578936919289515 
1072	 0,588504273457821 
1073	 0,584022256243107 
1074	 0,569936837403424 
1075	 0,5600308638015 
