Wavelength	GRA-VAN00441.asd
325	 0,387743269971162 
326	-3,03166445683896E-02 
327	-0,165803977206289 
328	 0,200838760860386 
329	 5,27826661220563E-02 
330	-0,153190781263 
331	 0,142338974103613 
332	 0,193129489571347 
333	 0,116199531213892 
334	-1,26553977691514E-02 
335	 3,41767156750004E-02 
336	 0,232371180607391 
337	 0,193885305096873 
338	 9,81389102072141E-02 
339	 8,31601774273041E-02 
340	 7,03087987900479E-02 
341	 5,57426898112569E-02 
342	 3,58382240168987E-02 
343	 4,49566281947268E-02 
344	 7,94695388176146E-02 
345	 9,45469588060799E-02 
346	 0,110986508463542 
347	 0,136690905940207 
348	 7,75473179631005E-02 
349	-3,04810927786048E-02 
350	-2,71536490433057E-02 
351	 2,85305159232969E-02 
352	 8,27686060444681E-02 
353	 6,49259048331638E-02 
354	 0,023883576196768 
355	 1,97914882198576E-02 
356	 2,11145574160199E-02 
357	 2,18817025921681E-02 
358	 2,17108728126478E-02 
359	 3,04642032606305E-02 
360	 4,77992886934435E-02 
361	 4,94137680218361E-02 
362	 4,50767549803013E-02 
363	 5,03987076045032E-02 
364	 3,74599732875832E-02 
365	 0,016716757987785 
366	 0,051654849486683 
367	 8,12049980714398E-02 
368	 7,03062164591665E-02 
369	 0,0549345128046 
370	 3,42534937285395E-02 
371	-6,32011957403047E-03 
372	-9,80126936819502E-03 
373	 2,33173450644617E-02 
374	 1,63933329893972E-02 
375	 5,76645980727007E-03 
376	 1,98384031373208E-02 
377	 3,24298296126345E-02 
378	 3,89344651909421E-02 
379	 0,035204525712338 
380	 3,38443834676151E-02 
381	 3,89970486350868E-02 
382	 4,90220381126014E-02 
383	 5,46128085506562E-02 
384	 4,87564777662364E-02 
385	 4,96367998700586E-02 
386	 5,19701138391293E-02 
387	 3,25272954228083E-02 
388	 1,57355007002838E-02 
389	 1,31978911313342E-02 
390	 1,74785176342174E-02 
391	 1,96582837637335E-02 
392	 1,08290019954388E-02 
393	 8,75462239828371E-03 
394	 1,35740036021959E-02 
395	 1,30667196241842E-02 
396	 1,45575623673204E-02 
397	 2,13265423459758E-02 
398	 3,14169232904742E-02 
399	 3,45158165866666E-02 
400	 1,53698571437165E-02 
401	 1,33258841505047E-02 
402	 2,84724304387961E-02 
403	 2,29298762715285E-02 
404	 0,010838260774514 
405	 3,56806157786219E-03 
406	 4,54870330393559E-03 
407	 1,10067001222299E-02 
408	 1,77902419546937E-02 
409	 2,08733311279266E-02 
410	 0,019156308666945 
411	 0,015748083079529 
412	 1,43833355511232E-02 
413	 1,80193409727035E-02 
414	 2,17993112232863E-02 
415	 2,24823371403148E-02 
416	 1,38412303574389E-02 
417	 6,79848162383271E-03 
418	 6,99202487125134E-03 
419	 1,63643478002014E-02 
420	 2,56240117782532E-02 
421	 2,41046059753966E-02 
422	 2,03010831995338E-02 
423	 1,66336067836872E-02 
424	 1,30632000148883E-02 
425	 1,29392131248132E-02 
426	 1,73751341627766E-02 
427	 1,80027419360169E-02 
428	 1,60053914944384E-02 
429	 1,57856032800867E-02 
430	 1,41898778766063E-02 
431	 1,11561327433035E-02 
432	 9,68035972926305E-03 
433	 1,05648536947176E-02 
434	 1,39253761435137E-02 
435	 1,35940326798091E-02 
436	 1,01174237887462E-02 
437	 7,57072661126481E-03 
438	 7,2393710426304E-03 
439	 9,25532908517647E-03 
440	 9,90083357406686E-03 
441	 1,05310426656395E-02 
442	 1,32852694826333E-02 
443	 1,26600839502089E-02 
444	 9,4783604191862E-03 
445	 1,11762299590469E-02 
446	 1,18030236055247E-02 
447	 8,43729603234827E-03 
448	 9,62282988796778E-03 
449	 1,31364522163879E-02 
450	 1,26980375021628E-02 
451	 1,22747773087836E-02 
452	 1,28537835519519E-02 
453	 0,013406401367393 
454	 1,39465658389701E-02 
455	 1,45754655817452E-02 
456	 1,70125173162471E-02 
457	 1,87604163629753E-02 
458	 1,16762699767594E-02 
459	 8,93481817826015E-03 
460	 1,45099628702525E-02 
461	 0,013480469285729 
462	 0,010170893339949 
463	 1,21461975982387E-02 
464	 1,05931201576985E-02 
465	 6,34878489323204E-03 
466	 9,58839697156753E-03 
467	 1,43421933772967E-02 
468	 1,65020139047643E-02 
469	 1,72532306095725E-02 
470	 1,67127358406677E-02 
471	 1,45927481131881E-02 
472	 0,014502998457706 
473	 1,66892496636507E-02 
474	 1,58766874945468E-02 
475	 1,44740788561528E-02 
476	 1,50710499264306E-02 
477	 1,53578272889475E-02 
478	 1,49630786483118E-02 
479	 1,39707515920232E-02 
480	 1,37661772248359E-02 
481	 1,47656393359067E-02 
482	 1,46230321768209E-02 
483	 1,41288777966107E-02 
484	 0,014846035814514 
485	 0,01481694082353 
486	 1,36883002978383E-02 
487	 1,21071478659087E-02 
488	 1,09877474207081E-02 
489	 1,09695619347257E-02 
490	 1,09392146390661E-02 
491	 1,12548960037526E-02 
492	 1,34247632984401E-02 
493	 1,46714915264442E-02 
494	 1,41341207205211E-02 
495	 1,34078304045917E-02 
496	 1,23440225412586E-02 
497	 1,06619987744134E-02 
498	 1,05266556216074E-02 
499	 1,18181788686235E-02 
500	 1,27683824727385E-02 
501	 1,27934442973304E-02 
502	 0,011785474340961 
503	 1,20072739480302E-02 
504	 1,28303363340654E-02 
505	 1,26259411830456E-02 
506	 1,23505977865643E-02 
507	 1,24915245657298E-02 
508	 1,41215771857698E-02 
509	 1,49710897411916E-02 
510	 1,31399735798583E-02 
511	 1,23188565470844E-02 
512	 1,25581836192181E-02 
513	 1,19024461343586E-02 
514	 1,17498994844748E-02 
515	 1,25215858979942E-02 
516	 1,30620561893405E-02 
517	 1,31217689306039E-02 
518	 1,25102201755231E-02 
519	 1,28732365975292E-02 
520	 1,40180941736378E-02 
521	 1,37009783331242E-02 
522	 1,27669966886729E-02 
523	 1,19601831197824E-02 
524	 1,18232923813238E-02 
525	 1,24330003020578E-02 
526	 1,41248556608857E-02 
527	 1,37864997419836E-02 
528	 1,10847765892841E-02 
529	 1,06501644068728E-02 
530	 1,16748297805989E-02 
531	 1,27863906308882E-02 
532	 1,29569853901568E-02 
533	 1,21842802117696E-02 
534	 1,13220932342871E-02 
535	 1,10663700827961E-02 
536	 1,17606060239156E-02 
537	 0,012251012809822 
538	 1,27943373362287E-02 
539	 1,43077672476925E-02 
540	 1,49000435131093E-02 
541	 1,41500111813097E-02 
542	 0,013164823636258 
543	 1,22508175695889E-02 
544	 1,16721309964233E-02 
545	 1,18241114468282E-02 
546	 1,23886941034789E-02 
547	 1,22312806381522E-02 
548	 1,23606018638151E-02 
549	 0,013141068417378 
550	 1,36608670234334E-02 
551	 1,35797689051907E-02 
552	 1,25041430039808E-02 
553	 1,21843233145619E-02 
554	 1,27156370991261E-02 
555	 1,21626397281053E-02 
556	 0,0114558054776 
557	 0,011410740285215 
558	 1,17327420104133E-02 
559	 1,21818065295203E-02 
560	 1,23723608413134E-02 
561	 1,21627949934514E-02 
562	 1,16762816665022E-02 
563	 1,20998386453545E-02 
564	 1,27300636069029E-02 
565	 0,012519228972215 
566	 1,21166286130234E-02 
567	 1,16968509467742E-02 
568	 1,11844795501712E-02 
569	 1,10086480403211E-02 
570	 1,14338541496257E-02 
571	 1,19322451516991E-02 
572	 1,22674392701141E-02 
573	 1,21053321681886E-02 
574	 1,22443305596062E-02 
575	 1,29122136429687E-02 
576	 1,37141517383462E-02 
577	 1,40727247252511E-02 
578	 1,34077642132816E-02 
579	 1,27666678705386E-02 
580	 1,26496831372703E-02 
581	 1,38291522679707E-02 
582	 1,43736865311128E-02 
583	 1,34099963059786E-02 
584	 1,35936375251117E-02 
585	 1,45745326723684E-02 
586	 1,51484019039604E-02 
587	 1,53090670622001E-02 
588	 1,52297378807591E-02 
589	 1,59768410852606E-02 
590	 1,64446916768658E-02 
591	 1,56479876365039E-02 
592	 1,54428339340878E-02 
593	 1,57716635937087E-02 
594	 1,53418963058897E-02 
595	 1,52168995019724E-02 
596	 1,57742792106403E-02 
597	 1,60482117418915E-02 
598	 1,61958554247358E-02 
599	 0,016655144176054 
600	 1,60461903061113E-02 
601	 1,46616211380659E-02 
602	 1,50755594419915E-02 
603	 1,60416057226304E-02 
604	 1,64143436650482E-02 
605	 1,52868914276432E-02 
606	 1,36038689125463E-02 
607	 1,40822629076741E-02 
608	 1,45033556216818E-02 
609	 1,41779633517319E-02 
610	 1,41920114836963E-02 
611	 1,43994863869551E-02 
612	 1,45195189836914E-02 
613	 1,45297094933285E-02 
614	 1,43950018776994E-02 
615	 1,39604194363694E-02 
616	 1,39551462333414E-02 
617	 0,014710007728539 
618	 1,47360759118169E-02 
619	 1,41966031737444E-02 
620	 1,38712806761105E-02 
621	 1,33262246990882E-02 
622	 1,27124279624786E-02 
623	 1,32548362608488E-02 
624	 1,39532153778254E-02 
625	 1,37441322619725E-02 
626	 1,37007780023428E-02 
627	 1,39649324705738E-02 
628	 1,43615751006632E-02 
629	 1,43231913772106E-02 
630	 1,36945536619373E-02 
631	 1,37016790575959E-02 
632	 1,41499065297627E-02 
633	 1,44782607216208E-02 
634	 1,47751529034968E-02 
635	 1,50472581405817E-02 
636	 0,015377367095509 
637	 0,015501309312748 
638	 1,52537886454929E-02 
639	 1,54976039619047E-02 
640	 1,61278920831367E-02 
641	 1,65209630339859E-02 
642	 1,66018575671985E-02 
643	 1,64401776411055E-02 
644	 1,67768856124511E-02 
645	 1,73846223617735E-02 
646	 1,78818211762984E-02 
647	 1,77139919580867E-02 
648	 0,016892190703516 
649	 1,58360831093465E-02 
650	 1,56193806921214E-02 
651	 1,67491293537602E-02 
652	 1,66661177057226E-02 
653	 1,60740721548129E-02 
654	 1,73917535473572E-02 
655	 1,75568137969331E-02 
656	 1,59458040870677E-02 
657	 1,47915092335253E-02 
658	 1,42490960884133E-02 
659	 1,43129934025141E-02 
660	 1,45962591870188E-02 
661	 1,48073456694895E-02 
662	 1,45122918948837E-02 
663	 1,40502430809767E-02 
664	 1,36144391214194E-02 
665	 1,31599829254685E-02 
666	 1,29200523705145E-02 
667	 1,32692655534659E-02 
668	 1,31893543585913E-02 
669	 1,26951813600281E-02 
670	 1,31538245288534E-02 
671	 1,35087927808994E-02 
672	 1,29715254466496E-02 
673	 1,29753369271694E-02 
674	 1,34447942388627E-02 
675	 0,013637830544079 
676	 1,35897408538513E-02 
677	 1,34167032095463E-02 
678	 1,38174831546479E-02 
679	 1,44452331059845E-02 
680	 0,014815985919486 
681	 1,45008657347775E-02 
682	 1,38653370096406E-02 
683	 1,43697569865817E-02 
684	 1,51435694952956E-02 
685	 1,55955545030273E-02 
686	 1,53734459057748E-02 
687	 0,015096673975174 
688	 1,60048771816329E-02 
689	 1,62229408663748E-02 
690	 1,55895773252986E-02 
691	 1,59179632602553E-02 
692	 1,69618037940031E-02 
693	 1,84063045524272E-02 
694	 1,99364232468739E-02 
695	 2,15211049497686E-02 
696	 2,32434344877736E-02 
697	 2,54266927690018E-02 
698	 2,82087884935443E-02 
699	 3,13951577546546E-02 
700	 3,48737403243498E-02 
701	 3,85210529462725E-02 
702	 4,27167726404412E-02 
703	 4,72996696119448E-02 
704	 0,051404048336522 
705	 5,59773056203479E-02 
706	 6,14337160303786E-02 
707	 6,59415064097284E-02 
708	 7,00620793378344E-02 
709	 7,53315642997206E-02 
710	 8,04460889050006E-02 
711	 8,49854826511403E-02 
712	 0,089002502837249 
713	 9,29430238299032E-02 
714	 9,71919641819928E-02 
715	 0,101206598074845 
716	 0,105010117146434 
717	 0,109054754437226 
718	 0,112364352652628 
719	 0,114725423097207 
720	 0,117489178660783 
721	 0,120419846443016 
722	 0,123054485719497 
723	 0,125071855789998 
724	 0,12670356541448 
725	 0,129013949567295 
726	 0,131149691343296 
727	 0,13262921940239 
728	 0,134144047229158 
729	 0,135592145170702 
730	 0,136614359253177 
731	 0,137632928323883 
732	 0,138719185861721 
733	 0,139571379895801 
734	 0,140274615431686 
735	 0,140927801607362 
736	 0,141688258604445 
737	 0,14249758900191 
738	 0,143132704475169 
739	 0,14375373080078 
740	 0,144323510862417 
741	 0,144306834693748 
742	 0,144271383015309 
743	 0,144898669866317 
744	 0,14531317550434 
745	 0,145433448433757 
746	 0,145621835662762 
747	 0,14600628359528 
748	 0,146556321062953 
749	 0,146491762223969 
750	 0,146146871930228 
751	 0,146159586497288 
752	 0,146482501015222 
753	 0,146960889469877 
754	 0,147028898266153 
755	 0,147052798193966 
756	 0,14727173076163 
757	 0,147204368500083 
758	 0,147031422908213 
759	 0,147265832929722 
760	 0,147443114325943 
761	 0,147458433038824 
762	 0,147569984508202 
763	 0,147740684244885 
764	 0,147902418814214 
765	 0,147687928787605 
766	 0,147312711667473 
767	 0,147511337595949 
768	 0,147716801925468 
769	 0,147739399640977 
770	 0,147841714849566 
771	 0,148053309611625 
772	 0,148374604426053 
773	 0,148340070052748 
774	 0,148020444691841 
775	 0,14798420901474 
776	 0,147921980462702 
777	 0,147707379735372 
778	 0,147558365813919 
779	 0,147559786280443 
780	 0,147795647760047 
781	 0,14799072660267 
782	 0,148011546672571 
783	 0,147682083400282 
784	 0,147494349753873 
785	 0,147737900503214 
786	 0,147872663207546 
787	 0,147914294854572 
788	 0,148039350617163 
789	 0,148063308769391 
790	 0,148061309602563 
791	 0,148658857684519 
792	 0,148848138437154 
793	 0,147933504403166 
794	 0,147507085661274 
795	 0,147745346729431 
796	 0,148483008980468 
797	 0,14873559256806 
798	 0,148245263575071 
799	 0,147701917774749 
800	 0,147520430569737 
801	 0,14799189210697 
802	 0,148068861802523 
803	 0,147826159342826 
804	 0,148040425919212 
805	 0,148044664378477 
806	 0,147741319487657 
807	 0,147970583182421 
808	 0,148207303805456 
809	 0,147869668113126 
810	 0,147907601065983 
811	 0,1483353873724 
812	 0,148636114937458 
813	 0,14892581016127 
814	 0,149148206741649 
815	 0,14880371969133 
816	 0,148459763152618 
817	 0,14881235360481 
818	 0,149046727805935 
819	 0,149028018514802 
820	 0,148923461460515 
821	 0,1489112240746 
822	 0,14905620175021 
823	 0,14905667707596 
824	 0,149134499976971 
825	 0,149601341368548 
826	 0,150187406320658 
827	 0,150503887905233 
828	 0,149507513492783 
829	 0,148994404824417 
830	 0,149696440255701 
831	 0,149522053694978 
832	 0,149026005597209 
833	 0,149257162208181 
834	 0,149950014982773 
835	 0,150701757693562 
836	 0,15044518903897 
837	 0,150124629509814 
838	 0,150190457755151 
839	 0,149860404847098 
840	 0,149444955198887 
841	 0,149478549653692 
842	 0,149876942615805 
843	 0,150269795996723 
844	 0,149473336252066 
845	 0,149007169343137 
846	 0,149595418306835 
847	 0,14989612001544 
848	 0,149863429291095 
849	 0,149661557189869 
850	 0,149422891992486 
851	 0,149335248637522 
852	 0,149862122225051 
853	 0,150174638257763 
854	 0,149852884796196 
855	 0,149475212955947 
856	 0,149128432882919 
857	 0,148836501270534 
858	 0,148960472982077 
859	 0,149381494627923 
860	 0,149445615966211 
861	 0,149473299758988 
862	 0,14959350105125 
863	 0,149576573038674 
864	 0,149411103475798 
865	 0,149119401135595 
866	 0,149086363397634 
867	 0,149237296117026 
868	 0,148916525719757 
869	 0,149211522535661 
870	 0,150367361331262 
871	 0,150607031814922 
872	 0,150158554549867 
873	 0,14953625082521 
874	 0,149476460426111 
875	 0,149784032643041 
876	 0,149193894336388 
877	 0,149322083210959 
878	 0,150494913132611 
879	 0,150459968505854 
880	 0,150055226196199 
881	 0,150351704841787 
882	 0,150783764973046 
883	 0,150987927924166 
884	 0,150102243424446 
885	 0,150310068622409 
886	 0,151957466546398 
887	 0,152387228484564 
888	 0,152085554012726 
889	 0,151664774480991 
890	 0,150896570104849 
891	 0,150194529583081 
892	 0,150402882592396 
893	 0,151046837607103 
894	 0,151733008823954 
895	 0,151554875000113 
896	 0,15135698618316 
897	 0,151782515955822 
898	 0,152166158761735 
899	 0,152123276971124 
900	 0,151138973252063 
901	 0,150761470946149 
902	 0,15118959954595 
903	 0,151199372260219 
904	 0,151411394015418 
905	 0,152086860215695 
906	 0,152210703138502 
907	 0,152040902272775 
908	 0,152119524570114 
909	 0,152521580829035 
910	 0,152959548786247 
911	 0,152447975397627 
912	 0,151966127351621 
913	 0,151946137611887 
914	 0,151864747776515 
915	 0,151813081218035 
916	 0,151934074554651 
917	 0,152258566239772 
918	 0,152531474783953 
919	 0,152044154215087 
920	 0,152139698713231 
921	 0,152840930335732 
922	 0,151841637645808 
923	 0,150771053823272 
924	 0,150998374741307 
925	 0,151260108233382 
926	 0,151101299595125 
927	 0,150034294009486 
928	 0,150049928377444 
929	 0,15103989818049 
930	 0,150397719275155 
931	 0,149262084270309 
932	 0,148528657215613 
933	 0,149441202086343 
934	 0,150318213958999 
935	 0,148917720183404 
936	 0,14760710814866 
937	 0,146971713844486 
938	 0,147015249200829 
939	 0,147201834862385 
940	 0,147275031985893 
941	 0,147311659432908 
942	 0,147274685717029 
943	 0,147078979713244 
944	 0,146131914406877 
945	 0,144991292518341 
946	 0,144835396004091 
947	 0,144429707738149 
948	 0,143637183706655 
949	 0,143309757795816 
950	 0,143022532647198 
951	 0,142530163239735 
952	 0,142004651631267 
953	 0,141255974780899 
954	 0,140094268532028 
955	 0,139866635438757 
956	 0,140138722689165 
957	 0,139064005272775 
958	 0,137800838916751 
959	 0,136850586414597 
960	 0,136616561074716 
961	 0,136078169981415 
962	 0,134687250383621 
963	 0,134704732321337 
964	 0,135644090389015 
965	 0,136271962660486 
966	 0,136461949005112 
967	 0,136146775093491 
968	 0,135285608123494 
969	 0,134969524796927 
970	 0,135615423368726 
971	 0,13672405000724 
972	 0,136646655710123 
973	 0,134292010578025 
974	 0,134013224709454 
975	 0,135196378423126 
976	 0,135360151723282 
977	 0,135273686604002 
978	 0,135181828378325 
979	 0,135424666881677 
980	 0,135552482069985 
981	 0,135394568832139 
982	 0,13527825939009 
983	 0,135533444314378 
984	 0,13642457227991 
985	 0,137578019862831 
986	 0,138390850917811 
987	 0,137881755765333 
988	 0,137701609817098 
989	 0,138167473506983 
990	 0,138722102028084 
991	 0,137682655519837 
992	 0,135198450138244 
993	 0,13794725554179 
994	 0,140516083703395 
995	 0,137372082799782 
996	 0,138003710313733 
997	 0,140939279133516 
998	 0,139918589717496 
999	 0,139751708547887 
1000	 0,141182880969897 
1001	 0,142232209950096 
1002	 0,141882980769509 
1003	 0,140192430131029 
1004	 0,140816095256436 
1005	 0,142305139577035 
1006	 0,143007477522189 
1007	 0,144474891927294 
1008	 0,145279270795213 
1009	 0,142596698994058 
1010	 0,141301968230584 
1011	 0,142222976832318 
1012	 0,143327662543024 
1013	 0,143732111056454 
1014	 0,143424633599862 
1015	 0,145003631390952 
1016	 0,146984883245761 
1017	 0,147966170406393 
1018	 0,148091234657313 
1019	 0,147674085800835 
1020	 0,147216512640607 
1021	 0,147086220008283 
1022	 0,147222586773958 
1023	 0,146829308262187 
1024	 0,148724895341134 
1025	 0,152182020751413 
1026	 0,149728936795471 
1027	 0,147697464477776 
1028	 0,150014580887825 
1029	 0,152054017324071 
1030	 0,151659540815505 
1031	 0,147571048129688 
1032	 0,149336121826861 
1033	 0,155240053091666 
1034	 0,1581635227298 
1035	 0,154126243620339 
1036	 0,146959534394949 
1037	 0,154638949775315 
1038	 0,160967681843907 
1039	 0,15938841231473 
1040	 0,157391587349595 
1041	 0,154985098765787 
1042	 0,152048266607496 
1043	 0,149019260609558 
1044	 0,147024264174229 
1045	 0,147465470072896 
1046	 0,151035344946698 
1047	 0,155587496983259 
1048	 0,155521753974865 
1049	 0,161629196685223 
1050	 0,171209932758846 
1051	 0,161949409184405 
1052	 0,156813543048066 
1053	 0,165672546601383 
1054	 0,170253600276364 
1055	 0,170151487024488 
1056	 0,166035107175657 
1057	 0,158254078446234 
1058	 0,154623197470599 
1059	 0,164886196765982 
1060	 0,165250924887604 
1061	 0,158187181534897 
1062	 0,16137972865737 
1063	 0,16657667733007 
1064	 0,167487770443348 
1065	 0,148158214795379 
1066	 0,136398350712128 
1067	 0,144502826844592 
1068	 0,160478039407547 
1069	 0,166121113937167 
1070	 0,152012478140782 
1071	 0,153964052201075 
1072	 0,164508017013395 
1073	 0,168201173171789 
1074	 0,161113895073317 
1075	 0,15576810061873 
