Wavelength	GRA-BER00327.asd
325	 0,196418949330257 
326	 0,269258551346724 
327	 0,27932824649296 
328	 0,227099836148935 
329	 0,19647434764161 
330	 0,180939291341222 
331	 0,182957045471311 
332	 0,232631682972626 
333	 0,273749423436949 
334	 0,201568095538171 
335	 0,134698650234159 
336	 0,137321918166401 
337	 0,187388372455731 
338	 0,22690075741399 
339	 0,220395972314131 
340	 0,172504306455582 
341	 0,126127233514734 
342	 0,154934626944899 
343	 0,10899335724742 
344	-2,2545195377695E-03 
345	 6,57219982139474E-02 
346	 0,167849363257418 
347	 0,159914424859055 
348	 0,123545840245733 
349	 8,84140681276409E-02 
350	 0,10314453860208 
351	 0,131104491821877 
352	 0,144672864632002 
353	 0,103369024674799 
354	 6,44209811324266E-02 
355	 0,103586116879944 
356	 0,107962186576275 
357	 7,84272596218722E-02 
358	 7,73866323024499E-02 
359	 9,01065185921397E-02 
360	 0,106103252155374 
361	 0,1091615436668 
362	 0,105113223452807 
363	 0,104505965180485 
364	 9,90971059620945E-02 
365	 8,98945121112083E-02 
366	 8,34010154420413E-02 
367	 0,082496526840514 
368	 8,85380968591036E-02 
369	 9,74326940170265E-02 
370	 9,76299465427365E-02 
371	 6,79248943531478E-02 
372	 6,52671799196497E-02 
373	 9,42833305270566E-02 
374	 9,58436631169014E-02 
375	 9,01093191631464E-02 
376	 9,28617218630779E-02 
377	 9,97389747693304E-02 
378	 0,105806638260724 
379	 0,106237825307166 
380	 8,54759563723779E-02 
381	 5,22531713835786E-02 
382	 7,29440419720057E-02 
383	 0,108368721715318 
384	 0,119211869545642 
385	 0,100455593326874 
386	 0,070693777639927 
387	 8,46965158623348E-02 
388	 9,25300770567562E-02 
389	 0,079709205875632 
390	 7,60173947833158E-02 
391	 8,42791821610567E-02 
392	 0,103486073458482 
393	 0,11256237368667 
394	 0,107222374842818 
395	 8,66721219319188E-02 
396	 7,27144279092669E-02 
397	 0,077447593679333 
398	 8,68477090525563E-02 
399	 9,10596893431268E-02 
400	 7,82871792013564E-02 
401	 7,74666338004369E-02 
402	 8,91834792401972E-02 
403	 8,81663126047405E-02 
404	 8,28600055646266E-02 
405	 7,94156250960494E-02 
406	 7,50081541483502E-02 
407	 0,072332745392764 
408	 7,77474610132153E-02 
409	 7,84215871324981E-02 
410	 0,071905564671089 
411	 0,066405703140397 
412	 6,36205344809646E-02 
413	 0,064759754431885 
414	 7,16470102376425E-02 
415	 7,91950314405084E-02 
416	 7,42501788715058E-02 
417	 7,35532367867161E-02 
418	 8,10923548762523E-02 
419	 7,55303192871867E-02 
420	 6,64813787140628E-02 
421	 6,80021421919478E-02 
422	 7,26768073184808E-02 
423	 7,69505977936639E-02 
424	 7,47362200537798E-02 
425	 7,42258174757949E-02 
426	 7,91184363823954E-02 
427	 7,62136405362159E-02 
428	 7,05697127291593E-02 
429	 7,45282856645776E-02 
430	 7,51928352730548E-02 
431	 7,11046275126346E-02 
432	 7,32476409637103E-02 
433	 7,59493218755084E-02 
434	 7,39286381147487E-02 
435	 7,01163258921287E-02 
436	 6,67047291459033E-02 
437	 6,76985169822397E-02 
438	 6,96470110131147E-02 
439	 7,10754937234631E-02 
440	 7,26973779046426E-02 
441	 7,33529371405663E-02 
442	 7,16349826545602E-02 
443	 6,98479557054171E-02 
444	 6,91530132151695E-02 
445	 7,10275668141687E-02 
446	 7,29157243562602E-02 
447	 7,30648890692099E-02 
448	 7,15420018762751E-02 
449	 6,99056511408001E-02 
450	 7,07683636233339E-02 
451	 7,33511579456767E-02 
452	 7,62321381274682E-02 
453	 7,42200475498944E-02 
454	 7,20404953406907E-02 
455	 7,42440659081762E-02 
456	 7,82791483128973E-02 
457	 8,14203267331418E-02 
458	 7,80022575743339E-02 
459	 7,45970397723187E-02 
460	 7,43742239301095E-02 
461	 7,73841256650692E-02 
462	 0,080694357147947 
463	 8,05483361648777E-02 
464	 7,90294418146411E-02 
465	 7,70087373165426E-02 
466	 7,53213519946716E-02 
467	 7,46230886732225E-02 
468	 7,52538986563861E-02 
469	 7,59176064846428E-02 
470	 7,65968478326548E-02 
471	 7,79258939107343E-02 
472	 7,78163802115131E-02 
473	 7,59768741697509E-02 
474	 7,42921970229672E-02 
475	 7,37170091128363E-02 
476	 0,074973630521628 
477	 7,63502691723015E-02 
478	 7,66797348435093E-02 
479	 7,35047520694965E-02 
480	 7,23170365964033E-02 
481	 7,50111247163385E-02 
482	 7,50383888259415E-02 
483	 7,35416556894324E-02 
484	 7,32189545379416E-02 
485	 7,38538569305304E-02 
486	 7,47357020701895E-02 
487	 7,32031390502531E-02 
488	 7,15935762486757E-02 
489	 7,16475668178351E-02 
490	 7,15811646710519E-02 
491	 7,13924918963163E-02 
492	 7,16089455124721E-02 
493	 7,28480406579326E-02 
494	 7,44638750341856E-02 
495	 7,19587313062592E-02 
496	 6,90744556688577E-02 
497	 7,03196807403459E-02 
498	 6,95499834197564E-02 
499	 6,70760915430447E-02 
500	 6,81582283236435E-02 
501	 6,94919281667661E-02 
502	 6,94239953235684E-02 
503	 7,07396797720121E-02 
504	 7,24392166644595E-02 
505	 7,22585469986976E-02 
506	 7,18553823095828E-02 
507	 0,071914729118387 
508	 7,30789084725251E-02 
509	 7,41900149591696E-02 
510	 7,41872251585873E-02 
511	 7,34645247368565E-02 
512	 7,24731512524096E-02 
513	 7,20012051280275E-02 
514	 7,21655342563686E-02 
515	 7,28363543952168E-02 
516	 0,07265298130272 
517	 7,25558686059463E-02 
518	 7,40714149004907E-02 
519	 7,43311441214932E-02 
520	 7,33064932052924E-02 
521	 7,38112466869266E-02 
522	 7,42664546917751E-02 
523	 7,35293697327832E-02 
524	 7,23475472048027E-02 
525	 7,15022354538073E-02 
526	 7,25380035469424E-02 
527	 0,073059668771356 
528	 0,072517403819223 
529	 7,30688320486556E-02 
530	 7,35682081160676E-02 
531	 0,072579277995611 
532	 7,18569080483062E-02 
533	 7,15970642737193E-02 
534	 0,07086404920878 
535	 7,08831601882546E-02 
536	 7,21530117295208E-02 
537	 0,072447365786027 
538	 7,21880070204688E-02 
539	 7,28424127575239E-02 
540	 7,24053088506319E-02 
541	 7,09673843162771E-02 
542	 7,17438534456595E-02 
543	 7,30893757503204E-02 
544	 7,32714852301219E-02 
545	 7,34510437800568E-02 
546	 7,37508175466852E-02 
547	 7,40332400079621E-02 
548	 7,36604694615167E-02 
549	 0,072541641609658 
550	 7,23169702610361E-02 
551	 0,07281450943868 
552	 7,34822195490428E-02 
553	 0,073628105178551 
554	 7,32402535071828E-02 
555	 7,31383075434595E-02 
556	 7,37770633470448E-02 
557	 7,53220128559862E-02 
558	 7,51719980230627E-02 
559	 7,38819228231355E-02 
560	 7,40480708017213E-02 
561	 7,42213966938925E-02 
562	 7,40714601503634E-02 
563	 7,49488247123904E-02 
564	 7,60409054405678E-02 
565	 7,61488929153977E-02 
566	 7,67369779915602E-02 
567	 7,78981605917413E-02 
568	 7,85716331733346E-02 
569	 0,079317975578722 
570	 8,04715334267411E-02 
571	 0,081212970593047 
572	 8,18048502314565E-02 
573	 8,31276262191439E-02 
574	 8,41866017347562E-02 
575	 8,48949876061461E-02 
576	 8,67061833247168E-02 
577	 0,088831864594611 
578	 9,02744505997482E-02 
579	 9,10020816146783E-02 
580	 9,12359332909237E-02 
581	 9,16889108055744E-02 
582	 9,22951684079412E-02 
583	 9,29851144414292E-02 
584	 9,34440248884341E-02 
585	 9,35928848560343E-02 
586	 9,33910260674056E-02 
587	 9,29519337305997E-02 
588	 9,25033093456995E-02 
589	 9,27582292578253E-02 
590	 9,29548322904977E-02 
591	 9,24098686879597E-02 
592	 9,23997823153326E-02 
593	 0,092784277812386 
594	 9,24888999014179E-02 
595	 9,21828149604641E-02 
596	 9,20481648015926E-02 
597	 9,11438134793328E-02 
598	 9,01605384878523E-02 
599	 9,02556656794305E-02 
600	 9,03714806902623E-02 
601	 9,01441577824819E-02 
602	 8,94727499496217E-02 
603	 8,85717068394918E-02 
604	 8,76878073438635E-02 
605	 8,75342609209395E-02 
606	 0,087641141993534 
607	 8,64641168929067E-02 
608	 8,58190273713036E-02 
609	 8,61072482534471E-02 
610	 8,55192109717285E-02 
611	 8,42487534344154E-02 
612	 8,27345089503934E-02 
613	 8,26484529737087E-02 
614	 8,37425108421343E-02 
615	 8,37457598539194E-02 
616	 8,33497345833736E-02 
617	 8,30094481534095E-02 
618	 8,27183743851455E-02 
619	 8,25506764486295E-02 
620	 8,26192000589135E-02 
621	 8,26489890435078E-02 
622	 8,26160657446251E-02 
623	 8,28721145743268E-02 
624	 8,33081533531206E-02 
625	 8,37953296898069E-02 
626	 8,45841273692649E-02 
627	 8,53357282462372E-02 
628	 8,48677078482301E-02 
629	 8,48489816589472E-02 
630	 8,59953170266785E-02 
631	 8,66320223820669E-02 
632	 8,69163897516014E-02 
633	 8,74377517070326E-02 
634	 8,79098638197188E-02 
635	 8,83688735901844E-02 
636	 8,92828522475626E-02 
637	 9,00229347575282E-02 
638	 9,01188361321401E-02 
639	 9,07750731795997E-02 
640	 9,19214989229777E-02 
641	 9,28859139931578E-02 
642	 9,34534366115741E-02 
643	 9,36317803305204E-02 
644	 9,42994660526036E-02 
645	 9,49551297403499E-02 
646	 9,48484097785954E-02 
647	 9,47673820131266E-02 
648	 9,48486653669229E-02 
649	 9,48302105044489E-02 
650	 9,47770261165696E-02 
651	 9,46068036826788E-02 
652	 9,31680773228386E-02 
653	 9,12388748011639E-02 
654	 9,06768699409185E-02 
655	 9,03506098157636E-02 
656	 8,97611858024591E-02 
657	 8,83322494544648E-02 
658	 0,086958049339711 
659	 8,65629827262876E-02 
660	 8,60419126722821E-02 
661	 8,48998109436612E-02 
662	 8,22059785133868E-02 
663	 8,06368072188321E-02 
664	 8,12727652421856E-02 
665	 8,09962089256226E-02 
666	 8,00799185499729E-02 
667	 7,95534221336781E-02 
668	 7,90157809929804E-02 
669	 7,84070769123124E-02 
670	 7,77578341856089E-02 
671	 7,74403173210059E-02 
672	 0,077686276278326 
673	 7,75521116909942E-02 
674	 7,72431392015147E-02 
675	 7,77419842661947E-02 
676	 7,79515153446386E-02 
677	 7,76328562070389E-02 
678	 7,79737132739983E-02 
679	 7,82117637126665E-02 
680	 7,73628454115521E-02 
681	 7,73189885195352E-02 
682	 7,81564390451451E-02 
683	 7,86057624693734E-02 
684	 7,89288597093087E-02 
685	 7,93523578964469E-02 
686	 8,04367632330081E-02 
687	 0,082013021868301 
688	 8,36415355026571E-02 
689	 8,53828777807832E-02 
690	 0,087385813701795 
691	 9,00771365325385E-02 
692	 9,36967496588956E-02 
693	 9,83620109603705E-02 
694	 0,102781843816548 
695	 0,107357482178981 
696	 0,11373430599173 
697	 0,120959555476852 
698	 0,128588023466593 
699	 0,136364110858489 
700	 0,144712448883975 
701	 0,154215044770749 
702	 0,164466754566692 
703	 0,175045767039795 
704	 0,185193181343607 
705	 0,195327741205518 
706	 0,205669249388949 
707	 0,215985439298103 
708	 0,226320583057329 
709	 0,236891355814478 
710	 0,246682150731398 
711	 0,255578674699619 
712	 0,264777140311197 
713	 0,27371434829395 
714	 0,281880789841986 
715	 0,290153494539741 
716	 0,298426542929034 
717	 0,306135482968027 
718	 0,313003039906702 
719	 0,319036276686253 
720	 0,325273667911832 
721	 0,331317006411405 
722	 0,336533160390413 
723	 0,341953416465541 
724	 0,347365354511524 
725	 0,351133777900341 
726	 0,354981221899664 
727	 0,359786759441806 
728	 0,363414421173669 
729	 0,366199529197688 
730	 0,369253299840447 
731	 0,37205212951502 
732	 0,374536873480713 
733	 0,376954815625301 
734	 0,379331565039162 
735	 0,381647905521903 
736	 0,383383249192652 
737	 0,384763954022224 
738	 0,386558922851788 
739	 0,388355509491449 
740	 0,390014178906041 
741	 0,391636322288802 
742	 0,392973851370529 
743	 0,393758293220399 
744	 0,39454407967062 
745	 0,395519731117218 
746	 0,396810353199069 
747	 0,398007542361503 
748	 0,398875363926025 
749	 0,399540851411576 
750	 0,400122356719848 
751	 0,400756216036769 
752	 0,401774312156975 
753	 0,402974812480823 
754	 0,403226304150884 
755	 0,403482061232298 
756	 0,404384600237961 
757	 0,404894553038073 
758	 0,405209151799481 
759	 0,406074369996026 
760	 0,406767218944936 
761	 0,407074934731415 
762	 0,407171565305331 
763	 0,407398734790082 
764	 0,408030933002675 
765	 0,408302504869648 
766	 0,408366719393732 
767	 0,409081611521335 
768	 0,409475005758711 
769	 0,409292723750268 
770	 0,409421748348143 
771	 0,409855093055347 
772	 0,410480714021276 
773	 0,410959255740014 
774	 0,411149243904941 
775	 0,410886075851263 
776	 0,410827526714584 
777	 0,411290545556864 
778	 0,411757524860404 
779	 0,412149399137111 
780	 0,412452633041992 
781	 0,412561018387946 
782	 0,412582100966946 
783	 0,413009357176743 
784	 0,41329484172923 
785	 0,413166870363206 
786	 0,413600331614912 
787	 0,414254423765682 
788	 0,41427746252591 
789	 0,414442460627594 
790	 0,414778759605676 
791	 0,414445621854037 
792	 0,41397694566277 
793	 0,413872615814914 
794	 0,414513028139932 
795	 0,415363287859938 
796	 0,415172284408655 
797	 0,414818866866189 
798	 0,414682768628585 
799	 0,415088386247424 
800	 0,415404516925351 
801	 0,415072690720075 
802	 0,415033555918039 
803	 0,41534230812743 
804	 0,415664704188441 
805	 0,416031561417738 
806	 0,41641802905472 
807	 0,416802910201737 
808	 0,416991895528292 
809	 0,416817847837222 
810	 0,417048071286334 
811	 0,417590633798465 
812	 0,417642764086731 
813	 0,418064802697073 
814	 0,419041735626278 
815	 0,419409852534275 
816	 0,419520453656886 
817	 0,419910870418792 
818	 0,420389346237669 
819	 0,420814584662927 
820	 0,420785813982079 
821	 0,421210289917807 
822	 0,422334336081175 
823	 0,422728226555554 
824	 0,422702608719843 
825	 0,422849999537759 
826	 0,422828363490556 
827	 0,422757994860474 
828	 0,423163541280935 
829	 0,423787352149248 
830	 0,424361274374388 
831	 0,424115754943557 
832	 0,423727462400612 
833	 0,424213487818032 
834	 0,424393002523647 
835	 0,4242953025093 
836	 0,425085213591614 
837	 0,425394016961959 
838	 0,424729564569485 
839	 0,425256274271756 
840	 0,426154638024677 
841	 0,42595304174861 
842	 0,425308136947154 
843	 0,424739363288384 
844	 0,425376212880365 
845	 0,426057767158267 
846	 0,426145035342238 
847	 0,426097071040569 
848	 0,426126618772491 
849	 0,426458792126119 
850	 0,426505548310851 
851	 0,426368073915918 
852	 0,426953264636335 
853	 0,427197905319652 
854	 0,426705260766941 
855	 0,427011898949234 
856	 0,427650972210918 
857	 0,427763605992723 
858	 0,427952028798712 
859	 0,428148070651459 
860	 0,427597350953292 
861	 0,42753546941643 
862	 0,428483636409673 
863	 0,429276197015048 
864	 0,429646979211991 
865	 0,42944760301886 
866	 0,429602783793074 
867	 0,430100671165681 
868	 0,430127833503368 
869	 0,430233785318344 
870	 0,430578355119769 
871	 0,430478688358899 
872	 0,430314035892611 
873	 0,430586198364238 
874	 0,430373950349935 
875	 0,42987806739629 
876	 0,430127405114208 
877	 0,43111150864124 
878	 0,432439672715674 
879	 0,432002681153704 
880	 0,431032426829831 
881	 0,431029148136353 
882	 0,431441993457414 
883	 0,432001547014686 
884	 0,432346124849822 
885	 0,432088490621837 
886	 0,431397465924607 
887	 0,431853014499327 
888	 0,43288869342198 
889	 0,433796826553083 
890	 0,433829205459298 
891	 0,433398234735583 
892	 0,433788324484885 
893	 0,433723319457975 
894	 0,433141202323261 
895	 0,43360859357601 
896	 0,434124394037067 
897	 0,433915125382594 
898	 0,433725834567274 
899	 0,433957137764246 
900	 0,435135460907255 
901	 0,435746285320496 
902	 0,435415938439443 
903	 0,434577072080857 
904	 0,434227144843059 
905	 0,434853467969659 
906	 0,434953841619373 
907	 0,434789176433989 
908	 0,435000830739276 
909	 0,434468238607023 
910	 0,433575858300953 
911	 0,434369882217134 
912	 0,435080122985778 
913	 0,434893548513245 
914	 0,434479646342253 
915	 0,433983423417672 
916	 0,433547183541084 
917	 0,433864318523305 
918	 0,434533625512107 
919	 0,434224219170983 
920	 0,433794677354958 
921	 0,433486619555804 
922	 0,432922085233529 
923	 0,432717913078484 
924	 0,433256357022717 
925	 0,433104303845787 
926	 0,432258504313424 
927	 0,431149434095693 
928	 0,430163804237121 
929	 0,429572275249537 
930	 0,429892969967374 
931	 0,429321672515509 
932	 0,427208828797456 
933	 0,426975695226163 
934	 0,427339863501242 
935	 0,42622361438848 
936	 0,425567129543484 
937	 0,425536882524675 
938	 0,425490417890288 
939	 0,424916060557692 
940	 0,423663343058721 
941	 0,422230414812415 
942	 0,421163770940487 
943	 0,420803737744688 
944	 0,419912491277507 
945	 0,418216941492122 
946	 0,415544853097921 
947	 0,414927070233482 
948	 0,415981552183135 
949	 0,413822714918633 
950	 0,41155004944584 
951	 0,410624145004884 
952	 0,408096407328549 
953	 0,40574558582772 
954	 0,405883164739685 
955	 0,405151675086681 
956	 0,403134328916517 
957	 0,40052333966971 
958	 0,399129328932912 
959	 0,399120058945727 
960	 0,397612173318616 
961	 0,396685256829874 
962	 0,397553516569184 
963	 0,395802034219431 
964	 0,393353582182266 
965	 0,393987933801208 
966	 0,393750105370773 
967	 0,392358168798021 
968	 0,39212237978714 
969	 0,391525440841922 
970	 0,390415210834526 
971	 0,391499791024783 
972	 0,392502581616403 
973	 0,391390109578783 
974	 0,391024423254076 
975	 0,391149077716688 
976	 0,390405779612047 
977	 0,390985226754553 
978	 0,392631685431176 
979	 0,392498417494336 
980	 0,391718952816905 
981	 0,391051898002595 
982	 0,391267204067425 
983	 0,392131071896203 
984	 0,393238157121712 
985	 0,39405317736741 
986	 0,394090411167802 
987	 0,392590368692305 
988	 0,393103378735162 
989	 0,395407861659511 
990	 0,394450048691267 
991	 0,394498398312948 
992	 0,397004747207001 
993	 0,396304506296689 
994	 0,395539895934948 
995	 0,398027882156926 
996	 0,397430210769172 
997	 0,395080706029196 
998	 0,395611725900409 
999	 0,398778569428339 
1000	 0,402920614656634 
1001	 0,402677560787768 
1002	 0,401818002694219 
1003	 0,40206352446001 
1004	 0,401341451361836 
1005	 0,400402710670086 
1006	 0,400332642522477 
1007	 0,403380541728014 
1008	 0,407847551433084 
1009	 0,410098588887312 
1010	 0,409920823927365 
1011	 0,408401215145773 
1012	 0,409135689395526 
1013	 0,411883599387841 
1014	 0,41549194615082 
1015	 0,414704461779752 
1016	 0,412209449394306 
1017	 0,410907318170442 
1018	 0,412652231213783 
1019	 0,415829440366098 
1020	 0,417669939578893 
1021	 0,41825181536237 
1022	 0,417776888754807 
1023	 0,416879441620488 
1024	 0,416987200408982 
1025	 0,418730658239163 
1026	 0,42202186756405 
1027	 0,424985746243145 
1028	 0,42595061374648 
1029	 0,422663254460289 
1030	 0,420963810074695 
1031	 0,426933046601522 
1032	 0,426579520094177 
1033	 0,422678741930723 
1034	 0,426407619887376 
1035	 0,430761812253514 
1036	 0,434210154196466 
1037	 0,439208524333938 
1038	 0,440506189135822 
1039	 0,436619630822109 
1040	 0,432994331544555 
1041	 0,432784806188058 
1042	 0,437218318836644 
1043	 0,436744370388075 
1044	 0,433462594856183 
1045	 0,432336235141569 
1046	 0,437085434726804 
1047	 0,442872974869564 
1048	 0,436558045847027 
1049	 0,433830827289412 
1050	 0,437354497952627 
1051	 0,437011556709156 
1052	 0,437448182652448 
1053	 0,439647357081503 
1054	 0,436343914292122 
1055	 0,43262820128241 
1056	 0,433357750418077 
1057	 0,436716391635714 
1058	 0,439409904012771 
1059	 0,437651825636857 
1060	 0,436645803565145 
1061	 0,437842331334492 
1062	 0,441561251571337 
1063	 0,44817775943859 
1064	 0,45445868255674 
1065	 0,450833689236396 
1066	 0,442905363204406 
1067	 0,435567701766653 
1068	 0,433769448473119 
1069	 0,447369561630721 
1070	 0,475547900052743 
1071	 0,457644061808887 
1072	 0,4289873021734 
1073	 0,43729633530174 
1074	 0,445056732322161 
1075	 0,445957646489797 
