Wavelength	GRA-BER00486.asd
325	 0,317091769299072 
326	 0,180734977248504 
327	 4,50438593806431E-02 
328	-1,02930652864917E-02 
329	 0,051290894476716 
330	 0,177771447964898 
331	 0,282051514410079 
332	 0,191670733412671 
333	 5,39322285482959E-02 
334	 0,190751592238762 
335	 0,234707298940774 
336	 0,14664370039083 
337	 0,147470093359825 
338	 0,161982113345032 
339	 0,114839857787732 
340	 0,114864900683316 
341	 0,142592239791706 
342	 0,124964462365831 
343	 0,109331561529859 
344	 0,113448114763109 
345	 0,150666389004581 
346	 0,18556032029145 
347	 0,182869743554588 
348	 0,181424538038885 
349	 0,179242488109819 
350	 0,146881068032792 
351	 0,148364734185225 
352	 0,191879836784111 
353	 0,198662867466073 
354	 0,173611897510475 
355	 0,123270298369125 
356	 0,11901870202003 
357	 0,158280923226426 
358	 0,163286165187366 
359	 0,150735874105338 
360	 0,13145287703982 
361	 0,143660044793196 
362	 0,164092632517578 
363	 0,152314354269714 
364	 0,146914090337485 
365	 0,149106606010414 
366	 0,126657755308712 
367	 0,125692397170471 
368	 0,16873408790144 
369	 0,190228007345341 
370	 0,187075880667552 
371	 0,168291998964738 
372	 0,156277531023955 
373	 0,15919648455866 
374	 0,170946614272629 
375	 0,174478301594928 
376	 0,158545333325692 
377	 0,151657144319117 
378	 0,152715974278291 
379	 0,146497985833653 
380	 0,146232836994942 
381	 0,157219651031198 
382	 0,187794294649562 
383	 0,206443824884332 
384	 0,187893005140021 
385	 0,183267264520567 
386	 0,192854536958465 
387	 0,191572451640082 
388	 0,188254355983771 
389	 0,185619020292666 
390	 0,176963194802615 
391	 0,172178830509653 
392	 0,183879345800171 
393	 0,187073012152566 
394	 0,181619073742307 
395	 0,185049297598017 
396	 0,190179168606226 
397	 0,192600402182061 
398	 0,188040804697239 
399	 0,181786118641004 
400	 0,18183957889861 
401	 0,182339283583742 
402	 0,18190525581551 
403	 0,18054332038208 
404	 0,181747692300184 
405	 0,186987086245886 
406	 0,186966258067962 
407	 0,181516569809715 
408	 0,170649778919439 
409	 0,173284098680701 
410	 0,188409078778864 
411	 0,184326501530386 
412	 0,174132518574967 
413	 0,170949510866111 
414	 0,166739939434677 
415	 0,164839525041147 
416	 0,17732662159567 
417	 0,185490597634736 
418	 0,182445894385993 
419	 0,178203133405613 
420	 0,175579006884497 
421	 0,17698884412124 
422	 0,176449503831864 
423	 0,175007610247493 
424	 0,18147643340367 
425	 0,185477031886551 
426	 0,181580733972553 
427	 0,17940078403525 
428	 0,179349966501435 
429	 0,179933063404549 
430	 0,178369674813093 
431	 0,17552515847772 
432	 0,17937038554638 
433	 0,183341596352186 
434	 0,181758338465312 
435	 0,180331503806645 
436	 0,180001059719715 
437	 0,180160947952803 
438	 0,181206922982463 
439	 0,182830383291725 
440	 0,182594424434847 
441	 0,181212481801688 
442	 0,179861728662122 
443	 0,181182883676174 
444	 0,183435902232557 
445	 0,177799545113676 
446	 0,175796057360814 
447	 0,183193936341581 
448	 0,183410705301117 
449	 0,17987823325327 
450	 0,183487373855987 
451	 0,184559570411363 
452	 0,181732136736081 
453	 0,182513503421391 
454	 0,184528321036376 
455	 0,185299392983192 
456	 0,185223652591511 
457	 0,185510967424477 
458	 0,189638456148462 
459	 0,191853833651508 
460	 0,190232472178903 
461	 0,190148865042307 
462	 0,189683380397509 
463	 0,18556962737393 
464	 0,183890730878763 
465	 0,18567147560076 
466	 0,188819925977285 
467	 0,190320264155222 
468	 0,188529918193156 
469	 0,188780450483467 
470	 0,190130621612922 
471	 0,189036352418937 
472	 0,188799649548544 
473	 0,190014079800684 
474	 0,190594037967172 
475	 0,189439406578115 
476	 0,185883419440781 
477	 0,187253923953932 
478	 0,19102750822712 
479	 0,185442979351719 
480	 0,18256182138327 
481	 0,186941796573101 
482	 0,188053286529093 
483	 0,1873313444352 
484	 0,1885896150575 
485	 0,188637481240104 
486	 0,187560389397338 
487	 0,188810858818004 
488	 0,190033428835531 
489	 0,18946038792748 
490	 0,188313913128337 
491	 0,187295000308479 
492	 0,187584507358446 
493	 0,187602100749402 
494	 0,18687394324545 
495	 0,186034350276618 
496	 0,185659304259962 
497	 0,186304220733224 
498	 0,187039122833062 
499	 0,187519924473653 
500	 0,187534507400309 
501	 0,1872220396327 
502	 0,186810573824826 
503	 0,187307634561322 
504	 0,188149732219052 
505	 0,188121425233391 
506	 0,188350892964247 
507	 0,188902170963747 
508	 0,18849929214827 
509	 0,188318095807338 
510	 0,189401449656636 
511	 0,190620503888774 
512	 0,191414149896852 
513	 0,191069897897108 
514	 0,190236871092272 
515	 0,189334065686477 
516	 0,188789549496121 
517	 0,18854874105308 
518	 0,188423811166295 
519	 0,189055552162228 
520	 0,1901313805293 
521	 0,19019196901506 
522	 0,189526298179203 
523	 0,188526830030529 
524	 0,188818303533426 
525	 0,189780597308075 
526	 0,189508167607609 
527	 0,188711063926291 
528	 0,1878238037987 
529	 0,187818673976858 
530	 0,188318887287452 
531	 0,188792392510614 
532	 0,188834669269338 
533	 0,188610225854518 
534	 0,189112453077821 
535	 0,189157596544483 
536	 0,188215349768681 
537	 0,187987155446634 
538	 0,188378358996915 
539	 0,188723399738304 
540	 0,189718593359786 
541	 0,190965846434169 
542	 0,189919058897764 
543	 0,188389045097301 
544	 0,188257017799969 
545	 0,189123330501274 
546	 0,190211809231211 
547	 0,189576362060226 
548	 0,189023420430725 
549	 0,189381190875501 
550	 0,189858614328531 
551	 0,190027734572221 
552	 0,18932145500932 
553	 0,189678491856608 
554	 0,190926356241183 
555	 0,189914923189259 
556	 0,189029213325353 
557	 0,190149869336804 
558	 0,190202398439555 
559	 0,189333809636304 
560	 0,189260167129001 
561	 0,189444253017334 
562	 0,189713788430437 
563	 0,190182909506778 
564	 0,190375855405106 
565	 0,189682359048832 
566	 0,189389645885366 
567	 0,189717578691034 
568	 0,190115162929868 
569	 0,190497486522147 
570	 0,190838437303148 
571	 0,1916612493172 
572	 0,192520209150557 
573	 0,192192227845697 
574	 0,192527782083537 
575	 0,193946569623336 
576	 0,194904522987374 
577	 0,195456755720411 
578	 0,195811205095346 
579	 0,196598337017953 
580	 0,197603991118942 
581	 0,197572005977956 
582	 0,197781650866457 
583	 0,198891957143302 
584	 0,199914831258422 
585	 0,200604130265373 
586	 0,200775810984528 
587	 0,201034897888725 
588	 0,201383410411936 
589	 0,200907858709577 
590	 0,200213159603136 
591	 0,199926606493582 
592	 0,200295756113963 
593	 0,20102781270722 
594	 0,201214858352328 
595	 0,201356977567553 
596	 0,201593126898546 
597	 0,201326330472478 
598	 0,200997666480838 
599	 0,201359264449932 
600	 0,201179459295374 
601	 0,200490931129199 
602	 0,200814246287118 
603	 0,201223547867934 
604	 0,200966191567287 
605	 0,200524817582083 
606	 0,199925888760329 
607	 0,198954931903732 
608	 0,198255294424193 
609	 0,198129101213998 
610	 0,198624570752012 
611	 0,199043563191389 
612	 0,198550517040319 
613	 0,198146104913834 
614	 0,198073681986761 
615	 0,198273427626383 
616	 0,198365198349109 
617	 0,198108960905759 
618	 0,19772145783323 
619	 0,197489744400791 
620	 0,197948809909525 
621	 0,198052980428138 
622	 0,197581586547603 
623	 0,197285943226747 
624	 0,197283488949941 
625	 0,197639305434092 
626	 0,198188354558203 
627	 0,19876462530876 
628	 0,199046018616795 
629	 0,199386058575269 
630	 0,199959225971325 
631	 0,200578987013103 
632	 0,201230566249729 
633	 0,201932539910422 
634	 0,202637963401255 
635	 0,203233847121845 
636	 0,203332218537699 
637	 0,203557952904001 
638	 0,204410910504705 
639	 0,20510713899587 
640	 0,205609980829933 
641	 0,206244621545879 
642	 0,20672151727013 
643	 0,206955424928273 
644	 0,207137048937199 
645	 0,207441852772709 
646	 0,208065290920583 
647	 0,208499869582471 
648	 0,20858674519533 
649	 0,208267224291493 
650	 0,208073400889106 
651	 0,208309323446157 
652	 0,208194971266387 
653	 0,207838870215259 
654	 0,207717440375318 
655	 0,20745674412083 
656	 0,207051074313078 
657	 0,207153877369331 
658	 0,206947081548654 
659	 0,205599364384153 
660	 0,204391834108169 
661	 0,20370868693502 
662	 0,203819952333884 
663	 0,20357236571122 
664	 0,202478676003317 
665	 0,201768574951804 
666	 0,201376040159336 
667	 0,200969754333944 
668	 0,200424321087527 
669	 0,199803538868702 
670	 0,199528424464351 
671	 0,199457826712075 
672	 0,199426511141248 
673	 0,198899315813937 
674	 0,198342082344055 
675	 0,199204964343459 
676	 0,199619512206865 
677	 0,199043189990869 
678	 0,198709305367292 
679	 0,198609905262738 
680	 0,198612092094551 
681	 0,199093505415633 
682	 0,199847424229646 
683	 0,199841366943635 
684	 0,200442154656452 
685	 0,202283138783579 
686	 0,203406927711892 
687	 0,204284995458288 
688	 0,206186161268458 
689	 0,208590320565572 
690	 0,211386241124577 
691	 0,214588184035878 
692	 0,218436170463822 
693	 0,22315845126499 
694	 0,22876125622414 
695	 0,235207070576713 
696	 0,242469270081465 
697	 0,250303793825328 
698	 0,258629126119729 
699	 0,267743421641592 
700	 0,277337411122796 
701	 0,28700158253578 
702	 0,297287657494621 
703	 0,308098615979991 
704	 0,31885802628763 
705	 0,329307353985455 
706	 0,339301985649934 
707	 0,349231266765947 
708	 0,359138159670535 
709	 0,369067342641058 
710	 0,378323148331146 
711	 0,386720342108474 
712	 0,394584451060187 
713	 0,402327698998116 
714	 0,410238691793696 
715	 0,417187964208777 
716	 0,423268901931163 
717	 0,42930472157723 
718	 0,434895107218029 
719	 0,439945562013337 
720	 0,44480557909579 
721	 0,449426848446252 
722	 0,453701625637226 
723	 0,45766317571556 
724	 0,461311549364108 
725	 0,464488932163762 
726	 0,467758322312488 
727	 0,471330276127297 
728	 0,473766882720773 
729	 0,475558219564111 
730	 0,477928937401001 
731	 0,480134694205119 
732	 0,481995978029447 
733	 0,483654056405211 
734	 0,485243431329141 
735	 0,48686827696326 
736	 0,488333675613192 
737	 0,489642673821745 
738	 0,490895546439997 
739	 0,492050978114363 
740	 0,493108630848096 
741	 0,494141540366259 
742	 0,495038462239286 
743	 0,495677116665823 
744	 0,496693806398852 
745	 0,497877881236809 
746	 0,498106565014785 
747	 0,498335752989323 
748	 0,499053642878701 
749	 0,499775070318293 
750	 0,500413828443035 
751	 0,500920762873715 
752	 0,501551687521768 
753	 0,502209508894862 
754	 0,502250640621642 
755	 0,502240613834327 
756	 0,502591188675014 
757	 0,502986172549207 
758	 0,503328726334025 
759	 0,503530360573966 
760	 0,503649119993226 
761	 0,503771573369459 
762	 0,504196102923786 
763	 0,504558235447075 
764	 0,504537698615365 
765	 0,504903568417687 
766	 0,505395323963285 
767	 0,504868014073915 
768	 0,504728541797873 
769	 0,50540996608921 
770	 0,505879797983177 
771	 0,506066209065412 
772	 0,506003128574785 
773	 0,50614731780997 
774	 0,506393044303516 
775	 0,506014962905255 
776	 0,50576566663129 
777	 0,506018057137766 
778	 0,506431423903771 
779	 0,506648751321654 
780	 0,506207948976496 
781	 0,506436764562643 
782	 0,507271857429262 
783	 0,507121390786008 
784	 0,506936371509821 
785	 0,507259641947813 
786	 0,507001019449497 
787	 0,506603245932388 
788	 0,507115114648045 
789	 0,507482370763428 
790	 0,507454226666086 
791	 0,507437628934349 
792	 0,507345676235512 
793	 0,507173404309072 
794	 0,507683031292584 
795	 0,508488477304439 
796	 0,508526141653522 
797	 0,508375035478121 
798	 0,508255920279863 
799	 0,508221916205944 
800	 0,508485189776608 
801	 0,509162503470382 
802	 0,509120447646427 
803	 0,508637308364189 
804	 0,509030599005834 
805	 0,509231113838798 
806	 0,508978024266572 
807	 0,509049132753658 
808	 0,509199953041039 
809	 0,509134517815889 
810	 0,509399939353795 
811	 0,509812269755523 
812	 0,509482535883322 
813	 0,509563789234393 
814	 0,510347779836863 
815	 0,510418307302458 
816	 0,510224390107594 
817	 0,510442563347035 
818	 0,510996940055675 
819	 0,511543484864097 
820	 0,511082173683015 
821	 0,510703391727671 
822	 0,510897797227204 
823	 0,511085204665065 
824	 0,511275408299519 
825	 0,511548012569069 
826	 0,511789094460451 
827	 0,511946448334038 
828	 0,511977462768221 
829	 0,511911429647771 
830	 0,511794420865589 
831	 0,511756281235346 
832	 0,511852601209272 
833	 0,512128792442635 
834	 0,512165178120458 
835	 0,512025077128709 
836	 0,512276176835403 
837	 0,512580296177464 
838	 0,512805918236586 
839	 0,513473279281835 
840	 0,513967194424811 
841	 0,513379136577256 
842	 0,513200343224136 
843	 0,513575062249638 
844	 0,513673407254773 
845	 0,513403837478395 
846	 0,512872663254288 
847	 0,513232362856918 
848	 0,513981639145206 
849	 0,514234432797753 
850	 0,514217832698697 
851	 0,514090040569228 
852	 0,514275710347151 
853	 0,514209292799179 
854	 0,513728000565693 
855	 0,513915441578539 
856	 0,514424952338517 
857	 0,514620689619413 
858	 0,514785641304212 
859	 0,514989870013666 
860	 0,515301775134391 
861	 0,515484430047056 
862	 0,515474878728407 
863	 0,515781436051495 
864	 0,516034569931077 
865	 0,515710661714569 
866	 0,515925199696149 
867	 0,516512031198584 
868	 0,516127316769677 
869	 0,515755137365791 
870	 0,515841808611865 
871	 0,515996195716254 
872	 0,516241485603213 
873	 0,516616330934881 
874	 0,516180898820762 
875	 0,51532759138679 
876	 0,515771770000997 
877	 0,51623347286566 
878	 0,516218659672359 
879	 0,516245382761734 
880	 0,516213675985014 
881	 0,515994131015442 
882	 0,51582993237493 
883	 0,515710799127666 
884	 0,515469267437522 
885	 0,515165248897584 
886	 0,514929056060849 
887	 0,515245469111445 
888	 0,515723046539424 
889	 0,51594769422284 
890	 0,515830609025527 
891	 0,515623690307898 
892	 0,515936832636646 
893	 0,516094702001229 
894	 0,515929643693855 
895	 0,515767704176869 
896	 0,515594368628053 
897	 0,515389690560172 
898	 0,514999143214558 
899	 0,514886445399081 
900	 0,515922425553529 
901	 0,516461117768367 
902	 0,516096996635903 
903	 0,515207971589057 
904	 0,514949947083815 
905	 0,515872885364483 
906	 0,516267000758377 
907	 0,516097980986044 
908	 0,51565498473658 
909	 0,515235460530865 
910	 0,514991778203957 
911	 0,514969234334034 
912	 0,515424762705986 
913	 0,516148958116871 
914	 0,515315403456882 
915	 0,514029590768465 
916	 0,513685284641888 
917	 0,513829433771509 
918	 0,514179510404013 
919	 0,514314338634232 
920	 0,513856971623152 
921	 0,512960412979331 
922	 0,513137945417543 
923	 0,513220973298725 
924	 0,512243106034927 
925	 0,511170915903972 
926	 0,510442368593586 
927	 0,510516480535328 
928	 0,510717629102424 
929	 0,510642450266814 
930	 0,509770004784689 
931	 0,508553135162149 
932	 0,507421830562776 
933	 0,507196675016726 
934	 0,506939689392805 
935	 0,505405089415843 
936	 0,504996167524514 
937	 0,505588349861237 
938	 0,505522033722164 
939	 0,503907803265535 
940	 0,501200382786878 
941	 0,501968116636927 
942	 0,502302943436011 
943	 0,498964599033098 
944	 0,497997788430715 
945	 0,498735695425534 
946	 0,498153254589451 
947	 0,495991632303193 
948	 0,493066056371266 
949	 0,49301488475941 
950	 0,492325687584451 
951	 0,489370909089199 
952	 0,487782732325191 
953	 0,486443809401311 
954	 0,483681338656558 
955	 0,482220285987462 
956	 0,482236874653882 
957	 0,482804997854177 
958	 0,482481687586646 
959	 0,480809643691574 
960	 0,478572896328838 
961	 0,477347183866731 
962	 0,47793443068626 
963	 0,476543343084824 
964	 0,474797776044198 
965	 0,475958400063517 
966	 0,47497245822031 
967	 0,472185634146336 
968	 0,472537579278061 
969	 0,473579516702638 
970	 0,474021144058197 
971	 0,472862071581026 
972	 0,471774283743589 
973	 0,472290536056515 
974	 0,472955982315824 
975	 0,473664243227321 
976	 0,47471931854634 
977	 0,474367338651754 
978	 0,472578640538983 
979	 0,470557972771166 
980	 0,471130917696915 
981	 0,474863027500232 
982	 0,47610895688582 
983	 0,475234623214062 
984	 0,473386527375002 
985	 0,472893677745627 
986	 0,474034627106364 
987	 0,47637474382 
988	 0,477148885597028 
989	 0,476098560742146 
990	 0,475611626012659 
991	 0,475974398615829 
992	 0,477015007612222 
993	 0,476370191151531 
994	 0,475876463850074 
995	 0,477365159065708 
996	 0,476838591803658 
997	 0,475727734181806 
998	 0,478123439001483 
999	 0,480935968194492 
1000	 0,483209969284141 
1001	 0,485550003701695 
1002	 0,484347018756514 
1003	 0,47941316750269 
1004	 0,480369975188648 
1005	 0,483476777640143 
1006	 0,484350630708932 
1007	 0,484689573006635 
1008	 0,48498770895212 
1009	 0,485759471860485 
1010	 0,486293027528465 
1011	 0,486540595805059 
1012	 0,486805536120252 
1013	 0,4880664892542 
1014	 0,490122035420611 
1015	 0,489738620149297 
1016	 0,487831832004904 
1017	 0,485983538809421 
1018	 0,488913420498178 
1019	 0,493018517964896 
1020	 0,492003494844995 
1021	 0,491158508323689 
1022	 0,491894632095045 
1023	 0,494507808656268 
1024	 0,497269667031755 
1025	 0,498741867325963 
1026	 0,496003398650503 
1027	 0,494333617657731 
1028	 0,496371595694718 
1029	 0,493876584215289 
1030	 0,491205704655669 
1031	 0,494188479611085 
1032	 0,498388859664867 
1033	 0,501033269989119 
1034	 0,498373822820911 
1035	 0,495878632380857 
1036	 0,495582448065704 
1037	 0,498584321305979 
1038	 0,498073041207826 
1039	 0,492701474227071 
1040	 0,492729502092719 
1041	 0,498020884724273 
1042	 0,506252182938278 
1043	 0,5060202086705 
1044	 0,50082173101852 
1045	 0,498219521264251 
1046	 0,502056556989939 
1047	 0,507818564013173 
1048	 0,502596013486045 
1049	 0,500385517064568 
1050	 0,503804704597497 
1051	 0,505548970375678 
1052	 0,505583680840031 
1053	 0,505126327689719 
1054	 0,512082819986094 
1055	 0,516206987564955 
1056	 0,509867598469261 
1057	 0,510800764532574 
1058	 0,513836166448518 
1059	 0,50879801658094 
1060	 0,507385381510567 
1061	 0,508309811686397 
1062	 0,502382716966508 
1063	 0,506173676010461 
1064	 0,516408052620181 
1065	 0,502927459677114 
1066	 0,495501462189608 
1067	 0,504158099399469 
1068	 0,502594267639633 
1069	 0,500511433909665 
1070	 0,504699907912112 
1071	 0,501387856100439 
1072	 0,496316622293666 
1073	 0,4979136723285 
1074	 0,501595263810552 
1075	 0,500085887678705 
