Wavelength	GRA-VAN00876.asd
325	 0,247776788005979 
326	 0,281462650259153 
327	 0,35976099344408 
328	 0,412381159550102 
329	 0,260538782490523 
330	 7,59547383309759E-02 
331	 0,207165655790565 
332	 0,269471473417269 
333	 0,278837498486899 
334	 0,202289813768365 
335	 0,212088345732692 
336	 0,321121498343736 
337	 0,333250132658853 
338	 0,28230710195407 
339	 0,18285657959586 
340	 0,151285127136143 
341	 0,172643806929789 
342	 0,140479927328046 
343	 0,12629148528441 
344	 0,150574242116851 
345	 0,184952486685311 
346	 0,224236059715819 
347	 0,243883651487007 
348	 0,207789674917239 
349	 0,139286741803535 
350	 0,128175043602347 
351	 0,145683210943057 
352	 0,168619358274531 
353	 0,172312863734314 
354	 0,167706015459986 
355	 0,167637922644161 
356	 0,166758088704885 
357	 0,160253153141633 
358	 0,129488020495883 
359	 0,126462364727559 
360	 0,166943746328288 
361	 0,17105581156717 
362	 0,152987895507102 
363	 0,139466521869257 
364	 0,134619962781444 
365	 0,140415634294488 
366	 0,15234995318645 
367	 0,175236235492445 
368	 0,204642516842592 
369	 0,185887452020789 
370	 0,14308296921864 
371	 0,124951753329344 
372	 0,147114670146835 
373	 0,19056701733374 
374	 0,177368334565771 
375	 0,150807075658697 
376	 0,148588927135286 
377	 0,164123973551058 
378	 0,18369493081466 
379	 0,177658208201202 
380	 0,164838903964859 
381	 0,153375463399023 
382	 0,152627070188765 
383	 0,156659502463567 
384	 0,159479234118672 
385	 0,165064509502515 
386	 0,165902914700063 
387	 0,138018909396766 
388	 0,131920741926813 
389	 0,161803284193559 
390	 0,172410835153068 
391	 0,165227370750746 
392	 0,147651248984535 
393	 0,147484203865407 
394	 0,160775753337839 
395	 0,155819460518116 
396	 0,147477188606542 
397	 0,145274895010557 
398	 0,16149440862442 
399	 0,177546686492451 
400	 0,165447159926756 
401	 0,154985550501071 
402	 0,1522154876021 
403	 0,146192201735702 
404	 0,138073643268329 
405	 0,130506182001704 
406	 0,137991963011251 
407	 0,152163808952446 
408	 0,15482701241905 
409	 0,16003515424869 
410	 0,166588989888867 
411	 0,151231995329523 
412	 0,136946345903178 
413	 0,145121453519739 
414	 0,154903861058506 
415	 0,159363081463009 
416	 0,150845158205812 
417	 0,144088894040708 
418	 0,145043996735755 
419	 0,146238142308037 
420	 0,148744580876865 
421	 0,154819556393194 
422	 0,157812924026153 
423	 0,156270161168048 
424	 0,151088034298554 
425	 0,146390560108198 
426	 0,145053162573372 
427	 0,148798127573356 
428	 0,153016205732317 
429	 0,14960751283864 
430	 0,144849448401402 
431	 0,141480411068403 
432	 0,141994861261317 
433	 0,14544669559924 
434	 0,150267193644158 
435	 0,147278016360286 
436	 0,140134521748449 
437	 0,142677205151941 
438	 0,145274971938424 
439	 0,144543788496955 
440	 0,144175539449701 
441	 0,144721463979707 
442	 0,146474526188539 
443	 0,146742911767036 
444	 0,145759703761304 
445	 0,147043203943932 
446	 0,146429506331138 
447	 0,142287380851829 
448	 0,143812692250446 
449	 0,148540394553763 
450	 0,149620704096386 
451	 0,150058788042363 
452	 0,150255385259989 
453	 0,148382076289954 
454	 0,14660480492821 
455	 0,146988269425967 
456	 0,149287180510604 
457	 0,151431359164749 
458	 0,147750892681513 
459	 0,147107736806216 
460	 0,15198139753519 
461	 0,151964754723574 
462	 0,148921189242628 
463	 0,146548476653671 
464	 0,147385707902987 
465	 0,150905755183722 
466	 0,152756236946971 
467	 0,152989400426785 
468	 0,151914889806754 
469	 0,152379705491054 
470	 0,153170365763553 
471	 0,150787071311548 
472	 0,149980676299842 
473	 0,151682225829067 
474	 0,152318050661225 
475	 0,152546129776809 
476	 0,1532051075323 
477	 0,154454583404221 
478	 0,155826375807668 
479	 0,156298863338399 
480	 0,15531408766931 
481	 0,15304112191301 
482	 0,152717942905664 
483	 0,152756845496697 
484	 0,150218062688973 
485	 0,149674542010379 
486	 0,151524538807462 
487	 0,152582659761777 
488	 0,152640431351682 
489	 0,151597658899905 
490	 0,149603341090434 
491	 0,148089321700945 
492	 0,150050682808033 
493	 0,152023779506765 
494	 0,152818421572878 
495	 0,153772870628893 
496	 0,153814677440018 
497	 0,151728966322033 
498	 0,15093675113838 
499	 0,151756994541646 
500	 0,152509601912024 
501	 0,153153136856138 
502	 0,153593135836956 
503	 0,153710858016458 
504	 0,153677291093847 
505	 0,153740544209041 
506	 0,15433034919235 
507	 0,155430269026929 
508	 0,156625860487445 
509	 0,15664269537656 
510	 0,154582464871609 
511	 0,154634100517764 
512	 0,156096843878736 
513	 0,154743992337486 
514	 0,154358686952005 
515	 0,156165434172465 
516	 0,157054698852812 
517	 0,157069198624918 
518	 0,156728482022364 
519	 0,156324532687055 
520	 0,156259846697948 
521	 0,157702260057881 
522	 0,158106648730702 
523	 0,155985169540206 
524	 0,156504317559289 
525	 0,158654930407123 
526	 0,158406664939614 
527	 0,157709944795781 
528	 0,157107878437504 
529	 0,155910300006901 
530	 0,155433742747809 
531	 0,157134182339075 
532	 0,157401264562119 
533	 0,156049664494084 
534	 0,155203150283499 
535	 0,154975683399094 
536	 0,155377663429247 
537	 0,155474849183738 
538	 0,155597111446278 
539	 0,156682788683153 
540	 0,15732102474071 
541	 0,15710829610425 
542	 0,156454600860287 
543	 0,15589724916248 
544	 0,155925693888162 
545	 0,156104454873705 
546	 0,156339676105185 
547	 0,15659381516437 
548	 0,157167690723443 
549	 0,158047338002895 
550	 0,158233112161249 
551	 0,157733851896209 
552	 0,156720891203964 
553	 0,156050376583755 
554	 0,155991383569763 
555	 0,156303562197236 
556	 0,156659045383951 
557	 0,156767064527028 
558	 0,156541941968007 
559	 0,156116584912844 
560	 0,155845095145627 
561	 0,155594314488995 
562	 0,155341762876096 
563	 0,155204678113512 
564	 0,155079722025178 
565	 0,154820578897717 
566	 0,154588994902759 
567	 0,154445001712837 
568	 0,154335929538362 
569	 0,154632817681203 
570	 0,155539719553531 
571	 0,156349052051458 
572	 0,157011828224296 
573	 0,157691248448088 
574	 0,15855569565692 
575	 0,159628296125877 
576	 0,160738025566714 
577	 0,161551828509516 
578	 0,161726329361745 
579	 0,161601915886283 
580	 0,161803504475169 
581	 0,164013586376223 
582	 0,165712547555157 
583	 0,165639070898767 
584	 0,166293534094123 
585	 0,167515767122888 
586	 0,168464043970264 
587	 0,169046370620271 
588	 0,169471625708302 
589	 0,17096487770863 
590	 0,172302874732244 
591	 0,172358472522292 
592	 0,172556699960482 
593	 0,17296910694914 
594	 0,172933544583238 
595	 0,173018203487541 
596	 0,173426770194764 
597	 0,173701782528674 
598	 0,173638904037737 
599	 0,17299972803219 
600	 0,172705713646583 
601	 0,172908481076122 
602	 0,173072344621905 
603	 0,172973077783127 
604	 0,172443881104694 
605	 0,171590810803969 
606	 0,170743607023479 
607	 0,17065311194916 
608	 0,170413933909405 
609	 0,169735632660491 
610	 0,169115481938099 
611	 0,168602399166984 
612	 0,168201179747016 
613	 0,167971905618928 
614	 0,167750471671761 
615	 0,166864088945836 
616	 0,166428382831878 
617	 0,167080277494899 
618	 0,167779523527147 
619	 0,167920921716107 
620	 0,16660797720668 
621	 0,165612188858007 
622	 0,165589716441306 
623	 0,166365533739477 
624	 0,166992229859382 
625	 0,166557472210782 
626	 0,166437809308735 
627	 0,166759530289638 
628	 0,166976284520588 
629	 0,16717321450453 
630	 0,167373606593961 
631	 0,167460284661231 
632	 0,167751178399742 
633	 0,168804024701111 
634	 0,169317935696198 
635	 0,169215809773492 
636	 0,169945964405748 
637	 0,170667598214381 
638	 0,170699731350805 
639	 0,171225788880634 
640	 0,172127222600614 
641	 0,172571105565711 
642	 0,172948558609464 
643	 0,173427193726449 
644	 0,174109414073175 
645	 0,174837404673429 
646	 0,17540565640669 
647	 0,174972876019864 
648	 0,173801350989946 
649	 0,173480194801834 
650	 0,173560102669843 
651	 0,17361290884041 
652	 0,172571063218582 
653	 0,171222266763004 
654	 0,1716128203305 
655	 0,171212210253849 
656	 0,169461884909598 
657	 0,16811906715792 
658	 0,16691694985841 
659	 0,165482346627827 
660	 0,164087861795935 
661	 0,162740234327425 
662	 0,161195757650612 
663	 0,160163591772844 
664	 0,159893928201534 
665	 0,159456656961674 
666	 0,158635981108608 
667	 0,157263314266053 
668	 0,156474130370121 
669	 0,156441979258419 
670	 0,156355616609922 
671	 0,156285621689278 
672	 0,156286777594404 
673	 0,156182215224882 
674	 0,156069492541511 
675	 0,156324582196516 
676	 0,156244190788725 
677	 0,155708941816142 
678	 0,15559077312624 
679	 0,155846441967636 
680	 0,156323376993573 
681	 0,156321072145588 
682	 0,156156616692739 
683	 0,157453419058657 
684	 0,158698858868799 
685	 0,159058557716901 
686	 0,15939717627416 
687	 0,160440380630733 
688	 0,163316854191737 
689	 0,165437863155563 
690	 0,166534777211015 
691	 0,169034379726882 
692	 0,172833770648823 
693	 0,177690334212116 
694	 0,182613251909696 
695	 0,187607341404222 
696	 0,193239094998272 
697	 0,199494809486359 
698	 0,2063965322619 
699	 0,214011942557853 
700	 0,221884832162559 
701	 0,229433688627432 
702	 0,237171733628123 
703	 0,245001503907296 
704	 0,252247160250776 
705	 0,259537704069172 
706	 0,267142379664752 
707	 0,273949524979047 
708	 0,280189107369859 
709	 0,286593121313409 
710	 0,292344114606869 
711	 0,29735374712768 
712	 0,302345147551679 
713	 0,307111603094298 
714	 0,311446063475127 
715	 0,315741457818611 
716	 0,319879027691617 
717	 0,323344161496887 
718	 0,326541241030452 
719	 0,329612089374492 
720	 0,332227572033432 
721	 0,33464200676307 
722	 0,337214281443949 
723	 0,339378573909891 
724	 0,341175776703295 
725	 0,343226762030502 
726	 0,344970155549999 
727	 0,346144768455493 
728	 0,347579098617466 
729	 0,349178374776505 
730	 0,350606030417356 
731	 0,351424125135419 
732	 0,351804969992148 
733	 0,353187712773858 
734	 0,354397093468339 
735	 0,354456872645664 
736	 0,354967473535443 
737	 0,355970492815727 
738	 0,356861519593053 
739	 0,357562469342363 
740	 0,357968054801868 
741	 0,357910357706603 
742	 0,357815383785514 
743	 0,358177647575902 
744	 0,358750352474019 
745	 0,359336098974287 
746	 0,35948502241978 
747	 0,359813623857971 
748	 0,360576512413007 
749	 0,361072727006928 
750	 0,361299949177593 
751	 0,361394248882959 
752	 0,36138902557017 
753	 0,361407945565918 
754	 0,361752116633672 
755	 0,362303105736788 
756	 0,362897386635728 
757	 0,362910461042211 
758	 0,362631799112043 
759	 0,362816668032393 
760	 0,36330125158969 
761	 0,363892775102333 
762	 0,363916839265504 
763	 0,363802791751369 
764	 0,363984802266126 
765	 0,36424573089974 
766	 0,364462478212774 
767	 0,364404756181594 
768	 0,364393023779516 
769	 0,364536628141202 
770	 0,364582249865176 
771	 0,364786651663899 
772	 0,365449754167703 
773	 0,365614711651689 
774	 0,365370744425761 
775	 0,365707509295244 
776	 0,366073279770676 
777	 0,366151700641155 
778	 0,365818477957142 
779	 0,365488179200941 
780	 0,365774776483649 
781	 0,365956809061273 
782	 0,365947612618158 
783	 0,366212515848358 
784	 0,366321273271135 
785	 0,366057263587385 
786	 0,366067587271538 
787	 0,366433441639761 
788	 0,367166139943509 
789	 0,367305086175516 
790	 0,366891462790283 
791	 0,367544202983889 
792	 0,368001383398294 
793	 0,367322483457674 
794	 0,367002704001797 
795	 0,367178961272382 
796	 0,367608398776937 
797	 0,367872520082586 
798	 0,367871104918984 
799	 0,368073409829893 
800	 0,368141792878551 
801	 0,367768512707394 
802	 0,367347039436456 
803	 0,3672431957489 
804	 0,368239343224131 
805	 0,368864210301827 
806	 0,368700374140852 
807	 0,368946801814168 
808	 0,369124022845754 
809	 0,368683203721718 
810	 0,368681502518558 
811	 0,36917338434282 
812	 0,369672863480875 
813	 0,370132652292678 
814	 0,370483456186935 
815	 0,370669805160581 
816	 0,370758530236905 
817	 0,370836442323524 
818	 0,370893870215394 
819	 0,370991280087173 
820	 0,371292001621293 
821	 0,371590034921364 
822	 0,371795481768462 
823	 0,372059266587163 
824	 0,372307354681716 
825	 0,372432844216565 
826	 0,372669171157429 
827	 0,372960242518652 
828	 0,372923600485559 
829	 0,373033337915159 
830	 0,373407234776887 
831	 0,373036940797655 
832	 0,372557053762685 
833	 0,372954893860448 
834	 0,373292737171005 
835	 0,373400363114641 
836	 0,37354886786688 
837	 0,373602127695707 
838	 0,373526410563301 
839	 0,373584786137051 
840	 0,373734622154417 
841	 0,373871564204371 
842	 0,373883198617881 
843	 0,373784811706303 
844	 0,373702522354144 
845	 0,373786657410944 
846	 0,374113741594515 
847	 0,374585401030572 
848	 0,374939761782604 
849	 0,374849865345273 
850	 0,374569961318525 
851	 0,374415876590476 
852	 0,37519463937522 
853	 0,375672701640006 
854	 0,375310238761652 
855	 0,375517060388076 
856	 0,375792917881069 
857	 0,375257913807656 
858	 0,375362807642191 
859	 0,37611297109346 
860	 0,376390215126097 
861	 0,376340824325047 
862	 0,376121521847371 
863	 0,376376316750329 
864	 0,376680586569306 
865	 0,376407964403481 
866	 0,37655642373754 
867	 0,377074481965833 
868	 0,377065888930433 
869	 0,377026641933264 
870	 0,377179679730318 
871	 0,377374535620815 
872	 0,377619204767355 
873	 0,377919884934207 
874	 0,37766991643199 
875	 0,377209729097398 
876	 0,377924959491466 
877	 0,378427329047391 
878	 0,378291788103262 
879	 0,378778151088146 
880	 0,379247134209551 
881	 0,378956531102873 
882	 0,378920325297864 
883	 0,379015793867601 
884	 0,378147189272821 
885	 0,378571634262073 
886	 0,380433270370475 
887	 0,379927877850039 
888	 0,379107252013531 
889	 0,379995168887636 
890	 0,380536098004176 
891	 0,380440337103221 
892	 0,379797372308157 
893	 0,379856739406995 
894	 0,380795940496283 
895	 0,381256525659863 
896	 0,381553844290466 
897	 0,381932559999524 
898	 0,382000087695816 
899	 0,381851926802744 
900	 0,38174477124321 
901	 0,381728184638795 
902	 0,381823089658537 
903	 0,381999935959605 
904	 0,382152565067204 
905	 0,382174907285761 
906	 0,381834338917693 
907	 0,381510090556755 
908	 0,381758105354875 
909	 0,382013462340182 
910	 0,382361702005938 
911	 0,383707710019187 
912	 0,384112690642033 
913	 0,382979483004588 
914	 0,382775901984722 
915	 0,383057805130132 
916	 0,383101325489765 
917	 0,383454326300539 
918	 0,383922516514823 
919	 0,383796028466594 
920	 0,383742640070243 
921	 0,383899014070878 
922	 0,383781728274291 
923	 0,38342050530917 
924	 0,382948949612801 
925	 0,383283632452925 
926	 0,383792366565198 
927	 0,383083062155053 
928	 0,382533364376626 
929	 0,38263021657028 
930	 0,383653525665048 
931	 0,384214655733966 
932	 0,383702376865376 
933	 0,384210766111759 
934	 0,384628091805617 
935	 0,383336236963197 
936	 0,383244913294506 
937	 0,384191953210994 
938	 0,383815977909908 
939	 0,383293753766825 
940	 0,38309705844832 
941	 0,383439511728362 
942	 0,383456701611753 
943	 0,382493271380238 
944	 0,382150809302102 
945	 0,382233973843233 
946	 0,381878509333046 
947	 0,381259561285183 
948	 0,380707393372834 
949	 0,38134095507797 
950	 0,381553320597406 
951	 0,380605861129045 
952	 0,380365186467172 
953	 0,379942911350634 
954	 0,378163266278694 
955	 0,37802375399433 
956	 0,378850349211092 
957	 0,377025400087639 
958	 0,376797233010012 
959	 0,378667757230766 
960	 0,378014407731606 
961	 0,376786616026567 
962	 0,376631921818398 
963	 0,377213575978259 
964	 0,37780235094863 
965	 0,377362207416169 
966	 0,377380164876943 
967	 0,377933495770816 
968	 0,378091602094246 
969	 0,378035065443772 
970	 0,377923796883843 
971	 0,378376064588262 
972	 0,378346454328577 
973	 0,377085119034566 
974	 0,377431391668267 
975	 0,378631276966077 
976	 0,378494247359787 
977	 0,377910061098252 
978	 0,377547178685943 
979	 0,378888385355687 
980	 0,38026794010215 
981	 0,380590599491384 
982	 0,378744013282469 
983	 0,377755714739498 
984	 0,380385054370243 
985	 0,380643310188031 
986	 0,379555563628253 
987	 0,381317642380784 
988	 0,38185793005025 
989	 0,38079315297586 
990	 0,380851380720395 
991	 0,382054787603526 
992	 0,384107774133741 
993	 0,385269544566486 
994	 0,38500944626348 
995	 0,383285790260391 
996	 0,383847626049509 
997	 0,386164075014804 
998	 0,387796738883227 
999	 0,388115023674028 
1000	 0,387034107946785 
1001	 0,384987985737277 
1002	 0,384591403226965 
1003	 0,387074726075574 
1004	 0,391147654663842 
1005	 0,393022399235007 
1006	 0,38969311401217 
1007	 0,387493980771058 
1008	 0,386535568957879 
1009	 0,384775665885284 
1010	 0,387528447503672 
1011	 0,393082521210738 
1012	 0,391374557262482 
1013	 0,390035351983635 
1014	 0,391788062349056 
1015	 0,391648024673631 
1016	 0,393823154062689 
1017	 0,40064005678499 
1018	 0,398744492585361 
1019	 0,393435125361447 
1020	 0,395465065319146 
1021	 0,395793114694011 
1022	 0,394443161320974 
1023	 0,397212240578178 
1024	 0,399487430455788 
1025	 0,399966646980763 
1026	 0,400964686943431 
1027	 0,400595525877504 
1028	 0,398525707406116 
1029	 0,401777024547237 
1030	 0,404148667492662 
1031	 0,398414892571449 
1032	 0,397758193079964 
1033	 0,40172248208309 
1034	 0,404216787381576 
1035	 0,403295487028852 
1036	 0,400645123883965 
1037	 0,40509265806972 
1038	 0,407787376796776 
1039	 0,405803715540508 
1040	 0,406632958429595 
1041	 0,406510667947619 
1042	 0,403101649198742 
1043	 0,406278366767678 
1044	 0,4105776085172 
1045	 0,40696954376165 
1046	 0,404385967243084 
1047	 0,404662910310988 
1048	 0,40727653317839 
1049	 0,411985176559424 
1050	 0,417493337669968 
1051	 0,421558883964094 
1052	 0,421310813350826 
1053	 0,415623551600316 
1054	 0,406262217689442 
1055	 0,405134207722896 
1056	 0,419161482611031 
1057	 0,417814238564678 
1058	 0,410488252691901 
1059	 0,41615460527748 
1060	 0,411301437673389 
1061	 0,403493309653518 
1062	 0,421158814956931 
1063	 0,430301874084901 
1064	 0,42362963990811 
1065	 0,412822151703067 
1066	 0,407044490779553 
1067	 0,409743684600687 
1068	 0,41043638872498 
1069	 0,410830631425265 
1070	 0,412955366335986 
1071	 0,42169071127935 
1072	 0,423349775701889 
1073	 0,403619108762573 
1074	 0,392098603443583 
1075	 0,396473816381482 
