Wavelength	GRA-VAN00475.asd
325	 0,282544954931832 
326	 0,184383640700278 
327	 3,14972599215784E-02 
328	-2,42927153843201E-02 
329	 7,06211993388329E-03 
330	 0,106726849155504 
331	 0,145109019518208 
332	 0,215372068861506 
333	 0,269408955355276 
334	 0,100208834946686 
335	 4,91624683156644E-02 
336	 0,189193332983655 
337	 0,163970040361572 
338	 0,102763961863156 
339	 0,109192705766387 
340	 0,102129036525607 
341	 8,65612105162238E-02 
342	 9,51968380233602E-02 
343	 8,08477784853746E-02 
344	 5,05383482330966E-02 
345	 6,64054995939889E-02 
346	 0,108097416567374 
347	 0,13833080796874 
348	 6,84732801940562E-02 
349	-5,56563217959463E-02 
350	-4,00957461499512E-02 
351	 8,46636112275611E-03 
352	 3,52749301025163E-02 
353	 4,76143953600865E-02 
354	 4,57373622614389E-02 
355	 2,72532810209406E-02 
356	 4,70307385446517E-02 
357	 8,13285425187042E-02 
358	 3,21029427809799E-02 
359	 1,35980329276532E-02 
360	 6,97722746452608E-02 
361	 8,04389591375958E-02 
362	 5,46228436286662E-02 
363	 1,54575352957725E-02 
364	-1,09699736787692E-03 
365	 0,011458424575414 
366	 3,30072252267642E-02 
367	 5,19103256271499E-02 
368	 5,98849977692436E-02 
369	 5,30562520391476E-02 
370	 3,47458037560359E-02 
371	 5,80048026484508E-03 
372	 2,47225590282803E-02 
373	 7,70311147450994E-02 
374	 4,90147185551626E-02 
375	 5,88653482556721E-03 
376	 4,56734435548022E-03 
377	 0,025648813209308 
378	 5,20399783792984E-02 
379	 4,97430113968859E-02 
380	 4,33746300872986E-02 
381	 0,042921727222434 
382	 6,07805789903618E-02 
383	 6,26326967983039E-02 
384	 0,021372213539837 
385	 3,01415501169142E-02 
386	 6,83696815413129E-02 
387	 4,16066001542501E-02 
388	 2,22975809363425E-02 
389	 3,44192215991135E-02 
390	 0,024522558345348 
391	 1,25735713509377E-02 
392	 2,53139828145941E-02 
393	 3,32997925213595E-02 
394	 3,17222152309226E-02 
395	 2,45570400399921E-02 
396	 2,77492899136079E-02 
397	 4,54847591610635E-02 
398	 0,046731850215422 
399	 3,56255953451523E-02 
400	 0,022318083946056 
401	 2,05567595876485E-02 
402	 2,90252849773271E-02 
403	 2,96046774423234E-02 
404	 2,04628710349646E-02 
405	 3,15545792735825E-03 
406	 5,6886805155969E-03 
407	 1,96702035440143E-02 
408	 2,27897364186455E-02 
409	 2,23018857880386E-02 
410	 0,02031191185093 
411	 1,80310653170588E-02 
412	 1,85047488885932E-02 
413	 2,38383672751966E-02 
414	 2,38235868957197E-02 
415	 1,88939884375286E-02 
416	 1,39163403575514E-02 
417	 1,31315840647208E-02 
418	 1,74917066865368E-02 
419	 1,96746372360362E-02 
420	 2,07932536817072E-02 
421	 2,32057264567475E-02 
422	 0,024638312391993 
423	 2,41474184110556E-02 
424	 1,97516378780248E-02 
425	 1,85427517715175E-02 
426	 2,35112241881089E-02 
427	 2,07154704124489E-02 
428	 1,54887413318741E-02 
429	 2,10614008737389E-02 
430	 0,021359854931286 
431	 1,44466542143075E-02 
432	 1,31314012299363E-02 
433	 1,60915249596884E-02 
434	 2,10562671224858E-02 
435	 2,01376675023049E-02 
436	 1,47181877275139E-02 
437	 1,16522970654749E-02 
438	 0,012558181764544 
439	 0,016948697680663 
440	 1,61884357093848E-02 
441	 1,49711288954386E-02 
442	 2,01452543790881E-02 
443	 2,04364756781767E-02 
444	 1,61221988605989E-02 
445	 1,74851901646752E-02 
446	 1,84735254253937E-02 
447	 1,59365107386886E-02 
448	 1,66186845917527E-02 
449	 1,95026465111477E-02 
450	 2,10736237868555E-02 
451	 2,23563011692617E-02 
452	 0,022982743990234 
453	 2,06462350806779E-02 
454	 1,77486372215796E-02 
455	 1,66886209975731E-02 
456	 1,85650356953965E-02 
457	 2,09410910625949E-02 
458	 0,016444739613072 
459	 1,47974834682309E-02 
460	 1,89371673504401E-02 
461	 1,86839394713655E-02 
462	 1,60428496217632E-02 
463	 1,48908852293828E-02 
464	 1,51430296116056E-02 
465	 1,62438690454243E-02 
466	 1,57888290150602E-02 
467	 1,60344867585641E-02 
468	 1,82230302799834E-02 
469	 1,97579193939653E-02 
470	 0,019535952548661 
471	 1,57686851783303E-02 
472	 1,53573094120616E-02 
473	 1,91348064828634E-02 
474	 1,90250256987754E-02 
475	 1,79136887482931E-02 
476	 1,89917965049483E-02 
477	 1,94279051789218E-02 
478	 1,93049871869576E-02 
479	 2,07331681020127E-02 
480	 2,02763514190628E-02 
481	 1,69757398818157E-02 
482	 0,016219772828514 
483	 1,68609524102454E-02 
484	 1,63278702884903E-02 
485	 1,60516337841008E-02 
486	 1,60422811859565E-02 
487	 1,48797291180089E-02 
488	 1,45895161367741E-02 
489	 0,016464770322916 
490	 1,69635584339394E-02 
491	 1,64557125980318E-02 
492	 1,72375276097283E-02 
493	 1,76772994207397E-02 
494	 1,74612330928151E-02 
495	 1,81123282425708E-02 
496	 1,83152653047611E-02 
497	 1,65377343837309E-02 
498	 1,58020165793285E-02 
499	 1,61902698462425E-02 
500	 1,55871156578815E-02 
501	 1,53086065861768E-02 
502	 1,59450876794337E-02 
503	 1,59168935470614E-02 
504	 1,58672765622756E-02 
505	 0,017355735691616 
506	 1,80102346045858E-02 
507	 1,74277870556959E-02 
508	 0,017370854933543 
509	 0,016847667289095 
510	 1,50609282024378E-02 
511	 1,50403211075939E-02 
512	 1,62491683180904E-02 
513	 1,56076018966549E-02 
514	 1,58298044730336E-02 
515	 0,017541554090519 
516	 1,68879907167206E-02 
517	 1,58243537450196E-02 
518	 1,75582011040409E-02 
519	 1,86069074825055E-02 
520	 1,83448608326907E-02 
521	 1,81311916453466E-02 
522	 1,72820704433404E-02 
523	 0,015553853704536 
524	 1,56977139180622E-02 
525	 1,72396833087819E-02 
526	 1,84114250639685E-02 
527	 1,83109126393143E-02 
528	 1,67826349717461E-02 
529	 1,52317791852676E-02 
530	 0,014607459930223 
531	 1,57740600763759E-02 
532	 1,65315413679726E-02 
533	 1,64689355481012E-02 
534	 1,61878965454555E-02 
535	 1,57479769931153E-02 
536	 1,52831750356443E-02 
537	 1,51901279323019E-02 
538	 1,57398471815014E-02 
539	 0,017418751192187 
540	 1,84947133109312E-02 
541	 0,018364068545876 
542	 1,73433735613573E-02 
543	 1,60537930037148E-02 
544	 0,015135476456779 
545	 1,55014169868137E-02 
546	 1,65343330812152E-02 
547	 0,015925166259354 
548	 1,56503032920468E-02 
549	 1,64683574603084E-02 
550	 1,66122439782162E-02 
551	 1,62819812646358E-02 
552	 0,016104598083554 
553	 0,015793083713844 
554	 1,53613497508432E-02 
555	 1,49658924710763E-02 
556	 1,50415279896158E-02 
557	 1,58733310404002E-02 
558	 1,64596776543014E-02 
559	 1,66204015240834E-02 
560	 1,64538544395607E-02 
561	 1,61155781537151E-02 
562	 1,57895690871465E-02 
563	 1,60592324989243E-02 
564	 1,61664552323374E-02 
565	 1,50539344496311E-02 
566	 1,50678732872788E-02 
567	 1,61439849550369E-02 
568	 1,58323954333145E-02 
569	 1,52255912161573E-02 
570	 1,51172043332518E-02 
571	 1,53957163471137E-02 
572	 1,57150986883547E-02 
573	 1,52339549212007E-02 
574	 1,55297056098701E-02 
575	 1,68270820428589E-02 
576	 1,71942017949606E-02 
577	 1,70831417232881E-02 
578	 1,71535876024427E-02 
579	 1,67791556462706E-02 
580	 1,62745931154689E-02 
581	 1,70402293296284E-02 
582	 1,74867607672114E-02 
583	 1,68403033785804E-02 
584	 1,66861374470679E-02 
585	 1,70826213420093E-02 
586	 1,77950080990711E-02 
587	 0,01804729998308 
588	 1,78282693109053E-02 
589	 0,0184282908795 
590	 1,89461989722415E-02 
591	 1,85300125268421E-02 
592	 1,80606320577029E-02 
593	 1,77884347148944E-02 
594	 1,79020172555144E-02 
595	 1,78028544233315E-02 
596	 1,74187829772339E-02 
597	 1,84010814815481E-02 
598	 0,019507107775479 
599	 1,86691453908293E-02 
600	 1,76863791504567E-02 
601	 1,71374684356732E-02 
602	 0,016995289469443 
603	 1,73831122984367E-02 
604	 1,82274672787703E-02 
605	 0,017555276095686 
606	 1,61928555031633E-02 
607	 1,70825629100716E-02 
608	 1,76468497891383E-02 
609	 1,71204609906005E-02 
610	 1,70078614975194E-02 
611	 1,71494424224573E-02 
612	 1,71977207688653E-02 
613	 1,70446058433134E-02 
614	 1,67936773463864E-02 
615	 1,69669374955934E-02 
616	 1,68686330023591E-02 
617	 1,62131034204495E-02 
618	 1,67515443362033E-02 
619	 1,76554924546795E-02 
620	 1,67983463479582E-02 
621	 1,59844950740349E-02 
622	 1,58448303050703E-02 
623	 1,63006055018028E-02 
624	 1,68277997802412E-02 
625	 1,69008810608981E-02 
626	 1,69337704705245E-02 
627	 0,017029660500086 
628	 1,72966498167089E-02 
629	 1,72232273933672E-02 
630	 1,66820956449659E-02 
631	 1,68032709012911E-02 
632	 1,72977866232652E-02 
633	 1,74816940675537E-02 
634	 1,75812726091342E-02 
635	 1,77084160434387E-02 
636	 1,81368590791043E-02 
637	 1,84937381183404E-02 
638	 1,84791332919787E-02 
639	 1,85515885135276E-02 
640	 1,87068410420681E-02 
641	 1,86792717459818E-02 
642	 1,87832141524133E-02 
643	 1,91206566851217E-02 
644	 1,94491358527208E-02 
645	 1,98251932695762E-02 
646	 2,03580088204077E-02 
647	 0,020309992777282 
648	 1,95919229540219E-02 
649	 0,018403588839106 
650	 1,80770533968569E-02 
651	 1,93043523712904E-02 
652	 1,95712392151612E-02 
653	 1,92206300011608E-02 
654	 1,98803455838627E-02 
655	 1,97561501894311E-02 
656	 1,85540145336653E-02 
657	 1,77749057689488E-02 
658	 1,75518482774674E-02 
659	 1,78803043126652E-02 
660	 1,77332323296997E-02 
661	 1,72216845723648E-02 
662	 1,74353552935833E-02 
663	 1,75117715936906E-02 
664	 1,70868007129865E-02 
665	 1,68357606787346E-02 
666	 1,67674284811594E-02 
667	 1,67715141809872E-02 
668	 0,016732424497246 
669	 1,66607072713416E-02 
670	 1,67978077177808E-02 
671	 1,68483095813259E-02 
672	 1,66152841074742E-02 
673	 1,67835918996476E-02 
674	 1,71352545771961E-02 
675	 1,68319958801335E-02 
676	 1,66550680033385E-02 
677	 1,68497961166559E-02 
678	 1,70354183985663E-02 
679	 1,72488938157907E-02 
680	 1,75636899864572E-02 
681	 1,72441268506663E-02 
682	 1,66000155906866E-02 
683	 1,71725485620599E-02 
684	 1,77951783366998E-02 
685	 1,78133246237532E-02 
686	 1,78837403671445E-02 
687	 1,81649347276309E-02 
688	 1,88377490754662E-02 
689	 1,89300606346864E-02 
690	 0,018438211362954 
691	 1,85848242226761E-02 
692	 0,019573892588159 
693	 0,021462042850838 
694	 2,30478452525338E-02 
695	 2,43794710887233E-02 
696	 2,61924599370627E-02 
697	 2,84574679716718E-02 
698	 3,12356792915606E-02 
699	 3,46422375959399E-02 
700	 3,86261104660906E-02 
701	 4,31009706654144E-02 
702	 4,77672265213828E-02 
703	 5,25400034288413E-02 
704	 0,057412420345882 
705	 6,29399312454739E-02 
706	 6,93520799566191E-02 
707	 7,55735791844594E-02 
708	 8,15179977033346E-02 
709	 8,73030516888647E-02 
710	 9,33107192484775E-02 
711	 9,95180764979608E-02 
712	 0,105168450495079 
713	 0,110634454638527 
714	 0,11626731751181 
715	 0,121660941761804 
716	 0,126782041513874 
717	 0,131764436880283 
718	 0,136423514816712 
719	 0,14073830978464 
720	 0,14497659539422 
721	 0,149121801292898 
722	 0,153133340839298 
723	 0,156210877675241 
724	 0,158678352574125 
725	 0,162283591170996 
726	 0,165572036122569 
727	 0,167739608875451 
728	 0,170048627925556 
729	 0,172483003387243 
730	 0,174743900281411 
731	 0,176356077151002 
732	 0,177441263835396 
733	 0,179211458991616 
734	 0,181016289819 
735	 0,182266075012712 
736	 0,183353366494855 
737	 0,184481580412272 
738	 0,186013767982257 
739	 0,187350323655209 
740	 0,188235840814035 
741	 0,188734171484508 
742	 0,189187823578587 
743	 0,189973203121362 
744	 0,190634361395311 
745	 0,191166688821687 
746	 0,191893772579792 
747	 0,192549284367688 
748	 0,193009931938231 
749	 0,193506179878258 
750	 0,193979085255037 
751	 0,194289872046563 
752	 0,194739111377161 
753	 0,195346665325926 
754	 0,195869577391695 
755	 0,196277673282552 
756	 0,196549956103408 
757	 0,19666222679495 
758	 0,196822377572652 
759	 0,197458516901361 
760	 0,197978601592392 
761	 0,198205672607639 
762	 0,19832790444627 
763	 0,198553743001719 
764	 0,199033761282551 
765	 0,199080376197143 
766	 0,198875250706489 
767	 0,199221246547055 
768	 0,199669977253184 
769	 0,200016383764278 
770	 0,200115154818458 
771	 0,200277029027437 
772	 0,200862128303014 
773	 0,20092973688566 
774	 0,200538471133091 
775	 0,200493302278172 
776	 0,200749761222011 
777	 0,201205377054771 
778	 0,201206400839023 
779	 0,201039677248492 
780	 0,201239127019898 
781	 0,201332628340833 
782	 0,201306777901737 
783	 0,201579074811451 
784	 0,20175287063635 
785	 0,20160752460104 
786	 0,201592418819449 
787	 0,201818392435096 
788	 0,202386958205174 
789	 0,20263118820619 
790	 0,202409959790381 
791	 0,202140282848295 
792	 0,201870310465165 
793	 0,201639854007282 
794	 0,201450395352002 
795	 0,201358397952407 
796	 0,201493799144477 
797	 0,201543094526559 
798	 0,201436227339846 
799	 0,20144434401643 
800	 0,201431375701204 
801	 0,201272611499782 
802	 0,201192826530937 
803	 0,201246657979234 
804	 0,201465569592758 
805	 0,201665598500038 
806	 0,201772385945738 
807	 0,201866451874951 
808	 0,201889175309359 
809	 0,201803692241314 
810	 0,202266005813591 
811	 0,203104708081803 
812	 0,203504787501971 
813	 0,203661849887697 
814	 0,203688753293993 
815	 0,203860880451126 
816	 0,204059641271417 
817	 0,204112894327361 
818	 0,204116356911465 
819	 0,204176332006233 
820	 0,20452860906573 
821	 0,204899551221063 
822	 0,205190869807012 
823	 0,205742171741881 
824	 0,206221112919425 
825	 0,206184383625971 
826	 0,206817417880986 
827	 0,207793064051298 
828	 0,20709344325682 
829	 0,206708700222688 
830	 0,207511425113196 
831	 0,207808562569945 
832	 0,207755569817007 
833	 0,207812449916546 
834	 0,208263315738218 
835	 0,208917952304911 
836	 0,208873751267084 
837	 0,20887006249586 
838	 0,20922155439913 
839	 0,209077001747564 
840	 0,208902528117228 
841	 0,209462306516789 
842	 0,20986891545755 
843	 0,209926841971719 
844	 0,209783550442476 
845	 0,209700808107807 
846	 0,209801887075349 
847	 0,209732350162449 
848	 0,209674505759622 
849	 0,209929816073696 
850	 0,210370193673112 
851	 0,210712654551688 
852	 0,210120685224595 
853	 0,209882447487832 
854	 0,210517110991481 
855	 0,210341651846745 
856	 0,209807141534585 
857	 0,209781348205808 
858	 0,209585141033186 
859	 0,209403085645976 
860	 0,210406292732067 
861	 0,210905294330297 
862	 0,210239721863832 
863	 0,210453511597753 
864	 0,210894844553853 
865	 0,210461753781029 
866	 0,210108302206768 
867	 0,210127509503646 
868	 0,210696409170657 
869	 0,211213204936722 
870	 0,211433664739832 
871	 0,21206379271214 
872	 0,212217463301892 
873	 0,210866453615179 
874	 0,211009200392751 
875	 0,212522920800784 
876	 0,213072887219277 
877	 0,213322383401322 
878	 0,213567513804006 
879	 0,214241730847104 
880	 0,214682437974421 
881	 0,214206272426181 
882	 0,214261703730574 
883	 0,214716139678968 
884	 0,214300335224342 
885	 0,214470523988527 
886	 0,215528686339155 
887	 0,216193930266433 
888	 0,216527740112074 
889	 0,216647744809909 
890	 0,216342966471128 
891	 0,215921869219351 
892	 0,216055659626635 
893	 0,216501964246044 
894	 0,217000971002571 
895	 0,216815724599362 
896	 0,216477327742984 
897	 0,216474709341342 
898	 0,217103756265635 
899	 0,217769445055331 
900	 0,217343854207294 
901	 0,217080455090426 
902	 0,217289638516861 
903	 0,217694349106738 
904	 0,217841458166447 
905	 0,217560116111624 
906	 0,217928735326946 
907	 0,218432096058781 
908	 0,218170129392909 
909	 0,217680049382324 
910	 0,217375104803713 
911	 0,218120297432671 
912	 0,218716960070362 
913	 0,218589397607803 
914	 0,218218502717227 
915	 0,217602200322033 
916	 0,216778904292784 
917	 0,217330747550839 
918	 0,218531934796616 
919	 0,217688645224084 
920	 0,21729761489342 
921	 0,217828816107827 
922	 0,217138569268731 
923	 0,21658079342197 
924	 0,217203095946321 
925	 0,217077438551699 
926	 0,216323619270826 
927	 0,21567249550157 
928	 0,215860425519829 
929	 0,216594172101243 
930	 0,215976327642718 
931	 0,214855286064685 
932	 0,213952736529196 
933	 0,214524756196249 
934	 0,21513341061432 
935	 0,213829397066616 
936	 0,212764961445894 
937	 0,212254000394289 
938	 0,211643535111199 
939	 0,211571519453559 
940	 0,212046296894737 
941	 0,212043748307425 
942	 0,211434725552286 
943	 0,210191292847178 
944	 0,208481785407143 
945	 0,207142430508413 
946	 0,207609832999375 
947	 0,206826683391445 
948	 0,204754100952409 
949	 0,204888173912231 
950	 0,204431962911849 
951	 0,202189058327149 
952	 0,201594561378192 
953	 0,201380244932704 
954	 0,199678093648805 
955	 0,198906768398052 
956	 0,198574002972971 
957	 0,195897495256983 
958	 0,194809709634542 
959	 0,195962286234202 
960	 0,195704825736009 
961	 0,194920302777491 
962	 0,194394119738787 
963	 0,194074184240856 
964	 0,193728013092639 
965	 0,192999382384747 
966	 0,191890717056717 
967	 0,190799082458273 
968	 0,190818660585023 
969	 0,191139156372149 
970	 0,191487188982514 
971	 0,192672097248288 
972	 0,192916820763919 
973	 0,190850885246985 
974	 0,189900704717185 
975	 0,189919276019235 
976	 0,189460017628904 
977	 0,190467481646093 
978	 0,192828096999074 
979	 0,194646324386228 
980	 0,194991714478172 
981	 0,193694652415927 
982	 0,192670343670573 
983	 0,193046503214725 
984	 0,195376489302205 
985	 0,194468941536997 
986	 0,191933320305847 
987	 0,192760276894018 
988	 0,193733472890524 
989	 0,194347771961303 
990	 0,19623296612052 
991	 0,197204594446362 
992	 0,196532878879365 
993	 0,197544769805187 
994	 0,197618781238875 
995	 0,194420666996861 
996	 0,197084540600298 
997	 0,202142138196626 
998	 0,199540525511692 
999	 0,200100570296533 
1000	 0,20405529791575 
1001	 0,200906810557698 
1002	 0,198834502990437 
1003	 0,201287018257957 
1004	 0,202691967391672 
1005	 0,20248316417896 
1006	 0,200986753937741 
1007	 0,20341898765838 
1008	 0,206793785552977 
1009	 0,204273454797226 
1010	 0,204792821279619 
1011	 0,208354087730221 
1012	 0,206884986083847 
1013	 0,205212972309732 
1014	 0,205371812779807 
1015	 0,205740124167666 
1016	 0,208692547019278 
1017	 0,215131766248448 
1018	 0,215033351909345 
1019	 0,21077256358728 
1020	 0,208390520526373 
1021	 0,209453478656764 
1022	 0,212671969575129 
1023	 0,21290459102251 
1024	 0,212760843680185 
1025	 0,213682070820366 
1026	 0,21852837155731 
1027	 0,220731403901732 
1028	 0,217035900849285 
1029	 0,217788370226931 
1030	 0,220449522283519 
1031	 0,220790306968249 
1032	 0,220227385899668 
1033	 0,220843823798742 
1034	 0,226573798040914 
1035	 0,22544749411143 
1036	 0,217731993180249 
1037	 0,216717937447719 
1038	 0,219494937135376 
1039	 0,223991604702166 
1040	 0,22608337493532 
1041	 0,225455825472783 
1042	 0,22251191344132 
1043	 0,220228407820157 
1044	 0,218539094828443 
1045	 0,216838510308737 
1046	 0,21901059657551 
1047	 0,223986799124174 
1048	 0,227056673223242 
1049	 0,233822373854694 
1050	 0,241782543412978 
1051	 0,236733298242458 
1052	 0,232206781845324 
1053	 0,234220161563221 
1054	 0,231372264494889 
1055	 0,231287261304512 
1056	 0,238855117919215 
1057	 0,23226081470677 
1058	 0,227068887457412 
1059	 0,247363181216442 
1060	 0,24271782781458 
1061	 0,223750503534961 
1062	 0,240190156876153 
1063	 0,243748826054574 
1064	 0,228546351176042 
1065	 0,226252208370736 
1066	 0,232170970918721 
1067	 0,240030825402667 
1068	 0,230400293067166 
1069	 0,2227625627952 
1070	 0,230315722702535 
1071	 0,23081769330545 
1072	 0,229984369242408 
1073	 0,236290681021285 
1074	 0,22328096537573 
1075	 0,211636314695578 
