Wavelength	GRA-VAN00546.asd
325	 0,605993990910875 
326	 0,674472289491082 
327	 0,62234859410201 
328	 0,45441197169582 
329	 0,455491466286966 
330	 0,594504534487062 
331	 0,673382258104016 
332	 0,572080033067823 
333	 0,414010762272622 
334	 0,401127708712103 
335	 0,475956219329442 
336	 0,548322150358891 
337	 0,476431097823655 
338	 0,376879907314481 
339	 0,342338097585017 
340	 0,378160079090248 
341	 0,40752103561825 
342	 0,2945734022514 
343	 0,216494080904483 
344	 0,241322143405069 
345	 0,239947248022685 
346	 0,264001463553132 
347	 0,353113594914613 
348	 0,334475756686173 
349	 0,242679158900717 
350	 0,249625352271158 
351	 0,276259426563479 
352	 0,28341848622021 
353	 0,261597202199543 
354	 0,239093899174275 
355	 0,250929692083556 
356	 0,261680625512685 
357	 0,263778359094393 
358	 0,260358058332985 
359	 0,254296385754793 
360	 0,248505110535284 
361	 0,243326599318756 
362	 0,23806795975249 
363	 0,231845622302245 
364	 0,238930832723269 
365	 0,250914280517721 
366	 0,22195824807972 
367	 0,206473131004417 
368	 0,23163594056268 
369	 0,239443076975267 
370	 0,234828388014198 
371	 0,23910246945241 
372	 0,246678404734229 
373	 0,250108923680488 
374	 0,228372628034997 
375	 0,216543859782874 
376	 0,23995818975713 
377	 0,239763941563939 
378	 0,226660642808446 
379	 0,247667712127549 
380	 0,242426778735424 
381	 0,208553335025813 
382	 0,225157436405719 
383	 0,248744024444051 
384	 0,238437246609914 
385	 0,237899300572867 
386	 0,242160376292078 
387	 0,214768917687886 
388	 0,20477402347375 
389	 0,226488129218577 
390	 0,227262486574533 
391	 0,220858916843035 
392	 0,227527651904221 
393	 0,234513789566788 
394	 0,237253801068359 
395	 0,231226126317375 
396	 0,221827612548166 
397	 0,213365115942868 
398	 0,214699568372588 
399	 0,216810178094976 
400	 0,204705913928985 
401	 0,20065723890603 
402	 0,206706661117036 
403	 0,20830129219774 
404	 0,206634649601615 
405	 0,203600897461919 
406	 0,209510965837475 
407	 0,218770729756319 
408	 0,220061898176471 
409	 0,213862783034769 
410	 0,203053304998276 
411	 0,198041586688652 
412	 0,19882724249805 
413	 0,204268895760825 
414	 0,203664939108634 
415	 0,198984263393526 
416	 0,200564817085021 
417	 0,201490806310483 
418	 0,199922968916965 
419	 0,202466316169427 
420	 0,206375021809873 
421	 0,207880324092155 
422	 0,206062646166186 
423	 0,202172278395798 
424	 0,200475325254135 
425	 0,201320447660487 
426	 0,20442537248282 
427	 0,205972825911715 
428	 0,205278077922511 
429	 0,202014423130201 
430	 0,200904207228315 
431	 0,202134753179021 
432	 0,198714653017838 
433	 0,197669603533475 
434	 0,204346880085049 
435	 0,20207571278023 
436	 0,193916077977969 
437	 0,19551297755519 
438	 0,198058373806255 
439	 0,19832988915469 
440	 0,198697155741543 
441	 0,198667464156545 
442	 0,197439523549457 
443	 0,19774205382201 
444	 0,199369946827641 
445	 0,199694482302963 
446	 0,198002585332159 
447	 0,194739755557854 
448	 0,197434156453511 
449	 0,203127131166811 
450	 0,204589507727146 
451	 0,2041664147239 
452	 0,202838247454519 
453	 0,202544716483672 
454	 0,200896143237288 
455	 0,196209519812946 
456	 0,199953811179665 
457	 0,208017403955019 
458	 0,203660817068722 
459	 0,201109108507467 
460	 0,205130856538487 
461	 0,204881281268963 
462	 0,20277227155002 
463	 0,203267203345215 
464	 0,202782940105795 
465	 0,201550091155981 
466	 0,203107699467091 
467	 0,205525671106281 
468	 0,207357683547444 
469	 0,208240991724852 
470	 0,207690201736096 
471	 0,204784314783968 
472	 0,2025441070872 
473	 0,202147386265906 
474	 0,203002762457403 
475	 0,204454853289609 
476	 0,205831536089331 
477	 0,206654708390435 
478	 0,206850392758498 
479	 0,20663154313912 
480	 0,206161793368416 
481	 0,205663898653177 
482	 0,205861048493072 
483	 0,206015983352795 
484	 0,20496494635714 
485	 0,203636350318356 
486	 0,202605519252647 
487	 0,202496412285501 
488	 0,204084327381842 
489	 0,207431961926859 
490	 0,206753677638632 
491	 0,203659164113136 
492	 0,204020642195534 
493	 0,203915697529491 
494	 0,202601519175467 
495	 0,203233057434724 
496	 0,204078704893415 
497	 0,20299538338523 
498	 0,202006967485557 
499	 0,20204692793177 
500	 0,204808748046679 
501	 0,205864224373349 
502	 0,203365231752472 
503	 0,204339076646551 
504	 0,20704791070791 
505	 0,206886335142847 
506	 0,206735477461923 
507	 0,207389263261265 
508	 0,208757132202468 
509	 0,209576220246047 
510	 0,208804340890723 
511	 0,208423971502977 
512	 0,208386622950134 
513	 0,207137420185853 
514	 0,207573394876686 
515	 0,210293821739715 
516	 0,210694298829619 
517	 0,209576876332193 
518	 0,208643699596754 
519	 0,209636939161041 
520	 0,211982252942872 
521	 0,211917257398245 
522	 0,210800721906369 
523	 0,20985229281151 
524	 0,210440538384174 
525	 0,211904177698568 
526	 0,212438251913923 
527	 0,211988152106894 
528	 0,21063120708519 
529	 0,209112876465292 
530	 0,2083305586055 
531	 0,209157147606884 
532	 0,209577756629877 
533	 0,20924852226469 
534	 0,208690015035527 
535	 0,208485223767878 
536	 0,208918896231686 
537	 0,209111326012222 
538	 0,209127608286653 
539	 0,209286808484596 
540	 0,209854894819565 
541	 0,210611397323064 
542	 0,210154845654956 
543	 0,20958246784053 
544	 0,209982713248469 
545	 0,209950483027151 
546	 0,209581351749843 
547	 0,209910523915285 
548	 0,210404337277022 
549	 0,210792985042024 
550	 0,211187660291528 
551	 0,211300906135307 
552	 0,21067970048209 
553	 0,210112081143417 
554	 0,209884860676716 
555	 0,210030282727023 
556	 0,210223201339411 
557	 0,21017185756753 
558	 0,209773455964297 
559	 0,209241058677283 
560	 0,20920888349034 
561	 0,208800401205046 
562	 0,207878262631834 
563	 0,207783028103439 
564	 0,208234842218971 
565	 0,208703874532248 
566	 0,208955921134795 
567	 0,208961903494001 
568	 0,208935329538432 
569	 0,209092884493752 
570	 0,209542268579966 
571	 0,209547501619641 
572	 0,209741792489167 
573	 0,211796356588813 
574	 0,213707283855938 
575	 0,214752174091033 
576	 0,215463768225963 
577	 0,216080431542468 
578	 0,216837625157999 
579	 0,217977867339619 
580	 0,219426973287227 
581	 0,220753520951282 
582	 0,222094923208216 
583	 0,223469443606935 
584	 0,22452382091886 
585	 0,225280160704551 
586	 0,225889512155394 
587	 0,22612308866629 
588	 0,22614989251807 
589	 0,226838825770409 
590	 0,227870802923085 
591	 0,228895207962876 
592	 0,229843854681009 
593	 0,230531356871041 
594	 0,230553377430182 
595	 0,230489129408973 
596	 0,230659202490141 
597	 0,231070753048969 
598	 0,231592786775713 
599	 0,232069779718893 
600	 0,231547955583246 
601	 0,230336532221503 
602	 0,230791423387657 
603	 0,231121680222175 
604	 0,229958273247204 
605	 0,228940973082899 
606	 0,228322054327679 
607	 0,227990465538946 
608	 0,22779208762406 
609	 0,227530896277428 
610	 0,226597683498562 
611	 0,225654335686599 
612	 0,225560556200634 
613	 0,225542252188704 
614	 0,225339147648045 
615	 0,22482298284872 
616	 0,2241140460954 
617	 0,223359406042508 
618	 0,222992362935691 
619	 0,223019527415036 
620	 0,223364182460194 
621	 0,223410543491612 
622	 0,223013987444959 
623	 0,222678864970665 
624	 0,222535498788098 
625	 0,222678374341308 
626	 0,222897835390555 
627	 0,223319440986643 
628	 0,224650339179309 
629	 0,225174042274429 
630	 0,224248353419499 
631	 0,224274226914799 
632	 0,224976123059637 
633	 0,225393007237305 
634	 0,226260810029126 
635	 0,227485873702693 
636	 0,227938225066913 
637	 0,228273342759661 
638	 0,229046227575365 
639	 0,229553663709034 
640	 0,229880213769489 
641	 0,230486524927069 
642	 0,231449738507977 
643	 0,232656504231989 
644	 0,233221112331368 
645	 0,233503404623671 
646	 0,234085843428613 
647	 0,234167357695389 
648	 0,233486913850503 
649	 0,231681456247958 
650	 0,230622862627844 
651	 0,231348108934847 
652	 0,230904169189344 
653	 0,229689023304793 
654	 0,229548331789164 
655	 0,228776136031998 
656	 0,2269818401629 
657	 0,225073548010969 
658	 0,223462320541036 
659	 0,222477335335049 
660	 0,22108074755529 
661	 0,21930896282275 
662	 0,217943691179282 
663	 0,216755150680497 
664	 0,215627658477619 
665	 0,214482556541452 
666	 0,213458152859923 
667	 0,212783095380285 
668	 0,212246653620826 
669	 0,21182744531336 
670	 0,211718730266721 
671	 0,211648446362087 
672	 0,211416381472249 
673	 0,211431130205184 
674	 0,211576770871275 
675	 0,211466695398822 
676	 0,211059434159111 
677	 0,210504760734612 
678	 0,210647478013044 
679	 0,211319743347556 
680	 0,212216921071745 
681	 0,212207474087411 
682	 0,211609785728841 
683	 0,212253736113489 
684	 0,213572850455577 
685	 0,215156797166025 
686	 0,216375783517928 
687	 0,217774613571375 
688	 0,22052167228499 
689	 0,22296587187678 
690	 0,225075529579897 
691	 0,228783340797354 
692	 0,233669413026122 
693	 0,239254446713753 
694	 0,244933222687973 
695	 0,251030114149453 
696	 0,258707951023677 
697	 0,267066298522479 
698	 0,275838717746385 
699	 0,285806696969022 
700	 0,29645200101265 
701	 0,307019766809315 
702	 0,318038836388438 
703	 0,329328280564095 
704	 0,340021384069632 
705	 0,350815963389935 
706	 0,36201924780967 
707	 0,372591302202319 
708	 0,382576869538773 
709	 0,392294666105955 
710	 0,401702554813301 
711	 0,410784178311293 
712	 0,419403139628515 
713	 0,427611277781277 
714	 0,435440584393201 
715	 0,442671681034808 
716	 0,449356109273199 
717	 0,455702115327663 
718	 0,461650836703612 
719	 0,467189956351135 
720	 0,472196590096778 
721	 0,476915183801835 
722	 0,481677079422923 
723	 0,485764503315259 
724	 0,489188293750384 
725	 0,492559122312387 
726	 0,495642305867913 
727	 0,498331581647529 
728	 0,500922178281175 
729	 0,503284061315677 
730	 0,505082344996789 
731	 0,507036418749365 
732	 0,509161451127398 
733	 0,510483690128458 
734	 0,511524015555163 
735	 0,512768812224623 
736	 0,513982684882411 
737	 0,515190526151022 
738	 0,516627327111419 
739	 0,517551647583542 
740	 0,517813247801058 
741	 0,518345181318765 
742	 0,519044976157577 
743	 0,519697040248128 
744	 0,520320644495413 
745	 0,520889334203531 
746	 0,521368110944101 
747	 0,521671866300737 
748	 0,521811645664108 
749	 0,522186836876179 
750	 0,522682473542717 
751	 0,52304670715766 
752	 0,523365671204087 
753	 0,523666926435221 
754	 0,523974570275451 
755	 0,524331595790675 
756	 0,524752945970727 
757	 0,525105444636005 
758	 0,525297041033549 
759	 0,525148070251176 
760	 0,525353421262966 
761	 0,525923649266409 
762	 0,525710635278937 
763	 0,525384776075485 
764	 0,52560358589412 
765	 0,525679694649801 
766	 0,52564065996583 
767	 0,52592630659335 
768	 0,526039059639176 
769	 0,525868447240135 
770	 0,526025066345557 
771	 0,526209719768255 
772	 0,526021343950988 
773	 0,525841038465371 
774	 0,525813286661246 
775	 0,526128447291721 
776	 0,526267019338164 
777	 0,525999603038311 
778	 0,525860580312879 
779	 0,525755790930008 
780	 0,525450457415699 
781	 0,525404298051548 
782	 0,525602261750839 
783	 0,525496671901069 
784	 0,525543331074025 
785	 0,525952520071798 
786	 0,525838375600663 
787	 0,525443775530185 
788	 0,525416229317026 
789	 0,525476551017171 
790	 0,525562043039824 
791	 0,525759076707793 
792	 0,525782419487146 
793	 0,525443895284982 
794	 0,525264663251044 
795	 0,525273828123673 
796	 0,525362098004557 
797	 0,525168889449923 
798	 0,524732746786198 
799	 0,524946187631399 
800	 0,525082704044003 
801	 0,524488916568257 
802	 0,524368106838757 
803	 0,524731029761509 
804	 0,525046539980023 
805	 0,525188919666363 
806	 0,525153551551825 
807	 0,52546207751643 
808	 0,525510549009199 
809	 0,524688750252198 
810	 0,524537272537636 
811	 0,525057779405379 
812	 0,525295520601643 
813	 0,525567341129118 
814	 0,52588472913464 
815	 0,525699581056649 
816	 0,525461711883575 
817	 0,525737438343972 
818	 0,525704545403045 
819	 0,525486654639185 
820	 0,52606691211241 
821	 0,526367991649257 
822	 0,525990683773153 
823	 0,525915503240581 
824	 0,526212697279339 
825	 0,526826705723742 
826	 0,527100645567509 
827	 0,526918473979509 
828	 0,526484550326467 
829	 0,526252634369274 
830	 0,526354510035686 
831	 0,525744967218298 
832	 0,525136349285715 
833	 0,525620603486147 
834	 0,5261771625092 
835	 0,52648742201802 
836	 0,526438843880484 
837	 0,526386596765466 
838	 0,526493208527354 
839	 0,526398926759036 
840	 0,526134510049029 
841	 0,525799845421047 
842	 0,525678837729186 
843	 0,525760033899201 
844	 0,52569143330488 
845	 0,525775595360252 
846	 0,526116510126294 
847	 0,526216355297706 
848	 0,526296498225427 
849	 0,526748199787657 
850	 0,526429379319279 
851	 0,525565029895786 
852	 0,525879546739718 
853	 0,526052851282678 
854	 0,525512216414957 
855	 0,52556871945633 
856	 0,525841511151868 
857	 0,525624839789655 
858	 0,525698689937352 
859	 0,526118797755003 
860	 0,526517023072916 
861	 0,526593394472017 
862	 0,526231252774962 
863	 0,52586966076429 
864	 0,525626212497853 
865	 0,525577236611768 
866	 0,525817947104989 
867	 0,526182336994397 
868	 0,526168297568538 
869	 0,525940653074112 
870	 0,525660349183438 
871	 0,525740197989343 
872	 0,52610123756191 
873	 0,526575090314993 
874	 0,526640260335854 
875	 0,526355562853013 
876	 0,526265223557665 
877	 0,526207936710586 
878	 0,526121509652498 
879	 0,525958399518088 
880	 0,525792765320704 
881	 0,525712862254699 
882	 0,525780942125211 
883	 0,525915790059827 
884	 0,525782619907169 
885	 0,526221257758343 
886	 0,527243169682284 
887	 0,527291497192005 
888	 0,527047542263582 
889	 0,527187406900439 
890	 0,526655871701547 
891	 0,526119406238943 
892	 0,52749535802436 
893	 0,52792257950657 
894	 0,527001671679993 
895	 0,527511596418511 
896	 0,528151703162064 
897	 0,527896291396614 
898	 0,527837075021462 
899	 0,527749209476886 
900	 0,526929746009352 
901	 0,526505014567651 
902	 0,526753328398762 
903	 0,527413966106801 
904	 0,527722758860828 
905	 0,52724698471171 
906	 0,526713627646653 
907	 0,526378386278874 
908	 0,526448694480055 
909	 0,526505265738663 
910	 0,526502387840163 
911	 0,526659981964522 
912	 0,526938630165124 
913	 0,527181821163106 
914	 0,526597013292129 
915	 0,526052254953476 
916	 0,526527865460216 
917	 0,526795268169736 
918	 0,526750752670481 
919	 0,526839931997663 
920	 0,526666235244333 
921	 0,526135776260763 
922	 0,52544771757162 
923	 0,524862816171458 
924	 0,524588486602856 
925	 0,524552980901158 
926	 0,52436255585039 
927	 0,52332325560715 
928	 0,523052148620635 
929	 0,52346910274576 
930	 0,522472949925143 
931	 0,521272592244468 
932	 0,520771208638661 
933	 0,521921524197186 
934	 0,523058633035532 
935	 0,521995598911428 
936	 0,520356899566875 
937	 0,518900179073091 
938	 0,518566801952399 
939	 0,518542782763008 
940	 0,518376069171419 
941	 0,517653238843407 
942	 0,516640598040086 
943	 0,515649184048388 
944	 0,515080241788005 
945	 0,514617381176417 
946	 0,513546817365524 
947	 0,512287824546962 
948	 0,511164882574625 
949	 0,510995406391798 
950	 0,510165219498126 
951	 0,507919681363144 
952	 0,505890274575053 
953	 0,504300264779401 
954	 0,503207745211962 
955	 0,50364985414461 
956	 0,504295704539714 
957	 0,501203574872136 
958	 0,498754313671244 
959	 0,498284042567722 
960	 0,498260373860678 
961	 0,497918572206762 
962	 0,496843228652107 
963	 0,496618138568814 
964	 0,496633459361824 
965	 0,495644103198723 
966	 0,494885936863384 
967	 0,49477940514193 
968	 0,49558904782514 
969	 0,496537217415823 
970	 0,497045774991684 
971	 0,496370792676702 
972	 0,495371264695123 
973	 0,494906854327777 
974	 0,494854717743254 
975	 0,495070288008268 
976	 0,49529477549838 
977	 0,495568640948848 
978	 0,495916547422465 
979	 0,496485626316374 
980	 0,496828798478849 
981	 0,49675058241895 
982	 0,496457521215376 
983	 0,496583619609527 
984	 0,497616392956938 
985	 0,497664223370461 
986	 0,497510782887547 
987	 0,499397185611544 
988	 0,5000236745973 
989	 0,499287897105002 
990	 0,500657300902399 
991	 0,5009004256467 
992	 0,499059093380219 
993	 0,500000385723069 
994	 0,50199869641912 
995	 0,502957166723679 
996	 0,50518870395526 
997	 0,507167457507521 
998	 0,505293890391611 
999	 0,504301968382929 
1000	 0,505072046048486 
1001	 0,505115760035256 
1002	 0,506724262555259 
1003	 0,51028975171467 
1004	 0,511450744834913 
1005	 0,510679058593862 
1006	 0,508996444259692 
1007	 0,507451376168261 
1008	 0,507421090461673 
1009	 0,510772429658467 
1010	 0,512179188010866 
1011	 0,510927617228652 
1012	 0,50943541140514 
1013	 0,511879189266582 
1014	 0,518185979729974 
1015	 0,516636055954442 
1016	 0,516114023383784 
1017	 0,523187137475122 
1018	 0,522465504850917 
1019	 0,518068262609752 
1020	 0,519427233165636 
1021	 0,519956910919893 
1022	 0,519867264041608 
1023	 0,523575648362634 
1024	 0,528377174670963 
1025	 0,532111388045426 
1026	 0,531188924362887 
1027	 0,527699881017812 
1028	 0,524458729561862 
1029	 0,528953253758022 
1030	 0,533770557879749 
1031	 0,529995963473241 
1032	 0,530016184813091 
1033	 0,533014685347124 
1034	 0,532595278956123 
1035	 0,530356033941177 
1036	 0,529131265770366 
1037	 0,53808841567766 
1038	 0,540709271330823 
1039	 0,532347965571292 
1040	 0,531180309081501 
1041	 0,534023024912005 
1042	 0,53710793227229 
1043	 0,539754527227763 
1044	 0,539679280191876 
1045	 0,534591552358308 
1046	 0,531894416869493 
1047	 0,532794506439271 
1048	 0,535440240199026 
1049	 0,544003183249868 
1050	 0,554813110859307 
1051	 0,552176067932038 
1052	 0,54719078621246 
1053	 0,545679378637538 
1054	 0,542904444167787 
1055	 0,543148196100644 
1056	 0,548682354572077 
1057	 0,544571674524678 
1058	 0,539855569592001 
1059	 0,549673472718024 
1060	 0,558464613709925 
1061	 0,562701753700793 
1062	 0,561992371898849 
1063	 0,555398971071671 
1064	 0,546428705153704 
1065	 0,548749390112687 
1066	 0,551256258290798 
1067	 0,54998720338947 
1068	 0,554754203358077 
1069	 0,555016610363064 
1070	 0,545462322470459 
1071	 0,551161553326098 
1072	 0,560555326686095 
1073	 0,556251886238552 
1074	 0,54787110642723 
1075	 0,5415259845892 
