Wavelength	GRA-VAN00055.asd
325	 0,135506469584648 
326	 0,116397652103719 
327	 0,199503433867837 
328	 0,325034228608719 
329	 0,207473631571112 
330	 3,61718945003744E-02 
331	 0,152093996511593 
332	 0,215709450024019 
333	 0,224511130918975 
334	 9,75996265539777E-02 
335	 7,74199327456852E-02 
336	 0,205453364373989 
337	 0,227235833236266 
338	 0,159709103252848 
339	 1,25973385904386E-03 
340	-0,003716741067039 
341	 9,14530391995519E-02 
342	 0,106862926570528 
343	 0,100041583427114 
344	 8,24598954875746E-02 
345	 2,36264273735149E-02 
346	-9,79939105735774E-03 
347	 6,12068072840391E-02 
348	 5,88497009011059E-02 
349	 1,94930554686881E-03 
350	 2,09772040282942E-02 
351	 5,38165511848855E-02 
352	 6,48864998002929E-02 
353	 0,025143984578102 
354	-4,3593018840093E-03 
355	 5,02859949638205E-02 
356	 6,34666807792734E-02 
357	 3,72192188028931E-02 
358	 5,13939382510342E-02 
359	 5,96298437641989E-02 
360	 4,31957848139219E-02 
361	 4,16416009522739E-02 
362	 4,29919179758709E-02 
363	 2,65408261875175E-02 
364	 2,51174955153317E-02 
365	 4,13915921340911E-02 
366	 5,23038740729095E-02 
367	 6,35689189657872E-02 
368	 7,47641681008454E-02 
369	 5,33705426851596E-02 
370	 0,016829413576872 
371	-9,20637140999438E-04 
372	 8,24358041403025E-04 
373	 1,56322275900324E-02 
374	 1,61196171608838E-02 
375	 1,51061043852159E-02 
376	 2,18567656699365E-02 
377	 0,02342307296565 
378	 2,23314323171543E-02 
379	 2,75796464678523E-02 
380	 3,29493587619049E-02 
381	 3,76392057694264E-02 
382	 4,60760366014029E-02 
383	 0,051961272599016 
384	 5,06611166918909E-02 
385	 6,02129113080239E-02 
386	 6,91891317032837E-02 
387	 3,94262122145473E-02 
388	 2,14401833216066E-02 
389	 0,033469223278149 
390	 3,73307290570807E-02 
391	 3,19073596878329E-02 
392	 1,98876511519124E-02 
393	 1,77724156912191E-02 
394	 2,59317108836313E-02 
395	 3,43972772531483E-02 
396	 3,79199849752894E-02 
397	 3,44494896943214E-02 
398	 0,031864683790262 
399	 2,81477891524077E-02 
400	 1,77608986280781E-02 
401	 2,06913082248646E-02 
402	 3,45080754294322E-02 
403	 3,56278986854682E-02 
404	 2,32430148284382E-02 
405	 4,93517851671143E-04 
406	 3,34616181214543E-03 
407	 0,02115696043718 
408	 2,54452573007117E-02 
409	 2,46033450431501E-02 
410	 2,16438068618082E-02 
411	 0,021394064977468 
412	 2,27370272155905E-02 
413	 2,42535005902699E-02 
414	 2,60574609614568E-02 
415	 2,57142618844259E-02 
416	 1,63175843005432E-02 
417	 1,02624809660772E-02 
418	 1,26247750452392E-02 
419	 1,76841171642797E-02 
420	 2,42948701335247E-02 
421	 3,22964618455985E-02 
422	 2,93491185156734E-02 
423	 1,81245576287399E-02 
424	 1,64672516482439E-02 
425	 1,79708740886432E-02 
426	 1,85394983284217E-02 
427	 0,018095545099792 
428	 1,79176567970745E-02 
429	 2,07631219667188E-02 
430	 2,11575133438428E-02 
431	 1,82578671230098E-02 
432	 1,56331828875645E-02 
433	 1,58910455347931E-02 
434	 2,04561343543243E-02 
435	 1,88797891841797E-02 
436	 1,34709377327979E-02 
437	 1,53579305207763E-02 
438	 1,68363011248403E-02 
439	 1,55081016971167E-02 
440	 1,61223442588746E-02 
441	 1,72651872305965E-02 
442	 1,66970391309686E-02 
443	 1,43098957478175E-02 
444	 1,20135433802807E-02 
445	 1,65428808382172E-02 
446	 1,91883713347901E-02 
447	 1,52550169166556E-02 
448	 1,46595005087228E-02 
449	 1,62252059793224E-02 
450	 1,50772613003927E-02 
451	 1,49161850840915E-02 
452	 1,61322847473763E-02 
453	 1,51594582166282E-02 
454	 1,53218747422795E-02 
455	 1,94288475005766E-02 
456	 2,02226281681998E-02 
457	 1,76083970372412E-02 
458	 1,45112005723174E-02 
459	 1,47634396724459E-02 
460	 0,018984778712705 
461	 1,86558760758026E-02 
462	 1,61708847149177E-02 
463	 1,57944044034806E-02 
464	 1,36281615302624E-02 
465	 1,06747414659772E-02 
466	 1,30976647702966E-02 
467	 1,66346109660388E-02 
468	 1,84312966416054E-02 
469	 2,04868430132963E-02 
470	 2,13028746841221E-02 
471	 1,71273482324634E-02 
472	 1,58871750169983E-02 
473	 1,88534260553797E-02 
474	 1,81452566174282E-02 
475	 1,69184781482796E-02 
476	 1,85987039687179E-02 
477	 2,03261630906612E-02 
478	 2,10973731876567E-02 
479	 1,98906154282724E-02 
480	 1,85608592802532E-02 
481	 1,80150526225411E-02 
482	 1,73419737711832E-02 
483	 1,68991248353643E-02 
484	 1,72942073529396E-02 
485	 1,82232891570161E-02 
486	 1,91669734404459E-02 
487	 1,88940379718009E-02 
488	 1,77896311986319E-02 
489	 1,62649538116123E-02 
490	 1,50395314953919E-02 
491	 1,46092103853361E-02 
492	 1,57121552611631E-02 
493	 1,70239650701262E-02 
494	 1,77388355392926E-02 
495	 1,68203282175874E-02 
496	 1,54275645267784E-02 
497	 1,49410326350096E-02 
498	 0,015603983265121 
499	 1,69853921157585E-02 
500	 1,77149078627298E-02 
501	 1,78067228235497E-02 
502	 1,74288656280688E-02 
503	 1,80799109178858E-02 
504	 1,88674267525825E-02 
505	 1,78197452605245E-02 
506	 1,75547243779147E-02 
507	 1,84377321471009E-02 
508	 1,85763027789106E-02 
509	 1,79096909121813E-02 
510	 1,65804112845671E-02 
511	 1,67703566940809E-02 
512	 1,76707743878247E-02 
513	 1,57571977484572E-02 
514	 1,51729085189825E-02 
515	 0,017323943420905 
516	 1,90378212687715E-02 
517	 1,95081016663255E-02 
518	 0,018106232201582 
519	 1,77059877279853E-02 
520	 1,85670569986012E-02 
521	 0,018633863316499 
522	 1,80804420918362E-02 
523	 1,71384822675089E-02 
524	 1,65044113927951E-02 
525	 1,65126408089834E-02 
526	 1,77341381817473E-02 
527	 1,84581521034747E-02 
528	 0,0180856704188 
529	 0,017183834446804 
530	 1,65263872556345E-02 
531	 1,69026394530988E-02 
532	 1,70390608908827E-02 
533	 0,01672179050303 
534	 1,60814577527898E-02 
535	 1,64675330327226E-02 
536	 1,82695292058793E-02 
537	 0,017515273378058 
538	 1,58555404282187E-02 
539	 1,73375957052155E-02 
540	 0,018583217214535 
541	 1,85966935732949E-02 
542	 1,79433223817296E-02 
543	 1,72779278861731E-02 
544	 1,71927328177211E-02 
545	 1,68814402214414E-02 
546	 1,64552784558624E-02 
547	 1,65526957547502E-02 
548	 1,73808200467189E-02 
549	 0,018687613430127 
550	 1,80596387341174E-02 
551	 1,66573317636277E-02 
552	 0,016691142933387 
553	 1,66694391654947E-02 
554	 1,63931348883787E-02 
555	 1,67168256705349E-02 
556	 1,69911605824668E-02 
557	 1,67172296911346E-02 
558	 1,69057900349105E-02 
559	 1,73540727183072E-02 
560	 1,71425693598511E-02 
561	 0,016627608282969 
562	 1,61762739404284E-02 
563	 1,72191723485057E-02 
564	 1,80665679646085E-02 
565	 1,63711571990783E-02 
566	 1,59595744952298E-02 
567	 1,70361799486989E-02 
568	 1,65639021576182E-02 
569	 1,60955099370931E-02 
570	 1,66300047145113E-02 
571	 1,67426961890554E-02 
572	 1,64941399808732E-02 
573	 0,016423379986111 
574	 1,68278493212159E-02 
575	 1,76802384825922E-02 
576	 1,80896382457761E-02 
577	 1,84705553642704E-02 
578	 1,93255480243153E-02 
579	 1,88945661777193E-02 
580	 1,76441271224595E-02 
581	 1,82810361518565E-02 
582	 1,89780993109787E-02 
583	 1,87535963013134E-02 
584	 1,84916319830838E-02 
585	 1,86998994741937E-02 
586	 0,020199815734821 
587	 2,02026728842896E-02 
588	 1,86068042783748E-02 
589	 1,91200414171478E-02 
590	 2,01338342818776E-02 
591	 2,00403881722613E-02 
592	 2,01507520934704E-02 
593	 2,04418052754145E-02 
594	 2,01317040210058E-02 
595	 2,00910039556386E-02 
596	 2,06260306602661E-02 
597	 0,020919649667061 
598	 2,07996358291689E-02 
599	 2,01458072199015E-02 
600	 1,96011295851692E-02 
601	 1,94702984177336E-02 
602	 0,020111308624324 
603	 2,04101997070021E-02 
604	 1,95704239728019E-02 
605	 0,01912478548276 
606	 1,91031351307369E-02 
607	 1,88472589265698E-02 
608	 1,88838562745875E-02 
609	 1,92061836106412E-02 
610	 1,86498122697316E-02 
611	 1,80807233749655E-02 
612	 1,86620003758391E-02 
613	 1,90290149411615E-02 
614	 1,88533507053297E-02 
615	 1,81828255773529E-02 
616	 1,77831915811129E-02 
617	 1,81695753750897E-02 
618	 1,92338428611463E-02 
619	 2,00363775898254E-02 
620	 1,87675406422242E-02 
621	 1,78150102888387E-02 
622	 1,79149578232169E-02 
623	 1,83322908921847E-02 
624	 0,018510078891815 
625	 0,017966756745833 
626	 1,80290721599901E-02 
627	 1,86724062863029E-02 
628	 1,90640961544856E-02 
629	 1,88771316125487E-02 
630	 1,80821450583345E-02 
631	 1,79180982619448E-02 
632	 1,82866729239192E-02 
633	 1,87853617192137E-02 
634	 1,89057712037691E-02 
635	 1,87793617930505E-02 
636	 0,019826542863297 
637	 2,05181752506261E-02 
638	 1,96651374495669E-02 
639	 1,97564384635477E-02 
640	 2,05550660997761E-02 
641	 2,02154511237416E-02 
642	 2,01148929186094E-02 
643	 2,06501555559452E-02 
644	 2,06912161096762E-02 
645	 2,08237072266926E-02 
646	 2,19351485012627E-02 
647	 2,16761967178524E-02 
648	 2,02293127671893E-02 
649	 2,03511349546114E-02 
650	 2,07708048712186E-02 
651	 2,06619725259641E-02 
652	 2,07465055120765E-02 
653	 2,08975546216013E-02 
654	 2,07255511116505E-02 
655	 2,01609920138239E-02 
656	 1,92638276732636E-02 
657	 0,018356352236928 
658	 1,79149597455236E-02 
659	 1,83503609077495E-02 
660	 0,01836185892147 
661	 1,78123748070982E-02 
662	 1,71637817348654E-02 
663	 1,67824817104487E-02 
664	 1,68358510331812E-02 
665	 1,68932749790345E-02 
666	 1,68351873249791E-02 
667	 1,65628849811004E-02 
668	 1,64145015803688E-02 
669	 0,016471610677203 
670	 1,66135450211533E-02 
671	 1,67330272515763E-02 
672	 1,67674312622808E-02 
673	 1,71102157631114E-02 
674	 1,74635354866068E-02 
675	 1,69102894128291E-02 
676	 1,65379748536237E-02 
677	 0,016718544200806 
678	 1,69902575129356E-02 
679	 1,72914236804733E-02 
680	 0,017588704267934 
681	 1,72200957102976E-02 
682	 1,64933831583784E-02 
683	 1,68055883550435E-02 
684	 1,75626081741403E-02 
685	 1,82812685190332E-02 
686	 1,81028170222617E-02 
687	 1,76103554001685E-02 
688	 1,80628208618901E-02 
689	 1,82839480762946E-02 
690	 0,018226866374906 
691	 1,91503791332285E-02 
692	 2,05525961872825E-02 
693	 2,19239866353953E-02 
694	 2,31270701675994E-02 
695	 2,44481777006434E-02 
696	 2,66785129258352E-02 
697	 2,92537694713566E-02 
698	 3,19682756054094E-02 
699	 3,49358150772638E-02 
700	 3,85786596318748E-02 
701	 4,34012249611677E-02 
702	 4,82765414020146E-02 
703	 0,052939860886049 
704	 5,76267268165669E-02 
705	 6,26684967166554E-02 
706	 6,81915502559429E-02 
707	 7,34213515792976E-02 
708	 7,85507940661763E-02 
709	 8,41716119853727E-02 
710	 8,94167008911844E-02 
711	 9,41831681175966E-02 
712	 9,93087835671761E-02 
713	 0,104403581544483 
714	 0,109063171191176 
715	 0,113292789925427 
716	 0,11734646516224 
717	 0,121933695535487 
718	 0,126078027545474 
719	 0,129400311797874 
720	 0,132283031933905 
721	 0,135112958302216 
722	 0,138331254019156 
723	 0,140669304777296 
724	 0,142414662241946 
725	 0,145678594036525 
726	 0,148364726117282 
727	 0,14934750198832 
728	 0,150754792392751 
729	 0,152590290030504 
730	 0,154331168497038 
731	 0,155793096871298 
732	 0,156947028194294 
733	 0,158072621956369 
734	 0,159104235868488 
735	 0,159987153327399 
736	 0,160844637347817 
737	 0,161721217094181 
738	 0,162646646884819 
739	 0,163684362271849 
740	 0,164671987513105 
741	 0,164564731646494 
742	 0,164544896610759 
743	 0,166020263187483 
744	 0,166794702464308 
745	 0,166672587567433 
746	 0,166639771826209 
747	 0,166858884328757 
748	 0,167441298724656 
749	 0,168315430747242 
750	 0,168920681015766 
751	 0,168420954397244 
752	 0,168478741446724 
753	 0,169275092106108 
754	 0,169570067954054 
755	 0,16972252060314 
756	 0,169986059978834 
757	 0,17008500639564 
758	 0,170131293581203 
759	 0,170425800098998 
760	 0,170684818506568 
761	 0,170845288567703 
762	 0,171069418742949 
763	 0,171340444061852 
764	 0,171621669623853 
765	 0,171683125393075 
766	 0,171647188339581 
767	 0,171946999674529 
768	 0,172253937488577 
769	 0,172420555731981 
770	 0,172362351691747 
771	 0,17246025677905 
772	 0,173142066109393 
773	 0,173354366982974 
774	 0,173074417032923 
775	 0,17298104096769 
776	 0,173120912253259 
777	 0,17345569026154 
778	 0,17340930007947 
779	 0,173200549504104 
780	 0,173250026711098 
781	 0,173198844149573 
782	 0,173044179085651 
783	 0,173063704210791 
784	 0,173270605083073 
785	 0,173614952059686 
786	 0,173602745140963 
787	 0,1734775243291 
788	 0,17381530120303 
789	 0,17395110695905 
790	 0,173840622645091 
791	 0,174208292057202 
792	 0,174431868213354 
793	 0,174072402378388 
794	 0,174155658922727 
795	 0,174476099487106 
796	 0,174210164277547 
797	 0,173992478515617 
798	 0,174055859309447 
799	 0,174420495491357 
800	 0,174831744284027 
801	 0,175027783372643 
802	 0,174788703225393 
803	 0,174411816215444 
804	 0,174811461454801 
805	 0,174852170291849 
806	 0,174321768315509 
807	 0,174485302830602 
808	 0,174884788443915 
809	 0,174945174079221 
810	 0,174969825734715 
811	 0,175094438651001 
812	 0,175571302674965 
813	 0,175903889406791 
814	 0,175887760888943 
815	 0,1757206307623 
816	 0,175692133663051 
817	 0,176107791764131 
818	 0,176630395300947 
819	 0,177006733051408 
820	 0,17679168074039 
821	 0,176435791069698 
822	 0,176241801374852 
823	 0,176470761764555 
824	 0,176982564397118 
825	 0,17755164877426 
826	 0,178148001699081 
827	 0,178506354958278 
828	 0,177851329841369 
829	 0,177468231107303 
830	 0,177905443223065 
831	 0,177779755751193 
832	 0,177541470354312 
833	 0,177989056772242 
834	 0,178335385834678 
835	 0,178465850067212 
836	 0,17870787580541 
837	 0,178835668277625 
838	 0,178757753239616 
839	 0,17869398387142 
840	 0,178779325546152 
841	 0,179155205888219 
842	 0,179302707124019 
843	 0,179122578816119 
844	 0,178735614458063 
845	 0,178571037056371 
846	 0,178846322172487 
847	 0,179176886975447 
848	 0,179426167276641 
849	 0,179479436877397 
850	 0,179518395707004 
851	 0,179596548546969 
852	 0,179729814447013 
853	 0,179793913858405 
854	 0,179712251851419 
855	 0,179518891727239 
856	 0,179190372326059 
857	 0,178693184420753 
858	 0,178708178786043 
859	 0,179215554631689 
860	 0,17962963721372 
861	 0,179705550442784 
862	 0,179418881324748 
863	 0,179667610834871 
864	 0,180013841680618 
865	 0,179777819477369 
866	 0,179659660787274 
867	 0,179712451222641 
868	 0,179482784374887 
869	 0,179739753760715 
870	 0,180632350692828 
871	 0,18079377596169 
872	 0,180326998050312 
873	 0,179564496717771 
874	 0,179762865328773 
875	 0,180658388879735 
876	 0,18056519152607 
877	 0,180691066346595 
878	 0,181317144786034 
879	 0,181106183374469 
880	 0,180742850578509 
881	 0,18104018537242 
882	 0,181276167290813 
883	 0,181279842915002 
884	 0,180818875709128 
885	 0,181380164028859 
886	 0,182961907470789 
887	 0,182578729087623 
888	 0,181634391816805 
889	 0,181585275843096 
890	 0,181463642237243 
891	 0,181340627774848 
892	 0,181715647923722 
893	 0,181877984503308 
894	 0,181801820487338 
895	 0,182579348420464 
896	 0,182997748331426 
897	 0,182251029404153 
898	 0,182400762376649 
899	 0,182977652175409 
900	 0,182571794351915 
901	 0,182265921627624 
902	 0,182341154304597 
903	 0,182650371704123 
904	 0,182896702724474 
905	 0,182896175103125 
906	 0,182915674255767 
907	 0,182755416250175 
908	 0,182102680360196 
909	 0,182040924612079 
910	 0,182572167566437 
911	 0,18277026684525 
912	 0,183132508626038 
913	 0,18363323661015 
914	 0,182919245241228 
915	 0,181652674838084 
916	 0,180755674533478 
917	 0,181045589451134 
918	 0,182009255367462 
919	 0,18185733205374 
920	 0,182041948261642 
921	 0,182753221393134 
922	 0,182610120816773 
923	 0,181962294267073 
924	 0,181259054534073 
925	 0,18143576386757 
926	 0,181764242389705 
927	 0,180629684770323 
928	 0,180313513586237 
929	 0,180864001352762 
930	 0,179936333992029 
931	 0,178961299588523 
932	 0,178783759955787 
933	 0,179012213558331 
934	 0,179158181530543 
935	 0,178658256211692 
936	 0,177405939895612 
937	 0,17608526097028 
938	 0,176732221964109 
939	 0,176728428647961 
940	 0,175437845512788 
941	 0,175150427107789 
942	 0,175370726613454 
943	 0,175490134415154 
944	 0,175139555540493 
945	 0,17444865616836 
946	 0,17386925325706 
947	 0,172103612926743 
948	 0,169619636236419 
949	 0,169488838419948 
950	 0,168944374107681 
951	 0,166817928033288 
952	 0,166759140799252 
953	 0,166848842942234 
954	 0,164519631492038 
955	 0,164479506231637 
956	 0,165756627764567 
957	 0,163094482866313 
958	 0,161832694039801 
959	 0,163074765628529 
960	 0,163043958639591 
961	 0,162398932098057 
962	 0,161782424072828 
963	 0,161490509981998 
964	 0,161192503106513 
965	 0,160306454535199 
966	 0,159836357601699 
967	 0,159742388813571 
968	 0,158959910155162 
969	 0,158850110510246 
970	 0,159756490896429 
971	 0,160353091912061 
972	 0,160014127736154 
973	 0,158496251258929 
974	 0,158495454058526 
975	 0,159345931787553 
976	 0,158980286662745 
977	 0,159026074919041 
978	 0,159756305606761 
979	 0,160741486630502 
980	 0,160946541712293 
981	 0,160004019135352 
982	 0,159088518638975 
983	 0,15868255107383 
984	 0,159126589811037 
985	 0,159952847420594 
986	 0,16036626837397 
987	 0,158990137723897 
988	 0,159297521955711 
989	 0,161520288079162 
990	 0,162650463958825 
991	 0,162882739034689 
992	 0,162675787854561 
993	 0,164662906752477 
994	 0,165361722814719 
995	 0,161482148648977 
996	 0,160036272200465 
997	 0,161360200331037 
998	 0,163312072189423 
999	 0,166409189136815 
1000	 0,169207799066683 
1001	 0,167139012690462 
1002	 0,1637834359263 
1003	 0,161567810745219 
1004	 0,162250185255703 
1005	 0,165283101809013 
1006	 0,169367414390227 
1007	 0,169206198906275 
1008	 0,166156395120014 
1009	 0,164302141395908 
1010	 0,165808456121511 
1011	 0,169679305377347 
1012	 0,170232605770215 
1013	 0,17120280727053 
1014	 0,173257726940678 
1015	 0,170568367850469 
1016	 0,1711422816211 
1017	 0,180098236007018 
1018	 0,179516772256209 
1019	 0,173122789376567 
1020	 0,170684785465345 
1021	 0,171131398605738 
1022	 0,17392254494627 
1023	 0,177794607814373 
1024	 0,180061071124866 
1025	 0,179738711028022 
1026	 0,178585355179862 
1027	 0,175732320491711 
1028	 0,171789554185859 
1029	 0,173975074643086 
1030	 0,177236829923114 
1031	 0,175253262133789 
1032	 0,17667778740021 
1033	 0,180903092820503 
1034	 0,183504199573885 
1035	 0,18289428978182 
1036	 0,181054577199969 
1037	 0,188024351298874 
1038	 0,1870115899572 
1039	 0,175012452063715 
1040	 0,179000668668421 
1041	 0,186258537055944 
1042	 0,184800624561141 
1043	 0,176167642720832 
1044	 0,169629094792774 
1045	 0,176922211674574 
1046	 0,177986863222337 
1047	 0,174803248284494 
1048	 0,182133960004702 
1049	 0,192131375565863 
1050	 0,199403158981963 
1051	 0,194916266568303 
1052	 0,189904641692616 
1053	 0,18977744562036 
1054	 0,186085005025175 
1055	 0,185286614454883 
1056	 0,191332201216448 
1057	 0,184719038771106 
1058	 0,177752176531704 
1059	 0,190500845542572 
1060	 0,190944525009322 
1061	 0,181148979713857 
1062	 0,181958803022057 
1063	 0,179387064294033 
1064	 0,172105157668224 
1065	 0,168742097819852 
1066	 0,175189426833035 
1067	 0,190750392295352 
1068	 0,20188866040362 
1069	 0,199723025181611 
1070	 0,181602607580042 
1071	 0,176743785901474 
1072	 0,18210810875442 
1073	 0,187996389396459 
1074	 0,187222590573768 
1075	 0,185186515849206 
