Wavelength	GRA-VAN00573.asd
325	 0,517110805791675 
326	 0,403204067544023 
327	 0,351953913673888 
328	 0,451654489385932 
329	 0,373929707093804 
330	 0,25693485314918 
331	 0,337578196640572 
332	 0,321028230536347 
333	 0,261076447349598 
334	 0,2515478354872 
335	 0,283153254135608 
336	 0,329017498698794 
337	 0,353011217299824 
338	 0,355831955841549 
339	 0,331158206012814 
340	 0,293913948237364 
341	 0,28377739763773 
342	 0,35585769860738 
343	 0,367170029689985 
344	 0,294505114578319 
345	 0,260555404308078 
346	 0,257577035520862 
347	 0,282356894245339 
348	 0,233960447231316 
349	 0,147813650559357 
350	 0,189125242306296 
351	 0,261108154065728 
352	 0,300352815870057 
353	 0,260729045289514 
354	 0,208777292713469 
355	 0,225337956147944 
356	 0,273689690955369 
357	 0,316969053751298 
358	 0,290280888963123 
359	 0,25536315637672 
360	 0,252457761602609 
361	 0,292949434325305 
362	 0,327614390738622 
363	 0,287214347521645 
364	 0,275017184243027 
365	 0,302806359989132 
366	 0,309022203386788 
367	 0,317009586047944 
368	 0,336133521832669 
369	 0,320141440768186 
370	 0,294462311071034 
371	 0,314088545916583 
372	 0,322541845631286 
373	 0,309683938987384 
374	 0,310565239904997 
375	 0,314513638997316 
376	 0,313969991241585 
377	 0,328759253609833 
378	 0,346785007111835 
379	 0,331796155127033 
380	 0,325264091171389 
381	 0,335346667537715 
382	 0,335454634799663 
383	 0,336165990374598 
384	 0,347828084973861 
385	 0,354252328085823 
386	 0,353133366834419 
387	 0,346624526612376 
388	 0,344031055060446 
389	 0,347802478256489 
390	 0,344374316587889 
391	 0,336163480545466 
392	 0,327251967075563 
393	 0,331710593172494 
394	 0,34354762204389 
395	 0,336499736353738 
396	 0,32659305191544 
397	 0,322622213168026 
398	 0,324291460015036 
399	 0,329184470546194 
400	 0,334019286593185 
401	 0,3399827982686 
402	 0,344535912140407 
403	 0,340473665823506 
404	 0,335005518693935 
405	 0,333832010363287 
406	 0,338102599069604 
407	 0,344010565584157 
408	 0,345292773919138 
409	 0,343880930522911 
410	 0,340821500974182 
411	 0,33797430536628 
412	 0,336099272687439 
413	 0,335930034102142 
414	 0,340621651311843 
415	 0,345851133897339 
416	 0,338778976938575 
417	 0,336088195114205 
418	 0,342860787360282 
419	 0,343940951300171 
420	 0,342784404810328 
421	 0,345295086965176 
422	 0,34599921466145 
423	 0,344484113210853 
424	 0,342869152100706 
425	 0,344079926727644 
426	 0,349037439392906 
427	 0,349650523292835 
428	 0,347406176608247 
429	 0,3468334851657 
430	 0,347618533261589 
431	 0,348714704401379 
432	 0,344952536608865 
433	 0,342630453298827 
434	 0,346859026425608 
435	 0,348937108931498 
436	 0,347763526799967 
437	 0,344430766054026 
438	 0,342869423952198 
439	 0,344270672573495 
440	 0,344104545113927 
441	 0,344209435782803 
442	 0,347360296787989 
443	 0,349485132460091 
444	 0,350054630864914 
445	 0,35088483537418 
446	 0,3514911378701 
447	 0,351601112496116 
448	 0,351478743698534 
449	 0,351102745514097 
450	 0,350071261192996 
451	 0,351717047048913 
452	 0,355734246470645 
453	 0,356165013405165 
454	 0,354947222221026 
455	 0,35428088617713 
456	 0,356363227521046 
457	 0,359806205351345 
458	 0,360134267627485 
459	 0,359102169207135 
460	 0,35743830000281 
461	 0,35454747950785 
462	 0,35340564606205 
463	 0,357900626821506 
464	 0,358879341305142 
465	 0,355889934304454 
466	 0,355783293408466 
467	 0,358515071533066 
468	 0,363274957583969 
469	 0,362984580516496 
470	 0,359633163984882 
471	 0,359001996918721 
472	 0,359974949111078 
473	 0,361536404836181 
474	 0,359891121043473 
475	 0,358263569771029 
476	 0,359919527140064 
477	 0,361018826903208 
478	 0,36113739381773 
479	 0,361407063927734 
480	 0,361621719084932 
481	 0,36162315438933 
482	 0,360667179791372 
483	 0,360119665518015 
484	 0,36207301901128 
485	 0,36307954506272 
486	 0,362520537268768 
487	 0,361996661186449 
488	 0,3616369589247 
489	 0,361466627760236 
490	 0,360433336377407 
491	 0,359642591213701 
492	 0,362067420657934 
493	 0,364193184042698 
494	 0,364489894918064 
495	 0,362478894299971 
496	 0,360058892600788 
497	 0,359358459001712 
498	 0,359556299719276 
499	 0,360490181198906 
500	 0,362479227143483 
501	 0,363393500097058 
502	 0,362264879761278 
503	 0,361751849850642 
504	 0,362415567357059 
505	 0,364568132346455 
506	 0,366668818233712 
507	 0,368258616514872 
508	 0,37031812776547 
509	 0,370768821500519 
510	 0,368038629413794 
511	 0,368146933862018 
512	 0,370374890535252 
513	 0,36964383382267 
514	 0,368981803363054 
515	 0,369657787766242 
516	 0,371256204816807 
517	 0,372564727223555 
518	 0,371980237837437 
519	 0,372379975998507 
520	 0,373894884259185 
521	 0,374259181262158 
522	 0,373850166053066 
523	 0,373149708050598 
524	 0,374011736947511 
525	 0,375636868059203 
526	 0,375737136398962 
527	 0,374857227519148 
528	 0,373472046324768 
529	 0,373175046520306 
530	 0,373442200118244 
531	 0,373517844432141 
532	 0,374030330212849 
533	 0,374525720573799 
534	 0,373141911634621 
535	 0,37220813044488 
536	 0,372991501478338 
537	 0,373531379366529 
538	 0,373919639801177 
539	 0,374904704723295 
540	 0,375371028206109 
541	 0,375106943038209 
542	 0,374825877412788 
543	 0,374824507529053 
544	 0,37532497409559 
545	 0,375669404628707 
546	 0,375843948693794 
547	 0,376183499749092 
548	 0,376828850527261 
549	 0,377693359450758 
550	 0,377671114034585 
551	 0,377271500058977 
552	 0,377484112643647 
553	 0,377526902418061 
554	 0,377210090809823 
555	 0,376635475158933 
556	 0,376135527148697 
557	 0,375995542149054 
558	 0,376204396141871 
559	 0,376542229034189 
560	 0,376593495799693 
561	 0,376102631170045 
562	 0,375190091132012 
563	 0,37534395370817 
564	 0,375696305736984 
565	 0,374931647929962 
566	 0,374919603948715 
567	 0,375679825953355 
568	 0,375444316675088 
569	 0,375510683796968 
570	 0,37671794682511 
571	 0,377752182368407 
572	 0,378772682861458 
573	 0,380652543189361 
574	 0,382399433732366 
575	 0,3836772803682 
576	 0,384901699951123 
577	 0,385983846045169 
578	 0,386801933136572 
579	 0,387858740700819 
580	 0,389139844606725 
581	 0,390168699658903 
582	 0,391276936805827 
583	 0,392608625765147 
584	 0,39374646507494 
585	 0,394742205204826 
586	 0,395818967662536 
587	 0,396550470849443 
588	 0,397035442685757 
589	 0,398276643880286 
590	 0,399509713216265 
591	 0,400033566944377 
592	 0,401021673030854 
593	 0,402267454368583 
594	 0,402654154283275 
595	 0,402546277196701 
596	 0,402289673322663 
597	 0,40304282211146 
598	 0,403966748625409 
599	 0,403644827986235 
600	 0,403006363326227 
601	 0,402529966713546 
602	 0,403008362042783 
603	 0,40338841242831 
604	 0,402792969542461 
605	 0,401226927859975 
606	 0,399551599448304 
607	 0,399923595603919 
608	 0,399774289720717 
609	 0,398406702385905 
610	 0,39792643810913 
611	 0,397706368524195 
612	 0,396770795279279 
613	 0,396079858459395 
614	 0,395720326246827 
615	 0,395178573569299 
616	 0,394632323670973 
617	 0,394232035674638 
618	 0,394275363326584 
619	 0,39447453354899 
620	 0,394209480937053 
621	 0,393761357696893 
622	 0,393415791166697 
623	 0,394071726269839 
624	 0,394798788817393 
625	 0,3946212114677 
626	 0,394477112445324 
627	 0,394649939414182 
628	 0,395453692994594 
629	 0,395747218728478 
630	 0,395127125605869 
631	 0,395330992428636 
632	 0,396192360099325 
633	 0,397120418625476 
634	 0,397610690660822 
635	 0,397743842577038 
636	 0,398597696318711 
637	 0,399779542346623 
638	 0,400895185677403 
639	 0,401663401666293 
640	 0,402162846974427 
641	 0,40266007874807 
642	 0,403716217467164 
643	 0,4052817034645 
644	 0,405502718147954 
645	 0,405352875741312 
646	 0,406313225121692 
647	 0,406397398799353 
648	 0,405481440808178 
649	 0,405014172970356 
650	 0,404145145207438 
651	 0,402442464683642 
652	 0,401251559153788 
653	 0,400687855250396 
654	 0,400702066905928 
655	 0,399691703265169 
656	 0,397373658252836 
657	 0,395435349832943 
658	 0,393934292270706 
659	 0,392782376763404 
660	 0,391084906732575 
661	 0,388893399696332 
662	 0,386906441872973 
663	 0,385303922077496 
664	 0,384176868502707 
665	 0,383256393011966 
666	 0,382377110344889 
667	 0,381347396099008 
668	 0,380500910193244 
669	 0,379970578791587 
670	 0,379835914248047 
671	 0,379876261049606 
672	 0,379882207922054 
673	 0,379635148152072 
674	 0,379290111725407 
675	 0,379354896290999 
676	 0,379224007928981 
677	 0,378865617363605 
678	 0,379367023464678 
679	 0,380179168680064 
680	 0,380549959325274 
681	 0,380362971867647 
682	 0,380059901219792 
683	 0,381048148653609 
684	 0,38249158911439 
685	 0,38388211230144 
686	 0,385298837316525 
687	 0,387051614784261 
688	 0,389667785624358 
689	 0,392564701736274 
690	 0,395726156103 
691	 0,399711092546196 
692	 0,404531084082687 
693	 0,41021702861639 
694	 0,417176486442397 
695	 0,425042682582684 
696	 0,43275632714195 
697	 0,44091445487594 
698	 0,449733784746328 
699	 0,459098749105694 
700	 0,46879733940704 
701	 0,478563724985882 
702	 0,488115799751854 
703	 0,497372692479083 
704	 0,50643231045262 
705	 0,515574922595831 
706	 0,5248248249243 
707	 0,53308315558737 
708	 0,540523068713675 
709	 0,547713018696471 
710	 0,554668114133878 
711	 0,56135056097367 
712	 0,567411192920255 
713	 0,572915298194263 
714	 0,577963123375506 
715	 0,583026263099439 
716	 0,587899035989782 
717	 0,591694710547546 
718	 0,595525489610178 
719	 0,599669945969796 
720	 0,602663781303515 
721	 0,605176817089751 
722	 0,608234144837408 
723	 0,610485341871951 
724	 0,612112250191686 
725	 0,614786727074947 
726	 0,617313527066158 
727	 0,618943703756861 
728	 0,619973039832801 
729	 0,620922884222681 
730	 0,622654666044181 
731	 0,624031854646014 
732	 0,624832257506637 
733	 0,625782789379727 
734	 0,626503261830413 
735	 0,626696256311032 
736	 0,627098863363447 
737	 0,627827991627361 
738	 0,62887235995377 
739	 0,629601397403466 
740	 0,62981566305594 
741	 0,630036268086433 
742	 0,630368471328664 
743	 0,630873593007713 
744	 0,631311722636763 
745	 0,631600705095775 
746	 0,631653052260953 
747	 0,631888150829772 
748	 0,63243252928387 
749	 0,632396033992423 
750	 0,63218579226386 
751	 0,632581678029233 
752	 0,632944534164077 
753	 0,633145964788791 
754	 0,633394273403452 
755	 0,633662511867142 
756	 0,633911383998036 
757	 0,633954118235916 
758	 0,633933896565057 
759	 0,634181926713137 
760	 0,634581927010704 
761	 0,634946960116252 
762	 0,634576909067222 
763	 0,634337494579664 
764	 0,634987587340659 
765	 0,634838873306612 
766	 0,634074491472939 
767	 0,633984550919579 
768	 0,634099306324888 
769	 0,634253056147997 
770	 0,634513439942363 
771	 0,634510065953659 
772	 0,63384604880142 
773	 0,633923952705666 
774	 0,634554782368504 
775	 0,634074518000318 
776	 0,633756619655005 
777	 0,634171552277834 
778	 0,63445177815848 
779	 0,634395804475456 
780	 0,633863018788425 
781	 0,633499672165056 
782	 0,633444601323432 
783	 0,633450488536748 
784	 0,633398653641407 
785	 0,633271179687652 
786	 0,633693140153386 
787	 0,634217506933281 
788	 0,633894092667488 
789	 0,633702308221998 
790	 0,633874044374392 
791	 0,634110190528311 
792	 0,634055813285258 
793	 0,633481681197757 
794	 0,633032429579347 
795	 0,63279663556225 
796	 0,632677410784234 
797	 0,632760120956475 
798	 0,632939137490438 
799	 0,63263171055925 
800	 0,63235556084969 
801	 0,632578365604504 
802	 0,632466165342548 
803	 0,632102355303992 
804	 0,632133313141789 
805	 0,631962080576928 
806	 0,631564445709206 
807	 0,631992512386214 
808	 0,632552569771693 
809	 0,632461929275821 
810	 0,632694057798477 
811	 0,633151553424384 
812	 0,632965741345812 
813	 0,633003591983044 
814	 0,633507013404245 
815	 0,633561917157293 
816	 0,633498727246606 
817	 0,633787602444345 
818	 0,633842599152478 
819	 0,633647848193809 
820	 0,633477268121327 
821	 0,633704595454383 
822	 0,634336656567895 
823	 0,634151875391004 
824	 0,633594048668298 
825	 0,633395536432228 
826	 0,633793490521145 
827	 0,634527308981684 
828	 0,634597277059253 
829	 0,634449998041522 
830	 0,634296519443618 
831	 0,633922275833976 
832	 0,633629904904735 
833	 0,633834330868691 
834	 0,633928053180943 
835	 0,633858724649376 
836	 0,634013913674038 
837	 0,634105628696965 
838	 0,633996655353453 
839	 0,633966669815921 
840	 0,633758849113887 
841	 0,632983354923217 
842	 0,632655800833132 
843	 0,632920054172502 
844	 0,633333640427844 
845	 0,63362071536572 
846	 0,633572338023466 
847	 0,633019071063584 
848	 0,632641500259403 
849	 0,633384589092554 
850	 0,633474132905495 
851	 0,632842579403523 
852	 0,632831124441133 
853	 0,632993717681541 
854	 0,633034683267948 
855	 0,632650051274764 
856	 0,632017936788003 
857	 0,631437214916333 
858	 0,631768388990641 
859	 0,632825530156211 
860	 0,633409349404246 
861	 0,633346920430007 
862	 0,632677215046375 
863	 0,632423790918448 
864	 0,632594646159294 
865	 0,633021560600842 
866	 0,633336471119641 
867	 0,633480028621401 
868	 0,633711701949011 
869	 0,633513052409096 
870	 0,632836054958619 
871	 0,632911882753634 
872	 0,633376983581456 
873	 0,633635520429948 
874	 0,63324206468173 
875	 0,632591359036311 
876	 0,633185376941903 
877	 0,633459550332147 
878	 0,632925755195489 
879	 0,632863228849202 
880	 0,633041001298756 
881	 0,63311397037989 
882	 0,633391716269105 
883	 0,633666984390584 
884	 0,633217792676637 
885	 0,633055159384483 
886	 0,63345643043547 
887	 0,63378355730302 
888	 0,633847993251158 
889	 0,633542896251862 
890	 0,63330613495459 
891	 0,633335553393389 
892	 0,633880062847915 
893	 0,634211359481303 
894	 0,634105300306208 
895	 0,633827995992941 
896	 0,633626359006737 
897	 0,633665764415895 
898	 0,633563438691394 
899	 0,633508671925817 
900	 0,633950592513431 
901	 0,634075878036976 
902	 0,63393284496449 
903	 0,634748366220395 
904	 0,635113756374663 
905	 0,634264591749333 
906	 0,633508811601587 
907	 0,633340269700832 
908	 0,634177571396168 
909	 0,634263327627329 
910	 0,633593062200805 
911	 0,633736969226116 
912	 0,633585492597728 
913	 0,632785984375606 
914	 0,632395905570776 
915	 0,632416789768453 
916	 0,632735387993166 
917	 0,633338010785953 
918	 0,633959520795587 
919	 0,634021822848219 
920	 0,634113840146373 
921	 0,634317525949907 
922	 0,634007946072448 
923	 0,633578279734985 
924	 0,633380879619749 
925	 0,63335950800815 
926	 0,633094268734373 
927	 0,631795899337557 
928	 0,631809010502524 
929	 0,632966331168562 
930	 0,631924526680816 
931	 0,631278004426694 
932	 0,632256789998075 
933	 0,632110936175557 
934	 0,631424200549803 
935	 0,631323129485124 
936	 0,631561264529816 
937	 0,631700701506514 
938	 0,630601677450228 
939	 0,629667389339048 
940	 0,629360689886908 
941	 0,628937722395448 
942	 0,628600484365215 
943	 0,62849414319621 
944	 0,627972483587308 
945	 0,627057602208718 
946	 0,625957636339388 
947	 0,625567076426787 
948	 0,625756068751291 
949	 0,624899038753604 
950	 0,624385012846372 
951	 0,624780240210709 
952	 0,624447310082602 
953	 0,623086904158165 
954	 0,620695471806313 
955	 0,620306008711099 
956	 0,621226717818752 
957	 0,619946516704549 
958	 0,618295582426223 
959	 0,616971562332883 
960	 0,61611417434024 
961	 0,616012792264744 
962	 0,616749138604531 
963	 0,617312650666014 
964	 0,617437475882246 
965	 0,617013932807563 
966	 0,616334456010488 
967	 0,615601250682834 
968	 0,614929662914715 
969	 0,615227890048164 
970	 0,616415718696758 
971	 0,615889963135134 
972	 0,614846784376115 
973	 0,614657258186258 
974	 0,616383589452144 
975	 0,618087454867695 
976	 0,616060846673506 
977	 0,614505536871578 
978	 0,61469421704363 
979	 0,616668239487765 
980	 0,618224757598751 
981	 0,618083975031566 
982	 0,616034029671434 
983	 0,61515571415126 
984	 0,618082363090561 
985	 0,617757340852659 
986	 0,615063017195128 
987	 0,614165720348162 
988	 0,615305876986792 
989	 0,617931399141897 
990	 0,619559938415817 
991	 0,620124687608276 
992	 0,619758261651044 
993	 0,61986528664667 
994	 0,619353860962277 
995	 0,617375042493506 
996	 0,619298192531684 
997	 0,623830517958266 
998	 0,626628989895557 
999	 0,627261480685251 
1000	 0,625648726292777 
1001	 0,622117187675585 
1002	 0,621054305961342 
1003	 0,624001877307435 
1004	 0,625107377674626 
1005	 0,626282408117552 
1006	 0,629276995888427 
1007	 0,62707553348988 
1008	 0,622749884566631 
1009	 0,623653922526168 
1010	 0,625215547388671 
1011	 0,626737269726381 
1012	 0,630171200654629 
1013	 0,632431400975711 
1014	 0,631971542669555 
1015	 0,628441578419016 
1016	 0,627338336103851 
1017	 0,632415111276544 
1018	 0,635087014781263 
1019	 0,63438678449182 
1020	 0,631177180727094 
1021	 0,63213484313468 
1022	 0,636175312904988 
1023	 0,635419247798709 
1024	 0,634169149968008 
1025	 0,63395684292778 
1026	 0,634397669299248 
1027	 0,637164491088136 
1028	 0,64205000926719 
1029	 0,640867363254456 
1030	 0,637020677078743 
1031	 0,635768015403357 
1032	 0,638820450153403 
1033	 0,642961794121089 
1034	 0,640915491529578 
1035	 0,639869959612325 
1036	 0,640447736526338 
1037	 0,637130525716972 
1038	 0,634848173250258 
1039	 0,636065170052482 
1040	 0,640827354186557 
1041	 0,646002313843187 
1042	 0,648460786263113 
1043	 0,645515744213953 
1044	 0,639843201837635 
1045	 0,636030482575038 
1046	 0,637442207743897 
1047	 0,641940882272945 
1048	 0,642639545655758 
1049	 0,642936777343655 
1050	 0,643180787542201 
1051	 0,640766983656265 
1052	 0,640848132311999 
1053	 0,645384125619654 
1054	 0,649272771794379 
1055	 0,651036842939412 
1056	 0,649717894955726 
1057	 0,646414339403453 
1058	 0,64487268686843 
1059	 0,649539689009196 
1060	 0,647265288213806 
1061	 0,641889961732349 
1062	 0,648702501398363 
1063	 0,655323733395705 
1064	 0,657347315003865 
1065	 0,65189293667416 
1066	 0,648453276279189 
1067	 0,649837901715408 
1068	 0,644250117270077 
1069	 0,638032720359102 
1070	 0,637621145014464 
1071	 0,65084654684067 
1072	 0,667180898301161 
1073	 0,671184859608979 
1074	 0,648168284699297 
1075	 0,619483601609457 
