Wavelength	GRA-VAN00802.asd
325	 0,208763003336705 
326	 0,11180267151733 
327	 8,94247784161333E-02 
328	 0,197483077631764 
329	 0,047369646626788 
330	-0,104522006822531 
331	 0,108943328353782 
332	 0,222394512528906 
333	 0,260667084832679 
334	 0,13912092771854 
335	 8,67454770383892E-02 
336	 0,176134873530848 
337	 0,22803825751903 
338	 0,201054150185961 
339	 4,46407097092164E-02 
340	-0,014251976809252 
341	 3,01360804071692E-02 
342	 6,11707464274548E-02 
343	 9,95181556732299E-02 
344	 0,119532635223304 
345	 7,59128767388058E-02 
346	 5,32676318356069E-02 
347	 0,137430552473695 
348	 0,10943494738724 
349	 3,69638367336727E-03 
350	 2,31345611890526E-02 
351	 5,41208390053651E-02 
352	 5,32335907335907E-02 
353	 6,43595774069511E-02 
354	 7,21058033010178E-02 
355	 5,52531961244764E-02 
356	 7,14200405212987E-02 
357	 0,10078612341754 
358	 6,03211506574011E-02 
359	 1,81067850562557E-02 
360	 0,017086714558383 
361	 5,53194735704972E-02 
362	 9,02430883431137E-02 
363	 6,44041509838681E-02 
364	 4,22911206361802E-02 
365	 4,05000465857655E-02 
366	 5,27363757879556E-02 
367	 7,15238358485192E-02 
368	 8,76476127345919E-02 
369	 7,19082031854105E-02 
370	 3,90477745439766E-02 
371	 1,68517525522165E-02 
372	 2,65027019204167E-02 
373	 5,58495375302059E-02 
374	 3,49381774825022E-02 
375	 0,014796863564284 
376	 3,37468388880923E-02 
377	 2,25444200349114E-02 
378	-1,53372983358035E-03 
379	 2,58853737790759E-02 
380	 3,85255982112965E-02 
381	 0,025538113458439 
382	 3,55378342750803E-02 
383	 4,66040563700031E-02 
384	 3,80380889806289E-02 
385	 3,56578117150829E-02 
386	 3,61515915891382E-02 
387	 1,54197176221211E-02 
388	 7,70364591470834E-03 
389	 2,34265757748749E-02 
390	 2,73889238844805E-02 
391	 0,026253120841032 
392	 3,08185788762567E-02 
393	 3,50746523203734E-02 
394	 0,036182253120603 
395	 2,93988180429915E-02 
396	 2,23263084370503E-02 
397	 2,00397189130919E-02 
398	 0,029814141446783 
399	 3,63664693124251E-02 
400	 1,56778188444796E-02 
401	 1,59344347163998E-02 
402	 3,58611141684684E-02 
403	 2,67584205948433E-02 
404	 6,68452179658052E-03 
405	-8,37726471600095E-03 
406	 3,13008159689442E-04 
407	 1,96924624994016E-02 
408	 2,23772532769875E-02 
409	 2,03381810949695E-02 
410	 1,81055020568695E-02 
411	 2,16254864001446E-02 
412	 2,32566517155769E-02 
413	 1,63771988061794E-02 
414	 1,68358056059146E-02 
415	 2,07580792254223E-02 
416	 1,01292283990152E-02 
417	 3,86639671896648E-03 
418	 9,02372559721846E-03 
419	 1,64169801118906E-02 
420	 2,14806509963791E-02 
421	 2,02567045367694E-02 
422	 1,89124470034311E-02 
423	 1,80549613636334E-02 
424	 1,40422192272122E-02 
425	 1,07056177347905E-02 
426	 1,05790513123559E-02 
427	 1,44236124118292E-02 
428	 1,89476586164609E-02 
429	 1,89027278308178E-02 
430	 1,49044199400126E-02 
431	 8,87128445556284E-03 
432	 7,73412170203822E-03 
433	 1,00322111901101E-02 
434	 0,01376450954389 
435	 1,38848425775063E-02 
436	 1,15877519130915E-02 
437	 1,29285579710018E-02 
438	 1,27981981016942E-02 
439	 9,73184149612359E-03 
440	 6,93138439929766E-03 
441	 6,68500783121001E-03 
442	 1,13813432056342E-02 
443	 1,35901387120585E-02 
444	 1,28359120744274E-02 
445	 0,014708588946952 
446	 1,46831766354525E-02 
447	 1,05616981964066E-02 
448	 8,36372655478839E-03 
449	 8,74334035873656E-03 
450	 0,011231683105975 
451	 1,41749390843245E-02 
452	 1,63259102546085E-02 
453	 1,58074842370421E-02 
454	 1,45012895481259E-02 
455	 1,42417385084765E-02 
456	 1,50018807533083E-02 
457	 1,50883509974289E-02 
458	 9,16151991945964E-03 
459	 7,56533456929893E-03 
460	 1,31004768132666E-02 
461	 1,18858460914148E-02 
462	 9,26753786476161E-03 
463	 1,40333952667111E-02 
464	 0,013853113962136 
465	 8,84277508233489E-03 
466	 1,04357688611301E-02 
467	 1,28932734781796E-02 
468	 1,26624068604974E-02 
469	 0,014025350883553 
470	 1,56224889425899E-02 
471	 1,34446590885722E-02 
472	 0,013452378202951 
473	 1,63542283255047E-02 
474	 1,58632445034906E-02 
475	 1,40445422056753E-02 
476	 1,32894100336605E-02 
477	 1,31110677998195E-02 
478	 1,33231026174916E-02 
479	 1,35798448848303E-02 
480	 1,36645816450398E-02 
481	 1,35951813964763E-02 
482	 1,47236442568664E-02 
483	 1,51389366425622E-02 
484	 1,18061711641436E-02 
485	 1,07320115990748E-02 
486	 1,25208584901767E-02 
487	 1,28497717887265E-02 
488	 1,23061073983815E-02 
489	 1,14759276632014E-02 
490	 1,12192749618058E-02 
491	 1,15876016900154E-02 
492	 1,24639067791831E-02 
493	 1,24189673470604E-02 
494	 1,14538455741505E-02 
495	 1,28884626645497E-02 
496	 1,40862019692521E-02 
497	 1,19191799223437E-02 
498	 1,17896958108507E-02 
499	 1,35836632223145E-02 
500	 1,30307969551561E-02 
501	 1,24245886161598E-02 
502	 1,28061203645646E-02 
503	 1,15721748007051E-02 
504	 1,00049470579168E-02 
505	 1,08373628844451E-02 
506	 1,17296898100388E-02 
507	 1,21309679338693E-02 
508	 1,30498638773463E-02 
509	 1,34884367986629E-02 
510	 1,26136975909935E-02 
511	 1,23390069531948E-02 
512	 1,24553569753308E-02 
513	 1,11612869318587E-02 
514	 0,010971817693743 
515	 1,25695634746548E-02 
516	 1,27930816207405E-02 
517	 1,25218452966645E-02 
518	 1,34518212161374E-02 
519	 1,34196965253312E-02 
520	 1,23817465087848E-02 
521	 1,21591410845778E-02 
522	 1,21626546925505E-02 
523	 1,20113075822288E-02 
524	 0,012613614104836 
525	 1,35168873342115E-02 
526	 1,35266867081357E-02 
527	 1,30835162587933E-02 
528	 1,24159990690922E-02 
529	 1,18315095059281E-02 
530	 1,17953071095836E-02 
531	 1,27556119186982E-02 
532	 1,25887330077213E-02 
533	 0,01134271258141 
534	 1,06962986576522E-02 
535	 1,06961154591154E-02 
536	 1,12659749645329E-02 
537	 1,12877600993354E-02 
538	 1,11330153480629E-02 
539	 1,18071405637117E-02 
540	 1,25172501391749E-02 
541	 1,27430383331705E-02 
542	 1,12746932837106E-02 
543	 1,01619550349047E-02 
544	 1,13345821066925E-02 
545	 1,16731313513269E-02 
546	 1,10998562035212E-02 
547	 1,12701706141174E-02 
548	 1,15305638030311E-02 
549	 1,16240521120205E-02 
550	 1,19519452344955E-02 
551	 1,22399410027421E-02 
552	 1,20393849479033E-02 
553	 1,12796360987936E-02 
554	 1,02899176877037E-02 
555	 1,03165701473582E-02 
556	 1,06771251334244E-02 
557	 1,07748463208146E-02 
558	 1,08841266496774E-02 
559	 1,10166559924076E-02 
560	 0,011149473296396 
561	 1,11043907053131E-02 
562	 1,09369706896531E-02 
563	 1,14790834620775E-02 
564	 1,20405424099981E-02 
565	 1,16376956412921E-02 
566	 1,14659692512829E-02 
567	 1,15878296861261E-02 
568	 1,09699527447384E-02 
569	 1,07722354336337E-02 
570	 1,16599154881068E-02 
571	 0,011668111198488 
572	 1,11395852379796E-02 
573	 1,14724662324906E-02 
574	 1,20657829551529E-02 
575	 1,26646641496899E-02 
576	 1,31029699362496E-02 
577	 0,013056377678954 
578	 1,22291831915627E-02 
579	 1,23672570431478E-02 
580	 1,33235622899491E-02 
581	 1,32325898137459E-02 
582	 1,32322148613252E-02 
583	 1,38641276803451E-02 
584	 1,40476544624527E-02 
585	 1,40387444825895E-02 
586	 1,45902757982562E-02 
587	 1,44415812559925E-02 
588	 0,013630921834531 
589	 1,40777603955677E-02 
590	 1,47447163707367E-02 
591	 1,46314270680949E-02 
592	 1,49017681172337E-02 
593	 1,54313424560348E-02 
594	 1,52480739912857E-02 
595	 1,51783677530517E-02 
596	 1,55499365206209E-02 
597	 1,59235563914461E-02 
598	 0,015829357495399 
599	 1,46254134797331E-02 
600	 1,39960076387677E-02 
601	 0,014329167203026 
602	 1,50408926817099E-02 
603	 1,54992192624965E-02 
604	 1,51876145369832E-02 
605	 1,40602668188372E-02 
606	 0,012900178270404 
607	 1,36461789810308E-02 
608	 1,40594327074237E-02 
609	 1,34838016935811E-02 
610	 1,35272482959284E-02 
611	 1,36916398478052E-02 
612	 1,32139963352592E-02 
613	 1,31150810985001E-02 
614	 1,34073202395162E-02 
615	 1,32864584317524E-02 
616	 1,30558515676443E-02 
617	 1,29469127550476E-02 
618	 1,32514691491436E-02 
619	 1,35897837641952E-02 
620	 1,31574675413054E-02 
621	 0,012543335953601 
622	 1,20313535296962E-02 
623	 1,18281689909635E-02 
624	 1,20809838806588E-02 
625	 1,28773533105475E-02 
626	 1,32228382709896E-02 
627	 1,30196258416888E-02 
628	 1,26354798222642E-02 
629	 1,25773366018799E-02 
630	 1,30790295778252E-02 
631	 1,36222792564397E-02 
632	 0,013844372670944 
633	 1,32528202180634E-02 
634	 1,32263199093201E-02 
635	 1,38899053499698E-02 
636	 1,38549960579525E-02 
637	 1,38170691403688E-02 
638	 1,43490434134669E-02 
639	 1,44934030268778E-02 
640	 1,44233151937664E-02 
641	 1,50260292872746E-02 
642	 0,015656230837989 
643	 1,59822082022421E-02 
644	 1,56946706921343E-02 
645	 1,54340591077298E-02 
646	 1,60549948761117E-02 
647	 1,62732358598001E-02 
648	 1,58311534014953E-02 
649	 1,49156505299857E-02 
650	 1,46696045961009E-02 
651	 1,56597016468196E-02 
652	 1,54688406178207E-02 
653	 1,46238490735174E-02 
654	 1,49962081864679E-02 
655	 1,51603732914169E-02 
656	 1,47183024490884E-02 
657	 1,40988254145453E-02 
658	 1,35358437664981E-02 
659	 1,32465561800118E-02 
660	 1,31711184785983E-02 
661	 1,32166670092961E-02 
662	 1,31962740215106E-02 
663	 0,013076295020434 
664	 1,28567531112541E-02 
665	 1,27601361675323E-02 
666	 1,25966082889988E-02 
667	 1,20127452261301E-02 
668	 1,17658947154395E-02 
669	 0,011915558493921 
670	 1,16880570627794E-02 
671	 1,17254752699112E-02 
672	 1,24679389369915E-02 
673	 1,26604969033681E-02 
674	 0,012381632107108 
675	 1,23624533569809E-02 
676	 1,23397131909405E-02 
677	 1,22867544250926E-02 
678	 1,23853118559814E-02 
679	 1,27738608752893E-02 
680	 1,35803729885875E-02 
681	 1,35188302108833E-02 
682	 1,27887626881428E-02 
683	 1,30205632749092E-02 
684	 1,35546069617007E-02 
685	 1,39433851567837E-02 
686	 1,38243607430723E-02 
687	 1,36460257233594E-02 
688	 0,01433885185262 
689	 1,45247236416785E-02 
690	 1,41049890255171E-02 
691	 1,44300996276949E-02 
692	 1,55102795810095E-02 
693	 1,72408938902423E-02 
694	 1,86663244462413E-02 
695	 1,99368491788012E-02 
696	 2,19323278148299E-02 
697	 2,43230726775125E-02 
698	 0,02698724289627 
699	 2,98416834416199E-02 
700	 3,32108268678143E-02 
701	 3,75017376774212E-02 
702	 4,20156525018006E-02 
703	 4,67057946407009E-02 
704	 5,20511396124811E-02 
705	 5,79749191029115E-02 
706	 6,43068257742965E-02 
707	 7,02122038359914E-02 
708	 0,076123119255263 
709	 8,30918529365732E-02 
710	 8,97989502236282E-02 
711	 9,59732386888474E-02 
712	 0,102341175531098 
713	 0,109008271617682 
714	 0,115979445402805 
715	 0,122413537723613 
716	 0,128301476933006 
717	 0,134070693743884 
718	 0,139786297976446 
719	 0,145403960315311 
720	 0,150272810300506 
721	 0,154791795499539 
722	 0,15955503789349 
723	 0,164076394447885 
724	 0,16827243324703 
725	 0,172255541045665 
726	 0,175905688865644 
727	 0,179161992402206 
728	 0,182136037742814 
729	 0,18483407567619 
730	 0,187240443443309 
731	 0,189316123760928 
732	 0,191171141747373 
733	 0,193258829114016 
734	 0,19523204263167 
735	 0,196798149782755 
736	 0,198370155092464 
737	 0,199988073146912 
738	 0,201594645682505 
739	 0,202960865548074 
740	 0,20398563924748 
741	 0,20470240988229 
742	 0,205449827580281 
743	 0,206591782290551 
744	 0,20732329047408 
745	 0,207722433191858 
746	 0,208617971965436 
747	 0,209492675217092 
748	 0,210082056588248 
749	 0,210607141692447 
750	 0,211086583176347 
751	 0,211506465828172 
752	 0,212011490032912 
753	 0,212573426514828 
754	 0,212892255219156 
755	 0,213322872048815 
756	 0,214054313751797 
757	 0,214229325399032 
758	 0,214172307131651 
759	 0,214828776804596 
760	 0,215337191753332 
761	 0,215475068249891 
762	 0,215574688214269 
763	 0,215813826487907 
764	 0,216313274186648 
765	 0,216499635876879 
766	 0,216476471343897 
767	 0,216792019835474 
768	 0,21722212995762 
769	 0,217661457563316 
770	 0,218009443181465 
771	 0,218301106789475 
772	 0,218588089234345 
773	 0,218658897121102 
774	 0,218580254858699 
775	 0,218678445714615 
776	 0,218825523685369 
777	 0,218953871630849 
778	 0,219042387122621 
779	 0,219158441649582 
780	 0,219411326465892 
781	 0,21935328093496 
782	 0,219108347018316 
783	 0,219563866913849 
784	 0,220031925850453 
785	 0,220065314466845 
786	 0,220016917518167 
787	 0,219999271379324 
788	 0,220115751554185 
789	 0,220287581616196 
790	 0,220527988541121 
791	 0,221112524505899 
792	 0,221193366408216 
793	 0,220233261822314 
794	 0,220047877966716 
795	 0,220498682346252 
796	 0,220618241733467 
797	 0,220593804384672 
798	 0,220486024305669 
799	 0,220449189217435 
800	 0,220467042144115 
801	 0,220516457111032 
802	 0,220595382003338 
803	 0,220757253617868 
804	 0,221183652803336 
805	 0,22139899247767 
806	 0,221337477079802 
807	 0,22177097745154 
808	 0,222089851868174 
809	 0,221654898266829 
810	 0,222001953690693 
811	 0,223001778043495 
812	 0,223415381337477 
813	 0,223614619540437 
814	 0,223734453342274 
815	 0,22382554333124 
816	 0,223782779912336 
817	 0,223489149982985 
818	 0,223513041069662 
819	 0,223908713280567 
820	 0,224426805377288 
821	 0,224892995212453 
822	 0,225176209768533 
823	 0,225195179421259 
824	 0,22517380964439 
825	 0,225403341545151 
826	 0,225838183775837 
827	 0,226342891078143 
828	 0,226611403319027 
829	 0,226506560755663 
830	 0,226054352897164 
831	 0,225908063893404 
832	 0,22608054612367 
833	 0,226469282606741 
834	 0,226627323500051 
835	 0,226670789255879 
836	 0,227458822012255 
837	 0,228052247817678 
838	 0,227951833205981 
839	 0,227565581793906 
840	 0,227320372418166 
841	 0,227724186667455 
842	 0,2281143950145 
843	 0,228232864078149 
844	 0,227878520354558 
845	 0,227397703275942 
846	 0,227150900380673 
847	 0,228071202788531 
848	 0,229126663310738 
849	 0,228763933998544 
850	 0,228276942917835 
851	 0,228003258248035 
852	 0,227805320509388 
853	 0,228109830348031 
854	 0,22889476932017 
855	 0,228395851424113 
856	 0,227485103536418 
857	 0,227613029640491 
858	 0,227762292866065 
859	 0,227780494261876 
860	 0,227928300930283 
861	 0,228293083517551 
862	 0,228811634495412 
863	 0,22878766071254 
864	 0,228546344558329 
865	 0,228604217249045 
866	 0,228652940088966 
867	 0,228742189603591 
868	 0,229248702716294 
869	 0,229563540852776 
870	 0,229500476087695 
871	 0,229929573084066 
872	 0,230335124914459 
873	 0,230042475055187 
874	 0,230296340282221 
875	 0,230928152896955 
876	 0,230588003532661 
877	 0,230525027240407 
878	 0,231168665161827 
879	 0,231757278234195 
880	 0,232106732470849 
881	 0,232125801675512 
882	 0,232744261786127 
883	 0,23353063640592 
884	 0,232739427539969 
885	 0,23256238251964 
886	 0,23350430735094 
887	 0,233704532784298 
888	 0,23367728110157 
889	 0,233933169612303 
890	 0,233249628537655 
891	 0,232474460770667 
892	 0,233967884157218 
893	 0,234691152545394 
894	 0,234081296237586 
895	 0,234470308979578 
896	 0,235022093277607 
897	 0,235024225181271 
898	 0,234673785989901 
899	 0,234395363147791 
900	 0,234877607690355 
901	 0,235378975249771 
902	 0,235591730130126 
903	 0,235255838379313 
904	 0,23511969684486 
905	 0,235581407223701 
906	 0,235807546617774 
907	 0,235760411673411 
908	 0,235542766132521 
909	 0,236037124556821 
910	 0,236943316685514 
911	 0,236595561660635 
912	 0,236248848874038 
913	 0,236430271704216 
914	 0,236510176744971 
915	 0,236326901965022 
916	 0,235797745757846 
917	 0,235696781063794 
918	 0,235853655675065 
919	 0,235398377883262 
920	 0,235069995499197 
921	 0,234948066575948 
922	 0,234104939471454 
923	 0,23350065557379 
924	 0,233850540905058 
925	 0,233735292730689 
926	 0,233114481744857 
927	 0,232332481661157 
928	 0,231743927965609 
929	 0,231497806668242 
930	 0,231695632350531 
931	 0,231438923361992 
932	 0,230310352959648 
933	 0,229396564667208 
934	 0,22886222776946 
935	 0,228714611810134 
936	 0,228422330124704 
937	 0,227738894182589 
938	 0,226481854649831 
939	 0,224533876314203 
940	 0,222545342816701 
941	 0,223768991339572 
942	 0,225185436711097 
943	 0,223997913931322 
944	 0,221876804901849 
945	 0,21957195384121 
946	 0,217880596096419 
947	 0,216786773233837 
948	 0,216206054356145 
949	 0,21586166369928 
950	 0,214991142861545 
951	 0,213257848167287 
952	 0,211722779047031 
953	 0,210241301589068 
954	 0,208504828744193 
955	 0,20698437545253 
956	 0,205560260260118 
957	 0,203571140719287 
958	 0,202190637747302 
959	 0,201593925621007 
960	 0,200551988256738 
961	 0,199423967788783 
962	 0,198586634838389 
963	 0,198488637442451 
964	 0,198568082466368 
965	 0,197898598286858 
966	 0,197027068976508 
967	 0,19630216880943 
968	 0,196208260267427 
969	 0,196921938985171 
970	 0,198086176105368 
971	 0,19777155387328 
972	 0,196104976135987 
973	 0,19368935170663 
974	 0,194017053060782 
975	 0,196134785304953 
976	 0,197281858541326 
977	 0,196038127546223 
978	 0,193621351685506 
979	 0,195814636638574 
980	 0,198303716632351 
981	 0,198836869342533 
982	 0,198056363976222 
983	 0,196939945234972 
984	 0,196473284938921 
985	 0,196191072625743 
986	 0,196224425059538 
987	 0,196927852656374 
988	 0,197594454703437 
989	 0,198304651679932 
990	 0,200245883618849 
991	 0,201867133317809 
992	 0,202426230234032 
993	 0,203008537080116 
994	 0,202998836312209 
995	 0,201960659658807 
996	 0,203508585745459 
997	 0,206434775498129 
998	 0,207058498737552 
999	 0,208417292023414 
1000	 0,210444119134152 
1001	 0,210033790419273 
1002	 0,209292790311237 
1003	 0,20933971666813 
1004	 0,209883648823743 
1005	 0,210466158339642 
1006	 0,210623341071863 
1007	 0,210258406605791 
1008	 0,209519082199473 
1009	 0,208599019487872 
1010	 0,211196225859243 
1011	 0,216262603213099 
1012	 0,21709192786197 
1013	 0,218092612330539 
1014	 0,220445036222702 
1015	 0,219613988418565 
1016	 0,220061193960484 
1017	 0,224790570046744 
1018	 0,224483042506557 
1019	 0,221168810534748 
1020	 0,220053913542373 
1021	 0,22277011124371 
1022	 0,226878661679698 
1023	 0,223417291636326 
1024	 0,225773042534127 
1025	 0,23478782985387 
1026	 0,23304659920086 
1027	 0,229035725735669 
1028	 0,228892565255723 
1029	 0,23112846735756 
1030	 0,233276143312009 
1031	 0,232882932382555 
1032	 0,236571995120136 
1033	 0,240996875624584 
1034	 0,237008684243243 
1035	 0,232901521623811 
1036	 0,232173825665515 
1037	 0,237987521510332 
1038	 0,241477942577857 
1039	 0,239291835328807 
1040	 0,237459278639779 
1041	 0,237547910171684 
1042	 0,239733932343372 
1043	 0,236096460322748 
1044	 0,232284793604967 
1045	 0,237224663230961 
1046	 0,243100534611583 
1047	 0,246719755836881 
1048	 0,244392131209505 
1049	 0,247228201804969 
1050	 0,254865453574693 
1051	 0,25262416896941 
1052	 0,250442008472612 
1053	 0,252624480179878 
1054	 0,250678501730985 
1055	 0,25477153413659 
1056	 0,270516903775841 
1057	 0,268309777294577 
1058	 0,256201904976964 
1059	 0,252293320071702 
1060	 0,251209752402745 
1061	 0,253278739842988 
1062	 0,261153231724775 
1063	 0,264611768754258 
1064	 0,259897626331706 
1065	 0,245742934989736 
1066	 0,23406899445825 
1067	 0,232311228706416 
1068	 0,24132333460886 
1069	 0,251524309539059 
1070	 0,256369561753314 
1071	 0,266946290070678 
1072	 0,268634352231187 
1073	 0,245766320421859 
1074	 0,232807141212024 
1075	 0,236271468006607 
