Wavelength	GRA-BER00059.asd
325	 0,105339562717516 
326	 0,172661849118186 
327	 0,216890351002364 
328	 0,214378213458387 
329	 0,136478148645782 
330	 0,075337735912306 
331	 0,121183061188182 
332	 0,19626642948908 
333	 0,229028027747379 
334	 0,111269077663188 
335	 2,75154501436322E-02 
336	 6,34763217463412E-02 
337	 0,121303189214662 
338	 0,155163101503523 
339	 0,14191528072021 
340	 0,100151209599411 
341	 0,052112550145828 
342	-2,69440650103733E-03 
343	-1,09331688740355E-02 
344	 0,033816593215804 
345	 5,16252627211142E-02 
346	 7,02452673532154E-02 
347	 0,111800218687719 
348	 8,99759750549507E-02 
349	 3,22583340140652E-02 
350	 5,27162386727752E-02 
351	 7,42150886784963E-02 
352	 6,48220592660638E-02 
353	 3,68621754131106E-02 
354	 2,38541087546998E-02 
355	 6,59268391752769E-02 
356	 0,079982758843753 
357	 6,18402435879793E-02 
358	 3,84931738565096E-02 
359	 3,86806633722348E-02 
360	 6,75278950627047E-02 
361	 6,49501792810605E-02 
362	 4,88682784529178E-02 
363	 5,26809016559565E-02 
364	 6,32944900679455E-02 
365	 7,30955140150169E-02 
366	 6,94802434872628E-02 
367	 6,39379218989871E-02 
368	 6,38442511882609E-02 
369	 6,61030675331345E-02 
370	 6,19760904471875E-02 
371	 0,034365633868677 
372	 2,84573639687294E-02 
373	 5,04500763370332E-02 
374	 6,09362182818236E-02 
375	 6,55950934693901E-02 
376	 6,88212601722471E-02 
377	 0,063009659393259 
378	 5,74539376236627E-02 
379	 7,47003882962672E-02 
380	 7,55132728560869E-02 
381	 5,19288498588646E-02 
382	 3,38083486027717E-02 
383	 3,35946639058428E-02 
384	 5,74984561515436E-02 
385	 6,52869019029622E-02 
386	 5,83225212710034E-02 
387	 6,28454770701144E-02 
388	 6,32666651481309E-02 
389	 5,50285706183447E-02 
390	 0,043298913587948 
391	 3,87636690631604E-02 
392	 5,22923054240848E-02 
393	 6,96829131421923E-02 
394	 7,93918645948854E-02 
395	 5,73878626189857E-02 
396	 0,043572680736188 
397	 5,71509829219905E-02 
398	 6,20869402181186E-02 
399	 5,64866164296833E-02 
400	 4,27376076622024E-02 
401	 5,01657374869692E-02 
402	 7,35022857024262E-02 
403	 6,76398272775832E-02 
404	 5,60628259724028E-02 
405	 5,51199208609971E-02 
406	 5,34016631550438E-02 
407	 5,15002082834875E-02 
408	 5,28366791617702E-02 
409	 5,86552438962178E-02 
410	 6,55424395376513E-02 
411	 5,78339272216823E-02 
412	 4,80055655581035E-02 
413	 4,85197550368153E-02 
414	 6,10557678540144E-02 
415	 7,48662881582443E-02 
416	 6,34041235022081E-02 
417	 5,36518795269454E-02 
418	 5,57457403350835E-02 
419	 5,57861469473826E-02 
420	 5,51717107300427E-02 
421	 5,72177358719539E-02 
422	 0,0559580862693 
423	 5,29569241939917E-02 
424	 5,74838700089955E-02 
425	 6,37718098960158E-02 
426	 0,067293473189082 
427	 0,061358406492468 
428	 0,05314507098007 
429	 5,67566027531758E-02 
430	 6,13994038022097E-02 
431	 6,34984215959101E-02 
432	 6,20666647648571E-02 
433	 6,20151282735187E-02 
434	 6,69660692370471E-02 
435	 6,31135700567484E-02 
436	 5,49707380818804E-02 
437	 6,05915923399132E-02 
438	 6,55277221302041E-02 
439	 6,51165083104412E-02 
440	 6,85807557402865E-02 
441	 7,15293456512232E-02 
442	 6,77092186756017E-02 
443	 6,54621977241707E-02 
444	 6,58819970602134E-02 
445	 6,45844748427698E-02 
446	 6,57756201156323E-02 
447	 7,08285713731953E-02 
448	 6,76586798280446E-02 
449	 6,19817369503989E-02 
450	 6,72684567797305E-02 
451	 7,29758767183725E-02 
452	 7,48686525215823E-02 
453	 6,95501146621756E-02 
454	 6,40758213892244E-02 
455	 6,50731576829065E-02 
456	 6,75405732034744E-02 
457	 6,98032421327146E-02 
458	 7,05505419426835E-02 
459	 6,95771110093688E-02 
460	 6,76425619334062E-02 
461	 6,99469118370289E-02 
462	 7,36580108193538E-02 
463	 7,44569321634318E-02 
464	 7,22950374124711E-02 
465	 6,89179472904934E-02 
466	 7,04381513450278E-02 
467	 7,22433961576628E-02 
468	 7,13923965529672E-02 
469	 7,10760795890284E-02 
470	 7,17102044449488E-02 
471	 7,32298810026646E-02 
472	 7,49277351052705E-02 
473	 7,59885707601948E-02 
474	 7,41316521665479E-02 
475	 7,20372431960805E-02 
476	 7,24513107314979E-02 
477	 7,40948033953538E-02 
478	 7,54255898128213E-02 
479	 7,25023060566871E-02 
480	 7,19909733160731E-02 
481	 7,59582289451589E-02 
482	 7,50988659631701E-02 
483	 7,28454313011176E-02 
484	 7,57378782250921E-02 
485	 7,67860926210221E-02 
486	 7,51705757607552E-02 
487	 7,49658210542306E-02 
488	 7,56165160524026E-02 
489	 7,65771208899339E-02 
490	 7,72720416308405E-02 
491	 7,76225944218506E-02 
492	 7,76364943943641E-02 
493	 7,82968989077247E-02 
494	 7,95075723361099E-02 
495	 7,87720514475871E-02 
496	 7,76243139723233E-02 
497	 7,79692020670173E-02 
498	 7,65968996599855E-02 
499	 7,46726406217555E-02 
500	 7,81700564997478E-02 
501	 8,04628733656666E-02 
502	 7,85186348817168E-02 
503	 8,05640237149035E-02 
504	 8,40324418613313E-02 
505	 8,26946912401935E-02 
506	 8,12475434233352E-02 
507	 8,13893098142613E-02 
508	 8,41303088279786E-02 
509	 0,086150179601632 
510	 8,45919357809865E-02 
511	 8,28610943745063E-02 
512	 8,20130205453764E-02 
513	 8,29622511630692E-02 
514	 0,083695900418772 
515	 8,34241685736353E-02 
516	 8,32630041053571E-02 
517	 8,39855626761037E-02 
518	 8,65690123811347E-02 
519	 8,66721342425732E-02 
520	 8,46253181542947E-02 
521	 8,60549196774479E-02 
522	 8,76941440762734E-02 
523	 8,72058550457501E-02 
524	 8,67727260214381E-02 
525	 8,68035336420077E-02 
526	 8,74279704812331E-02 
527	 8,80878727189385E-02 
528	 8,85764975045808E-02 
529	 8,90873073687048E-02 
530	 8,95869840012366E-02 
531	 9,00279974110695E-02 
532	 8,98603903000175E-02 
533	 8,93382931131368E-02 
534	 8,95936977993525E-02 
535	 8,99689262058095E-02 
536	 9,01361208762143E-02 
537	 9,06622690232621E-02 
538	 9,17049634898503E-02 
539	 9,36070487475816E-02 
540	 9,40027765380712E-02 
541	 9,28014144961791E-02 
542	 9,32786737340547E-02 
543	 0,094503685983515 
544	 9,53905201678132E-02 
545	 0,096106679847816 
546	 9,66490497554121E-02 
547	 0,097148101119254 
548	 9,69616360828055E-02 
549	 0,096035133534746 
550	 9,62842866076192E-02 
551	 9,70102340148141E-02 
552	 9,67773270030705E-02 
553	 9,65683354931613E-02 
554	 9,65393893051983E-02 
555	 9,59286419277981E-02 
556	 9,64827450296212E-02 
557	 9,93513182184941E-02 
558	 0,100034142859513 
559	 9,89542256197081E-02 
560	 9,93148409465822E-02 
561	 9,96316325644101E-02 
562	 9,94900597854777E-02 
563	 9,96273612142454E-02 
564	 9,99246659347083E-02 
565	 0,100135588643864 
566	 0,100976119450641 
567	 0,102203974077923 
568	 0,102415573946344 
569	 0,102300087896801 
570	 0,10235359357718 
571	 0,102372490016777 
572	 0,102389266952329 
573	 0,102450933435822 
574	 0,102911672421662 
575	 0,103689694091405 
576	 0,103655037097231 
577	 0,103483101750228 
578	 0,104010072645825 
579	 0,104693440791581 
580	 0,105192326712248 
581	 0,104872896192722 
582	 0,10446866635959 
583	 0,104510175367078 
584	 0,105563099154985 
585	 0,106622192255167 
586	 0,105761392216986 
587	 0,105518267627031 
588	 0,106363862839077 
589	 0,106745884330859 
590	 0,106490135630395 
591	 0,105589479954794 
592	 0,105739248611072 
593	 0,106771110691368 
594	 0,107246813842041 
595	 0,107687862694885 
596	 0,108160444127494 
597	 0,107650403270659 
598	 0,107151776344232 
599	 0,108307655977215 
600	 0,108652089071133 
601	 0,107892125656942 
602	 0,10766850674888 
603	 0,107972641267294 
604	 0,108688055375056 
605	 0,108803177379271 
606	 0,108457236489186 
607	 0,108428321404733 
608	 0,108614038069608 
609	 0,108841632091053 
610	 0,108143443326283 
611	 0,10749143862287 
612	 0,108154688007887 
613	 0,108896722901223 
614	 0,109308949841538 
615	 0,109160432758971 
616	 0,109030420224843 
617	 0,10926755883538 
618	 0,10937523193067 
619	 0,109290228647782 
620	 0,108976706248005 
621	 0,10904357297786 
622	 0,109587758648456 
623	 0,109938619357982 
624	 0,110198691118559 
625	 0,110516943524563 
626	 0,110930012226654 
627	 0,111289556357606 
628	 0,111164175736597 
629	 0,110894200520419 
630	 0,110742138053779 
631	 0,111167666457627 
632	 0,111730422638117 
633	 0,111651309909068 
634	 0,111386319572965 
635	 0,111161565037986 
636	 0,111311775145168 
637	 0,111502963459873 
638	 0,11147911523867 
639	 0,111924477270557 
640	 0,112580990905248 
641	 0,11254951227353 
642	 0,112210775115423 
643	 0,111873264494243 
644	 0,112430574523635 
645	 0,113140381107503 
646	 0,112939584198035 
647	 0,112919206933499 
648	 0,113142661323951 
649	 0,112828011633208 
650	 0,112582242792857 
651	 0,112745367967026 
652	 0,112431091316934 
653	 0,11188295338636 
654	 0,111790665068471 
655	 0,112284856069887 
656	 0,113042713698094 
657	 0,11224692492484 
658	 0,111310836707415 
659	 0,111749099347071 
660	 0,111706212476276 
661	 0,111037011829525 
662	 0,110438332380871 
663	 0,110069192112301 
664	 0,110040673332279 
665	 0,110266432393917 
666	 0,110573575619018 
667	 0,110764530735581 
668	 0,110290447499115 
669	 0,109385243972951 
670	 0,109578789251466 
671	 0,109993052446859 
672	 0,109922830778632 
673	 0,110062704634807 
674	 0,110433234966542 
675	 0,110848552946378 
676	 0,111121891432807 
677	 0,111261565562483 
678	 0,111812100472526 
679	 0,112454496010121 
680	 0,112764877759972 
681	 0,113204514521673 
682	 0,113782349943762 
683	 0,114173913274844 
684	 0,114586517597087 
685	 0,1151204986422 
686	 0,115537802846431 
687	 0,115928448507038 
688	 0,116498540872626 
689	 0,117167020337877 
690	 0,117828738522744 
691	 0,118147108199846 
692	 0,118487360072385 
693	 0,119173723852687 
694	 0,11986157533316 
695	 0,120452774519289 
696	 0,120883574228758 
697	 0,121256802938106 
698	 0,12164312663299 
699	 0,122160208014521 
700	 0,122656209246098 
701	 0,122925816625495 
702	 0,123209444565584 
703	 0,12357996648812 
704	 0,124088424884411 
705	 0,124450425247847 
706	 0,124552270144756 
707	 0,125141504245837 
708	 0,125850227929918 
709	 0,125786655425289 
710	 0,125847325736924 
711	 0,126205307463179 
712	 0,126271919286125 
713	 0,126319479738973 
714	 0,126627427685259 
715	 0,127240092812383 
716	 0,127949953653588 
717	 0,128275056491084 
718	 0,128264451263831 
719	 0,128065885842525 
720	 0,128447620608649 
721	 0,12901641375296 
722	 0,129179065475927 
723	 0,129360761701253 
724	 0,129641157811022 
725	 0,129936285663959 
726	 0,130270821497496 
727	 0,13064337805377 
728	 0,130966759656439 
729	 0,131165389409691 
730	 0,13109998959234 
731	 0,131348150656077 
732	 0,131964006214014 
733	 0,132302342484502 
734	 0,132660239306819 
735	 0,133253522650744 
736	 0,133089186884885 
737	 0,132575043934337 
738	 0,133199349643671 
739	 0,13358325723961 
740	 0,13341203635395 
741	 0,134075072424655 
742	 0,13462652429649 
743	 0,133900802076646 
744	 0,134085348510118 
745	 0,135110166495452 
746	 0,135130538308675 
747	 0,135173623841702 
748	 0,135711529681988 
749	 0,136089473289971 
750	 0,136220422681944 
751	 0,136065292593904 
752	 0,13655305280787 
753	 0,137500135727313 
754	 0,137148057054355 
755	 0,136749781724835 
756	 0,137192347532728 
757	 0,137518699470754 
758	 0,137758915468946 
759	 0,13831664544662 
760	 0,13853222013552 
761	 0,138324429505042 
762	 0,138328832439088 
763	 0,138741885255401 
764	 0,139643150000399 
765	 0,139825771064044 
766	 0,139544407832116 
767	 0,14017300499098 
768	 0,140465759420482 
769	 0,140114682150154 
770	 0,140282275058452 
771	 0,14078040552494 
772	 0,14126338289381 
773	 0,141518858653536 
774	 0,141522124859464 
775	 0,141360233711456 
776	 0,141441089037087 
777	 0,141900038353342 
778	 0,141963137638762 
779	 0,141933470740287 
780	 0,142383712693563 
781	 0,142657114611553 
782	 0,142700967350136 
783	 0,142993512842401 
784	 0,14323298094827 
785	 0,143279194158531 
786	 0,143733997985748 
787	 0,144309295173575 
788	 0,144350076787889 
789	 0,144400064999978 
790	 0,144600941965594 
791	 0,144834704632966 
792	 0,144995030043013 
793	 0,145011099545125 
794	 0,145050856480705 
795	 0,145175647058078 
796	 0,145439922983196 
797	 0,14576157287418 
798	 0,146103538423879 
799	 0,146551898897199 
800	 0,146641593803563 
801	 0,146022426128093 
802	 0,146035951913571 
803	 0,146600397062615 
804	 0,146845981296836 
805	 0,146944852129235 
806	 0,146953230217706 
807	 0,147053219114454 
808	 0,147027098462967 
809	 0,146669133273692 
810	 0,146907964267716 
811	 0,147571489126948 
812	 0,147603713790549 
813	 0,147773295906611 
814	 0,148277130912763 
815	 0,148264839023338 
816	 0,148287484681524 
817	 0,149048979886418 
818	 0,149456964247319 
819	 0,149400641563938 
820	 0,149338835585269 
821	 0,149303465702429 
822	 0,149310726293179 
823	 0,149151092201826 
824	 0,149158390536001 
825	 0,149762618400149 
826	 0,149902131664579 
827	 0,149575721937147 
828	 0,149578745550854 
829	 0,150003482751564 
830	 0,150745531635072 
831	 0,150714407382911 
832	 0,15028927616759 
833	 0,150156017863185 
834	 0,150108949656308 
835	 0,15021977962326 
836	 0,150829025472145 
837	 0,151365973759903 
838	 0,151515089761408 
839	 0,151582496435869 
840	 0,151535192294635 
841	 0,151284111150751 
842	 0,151173889112527 
843	 0,151244792161737 
844	 0,15123128998671 
845	 0,151526905933837 
846	 0,152198789153844 
847	 0,152216148488954 
848	 0,151789585434584 
849	 0,151391514191715 
850	 0,151256797348977 
851	 0,151464717434388 
852	 0,152050847473261 
853	 0,152221226360743 
854	 0,151728757853158 
855	 0,152211613221646 
856	 0,152900386399757 
857	 0,152523836654711 
858	 0,152144031367791 
859	 0,152107183777018 
860	 0,152602572435641 
861	 0,153248524521167 
862	 0,153701800823186 
863	 0,153282263781091 
864	 0,152757101143462 
865	 0,153189760019255 
866	 0,153176772639413 
867	 0,152792596772683 
868	 0,153356772579519 
869	 0,153592024727603 
870	 0,153084386910457 
871	 0,153326494326588 
872	 0,153692716396178 
873	 0,153294223835344 
874	 0,152885866246242 
875	 0,152720266310026 
876	 0,152998704776275 
877	 0,153353222821703 
878	 0,153617275647287 
879	 0,153990981646253 
880	 0,154035507163085 
881	 0,153335008160374 
882	 0,153036346617307 
883	 0,153192775969787 
884	 0,153290302322146 
885	 0,153266421315224 
886	 0,153140047896952 
887	 0,153260934490201 
888	 0,153488580512876 
889	 0,153671774921981 
890	 0,153879919051994 
891	 0,15413947361801 
892	 0,154535814471628 
893	 0,154531872730493 
894	 0,154198839841801 
895	 0,154721591855254 
896	 0,155132810698561 
897	 0,154723371232394 
898	 0,154619014583518 
899	 0,154648692221871 
900	 0,154187557859178 
901	 0,15386632443898 
902	 0,153967512610262 
903	 0,154787391264217 
904	 0,155625171506026 
905	 0,155914913304402 
906	 0,155048134762254 
907	 0,154356271937309 
908	 0,155774287077779 
909	 0,156006080566531 
910	 0,155161280679582 
911	 0,156455011395719 
912	 0,156788676675093 
913	 0,15510073770579 
914	 0,154296460720053 
915	 0,154434629756525 
916	 0,155219376382577 
917	 0,155716680069789 
918	 0,155734541519783 
919	 0,155324936293729 
920	 0,155386378302236 
921	 0,156164014322818 
922	 0,157063104504707 
923	 0,157595595095582 
924	 0,157407667899838 
925	 0,156921618364991 
926	 0,156446162667541 
927	 0,156345129161952 
928	 0,156707607971745 
929	 0,157197229074607 
930	 0,156471942564277 
931	 0,155969582946419 
932	 0,1564966748697 
933	 0,15737316588522 
934	 0,157703301961834 
935	 0,156550453136564 
936	 0,15686850419411 
937	 0,158277710516183 
938	 0,157668577709995 
939	 0,1573777488168 
940	 0,158117908478063 
941	 0,158825475820647 
942	 0,159181671340021 
943	 0,159026987112115 
944	 0,159344238990066 
945	 0,159658590119306 
946	 0,158767340105895 
947	 0,15822936052624 
948	 0,158390218587202 
949	 0,158683861112874 
950	 0,159015938402998 
951	 0,159199566300331 
952	 0,158401871311933 
953	 0,157991873103204 
954	 0,159605964729738 
955	 0,161412469689245 
956	 0,162175062539884 
957	 0,159663281465126 
958	 0,15869514951496 
959	 0,160137637852715 
960	 0,159207147882567 
961	 0,158364986476063 
962	 0,159339241342923 
963	 0,158954323600811 
964	 0,158560330112851 
965	 0,160787789974417 
966	 0,161388427232693 
967	 0,160387777001874 
968	 0,161676228662402 
969	 0,160717330523932 
970	 0,157068537067782 
971	 0,159118950658817 
972	 0,161833694137553 
973	 0,160430421643529 
974	 0,15980617316125 
975	 0,160296802983128 
976	 0,161095675015309 
977	 0,161137083906115 
978	 0,160387691690182 
979	 0,159786324412939 
980	 0,160505534452186 
981	 0,162466814656144 
982	 0,161405471853874 
983	 0,160226078832336 
984	 0,162029596778809 
985	 0,163660191621696 
986	 0,163798195938945 
987	 0,160981299477562 
988	 0,16007975025305 
989	 0,161560132733994 
990	 0,161262430289422 
991	 0,161230285612617 
992	 0,162082941470752 
993	 0,160987270367582 
994	 0,159683759025122 
995	 0,160150262037232 
996	 0,161062399914236 
997	 0,16143353462141 
998	 0,159717412024717 
999	 0,160855349091586 
1000	 0,164661831481525 
1001	 0,165727513272476 
1002	 0,164064566413853 
1003	 0,160359635350189 
1004	 0,158263875734041 
1005	 0,159328973877687 
1006	 0,164058128346414 
1007	 0,165628573196815 
1008	 0,165204548087044 
1009	 0,167132588284977 
1010	 0,167375409206836 
1011	 0,166025584532838 
1012	 0,167173954591243 
1013	 0,166008738094253 
1014	 0,161684862210564 
1015	 0,160996567861729 
1016	 0,162077748677127 
1017	 0,163087683503412 
1018	 0,16557463742533 
1019	 0,167602249976166 
1020	 0,166325244066031 
1021	 0,162510364277456 
1022	 0,159075357813528 
1023	 0,162951840430374 
1024	 0,167227715101272 
1025	 0,1684666102221 
1026	 0,16376096823261 
1027	 0,15993307990959 
1028	 0,161470913753769 
1029	 0,165077054306872 
1030	 0,166868933890041 
1031	 0,163268311615027 
1032	 0,16052359904458 
1033	 0,160451129325541 
1034	 0,163704982730236 
1035	 0,167349078714032 
1036	 0,170840481036735 
1037	 0,177563442215725 
1038	 0,175322199222998 
1039	 0,163001132805199 
1040	 0,166011512364681 
1041	 0,172027308520772 
1042	 0,169674389393918 
1043	 0,162879384259778 
1044	 0,156771001993308 
1045	 0,157624890581412 
1046	 0,164151059728031 
1047	 0,171415686997538 
1048	 0,169195297930563 
1049	 0,169393473472156 
1050	 0,17340909186432 
1051	 0,171979339978011 
1052	 0,169395976458443 
1053	 0,168159119182259 
1054	 0,168665761556081 
1055	 0,169202112805865 
1056	 0,168569990853567 
1057	 0,170936782495994 
1058	 0,172116061091451 
1059	 0,166503264927113 
1060	 0,174052212192481 
1061	 0,185664275643387 
1062	 0,17201853558194 
1063	 0,168423748890949 
1064	 0,176958873813392 
1065	 0,16226945694668 
1066	 0,155634741411303 
1067	 0,16889705020367 
1068	 0,180396954227884 
1069	 0,186888168864136 
1070	 0,186458168021942 
1071	 0,177566970665027 
1072	 0,168756474558192 
1073	 0,16932846578222 
1074	 0,17341758929306 
1075	 0,171159865392626 
