Wavelength	GRA-VAN00593.asd
325	 0,342798906889315 
326	 0,128834781592318 
327	 6,20941526804437E-02 
328	 0,275188417294724 
329	 8,65930424757884E-02 
330	-0,158628005657709 
331	 8,16864080021115E-02 
332	 0,193471339358529 
333	 0,215579985254146 
334	 0,096206574615498 
335	 7,79622281562682E-02 
336	 0,199978212364886 
337	 0,191361551304309 
338	 0,112916199303383 
339	 6,30458353868901E-03 
340	 6,23783209769719E-02 
341	 0,17191607192196 
342	 0,103804855892697 
343	 5,99630111053922E-02 
344	 9,74512941605813E-02 
345	 0,105762057468542 
346	 0,107185071758058 
347	 0,120885716157473 
348	 9,83679327791869E-02 
349	 4,90036651113919E-02 
350	 2,43559383583013E-02 
351	 0,038950725156501 
352	 0,075361136999068 
353	 5,16136360206483E-02 
354	 9,96142849520916E-03 
355	 5,88514417996838E-03 
356	 4,83752503974534E-02 
357	 0,1019073301752 
358	 7,97832145507837E-02 
359	 0,047028780417779 
360	 0,042288978648615 
361	 5,95677845829696E-02 
362	 7,68137482847451E-02 
363	 6,49308571778318E-02 
364	 5,43491502880806E-02 
365	 5,24338133433907E-02 
366	 5,60875840454198E-02 
367	 5,83928104114927E-02 
368	 5,52464489767264E-02 
369	 5,06960789498103E-02 
370	 4,42110382299208E-02 
371	 3,27528190303002E-02 
372	 3,07548961600359E-02 
373	 3,53512524783736E-02 
374	 9,71332924431502E-03 
375	 7,15828174554769E-03 
376	 6,19929549101463E-02 
377	 6,37995895106801E-02 
378	 2,96370202906844E-02 
379	 3,48401940435685E-02 
380	 3,53698790538983E-02 
381	 2,69240724370302E-02 
382	 0,052956804312526 
383	 6,78474481702482E-02 
384	 0,032932973040719 
385	 2,94242266448187E-02 
386	 4,86158969105637E-02 
387	 2,70519814363605E-02 
388	 1,63618588436212E-02 
389	 3,36001880519829E-02 
390	 4,25575166754174E-02 
391	 4,35306230030298E-02 
392	 4,04238654240626E-02 
393	 4,20391245436411E-02 
394	 4,34327685945001E-02 
395	 2,09621376575886E-02 
396	 0,009741794440013 
397	 2,46684077580639E-02 
398	 3,78917016930929E-02 
399	 0,039244398127708 
400	 1,84115284571882E-02 
401	 0,013566467806454 
402	 0,026089589424327 
403	 0,022163142910124 
404	 0,01105587393788 
405	 1,37240672924032E-03 
406	 6,2117926010922E-03 
407	 1,90020815656455E-02 
408	 2,56246797557661E-02 
409	 2,73134823586477E-02 
410	 2,49223297982903E-02 
411	 2,30559115071293E-02 
412	 2,27877545649101E-02 
413	 2,45571642224997E-02 
414	 2,34615410536531E-02 
415	 1,89107996589798E-02 
416	 1,08243120195852E-02 
417	 6,00532747659717E-03 
418	 7,78928948756242E-03 
419	 1,57623020671369E-02 
420	 2,35107448799527E-02 
421	 2,40084399348591E-02 
422	 0,023133794857564 
423	 2,14482764037542E-02 
424	 1,50398487722436E-02 
425	 1,24996390016267E-02 
426	 1,81076647570251E-02 
427	 2,16201896096363E-02 
428	 0,022050163675327 
429	 0,020666515468756 
430	 1,72693027984198E-02 
431	 1,29720155318366E-02 
432	 1,11343327958503E-02 
433	 1,36644723795866E-02 
434	 2,10773257463496E-02 
435	 1,86978550353498E-02 
436	 0,010199817339949 
437	 1,17295114335595E-02 
438	 1,59551432951952E-02 
439	 1,91753806569912E-02 
440	 1,70766658040189E-02 
441	 1,39208570549013E-02 
442	 1,55585383183403E-02 
443	 1,64837094320742E-02 
444	 1,62861811175726E-02 
445	 1,82222400810498E-02 
446	 1,95038962857534E-02 
447	 1,85922722962245E-02 
448	 1,82481540548144E-02 
449	 1,83021685473365E-02 
450	 0,017413069532568 
451	 1,94766739129806E-02 
452	 2,38812260932248E-02 
453	 2,28316388723902E-02 
454	 1,97670443318338E-02 
455	 1,82185813057442E-02 
456	 1,76767096339445E-02 
457	 1,72936021093308E-02 
458	 0,014140715405233 
459	 1,46998473003899E-02 
460	 2,01991945556793E-02 
461	 1,97361993849067E-02 
462	 1,62838842805191E-02 
463	 1,51197543096518E-02 
464	 1,38203600576746E-02 
465	 1,28354652527967E-02 
466	 1,52547805794048E-02 
467	 1,75343232454913E-02 
468	 1,75492045861049E-02 
469	 1,92635987850654E-02 
470	 2,06364390369827E-02 
471	 0,016204507012565 
472	 1,48221997108649E-02 
473	 1,79607996391165E-02 
474	 1,73926551411303E-02 
475	 1,63863282637667E-02 
476	 1,84366496684337E-02 
477	 1,92741247719923E-02 
478	 1,85650715655535E-02 
479	 1,77890948098447E-02 
480	 1,70792610478161E-02 
481	 1,64314142654875E-02 
482	 1,46395686036428E-02 
483	 1,31747502498143E-02 
484	 1,42890922865697E-02 
485	 1,54995414788767E-02 
486	 1,61188022859348E-02 
487	 1,65337748519091E-02 
488	 1,67701114824603E-02 
489	 1,68249402203594E-02 
490	 1,63378677784714E-02 
491	 1,57825953404481E-02 
492	 1,61810500107538E-02 
493	 1,73516874877253E-02 
494	 1,88181914922065E-02 
495	 1,87839477237921E-02 
496	 1,73757808822292E-02 
497	 1,49667708479898E-02 
498	 1,49826619962404E-02 
499	 0,017072597446279 
500	 1,77014843118004E-02 
501	 1,74378671423791E-02 
502	 1,67272675599007E-02 
503	 1,67248006446887E-02 
504	 1,71442564723459E-02 
505	 1,70920050003779E-02 
506	 1,80783992950476E-02 
507	 1,98709190425521E-02 
508	 1,98504855225016E-02 
509	 1,85725873223099E-02 
510	 1,67528038907085E-02 
511	 1,57222456424384E-02 
512	 1,55864098030379E-02 
513	 1,55770369086983E-02 
514	 0,016666134001648 
515	 1,87512629548817E-02 
516	 1,87489245997781E-02 
517	 1,78035828341591E-02 
518	 1,79143709469373E-02 
519	 1,81653566073651E-02 
520	 1,83536886982134E-02 
521	 1,86999141933226E-02 
522	 1,81067432651681E-02 
523	 1,60991047130091E-02 
524	 1,63839616524116E-02 
525	 0,018328176500966 
526	 1,94128388348204E-02 
527	 0,019388118183469 
528	 1,82896638213949E-02 
529	 1,73764861600282E-02 
530	 1,70583228841144E-02 
531	 1,76321926738606E-02 
532	 1,79995861821251E-02 
533	 1,77648534357501E-02 
534	 1,65064700614419E-02 
535	 1,58431199382621E-02 
536	 1,66199838109334E-02 
537	 1,71333161253965E-02 
538	 1,72929625902188E-02 
539	 1,73447674207345E-02 
540	 1,79639868236604E-02 
541	 1,88795017528418E-02 
542	 1,78209659690942E-02 
543	 1,65225887123513E-02 
544	 1,67300872707413E-02 
545	 1,67508686523777E-02 
546	 1,65146472829468E-02 
547	 1,67116441327981E-02 
548	 1,73615007499941E-02 
549	 1,83049621916589E-02 
550	 1,84615899754902E-02 
551	 1,79864394080959E-02 
552	 1,73192586350967E-02 
553	 1,66523405335532E-02 
554	 1,61247211961502E-02 
555	 1,56532973538881E-02 
556	 1,59145887402419E-02 
557	 1,73254291957638E-02 
558	 1,78994074077835E-02 
559	 1,76121517135958E-02 
560	 1,73965489773247E-02 
561	 1,71051751324898E-02 
562	 1,68154133984384E-02 
563	 1,70635583981609E-02 
564	 1,72418416273477E-02 
565	 1,65056748946633E-02 
566	 1,61228245662476E-02 
567	 1,62312311331234E-02 
568	 1,59665910875811E-02 
569	 1,61355347760458E-02 
570	 1,71199983419452E-02 
571	 1,67761949693039E-02 
572	 1,58510582979683E-02 
573	 1,66849492338389E-02 
574	 1,76573930370399E-02 
575	 1,81907765099848E-02 
576	 1,84148573310575E-02 
577	 1,85484761329124E-02 
578	 1,88285732862258E-02 
579	 1,88062773625199E-02 
580	 1,86488159622782E-02 
581	 1,92395939899597E-02 
582	 1,95458264270549E-02 
583	 1,90580153047267E-02 
584	 0,018628165594253 
585	 1,88274511341116E-02 
586	 0,020575684462 
587	 2,07868249339773E-02 
588	 1,92017317252804E-02 
589	 1,92972935688201E-02 
590	 2,00987127025624E-02 
591	 2,05339295462025E-02 
592	 2,05956251026211E-02 
593	 2,04020364669255E-02 
594	 2,03360137441575E-02 
595	 2,03676694628475E-02 
596	 2,05272016955338E-02 
597	 2,10527519167902E-02 
598	 2,14220076910195E-02 
599	 2,08454887419641E-02 
600	 2,01826726824364E-02 
601	 1,97906742685187E-02 
602	 1,99165391429877E-02 
603	 2,02430199883009E-02 
604	 2,04335589345609E-02 
605	 1,97045094239915E-02 
606	 1,86207146963153E-02 
607	 1,88693805544608E-02 
608	 1,92485180032041E-02 
609	 1,92990309308993E-02 
610	 1,91361438128892E-02 
611	 1,89387690023466E-02 
612	 1,89211633107589E-02 
613	 1,86268922837929E-02 
614	 1,80849467743453E-02 
615	 1,76347012744138E-02 
616	 1,77501366170761E-02 
617	 1,86291397012162E-02 
618	 1,92422595097123E-02 
619	 1,92181068199068E-02 
620	 1,81059169962927E-02 
621	 1,74595046412649E-02 
622	 1,76742190608346E-02 
623	 1,76699271085933E-02 
624	 1,75914873905169E-02 
625	 1,76481632020871E-02 
626	 1,77163650910019E-02 
627	 1,78594447499281E-02 
628	 1,83674649673154E-02 
629	 1,87493893442032E-02 
630	 0,018748327846081 
631	 1,85641152800559E-02 
632	 1,83950526259327E-02 
633	 1,85027467996223E-02 
634	 1,86548468399189E-02 
635	 1,88845243070459E-02 
636	 1,96457502210092E-02 
637	 2,03103545214615E-02 
638	 2,03455019373875E-02 
639	 2,00555177511606E-02 
640	 1,98507611876806E-02 
641	 2,06230591007673E-02 
642	 2,12840417291206E-02 
643	 2,13703343599134E-02 
644	 0,021009669609183 
645	 0,020958774910176 
646	 0,022166352523515 
647	 2,23883951346954E-02 
648	 2,15013596981355E-02 
649	 2,11412415002589E-02 
650	 2,12529233968714E-02 
651	 2,17096541447461E-02 
652	 2,15725945054963E-02 
653	 2,11855743178749E-02 
654	 2,16574435291105E-02 
655	 2,13998339428895E-02 
656	 2,02033024808938E-02 
657	 1,97494100052755E-02 
658	 1,97021438672482E-02 
659	 1,95931047672879E-02 
660	 1,92559649143812E-02 
661	 1,87336628391794E-02 
662	 1,82288611307561E-02 
663	 1,81692764392607E-02 
664	 0,018594599055433 
665	 1,80893973083645E-02 
666	 1,72170836392169E-02 
667	 1,71110776275411E-02 
668	 1,69965725023875E-02 
669	 1,67649674936453E-02 
670	 1,67883152417264E-02 
671	 1,70188878666949E-02 
672	 1,73725843332839E-02 
673	 1,74357216725559E-02 
674	 1,73004509676295E-02 
675	 1,73803886811535E-02 
676	 1,74247983768985E-02 
677	 1,74130520377415E-02 
678	 1,76898557773203E-02 
679	 1,80808521365622E-02 
680	 1,83461625546428E-02 
681	 1,82317626083895E-02 
682	 1,79137809835311E-02 
683	 1,80882137517318E-02 
684	 0,018588807059763 
685	 1,92392386764095E-02 
686	 1,94390635816503E-02 
687	 1,94840642753776E-02 
688	 2,00820599618345E-02 
689	 2,03031240792016E-02 
690	 2,01783684417864E-02 
691	 2,09450136512818E-02 
692	 2,23834406996321E-02 
693	 2,42141454952016E-02 
694	 2,59351128795455E-02 
695	 2,76898052122136E-02 
696	 0,030120983438036 
697	 3,28569803626445E-02 
698	 3,58349015484009E-02 
699	 0,03947426525567 
700	 4,37653718074571E-02 
701	 4,86315572991758E-02 
702	 5,37524705452454E-02 
703	 5,90057438143602E-02 
704	 6,43382840792023E-02 
705	 7,01556769011882E-02 
706	 7,66193653383737E-02 
707	 8,29462858134008E-02 
708	 8,90893511405659E-02 
709	 9,51757877378598E-02 
710	 0,101205654965314 
711	 0,107161256225573 
712	 0,11284528882177 
713	 0,118654788151079 
714	 0,124886498717371 
715	 0,130314583286111 
716	 0,13512431838294 
717	 0,140457967305787 
718	 0,145515770870143 
719	 0,150000286794342 
720	 0,154113026381164 
721	 0,158103553065146 
722	 0,1622732543548 
723	 0,165639958313824 
724	 0,168441489816283 
725	 0,172346435075629 
726	 0,175730554341332 
727	 0,177714089233085 
728	 0,179856503900741 
729	 0,18223020886208 
730	 0,184580087860665 
731	 0,186561429583502 
732	 0,188168954259058 
733	 0,189961063658152 
734	 0,191640330930963 
735	 0,192938909070195 
736	 0,194008785724843 
737	 0,195038285140823 
738	 0,196444324902772 
739	 0,197619499713231 
740	 0,198364438732741 
741	 0,198981667761795 
742	 0,199747379108752 
743	 0,200924574651368 
744	 0,201439086083481 
745	 0,201481058363796 
746	 0,202415780512771 
747	 0,203412513197616 
748	 0,204016273161206 
749	 0,204382900556307 
750	 0,204638630574078 
751	 0,204952948025075 
752	 0,205210032366227 
753	 0,205472694973059 
754	 0,206025732045009 
755	 0,206761457084405 
756	 0,207530339309245 
757	 0,207761970969357 
758	 0,207706456573234 
759	 0,20805588551351 
760	 0,208414100831793 
761	 0,208647612135275 
762	 0,208694442118016 
763	 0,208826643445431 
764	 0,209272821997131 
765	 0,209407530645739 
766	 0,209427006188092 
767	 0,210209666091429 
768	 0,210747309575254 
769	 0,210742928987224 
770	 0,211019159935762 
771	 0,211423554537191 
772	 0,211693974062127 
773	 0,211802557846772 
774	 0,21178486509845 
775	 0,21176490932745 
776	 0,211799234115238 
777	 0,211949207331003 
778	 0,212365320886467 
779	 0,212795923777888 
780	 0,212869786828129 
781	 0,212656141325626 
782	 0,212362827992085 
783	 0,212639535312865 
784	 0,2129017365321 
785	 0,21281341198189 
786	 0,212997933941714 
787	 0,21344948381779 
788	 0,214031642222677 
789	 0,214216825497903 
790	 0,214043367713804 
791	 0,214508632195613 
792	 0,214767718852683 
793	 0,21420507937165 
794	 0,213927514753186 
795	 0,214053785865476 
796	 0,214441537060052 
797	 0,214670529056928 
798	 0,214613436965819 
799	 0,214506236174081 
800	 0,214605692056283 
801	 0,215088330718628 
802	 0,215119162218138 
803	 0,214835680719737 
804	 0,215014799484198 
805	 0,215119144880928 
806	 0,215112012542938 
807	 0,215833309930908 
808	 0,216591215251869 
809	 0,21661675989129 
810	 0,216658774245849 
811	 0,216823701266267 
812	 0,216883425869262 
813	 0,217332982066243 
814	 0,218180409160373 
815	 0,218196134926589 
816	 0,217850083490728 
817	 0,217834518844885 
818	 0,218074868833516 
819	 0,218485181124065 
820	 0,218828548267243 
821	 0,219075524511318 
822	 0,219269243974192 
823	 0,219847886401016 
824	 0,220469484898775 
825	 0,220654009249866 
826	 0,22107887268699 
827	 0,221614455696467 
828	 0,221313804965298 
829	 0,221121505978271 
830	 0,22145603141897 
831	 0,221567175825612 
832	 0,221360263357091 
833	 0,2208262090104 
834	 0,220912000381066 
835	 0,22161124109417 
836	 0,22206281332481 
837	 0,222415472854332 
838	 0,222652174328489 
839	 0,222258105260183 
840	 0,221707949827757 
841	 0,221722967085441 
842	 0,22216959117064 
843	 0,22280572475619 
844	 0,22303573338375 
845	 0,222818796490542 
846	 0,222294056004415 
847	 0,222585284972201 
848	 0,223186193142277 
849	 0,223207383140997 
850	 0,223131447258498 
851	 0,223112673344779 
852	 0,22326886140938 
853	 0,223479789664372 
854	 0,22362007394137 
855	 0,22333729366263 
856	 0,223033034140448 
857	 0,223294804491957 
858	 0,22352375645752 
859	 0,223572459173125 
860	 0,223407189846768 
861	 0,223612296201308 
862	 0,224348621574959 
863	 0,224520485817621 
864	 0,224304721526438 
865	 0,22409872660555 
866	 0,224286910564016 
867	 0,22471999169068 
868	 0,224491269023194 
869	 0,224875556685735 
870	 0,226121185583892 
871	 0,225844883591345 
872	 0,225038327278693 
873	 0,225148939716866 
874	 0,225777886736095 
875	 0,226458942247292 
876	 0,225973763407489 
877	 0,226110424021839 
878	 0,227366625867332 
879	 0,228026934845355 
880	 0,22781558663762 
881	 0,226703667476377 
882	 0,226847434382266 
883	 0,227870462607662 
884	 0,227397472924188 
885	 0,227746837795937 
886	 0,229181556177851 
887	 0,228673016437586 
888	 0,227892787275924 
889	 0,22848866701558 
890	 0,228732631281944 
891	 0,228786508633272 
892	 0,229755657461057 
893	 0,229914713986532 
894	 0,229115873606733 
895	 0,229360081069078 
896	 0,229835911185092 
897	 0,229910615104768 
898	 0,230440385884666 
899	 0,230965404123413 
900	 0,230470423843403 
901	 0,230145236745897 
902	 0,2302736214486 
903	 0,230458745093684 
904	 0,230800696740932 
905	 0,231227099447465 
906	 0,230773933720484 
907	 0,230270865150823 
908	 0,231023363191442 
909	 0,231716202696323 
910	 0,232018320864949 
911	 0,232046011642854 
912	 0,231777192782847 
913	 0,231366513187369 
914	 0,231704535566531 
915	 0,231940517101362 
916	 0,231145183846058 
917	 0,231479759542816 
918	 0,232503011841506 
919	 0,231988428931768 
920	 0,231552585631264 
921	 0,231547841362362 
922	 0,230957045124107 
923	 0,230144184845691 
924	 0,22950497701249 
925	 0,229573272389719 
926	 0,229529025502161 
927	 0,227703437716441 
928	 0,227259567394527 
929	 0,228380037095275 
930	 0,228269434253252 
931	 0,227435493543468 
932	 0,226367914124305 
933	 0,226423871190916 
934	 0,226420359940607 
935	 0,224717406366375 
936	 0,22381065308814 
937	 0,223856499203207 
938	 0,223719598225086 
939	 0,223029992298935 
940	 0,221844757849614 
941	 0,221537035990985 
942	 0,221260720924183 
943	 0,220230585715322 
944	 0,219131059351174 
945	 0,218108419401526 
946	 0,217246743752207 
947	 0,215607146462559 
948	 0,213479482433022 
949	 0,212914230839327 
950	 0,212498439046921 
951	 0,211322899362558 
952	 0,209221570862561 
953	 0,207255380830065 
954	 0,206650414646913 
955	 0,206043163702362 
956	 0,204931409580147 
957	 0,202611729165236 
958	 0,201949914610631 
959	 0,203040656607841 
960	 0,201457077330112 
961	 0,199029462918055 
962	 0,197508795692935 
963	 0,197986787084135 
964	 0,199256864162743 
965	 0,199247495068764 
966	 0,19792826337812 
967	 0,196092902854509 
968	 0,196106670355673 
969	 0,19698413818294 
970	 0,198061675141847 
971	 0,19852389932829 
972	 0,197438490799456 
973	 0,194556817159766 
974	 0,195746679746867 
975	 0,198607434704835 
976	 0,19703306833462 
977	 0,196889442093236 
978	 0,198747435831533 
979	 0,198974831751352 
980	 0,198858267981292 
981	 0,198859845992424 
982	 0,197685666368826 
983	 0,197599728527815 
984	 0,200558157804013 
985	 0,200932310992212 
986	 0,199244926572617 
987	 0,198460170207702 
988	 0,200219003904603 
989	 0,203495778581151 
990	 0,20258338516058 
991	 0,201183882829393 
992	 0,201321823608928 
993	 0,202482025090686 
994	 0,203375929967153 
995	 0,202824716439529 
996	 0,202474159669937 
997	 0,203130195420152 
998	 0,205715384991708 
999	 0,207163955560216 
1000	 0,20734956995098 
1001	 0,209776697900167 
1002	 0,209629399361763 
1003	 0,206059782777744 
1004	 0,209034806882226 
1005	 0,213166339949354 
1006	 0,212718300380636 
1007	 0,212605181343524 
1008	 0,212738130743409 
1009	 0,211549619945784 
1010	 0,212028283108768 
1011	 0,213726284295438 
1012	 0,212163941369942 
1013	 0,212318756038752 
1014	 0,215725179887506 
1015	 0,217956692584767 
1016	 0,220088076811269 
1017	 0,222749926094517 
1018	 0,2214021435549 
1019	 0,21801247613716 
1020	 0,21655671374286 
1021	 0,217876556856373 
1022	 0,22053097342514 
1023	 0,219215829409506 
1024	 0,221612461527784 
1025	 0,228157596564087 
1026	 0,228960473885623 
1027	 0,22842286525529 
1028	 0,229542666915148 
1029	 0,230920310454129 
1030	 0,231161734157029 
1031	 0,229109160667184 
1032	 0,229557492855367 
1033	 0,232442783574723 
1034	 0,23581383050065 
1035	 0,23389657882577 
1036	 0,228578146216938 
1037	 0,233031667308975 
1038	 0,235852298292269 
1039	 0,232950434685182 
1040	 0,23124300813334 
1041	 0,233338565524671 
1042	 0,239672095795499 
1043	 0,238827471848402 
1044	 0,23300058139446 
1045	 0,228129294712592 
1046	 0,23147499123152 
1047	 0,240267760738093 
1048	 0,243545466766487 
1049	 0,251474302796897 
1050	 0,259886244940593 
1051	 0,242251665485051 
1052	 0,234071400288207 
1053	 0,248725889407618 
1054	 0,245144295498449 
1055	 0,241384869080825 
1056	 0,252177649933286 
1057	 0,247143171267931 
1058	 0,23982057609907 
1059	 0,253721078288742 
1060	 0,251263577470498 
1061	 0,236053968882194 
1062	 0,234415435388904 
1063	 0,241906270724804 
1064	 0,252791378410345 
1065	 0,247797014835072 
1066	 0,245477319944761 
1067	 0,252901944848264 
1068	 0,259754301783321 
1069	 0,256555312841432 
1070	 0,240535928792064 
1071	 0,245886650607512 
1072	 0,257263736968481 
1073	 0,251641507673904 
1074	 0,248399997208283 
1075	 0,250204375736558 
