Wavelength	GRA-VAN00561.asd
325	 2,5395195748343E-03 
326	 0,164159151426161 
327	 0,218976309819849 
328	 4,21555706260956E-02 
329	-0,131324891873218 
330	-0,150661452699892 
331	 0,114894300182584 
332	 0,150639571905757 
333	 8,99056925599463E-02 
334	 7,05493587538696E-02 
335	 5,45951062681118E-02 
336	 5,25667044587992E-02 
337	 0,111019282218537 
338	 0,137771931637051 
339	 0,049389847215377 
340	 0,045768296323841 
341	 0,092236637683085 
342	 3,80470034484958E-02 
343	 2,43597460793807E-02 
344	 7,35908649465613E-02 
345	 6,18032549242839E-02 
346	 5,59001267541551E-02 
347	 0,117901770713801 
348	 7,89470743770424E-02 
349	-3,01558610509988E-02 
350	-4,42519064838352E-02 
351	 1,12718383035247E-02 
352	 8,59888829716416E-02 
353	 0,063497774801845 
354	 1,06275637183056E-02 
355	 1,07265166525931E-02 
356	 3,33825129069562E-02 
357	 5,66835296342484E-02 
358	 4,19770929952195E-02 
359	 3,33095834194871E-02 
360	 5,19591400942396E-02 
361	 8,24900285530759E-02 
362	 9,17767615417752E-02 
363	 3,47744007313242E-02 
364	-1,12594513336649E-02 
365	-1,96006121425379E-02 
366	 2,30977676927203E-02 
367	 6,50434530371934E-02 
368	 7,36917771319239E-02 
369	 6,44385621651932E-02 
370	 3,72363133069004E-02 
371	-2,02524628468256E-02 
372	-1,00753735308452E-02 
373	 0,058866291623721 
374	 0,036045460711986 
375	 2,24902415223225E-04 
376	 1,55710733030914E-02 
377	 3,52399846201891E-02 
378	 4,62178711214245E-02 
379	 3,15785995577587E-02 
380	 0,021601303505906 
381	 2,53623877526212E-02 
382	 3,72941350139283E-02 
383	 4,55626421048549E-02 
384	 4,10699399364614E-02 
385	 0,041362223732162 
386	 3,92339496758295E-02 
387	 1,22038218178508E-03 
388	-7,66205181925233E-03 
389	 2,91228718224252E-02 
390	 2,90990322010515E-02 
391	 1,15421394584873E-02 
392	 5,90562526884428E-03 
393	 1,20226462230419E-02 
394	 2,27053368417636E-02 
395	 1,38364297502551E-02 
396	 1,21387316780829E-02 
397	 2,92483977174246E-02 
398	 4,84656062895049E-02 
399	 0,0531149825554 
400	 2,13236291076792E-02 
401	 9,88308748134084E-03 
402	 2,45967556589575E-02 
403	 2,76603875261375E-02 
404	 0,018412324098538 
405	-1,57126366431225E-04 
406	 6,77449760416159E-03 
407	 2,53308678890366E-02 
408	 2,02007063795222E-02 
409	 1,96712687585627E-02 
410	 2,73471710054395E-02 
411	 0,020667654613201 
412	 1,30057571865583E-02 
413	 1,71556615157097E-02 
414	 1,92031217355556E-02 
415	 1,76861868839632E-02 
416	 1,48649518404542E-02 
417	 1,42349910005861E-02 
418	 1,69157468391662E-02 
419	 1,88759843515648E-02 
420	 2,10359410441044E-02 
421	 2,51759754554029E-02 
422	 2,46658788777622E-02 
423	 1,99959017742176E-02 
424	 0,017397671857021 
425	 1,75377698064336E-02 
426	 2,04913237124959E-02 
427	 2,38322811919785E-02 
428	 0,024721953326491 
429	 1,89070421315149E-02 
430	 1,40549834849775E-02 
431	 1,26815984932961E-02 
432	 1,36085048447283E-02 
433	 0,016834907953203 
434	 2,17496812317334E-02 
435	 0,018408019249652 
436	 1,04886026580263E-02 
437	 1,18684098010771E-02 
438	 1,50365366158097E-02 
439	 1,65892530638022E-02 
440	 1,44707544286843E-02 
441	 1,28416407148216E-02 
442	 1,71204732036951E-02 
443	 1,87597902705737E-02 
444	 1,70376834414516E-02 
445	 1,67845678650452E-02 
446	 1,68908062913233E-02 
447	 0,016610174273715 
448	 1,51017143230578E-02 
449	 1,39875268317002E-02 
450	 1,65658947370559E-02 
451	 1,82174419652717E-02 
452	 1,80667971278945E-02 
453	 0,019685072702698 
454	 0,020178474666008 
455	 1,70813600377088E-02 
456	 1,70578791645491E-02 
457	 1,89632320006091E-02 
458	 1,60673947238748E-02 
459	 1,39999715902127E-02 
460	 1,49056174411033E-02 
461	 1,57564811179142E-02 
462	 1,62917517077271E-02 
463	 1,65722574455007E-02 
464	 1,64256794301559E-02 
465	 1,61212128545514E-02 
466	 1,64825280443101E-02 
467	 1,76604714619496E-02 
468	 1,95413320291997E-02 
469	 2,04815471110362E-02 
470	 2,00205546301002E-02 
471	 1,75908574454521E-02 
472	 1,64660384910309E-02 
473	 1,74191305985357E-02 
474	 1,79937268101966E-02 
475	 1,81713699178002E-02 
476	 1,81485195412493E-02 
477	 2,01461250755897E-02 
478	 2,29859822717968E-02 
479	 2,27006484373165E-02 
480	 0,020555584319516 
481	 1,78954998488744E-02 
482	 1,96655275422085E-02 
483	 2,19285935813937E-02 
484	 1,81985562271797E-02 
485	 1,53520607902714E-02 
486	 1,49200743931182E-02 
487	 0,014981441778701 
488	 1,51150258580611E-02 
489	 0,015031381450144 
490	 1,50261754144267E-02 
491	 1,56221653717364E-02 
492	 1,83177185901114E-02 
493	 1,90135547266174E-02 
494	 0,016930926159396 
495	 1,67036622847415E-02 
496	 1,69411172538113E-02 
497	 1,57184385722857E-02 
498	 1,66337711735693E-02 
499	 1,90083106427635E-02 
500	 0,01850548063396 
501	 1,70901972680398E-02 
502	 1,61080617474619E-02 
503	 1,67901778891677E-02 
504	 1,81063307849288E-02 
505	 1,79791344060687E-02 
506	 0,017961395936699 
507	 1,82914771357159E-02 
508	 1,80814115117024E-02 
509	 1,75655369169215E-02 
510	 1,70097681266276E-02 
511	 1,65069517451411E-02 
512	 1,65007908298534E-02 
513	 1,81054684716303E-02 
514	 1,95240636239823E-02 
515	 0,019869081655696 
516	 1,90882032121346E-02 
517	 0,018577827003335 
518	 0,020252418690923 
519	 2,09003215434084E-02 
520	 2,01635220600378E-02 
521	 2,01806716249144E-02 
522	 1,95485810750984E-02 
523	 1,75286595694424E-02 
524	 1,76771497639591E-02 
525	 1,92325340169347E-02 
526	 1,93833272816889E-02 
527	 1,87199728954567E-02 
528	 1,76707682267527E-02 
529	 0,017707841321437 
530	 1,83651384819288E-02 
531	 1,89575124513156E-02 
532	 1,85981581964825E-02 
533	 1,75593761655954E-02 
534	 1,72723798418793E-02 
535	 1,76956123570277E-02 
536	 1,86384676082825E-02 
537	 0,01869085393307 
538	 1,82442899888932E-02 
539	 1,83386609440273E-02 
540	 0,019030400348552 
541	 1,98807513150537E-02 
542	 1,87030370307522E-02 
543	 1,75307821980032E-02 
544	 1,83423662549571E-02 
545	 1,81913236176399E-02 
546	 1,72199266567148E-02 
547	 0,017458863867517 
548	 1,81377471969164E-02 
549	 1,88096879791115E-02 
550	 1,90787982042412E-02 
551	 1,89902925391783E-02 
552	 0,018726565742589 
553	 1,80073643294346E-02 
554	 0,017192922097951 
555	 1,78696249556793E-02 
556	 1,86835031172866E-02 
557	 1,85081786008571E-02 
558	 1,83780379553495E-02 
559	 1,82860338306979E-02 
560	 1,77066958692605E-02 
561	 1,72465461294577E-02 
562	 1,72776257656242E-02 
563	 1,84184630221741E-02 
564	 1,93484781143394E-02 
565	 1,83140405775923E-02 
566	 1,78923131250482E-02 
567	 1,82560804548026E-02 
568	 1,73990638576343E-02 
569	 1,67821256542091E-02 
570	 1,73706714318666E-02 
571	 1,80071805552241E-02 
572	 1,84041034849516E-02 
573	 1,83355207951193E-02 
574	 1,85481630705243E-02 
575	 1,91716148379475E-02 
576	 1,93572145584629E-02 
577	 1,92447340179679E-02 
578	 1,90754892918673E-02 
579	 1,94775090416045E-02 
580	 2,02178924576909E-02 
581	 2,01321452715959E-02 
582	 1,97259870598701E-02 
583	 0,019388300541147 
584	 1,96453460186644E-02 
585	 2,04464100140203E-02 
586	 2,16882038613113E-02 
587	 2,16590575461182E-02 
588	 0,020395564433106 
589	 2,06997022795955E-02 
590	 2,13227086907446E-02 
591	 2,10331365736711E-02 
592	 2,11461290641359E-02 
593	 2,14982770377424E-02 
594	 2,08889107002023E-02 
595	 2,05945726589064E-02 
596	 2,11625058137055E-02 
597	 2,19464766979098E-02 
598	 2,25060854553209E-02 
599	 2,23452774488266E-02 
600	 2,14766664691307E-02 
601	 0,020323149810798 
602	 2,02697890420591E-02 
603	 2,08242127126141E-02 
604	 0,021439587764069 
605	 2,07616957383454E-02 
606	 1,95382449777262E-02 
607	 2,02403694288198E-02 
608	 2,07889026058887E-02 
609	 2,05022601377211E-02 
610	 2,02875765810313E-02 
611	 2,00335445493447E-02 
612	 1,95191126153844E-02 
613	 0,019709566731059 
614	 0,020386392444591 
615	 1,99560068084145E-02 
616	 1,96948703345749E-02 
617	 2,03596844550515E-02 
618	 2,10555782945414E-02 
619	 2,12604460204083E-02 
620	 2,02027144671243E-02 
621	 0,019268972935928 
622	 1,89585027939149E-02 
623	 1,88991640700094E-02 
624	 1,93156350471135E-02 
625	 2,03851647648141E-02 
626	 2,03294966486996E-02 
627	 1,95308095912218E-02 
628	 2,04040884937587E-02 
629	 2,07872844343252E-02 
630	 1,98062434953272E-02 
631	 1,96534815019602E-02 
632	 2,01220202156516E-02 
633	 2,04606349081223E-02 
634	 2,05793117201299E-02 
635	 2,05342641887685E-02 
636	 2,08303371486291E-02 
637	 2,11263330830929E-02 
638	 2,11515663879515E-02 
639	 2,15280201750819E-02 
640	 2,19434868416465E-02 
641	 2,11900821377281E-02 
642	 0,021120805926412 
643	 0,022247788023069 
644	 2,26823530299763E-02 
645	 2,26872740399132E-02 
646	 2,28404755151338E-02 
647	 2,28427811242652E-02 
648	 2,25717109369392E-02 
649	 2,16268566663815E-02 
650	 2,15033952830557E-02 
651	 2,29233971775728E-02 
652	 2,26401178683467E-02 
653	 2,14596097601054E-02 
654	 2,21322110171185E-02 
655	 2,21145913815295E-02 
656	 0,02093039877641 
657	 2,04284628206069E-02 
658	 2,04973498756574E-02 
659	 2,08625779334177E-02 
660	 2,05354606735646E-02 
661	 1,97162030775492E-02 
662	 1,96946927000512E-02 
663	 1,96100566750716E-02 
664	 1,91410600688123E-02 
665	 1,92234480780898E-02 
666	 1,94561577407418E-02 
667	 1,90561316731935E-02 
668	 1,87105182483525E-02 
669	 1,86633114068803E-02 
670	 1,90682214207994E-02 
671	 1,94103589238761E-02 
672	 0,019289062852169 
673	 1,91140929485101E-02 
674	 1,91033185968077E-02 
675	 1,96792097002684E-02 
676	 1,98235185325695E-02 
677	 0,019332829798376 
678	 1,94326265594518E-02 
679	 1,98179364544604E-02 
680	 2,00043856959197E-02 
681	 1,99529618716135E-02 
682	 1,98777150375226E-02 
683	 2,05587042642487E-02 
684	 2,11111778073502E-02 
685	 2,10233403312647E-02 
686	 2,06747564701818E-02 
687	 2,05577588761197E-02 
688	 2,14765832324624E-02 
689	 2,18507142287886E-02 
690	 2,15788460732765E-02 
691	 2,24268710233136E-02 
692	 2,38162451163487E-02 
693	 0,025157931906874 
694	 2,64854848891064E-02 
695	 2,79504335280506E-02 
696	 0,02993994338741 
697	 3,22009436955168E-02 
698	 3,46575529938141E-02 
699	 3,73831903765121E-02 
700	 4,06908903175339E-02 
701	 4,49503912271204E-02 
702	 0,049399570421281 
703	 5,38233769505745E-02 
704	 5,81920395073166E-02 
705	 6,32831739388723E-02 
706	 6,93902237848549E-02 
707	 7,46517725587998E-02 
708	 7,94053390092734E-02 
709	 8,47531359845142E-02 
710	 9,03082706250802E-02 
711	 9,59629197482629E-02 
712	 0,101695309935437 
713	 0,107227535459501 
714	 0,112313440229495 
715	 0,117224809474159 
716	 0,122042933230842 
717	 0,126868077711211 
718	 0,131272954251679 
719	 0,135130339393658 
720	 0,138782217924699 
721	 0,142464564805915 
722	 0,146432552379143 
723	 0,149764503315259 
724	 0,152509277347864 
725	 0,155678914592267 
726	 0,158459731228156 
727	 0,160438087986033 
728	 0,162536835662482 
729	 0,16474445770826 
730	 0,166827623549215 
731	 0,168480840243964 
732	 0,169744331460569 
733	 0,171272551480717 
734	 0,172725279252464 
735	 0,173806357018942 
736	 0,17489279083301 
737	 0,175990997097588 
738	 0,176923658274037 
739	 0,177903471700034 
740	 0,178922054187537 
741	 0,179511091278942 
742	 0,179879594113217 
743	 0,180310852877811 
744	 0,180607970771216 
745	 0,180839128173169 
746	 0,181279545687907 
747	 0,181842123595966 
748	 0,182462205873835 
749	 0,183078148386799 
750	 0,183536135651829 
751	 0,183629010028062 
752	 0,183633368644115 
753	 0,183729312786479 
754	 0,184217856808982 
755	 0,184716598175246 
756	 0,18494224410959 
757	 0,185071130637896 
758	 0,185175335872468 
759	 0,185346857797264 
760	 0,185481762662785 
761	 0,185562506389245 
762	 0,185664877200026 
763	 0,185791777605744 
764	 0,185935373611419 
765	 0,186001172118079 
766	 0,185969380366103 
767	 0,185790139399797 
768	 0,185870783922048 
769	 0,186261728852596 
770	 0,186100516074421 
771	 0,186126697844063 
772	 0,187245866215656 
773	 0,18760127452603 
774	 0,187129285706308 
775	 0,187025699086994 
776	 0,186931832222545 
777	 0,186714554795699 
778	 0,186596947890551 
779	 0,186571416875112 
780	 0,186589917707488 
781	 0,186629024036827 
782	 0,186654092156785 
783	 0,186552080281245 
784	 0,186634027943917 
785	 0,18703478041432 
786	 0,187061614814823 
787	 0,186862826911605 
788	 0,186883879530209 
789	 0,186866975916517 
790	 0,186826172492939 
791	 0,187136553564295 
792	 0,187297790965505 
793	 0,186957526082297 
794	 0,186914430587366 
795	 0,187041444601768 
796	 0,18674830849924 
797	 0,186634395768415 
798	 0,18679141274281 
799	 0,186628285560962 
800	 0,186512471531959 
801	 0,186775475796652 
802	 0,186729012030302 
803	 0,186473497191701 
804	 0,186615055855624 
805	 0,186647181855245 
806	 0,186517288953068 
807	 0,187006607080667 
808	 0,187375523944974 
809	 0,186846889050637 
810	 0,186972615093495 
811	 0,187676415452082 
812	 0,187819151583762 
813	 0,187917133696623 
814	 0,188109362349113 
815	 0,188018707395246 
816	 0,187795789520216 
817	 0,187660833532137 
818	 0,187822251135581 
819	 0,18819550292547 
820	 0,188420573532392 
821	 0,188379287559524 
822	 0,188119198782005 
823	 0,188432035302257 
824	 0,188772866431343 
825	 0,188360688901946 
826	 0,188251591582873 
827	 0,188511372825854 
828	 0,188452477375923 
829	 0,188676143530541 
830	 0,189279335374654 
831	 0,188757123361547 
832	 0,187954171518792 
833	 0,18821491283815 
834	 0,189007793663287 
835	 0,189798609003207 
836	 0,189333227108554 
837	 0,188800368344468 
838	 0,188806988988959 
839	 0,188584207393678 
840	 0,188408818800871 
841	 0,18876609882861 
842	 0,188830641397434 
843	 0,188506879965057 
844	 0,188179772058432 
845	 0,188123135078476 
846	 0,188406286901262 
847	 0,188263059337776 
848	 0,188030443782133 
849	 0,188298537208792 
850	 0,188461203095182 
851	 0,188341323596086 
852	 0,187807946472976 
853	 0,18775121340336 
854	 0,188430843571099 
855	 0,187975939803906 
856	 0,187164830643898 
857	 0,187333577858468 
858	 0,187445747272912 
859	 0,187366034902578 
860	 0,187444745009282 
861	 0,187684991927101 
862	 0,188037753401855 
863	 0,188208418145855 
864	 0,188115359757546 
865	 0,18771769940986 
866	 0,187828430672078 
867	 0,188253049418039 
868	 0,187621853744889 
869	 0,187696609992634 
870	 0,188964330333288 
871	 0,189019281962521 
872	 0,188189786582471 
873	 0,187203724576615 
874	 0,187620945900172 
875	 0,188897245081466 
876	 0,18833908266907 
877	 0,187900233326206 
878	 0,188327028071465 
879	 0,188964973381369 
880	 0,189266602026108 
881	 0,188754650144761 
882	 0,188664399301032 
883	 0,188931344201457 
884	 0,188587261474987 
885	 0,188753234299748 
886	 0,189555590651325 
887	 0,189463065726793 
888	 0,189303581633106 
889	 0,189847578404928 
890	 0,189642927155731 
891	 0,189031282789942 
892	 0,189288408301703 
893	 0,189819357318294 
894	 0,190222996456494 
895	 0,189679226938464 
896	 0,188852699601463 
897	 0,188399368729842 
898	 0,189041758785736 
899	 0,190006461576229 
900	 0,189713829318397 
901	 0,189909298258431 
902	 0,190604253607187 
903	 0,189881149901655 
904	 0,189427862547441 
905	 0,190137034822458 
906	 0,190153861101247 
907	 0,189797005966515 
908	 0,189834985821187 
909	 0,189622199897118 
910	 0,189370853539235 
911	 0,190322254231966 
912	 0,190563855994976 
913	 0,189462007177871 
914	 0,189175425250562 
915	 0,189246515261838 
916	 0,188962112588236 
917	 0,188582631625142 
918	 0,188220790526031 
919	 0,187966912734872 
920	 0,18836447030389 
921	 0,189116079384638 
922	 0,187908974990582 
923	 0,186583921794121 
924	 0,186722398090962 
925	 0,187272132646964 
926	 0,187557491163629 
927	 0,186686159986825 
928	 0,186065404679589 
929	 0,185932141463293 
930	 0,18551505965732 
931	 0,184936898140945 
932	 0,184431681320099 
933	 0,18521542673486 
934	 0,185770846856116 
935	 0,184091191442371 
936	 0,182508696393506 
937	 0,181715959683911 
938	 0,182215696428036 
939	 0,181544565726914 
940	 0,17942093943271 
941	 0,179875407702733 
942	 0,180533385516644 
943	 0,179190547697856 
944	 0,177651722961953 
945	 0,176570232848802 
946	 0,176623481330569 
947	 0,175418937888247 
948	 0,173194477034611 
949	 0,173595468076059 
950	 0,173780941729492 
951	 0,172296796628901 
952	 0,171306659977667 
953	 0,170108811949405 
954	 0,167702357304037 
955	 0,166362482823979 
956	 0,166087438435427 
957	 0,165572606728552 
958	 0,164873403239596 
959	 0,16409795745119 
960	 0,164010388024327 
961	 0,163545092182224 
962	 0,162045506598631 
963	 0,161229603248752 
964	 0,16103574473039 
965	 0,160966231715113 
966	 0,161205183377788 
967	 0,161304631105881 
968	 0,159726042710201 
969	 0,159060656297089 
970	 0,160099443438063 
971	 0,160553322337531 
972	 0,160206989100674 
973	 0,159250512390979 
974	 0,160668507792365 
975	 0,162242758032418 
976	 0,159119500562518 
977	 0,158206383891241 
978	 0,160486243277559 
979	 0,162653622276124 
980	 0,162584207184559 
981	 0,159687147658765 
982	 0,15748387434664 
983	 0,157160446532038 
984	 0,159322498120727 
985	 0,16073737296386 
986	 0,160858147065033 
987	 0,159889537260012 
988	 0,160624132179282 
989	 0,162870437425651 
990	 0,162504960530048 
991	 0,162630724496328 
992	 0,164564065047822 
993	 0,165913463800876 
994	 0,166217959001581 
995	 0,165328021489966 
996	 0,164108585384182 
997	 0,164115716807768 
998	 0,167968716447831 
999	 0,168846464007912 
1000	 0,166294781111936 
1001	 0,166360064375732 
1002	 0,166341395781625 
1003	 0,165414465485966 
1004	 0,166529503697531 
1005	 0,168635011350211 
1006	 0,170345119384792 
1007	 0,170887809884342 
1008	 0,169696797244656 
1009	 0,166043876484768 
1010	 0,167437860522891 
1011	 0,173012168814634 
1012	 0,172722260604426 
1013	 0,172767883445045 
1014	 0,175136779388227 
1015	 0,175617456388929 
1016	 0,175904321525665 
1017	 0,177171592211195 
1018	 0,174826573686123 
1019	 0,172061042339836 
1020	 0,174402492431341 
1021	 0,17645180329099 
1022	 0,176585342613448 
1023	 0,173359114503603 
1024	 0,174637814258013 
1025	 0,180677563037601 
1026	 0,179544310732685 
1027	 0,176598053438775 
1028	 0,175986273541185 
1029	 0,178246197360522 
1030	 0,181477299095333 
1031	 0,183354241308865 
1032	 0,18637298347916 
1033	 0,188746197136692 
1034	 0,186090730703617 
1035	 0,183697235464953 
1036	 0,18354585391429 
1037	 0,18657744797168 
1038	 0,188057728419184 
1039	 0,186531359787544 
1040	 0,186776444287349 
1041	 0,18933209909677 
1042	 0,193104972763102 
1043	 0,187411935311695 
1044	 0,17899115067696 
1045	 0,179094664044415 
1046	 0,180286197880685 
1047	 0,1812486763279 
1048	 0,181561361165312 
1049	 0,194781694822546 
1050	 0,214393838714491 
1051	 0,20322957786408 
1052	 0,189243700343585 
1053	 0,188002559607912 
1054	 0,1922715359063 
1055	 0,199251744983776 
1056	 0,204215980176402 
1057	 0,188600899775542 
1058	 0,171404558799723 
1059	 0,182886135051691 
1060	 0,196827002540271 
1061	 0,204072125733863 
1062	 0,196309262831471 
1063	 0,192072721199714 
1064	 0,192680326767587 
1065	 0,179147938437648 
1066	 0,174776353823319 
1067	 0,185728254868744 
1068	 0,184782112916321 
1069	 0,179755376667777 
1070	 0,178150587543106 
1071	 0,184119173041798 
1072	 0,191683849992554 
1073	 0,192566436751335 
1074	 0,185437566739484 
1075	 0,181417505056286 
