Wavelength	GRA-BER00461.asd
325	-4,08857679298869E-02 
326	-1,72079839766117E-02 
327	 4,23657743797555E-02 
328	 0,117356476781663 
329	 0,058909708643777 
330	-1,80904705340477E-03 
331	 6,85086677963951E-02 
332	 1,05307317574336E-02 
333	-8,43302521837064E-02 
334	 4,35088498852107E-02 
335	 6,01414419967086E-02 
336	-5,54695999032999E-02 
337	-4,93600702031017E-02 
338	 2,57216465469638E-02 
339	 0,098584013776334 
340	 3,74189147878576E-02 
341	-5,77760843335238E-02 
342	 4,77566263733156E-02 
343	 8,29380447370892E-02 
344	 1,96493349455865E-03 
345	 3,97790984525678E-02 
346	 9,83125245088738E-02 
347	 6,86866955731889E-02 
348	 5,28125055779724E-02 
349	 4,92209744380995E-02 
350	 5,75743804335637E-03 
351	 1,76585142280326E-02 
352	 8,99126757157556E-02 
353	 7,85463763692995E-02 
354	 3,26224945316272E-02 
355	 9,73018621077073E-03 
356	-4,48349053926743E-03 
357	 1,22721894298473E-03 
358	 6,56007054038596E-02 
359	 0,077241297293624 
360	 1,77843558459169E-02 
361	 4,83861128644116E-02 
362	 0,102247966265665 
363	 5,62083782364807E-02 
364	 2,23783474641626E-02 
365	 2,03052854890127E-02 
366	 2,77394240658598E-02 
367	 4,63651720192031E-02 
368	 7,25488729709195E-02 
369	 0,079086615692711 
370	 7,13376952504491E-02 
371	 6,14458606452513E-02 
372	 6,63747172389162E-02 
373	 8,12967872031346E-02 
374	 5,91174478304712E-02 
375	 3,66333005898111E-02 
376	 4,04084689197218E-02 
377	 2,77867139443839E-02 
378	 7,48283792875267E-03 
379	 1,08895879692678E-02 
380	 2,27692925707236E-02 
381	 3,71949056635644E-02 
382	 4,28458855843715E-02 
383	 4,84939692818099E-02 
384	 6,31477486501528E-02 
385	 6,90603881118411E-02 
386	 6,31990283996954E-02 
387	 4,47020506023114E-02 
388	 3,63325422931744E-02 
389	 4,40489029164317E-02 
390	 3,41786344691934E-02 
391	 2,51183355023016E-02 
392	 4,16437621258203E-02 
393	 4,47007765621293E-02 
394	 3,46958398312109E-02 
395	 4,09105333947405E-02 
396	 4,62196858490271E-02 
397	 4,35042500918394E-02 
398	 4,74026962851788E-02 
399	 5,18899386305897E-02 
400	 4,57983537428672E-02 
401	 4,67261525368445E-02 
402	 5,44702833786357E-02 
403	 5,22207507230812E-02 
404	 4,70934868295429E-02 
405	 4,41002864895777E-02 
406	 3,88697291632341E-02 
407	 3,54196625895186E-02 
408	 4,25611688190523E-02 
409	 4,72471612704717E-02 
410	 4,66980171771565E-02 
411	 5,05499096962019E-02 
412	 5,09776774347679E-02 
413	 4,11099475924357E-02 
414	 3,82884916104311E-02 
415	 4,24050937306286E-02 
416	 4,37597727194328E-02 
417	 4,78689241111226E-02 
418	 5,45742676518324E-02 
419	 5,19400786983778E-02 
420	 4,59813315975739E-02 
421	 4,56202180183162E-02 
422	 4,54665041256841E-02 
423	 4,56667950273657E-02 
424	 5,14642590989079E-02 
425	 5,28075696211605E-02 
426	 4,54750565727026E-02 
427	 0,047401329636574 
428	 5,39064598757375E-02 
429	 5,26750516884907E-02 
430	 4,91289844422984E-02 
431	 0,046371715881154 
432	 0,051540992898004 
433	 5,46519482464403E-02 
434	 4,77541829807638E-02 
435	 4,89544450150819E-02 
436	 5,58577510417759E-02 
437	 5,37759604673829E-02 
438	 5,16768443123396E-02 
439	 5,26551094759072E-02 
440	 0,053359407450398 
441	 5,38880255753512E-02 
442	 5,47254140854581E-02 
443	 5,45117261477905E-02 
444	 5,33393269702078E-02 
445	 5,20038027079532E-02 
446	 5,34556576714588E-02 
447	 5,87448473505604E-02 
448	 0,060204714123659 
449	 5,88524544456808E-02 
450	 5,87841035961657E-02 
451	 5,74111120604857E-02 
452	 5,48114031944029E-02 
453	 5,39357336768117E-02 
454	 5,51181754331117E-02 
455	 5,82778441042474E-02 
456	 5,95945301821109E-02 
457	 5,96517503529698E-02 
458	 6,26155310560525E-02 
459	 6,35566283716825E-02 
460	 6,10421995870931E-02 
461	 6,04036751102207E-02 
462	 5,97936909258937E-02 
463	 5,60184052785756E-02 
464	 5,50760336993866E-02 
465	 0,05747354915708 
466	 5,97398293817412E-02 
467	 5,98535372450388E-02 
468	 5,69938081426168E-02 
469	 5,69872471052091E-02 
470	 5,89678478355771E-02 
471	 5,94651713810025E-02 
472	 6,04003951253417E-02 
473	 6,19253489782231E-02 
474	 6,26023375691132E-02 
475	 6,16907262823214E-02 
476	 5,88107359129207E-02 
477	 6,01366191354936E-02 
478	 6,41604380780677E-02 
479	 6,32524794331988E-02 
480	 6,16039699640416E-02 
481	 6,14024611642418E-02 
482	 6,35035946915588E-02 
483	 6,60025147517837E-02 
484	 6,60683834968915E-02 
485	 6,51996498274509E-02 
486	 6,44656139067794E-02 
487	 6,60685086709834E-02 
488	 0,068515752518508 
489	 7,03244932316444E-02 
490	 6,84435127935563E-02 
491	 6,50802905976509E-02 
492	 6,66231948913443E-02 
493	 6,69516904559511E-02 
494	 6,48310478504889E-02 
495	 6,55029555443631E-02 
496	 6,70011964916405E-02 
497	 0,06670974043852 
498	 6,67371098640411E-02 
499	 6,72262851359575E-02 
500	 6,73645970380129E-02 
501	 6,66174175529648E-02 
502	 6,51420952686736E-02 
503	 6,66778725600001E-02 
504	 6,94950158089669E-02 
505	 6,99687958849897E-02 
506	 6,85353755654494E-02 
507	 6,64627851806378E-02 
508	 6,88047961689139E-02 
509	 7,13114862095126E-02 
510	 7,01873909506833E-02 
511	 7,03777615500498E-02 
512	 7,16871895772004E-02 
513	 7,09715745145352E-02 
514	 7,10721785762637E-02 
515	 7,27863568032455E-02 
516	 7,28918444918407E-02 
517	 7,23288811732175E-02 
518	 7,28230664171156E-02 
519	 7,34144677905367E-02 
520	 7,38025991864103E-02 
521	 7,37770213883478E-02 
522	 7,36849277758528E-02 
523	 7,38600652232775E-02 
524	 7,51200076982579E-02 
525	 7,65056651406144E-02 
526	 7,54220438305972E-02 
527	 7,53752262894449E-02 
528	 7,70319902989894E-02 
529	 7,68176741088838E-02 
530	 7,62832444510706E-02 
531	 7,74619973666484E-02 
532	 0,078473633462506 
533	 7,87627649271308E-02 
534	 7,79292134260905E-02 
535	 0,077436109649329 
536	 7,81227843484288E-02 
537	 7,91459945417895E-02 
538	 7,97876738385199E-02 
539	 7,89215589690407E-02 
540	 7,85453291710728E-02 
541	 7,92414900810301E-02 
542	 8,04548598589716E-02 
543	 8,12833450995561E-02 
544	 8,09579372833095E-02 
545	 8,13201869158879E-02 
546	 8,22415025957423E-02 
547	 8,22970814483464E-02 
548	 8,20102473702432E-02 
549	 8,18101759649904E-02 
550	 8,29129515076916E-02 
551	 8,41981302967276E-02 
552	 0,08371395090301 
553	 8,38245876566645E-02 
554	 8,48307640001187E-02 
555	 8,50746242831485E-02 
556	 8,52548789008239E-02 
557	 8,58770814477415E-02 
558	 8,52650963243753E-02 
559	 8,40586030388105E-02 
560	 8,44152476841569E-02 
561	 8,56603818983096E-02 
562	 0,08726923999041 
563	 8,77778061057247E-02 
564	 8,76224930199137E-02 
565	 8,75753856013253E-02 
566	 8,78624670958638E-02 
567	 0,088303043008952 
568	 8,78575080591582E-02 
569	 8,76042705242482E-02 
570	 8,82493149943097E-02 
571	 8,88640065267798E-02 
572	 8,91313888516936E-02 
573	 8,86649417747819E-02 
574	 8,84314152169507E-02 
575	 8,87471383986214E-02 
576	 8,91052227992247E-02 
577	 8,95214732287355E-02 
578	 9,00415568652793E-02 
579	 9,02563818205921E-02 
580	 9,01183880582377E-02 
581	 8,96540564572815E-02 
582	 8,98705295339452E-02 
583	 9,11416787334548E-02 
584	 9,15018992972735E-02 
585	 9,10396780801996E-02 
586	 9,02484697104286E-02 
587	 9,10891882741235E-02 
588	 9,33696351328641E-02 
589	 9,34038049330687E-02 
590	 9,23857823484135E-02 
591	 9,16239727405002E-02 
592	 9,12228713007282E-02 
593	 9,12651166865155E-02 
594	 9,18065396464211E-02 
595	 0,092163300913331 
596	 9,21107463493151E-02 
597	 9,27442853987043E-02 
598	 9,34327031671075E-02 
599	 9,30684562425555E-02 
600	 9,29178177058569E-02 
601	 9,32602817364894E-02 
602	 9,37496006459842E-02 
603	 9,39371753286398E-02 
604	 9,35345100289078E-02 
605	 0,093511092982177 
606	 9,37476575113529E-02 
607	 9,34845974232292E-02 
608	 9,33468102211094E-02 
609	 9,35375698947452E-02 
610	 9,37513282831653E-02 
611	 0,094097043654195 
612	 9,47345695829087E-02 
613	 9,47590568390827E-02 
614	 9,43178332785628E-02 
615	 9,47139433840949E-02 
616	 9,50301773617308E-02 
617	 9,47372937574654E-02 
618	 9,46335212436145E-02 
619	 0,094818291584282 
620	 9,52740891672376E-02 
621	 9,56158849573363E-02 
622	 0,095683012667362 
623	 9,55048826605755E-02 
624	 9,52644037229075E-02 
625	 9,51555377404022E-02 
626	 9,52761188430087E-02 
627	 9,57001146472154E-02 
628	 9,66787631245673E-02 
629	 9,71543303564825E-02 
630	 9,67291703578582E-02 
631	 9,70177708162488E-02 
632	 9,75372759143036E-02 
633	 9,71813149733121E-02 
634	 9,69961135607774E-02 
635	 9,71833469908894E-02 
636	 9,72335051700242E-02 
637	 9,72658630678924E-02 
638	 9,73995845116158E-02 
639	 9,77181375683252E-02 
640	 9,80976085131054E-02 
641	 9,82822692123296E-02 
642	 9,79669748126288E-02 
643	 9,72612610410658E-02 
644	 9,76096743337213E-02 
645	 9,83290494737197E-02 
646	 9,83666159650049E-02 
647	 9,83717873072161E-02 
648	 0,098284536734102 
649	 9,71684202579362E-02 
650	 0,097005848089246 
651	 9,87901168027041E-02 
652	 9,85885631623786E-02 
653	 9,72322299276494E-02 
654	 9,76753690457556E-02 
655	 9,78569826873489E-02 
656	 9,74532736849817E-02 
657	 9,82258530566565E-02 
658	 9,89703763975664E-02 
659	 9,83931220503774E-02 
660	 9,78209438481131E-02 
661	 9,76305783547553E-02 
662	 9,80990893316461E-02 
663	 9,81438085492752E-02 
664	 9,73652771944461E-02 
665	 9,72700313782478E-02 
666	 9,75160652221603E-02 
667	 9,72801877147258E-02 
668	 9,72442606992143E-02 
669	 9,75331798317251E-02 
670	 9,79474442550781E-02 
671	 9,81047783154554E-02 
672	 9,77514820910598E-02 
673	 0,097598951070891 
674	 9,77319763147876E-02 
675	 9,80138916992761E-02 
676	 9,83722340607793E-02 
677	 9,87467592813011E-02 
678	 9,90800555674459E-02 
679	 0,099356891228423 
680	 9,95720964596229E-02 
681	 0,100297280703175 
682	 0,101239737186474 
683	 0,100953941871986 
684	 0,10100884845583 
685	 0,102209425466724 
686	 0,102986714827549 
687	 0,103355549929544 
688	 0,103738177374972 
689	 0,104006489183429 
690	 0,104225685166793 
691	 0,104721549125167 
692	 0,105307521391488 
693	 0,105809496346385 
694	 0,106380928571625 
695	 0,107009544970267 
696	 0,107665590051561 
697	 0,10804677769533 
698	 0,108080309801752 
699	 0,108226706111436 
700	 0,108351070369262 
701	 0,108218806503689 
702	 0,108546098983483 
703	 0,109269390392597 
704	 0,109522907973315 
705	 0,109882166960873 
706	 0,110633952995279 
707	 0,11090807500879 
708	 0,111018748472433 
709	 0,1118045079313 
710	 0,112347988267823 
711	 0,112431904375506 
712	 0,112405451541736 
713	 0,112689911797489 
714	 0,113574101033513 
715	 0,113539024574981 
716	 0,112943374365757 
717	 0,113490809254594 
718	 0,114159386849573 
719	 0,114536776580204 
720	 0,114815372234482 
721	 0,115056693173611 
722	 0,115325819564468 
723	 0,11538568343463 
724	 0,115395457880857 
725	 0,116016699423435 
726	 0,116864628754959 
727	 0,117601673422479 
728	 0,117607120719685 
729	 0,117332508431013 
730	 0,117738375385307 
731	 0,118066382923506 
732	 0,1182207052199 
733	 0,118780887104897 
734	 0,11938668479903 
735	 0,119707625653998 
736	 0,119880691591657 
737	 0,119993117125525 
738	 0,120178483021577 
739	 0,120451485569372 
740	 0,120793829118231 
741	 0,12103101885546 
742	 0,121244710303258 
743	 0,121545094685372 
744	 0,121831947432705 
745	 0,122071600535928 
746	 0,122258890322179 
747	 0,122306751411784 
748	 0,122249405353162 
749	 0,122627814910383 
750	 0,123247497952749 
751	 0,123718574739868 
752	 0,123992145003129 
753	 0,124166613798133 
754	 0,124774665061877 
755	 0,125124386210182 
756	 0,124798469357885 
757	 0,124881990131024 
758	 0,125392409801177 
759	 0,126026707945212 
760	 0,126499769724971 
761	 0,126699115988009 
762	 0,126718327239667 
763	 0,126818553466464 
764	 0,127220958913055 
765	 0,127514120069832 
766	 0,127731253718388 
767	 0,128194906274714 
768	 0,12857672967372 
769	 0,128760547417831 
770	 0,128892149712798 
771	 0,129083045706224 
772	 0,129443582461328 
773	 0,129836870114729 
774	 0,130174696487891 
775	 0,130304012840017 
776	 0,130445533355304 
777	 0,130720148617607 
778	 0,131068119056095 
779	 0,131409985561119 
780	 0,131642845495477 
781	 0,131876022206925 
782	 0,132125428722889 
783	 0,132314543854861 
784	 0,132610055851953 
785	 0,133065344808927 
786	 0,133134136137914 
787	 0,133092060959244 
788	 0,13357135140633 
789	 0,13391490660688 
790	 0,134038442262124 
791	 0,134446600593124 
792	 0,134929091982537 
793	 0,135296863333028 
794	 0,135524985512964 
795	 0,135664951748926 
796	 0,13581341426242 
797	 0,136179976172014 
798	 0,136709354700446 
799	 0,136744177291647 
800	 0,136767414924482 
801	 0,137233310454802 
802	 0,137537917251125 
803	 0,13769311609735 
804	 0,138074050487369 
805	 0,138162888556256 
806	 0,137902532379084 
807	 0,138005544497485 
808	 0,138445946226208 
809	 0,139105261681414 
810	 0,139351288312465 
811	 0,139272025569741 
812	 0,139482195239209 
813	 0,139959540350666 
814	 0,140605828185946 
815	 0,140824075401493 
816	 0,140851697937058 
817	 0,141033393165254 
818	 0,141114921241991 
819	 0,141132098035697 
820	 0,141273402167103 
821	 0,14172672568641 
822	 0,142474044718538 
823	 0,142827464242823 
824	 0,142875441220927 
825	 0,142834457026862 
826	 0,142670214878463 
827	 0,142525462327497 
828	 0,142747553169977 
829	 0,14325405949858 
830	 0,143898600595147 
831	 0,144040932170504 
832	 0,144099831140761 
833	 0,144734313000064 
834	 0,145005917369635 
835	 0,14487615610072 
836	 0,145011811371171 
837	 0,145076753969387 
838	 0,145010288514188 
839	 0,145661560876457 
840	 0,146438391435863 
841	 0,146399985639905 
842	 0,146288274997643 
843	 0,146281824190308 
844	 0,14628179944942 
845	 0,14643268130084 
846	 0,146793487584505 
847	 0,147198428498477 
848	 0,147519986500724 
849	 0,147620894930929 
850	 0,1476574615937 
851	 0,147686274082103 
852	 0,147665996216747 
853	 0,147991519898991 
854	 0,148728735303751 
855	 0,148724768869137 
856	 0,148589105887934 
857	 0,149314927529356 
858	 0,149410879611919 
859	 0,148949964915828 
860	 0,149396328295542 
861	 0,149725677554042 
862	 0,149513540312332 
863	 0,149706211657214 
864	 0,149893783720431 
865	 0,149449118164838 
866	 0,149935856993506 
867	 0,15105050999171 
868	 0,150736332218462 
869	 0,150352348684195 
870	 0,150529040741802 
871	 0,150882709475752 
872	 0,151262835347691 
873	 0,151520620777008 
874	 0,151510467074666 
875	 0,151421037430377 
876	 0,15179374994702 
877	 0,15267733027603 
878	 0,153806870307407 
879	 0,153698022553186 
880	 0,153055280858091 
881	 0,152792576574457 
882	 0,153049402104263 
883	 0,15355246904409 
884	 0,153417493915433 
885	 0,153531696148347 
886	 0,154044989733819 
887	 0,153992216365618 
888	 0,153965046090362 
889	 0,154522280116907 
890	 0,154921294004196 
891	 0,155048652686484 
892	 0,154929499380773 
893	 0,155080879435962 
894	 0,155591228118154 
895	 0,155948785621052 
896	 0,156358067536704 
897	 0,156843572143927 
898	 0,155926638148498 
899	 0,154649635707259 
900	 0,15520989097291 
901	 0,156245760917323 
902	 0,157069581657555 
903	 0,156635668636843 
904	 0,156525682616388 
905	 0,157540829671302 
906	 0,157721393026331 
907	 0,157348014129462 
908	 0,157164828623734 
909	 0,157537953708632 
910	 0,158176665566047 
911	 0,157669524408126 
912	 0,157898944253361 
913	 0,15944593501322 
914	 0,160230550339791 
915	 0,159920712733528 
916	 0,158509916184237 
917	 0,158586019540718 
918	 0,15979454330793 
919	 0,159768621961856 
920	 0,159705705414736 
921	 0,160022288026841 
922	 0,160920235652439 
923	 0,161385413817464 
924	 0,160725968057637 
925	 0,160940286635113 
926	 0,161443809665106 
927	 0,160566137892958 
928	 0,160514335452141 
929	 0,16148522953686 
930	 0,161864418560603 
931	 0,161745476758019 
932	 0,161271719470196 
933	 0,161065216038338 
934	 0,161104909088038 
935	 0,161257158831486 
936	 0,161778125924698 
937	 0,162527487717884 
938	 0,163130084648553 
939	 0,162931382823067 
940	 0,162115576995123 
941	 0,163224327615996 
942	 0,163618763468103 
943	 0,16129960299011 
944	 0,16188728932401 
945	 0,164338431369205 
946	 0,165059907377945 
947	 0,1643156342342 
948	 0,162881830136287 
949	 0,163621835658083 
950	 0,164250565646401 
951	 0,163572124882378 
952	 0,16300877563123 
953	 0,162730067350525 
954	 0,162767050971725 
955	 0,163074959405638 
956	 0,163832748091664 
957	 0,165865520760571 
958	 0,165707243020339 
959	 0,163245638320168 
960	 0,163950889046547 
961	 0,16544700179109 
962	 0,165796730067517 
963	 0,166023126652199 
964	 0,166138094172215 
965	 0,166005497950089 
966	 0,165601338069113 
967	 0,165226063601641 
968	 0,165762282869253 
969	 0,166371392157186 
970	 0,166524503828356 
971	 0,165550214509788 
972	 0,164875222573342 
973	 0,165816799290468 
974	 0,167824234301623 
975	 0,169236826343463 
976	 0,167305854148241 
977	 0,167192329128868 
978	 0,168996618712982 
979	 0,167555218085612 
980	 0,167284570627889 
981	 0,169508923089439 
982	 0,168302703663831 
983	 0,16660646636026 
984	 0,167723612250797 
985	 0,168615576893748 
986	 0,1694840767388 
987	 0,171808365784831 
988	 0,172858648590798 
989	 0,172026054555504 
990	 0,170132144982334 
991	 0,16903128159281 
992	 0,169614047474084 
993	 0,170471197619441 
994	 0,170547499956386 
995	 0,169022740525988 
996	 0,167301095716807 
997	 0,1666267981981 
998	 0,168781281185962 
999	 0,169305716354146 
1000	 0,168650381616582 
1001	 0,174169021951288 
1002	 0,174876354626361 
1003	 0,167790540951302 
1004	 0,169783530352045 
1005	 0,174344573589405 
1006	 0,174090008865904 
1007	 0,173818579215556 
1008	 0,173880812789407 
1009	 0,173641969001363 
1010	 0,17312232603981 
1011	 0,172855335986063 
1012	 0,174633817675238 
1013	 0,175784161848298 
1014	 0,175181062560643 
1015	 0,173316133278049 
1016	 0,173275466490343 
1017	 0,177002990393344 
1018	 0,178541078283263 
1019	 0,178426626245531 
1020	 0,17875502336358 
1021	 0,174539636103881 
1022	 0,168911191749035 
1023	 0,173462131500396 
1024	 0,177405011633715 
1025	 0,176611540664863 
1026	 0,170326724055508 
1027	 0,168881103125961 
1028	 0,176762681150071 
1029	 0,174799012506872 
1030	 0,169801059729637 
1031	 0,171858603976169 
1032	 0,173910759462161 
1033	 0,174401542228325 
1034	 0,172710100367146 
1035	 0,17260225990365 
1036	 0,174547866701163 
1037	 0,176482678754803 
1038	 0,175109342310153 
1039	 0,17058032314 
1040	 0,172393390940152 
1041	 0,175267011404705 
1042	 0,174656117552929 
1043	 0,174508229220682 
1044	 0,175138158575162 
1045	 0,176320205910181 
1046	 0,180203525984349 
1047	 0,182570862336931 
1048	 0,172624581536644 
1049	 0,167848366187924 
1050	 0,170900796903967 
1051	 0,169542103942502 
1052	 0,16678518087066 
1053	 0,164921526218688 
1054	 0,168336172632782 
1055	 0,17132350284946 
1056	 0,169292574623209 
1057	 0,169719468734566 
1058	 0,171448298766176 
1059	 0,171636444560349 
1060	 0,176918143011966 
1061	 0,181261130494395 
1062	 0,168140351911653 
1063	 0,16584031627237 
1064	 0,174724866643562 
1065	 0,162315472072098 
1066	 0,165157931392408 
1067	 0,190110565580676 
1068	 0,184993242790562 
1069	 0,168366047313871 
1070	 0,159766894654168 
1071	 0,175712103228175 
1072	 0,186363339528809 
1073	 0,157897422996105 
1074	 0,158387668840087 
1075	 0,177622040894628 
