Wavelength	GRA-VAN00028.asd
325	 0,1617018706687 
326	 0,212348005858783 
327	 0,247320335825259 
328	 0,226084758992207 
329	 0,107294597287382 
330	 0,045977202762293 
331	 0,22228662078949 
332	 0,233892283802353 
333	 0,152172812606605 
334	 4,52311925703897E-03 
335	-2,52288414003811E-02 
336	 0,104649239248407 
337	 0,192923875080658 
338	 0,184468903122971 
339	 1,41251848201084E-02 
340	-0,015478376218578 
341	 6,08730706340806E-02 
342	 3,65475222005665E-02 
343	 5,17670048591543E-02 
344	 0,114302212095639 
345	 0,123222301970892 
346	 0,106946294014994 
347	 9,39868850103233E-02 
348	 7,45537895509911E-02 
349	 4,42263029074883E-02 
350	-4,71979418669476E-03 
351	 9,83141701091385E-03 
352	 8,16460857409133E-02 
353	 0,061369082652827 
354	 2,13547731060261E-02 
355	 5,26729500156907E-02 
356	 7,87798125836297E-02 
357	 8,04004848243387E-02 
358	 4,92212345752182E-02 
359	 2,65092499548927E-02 
360	 3,62923572328761E-02 
361	 0,064169005324511 
362	 7,50181866939015E-02 
363	 2,08750847193998E-02 
364	 1,83935666664804E-02 
365	 6,84749382529389E-02 
366	 0,054639927361473 
367	 4,75786847324241E-02 
368	 8,15780222933193E-02 
369	 7,00064953400176E-02 
370	 0,030875228367443 
371	 9,76175858790738E-03 
372	 1,82954300801704E-02 
373	 4,43684057987705E-02 
374	 2,58520539673987E-02 
375	 1,27708358746036E-02 
376	 4,19125309261544E-02 
377	 5,10755939368886E-02 
378	 4,05750309869561E-02 
379	 2,87974185492643E-02 
380	 3,20152187847516E-02 
381	 4,94719545908237E-02 
382	 4,83145839409495E-02 
383	 4,32755243455545E-02 
384	 4,88707940806177E-02 
385	 0,051599517423574 
386	 0,046427644522731 
387	 0,022618525958965 
388	 1,66683968412256E-02 
389	 4,00775714429632E-02 
390	 5,72823164506399E-02 
391	 6,04579457372232E-02 
392	 4,49061706928341E-02 
393	 3,14287797809477E-02 
394	 2,57819515520021E-02 
395	 0,027656972245239 
396	 3,09599777161596E-02 
397	 0,032962261423267 
398	 4,16742864291357E-02 
399	 0,04618522980647 
400	 2,86078141290329E-02 
401	 3,14685649608172E-02 
402	 5,33827233589266E-02 
403	 5,26130301642576E-02 
404	 3,63146738585506E-02 
405	 1,29987782543378E-02 
406	 0,010528354411893 
407	 2,34284338369334E-02 
408	 3,49565324682669E-02 
409	 0,03819040264543 
410	 3,25532249014967E-02 
411	 3,10729346171255E-02 
412	 0,03019380052977 
413	 2,64754535756147E-02 
414	 3,01047991966518E-02 
415	 3,66259174821847E-02 
416	 2,99398070482263E-02 
417	 2,60929702134042E-02 
418	 3,06945695096172E-02 
419	 3,35598333740243E-02 
420	 3,56928263329018E-02 
421	 3,96195688233896E-02 
422	 4,17584273299449E-02 
423	 4,05620952293649E-02 
424	 3,32657286480423E-02 
425	 2,88944973346131E-02 
426	 3,22128219631527E-02 
427	 3,42052454063104E-02 
428	 3,41619295494727E-02 
429	 3,33807596231534E-02 
430	 3,11919636790628E-02 
431	 2,83823411404908E-02 
432	 2,85177733664468E-02 
433	 3,02771350145361E-02 
434	 3,19899502469105E-02 
435	 2,80398888373359E-02 
436	 2,16805540465728E-02 
437	 2,35739330126349E-02 
438	 2,77565432377402E-02 
439	 3,09542180399639E-02 
440	 2,88786906399185E-02 
441	 0,0262856715975 
442	 2,96006817838309E-02 
443	 0,030859750449379 
444	 2,94788824526167E-02 
445	 3,03074477678698E-02 
446	 3,03344159542373E-02 
447	 2,81058768698369E-02 
448	 2,79598769597147E-02 
449	 2,87726200905197E-02 
450	 2,70844581286698E-02 
451	 2,79714926078421E-02 
452	 3,17259532493049E-02 
453	 3,26378682156338E-02 
454	 3,21818470417636E-02 
455	 3,20644555297338E-02 
456	 3,42281292348113E-02 
457	 3,64902497903174E-02 
458	 3,17575649045545E-02 
459	 2,86245988840707E-02 
460	 3,03889154582294E-02 
461	 3,18630501599731E-02 
462	 3,17687293429043E-02 
463	 2,91276100391277E-02 
464	 2,71227701683897E-02 
465	 2,64331225823346E-02 
466	 2,55793410440077E-02 
467	 2,62255003656179E-02 
468	 2,92562834757224E-02 
469	 3,28544126986346E-02 
470	 3,48105648858582E-02 
471	 3,13869373838951E-02 
472	 2,91881100764409E-02 
473	 2,99844358033393E-02 
474	 3,01403705794836E-02 
475	 3,03339211185383E-02 
476	 3,13253582730333E-02 
477	 3,10099875023694E-02 
478	 2,99028069022598E-02 
479	 3,03871968956944E-02 
480	 3,16651634716263E-02 
481	 0,033139020413695 
482	 3,37054184203718E-02 
483	 3,30418040233187E-02 
484	 3,08474048033336E-02 
485	 2,97575563977409E-02 
486	 3,01434610013888E-02 
487	 3,01523797985464E-02 
488	 0,030163538008127 
489	 3,04054265993502E-02 
490	 2,99682492565254E-02 
491	 2,92141579406399E-02 
492	 2,93362806332854E-02 
493	 2,89785461676069E-02 
494	 2,80910150204097E-02 
495	 2,90096049296716E-02 
496	 0,030170120703679 
497	 2,96709000183077E-02 
498	 2,96126940895237E-02 
499	 3,01732606610229E-02 
500	 3,05578813598943E-02 
501	 3,02169788413277E-02 
502	 2,90074370283368E-02 
503	 2,82234805543454E-02 
504	 2,86296649570443E-02 
505	 3,14351209893233E-02 
506	 3,19942462400573E-02 
507	 2,99521348368964E-02 
508	 3,05415330239804E-02 
509	 3,16614458148721E-02 
510	 3,12325126074648E-02 
511	 3,01500523910559E-02 
512	 2,90075753414828E-02 
513	 2,85865034811795E-02 
514	 0,029636399949475 
515	 3,19612227788762E-02 
516	 3,22652308913766E-02 
517	 3,13383933041186E-02 
518	 3,07207948788106E-02 
519	 3,11130981284383E-02 
520	 3,21234900842996E-02 
521	 3,15990772190645E-02 
522	 3,03466869039064E-02 
523	 2,92009832440436E-02 
524	 3,01327356139026E-02 
525	 3,20218473713442E-02 
526	 0,031742665693996 
527	 3,11488089355397E-02 
528	 3,07957520943533E-02 
529	 3,01502204006676E-02 
530	 2,98379748439114E-02 
531	 3,05633409939015E-02 
532	 3,09332001245849E-02 
533	 3,04525432944281E-02 
534	 2,83752716398751E-02 
535	 2,77584607252098E-02 
536	 3,00648345242328E-02 
537	 3,11806650709907E-02 
538	 3,11190237184801E-02 
539	 3,09534960466317E-02 
540	 0,03127127447298 
541	 3,19305863743588E-02 
542	 3,11228608429743E-02 
543	 3,00712657244461E-02 
544	 3,00309964500671E-02 
545	 3,01002776419598E-02 
546	 3,01276144575912E-02 
547	 3,01836313239293E-02 
548	 0,03035270633588 
549	 3,06303608175339E-02 
550	 3,07101445587629E-02 
551	 0,030670265110408 
552	 3,07184344401537E-02 
553	 3,02054101129431E-02 
554	 2,93082012132738E-02 
555	 2,94495006076998E-02 
556	 2,96466553941555E-02 
557	 2,91334626855514E-02 
558	 2,93772172645114E-02 
559	 3,00326937134536E-02 
560	 2,96008568546638E-02 
561	 2,90776022429513E-02 
562	 2,89869809712745E-02 
563	 3,00238950152547E-02 
564	 3,08564267696465E-02 
565	 2,97000456423956E-02 
566	 0,028849892569222 
567	 2,88695298892396E-02 
568	 2,94976103483168E-02 
569	 0,029761019290315 
570	 2,91013657178766E-02 
571	 0,029302454113074 
572	 3,00162901424019E-02 
573	 2,98028465118295E-02 
574	 3,00643377808131E-02 
575	 3,10047138788551E-02 
576	 3,11147815921063E-02 
577	 3,08032640059731E-02 
578	 3,06570661186453E-02 
579	 3,08086618472048E-02 
580	 3,10725251126966E-02 
581	 3,07060317446271E-02 
582	 3,03082673851168E-02 
583	 3,02979616831019E-02 
584	 3,11174116176919E-02 
585	 0,03188933934194 
586	 0,030930151733156 
587	 3,07199236196794E-02 
588	 0,031726974793444 
589	 3,24578534388775E-02 
590	 3,24846797771075E-02 
591	 3,15809822787116E-02 
592	 3,18419439538183E-02 
593	 3,28648022246001E-02 
594	 0,032284439715213 
595	 3,18272920188857E-02 
596	 3,22462299415745E-02 
597	 0,032998059703059 
598	 3,33782829317526E-02 
599	 3,24397990813769E-02 
600	 3,16283313499659E-02 
601	 3,14328010053232E-02 
602	 3,19404795528613E-02 
603	 3,22818152255635E-02 
604	 3,17817675296528E-02 
605	 0,030926543073796 
606	 0,030328286730143 
607	 3,13792728522331E-02 
608	 3,17580925028484E-02 
609	 3,08284696411717E-02 
610	 0,030635545851056 
611	 3,07337084349074E-02 
612	 3,03648790311685E-02 
613	 3,01786278737218E-02 
614	 0,030207189346964 
615	 3,00085166137464E-02 
616	 2,99408477880568E-02 
617	 0,03021827563526 
618	 3,06146774745272E-02 
619	 3,09106460501632E-02 
620	 3,07492104267323E-02 
621	 3,07321262357795E-02 
622	 3,08650929138213E-02 
623	 3,00382934673286E-02 
624	 0,029433441267622 
625	 3,02536046286107E-02 
626	 3,05712416794544E-02 
627	 3,02983442698206E-02 
628	 3,04828701679275E-02 
629	 3,06324526868903E-02 
630	 3,05366855687724E-02 
631	 3,04894048886336E-02 
632	 3,05389929058146E-02 
633	 3,07130464215327E-02 
634	 3,07102296203194E-02 
635	 3,06395317239937E-02 
636	 3,14111158695195E-02 
637	 3,19426947805288E-02 
638	 3,13743297209592E-02 
639	 3,10809089380563E-02 
640	 3,13630013273421E-02 
641	 0,032403929460599 
642	 3,29385943637398E-02 
643	 3,25774803351628E-02 
644	 3,26021732112733E-02 
645	 3,30081434452307E-02 
646	 3,36343693957472E-02 
647	 0,033141736759765 
648	 3,17868835540197E-02 
649	 3,16194273673183E-02 
650	 3,20386704260779E-02 
651	 3,25532821452082E-02 
652	 3,25943802972861E-02 
653	 3,23597428544042E-02 
654	 3,25140325168393E-02 
655	 3,23631625541216E-02 
656	 3,17142266723115E-02 
657	 3,06918824611867E-02 
658	 3,01149069340904E-02 
659	 3,07395089269564E-02 
660	 3,04742373063107E-02 
661	 2,94923488835838E-02 
662	 2,96990245640351E-02 
663	 2,98968194927825E-02 
664	 2,95138271597605E-02 
665	 2,89897497110993E-02 
666	 2,85192965603773E-02 
667	 2,82975448478213E-02 
668	 2,85330842577823E-02 
669	 2,90727022872949E-02 
670	 2,91525830852032E-02 
671	 2,89575222648049E-02 
672	 2,86996070948956E-02 
673	 2,89160317829292E-02 
674	 2,92701680521211E-02 
675	 2,87061139592695E-02 
676	 2,80770542477585E-02 
677	 2,78194258805917E-02 
678	 2,83646881049606E-02 
679	 2,91921554620811E-02 
680	 2,96393584772185E-02 
681	 2,91513267567665E-02 
682	 2,82561057350898E-02 
683	 2,90989828740777E-02 
684	 2,98864057539938E-02 
685	 2,96457647481367E-02 
686	 2,96906499833975E-02 
687	 3,00657532439244E-02 
688	 3,05835503364007E-02 
689	 3,05957761905215E-02 
690	 3,02267702172552E-02 
691	 3,08122429591453E-02 
692	 3,21809802277332E-02 
693	 3,40649016797476E-02 
694	 3,55821736848451E-02 
695	 3,69104865108929E-02 
696	 3,89351856625961E-02 
697	 4,14739485402938E-02 
698	 4,44853287310173E-02 
699	 4,79071911478715E-02 
700	 5,18998556315226E-02 
701	 5,66654561727927E-02 
702	 6,15957655308551E-02 
703	 6,64679196196074E-02 
704	 7,11036399562829E-02 
705	 7,64025872670009E-02 
706	 8,27588157293686E-02 
707	 8,83411223914574E-02 
708	 9,37052380244534E-02 
709	 0,100411002377376 
710	 0,106715705187608 
711	 0,112286598352382 
712	 0,118219251757775 
713	 0,124315559489044 
714	 0,130295294205011 
715	 0,135433524992507 
716	 0,140095559805414 
717	 0,145659047598173 
718	 0,150797308336412 
719	 0,155042871436758 
720	 0,159107240435146 
721	 0,163066360088172 
722	 0,166939511531621 
723	 0,170599495536861 
724	 0,174066307007693 
725	 0,17752742474205 
726	 0,180629280535921 
727	 0,183207780669135 
728	 0,185818539120047 
729	 0,188353756650061 
730	 0,190517420231919 
731	 0,19201941510073 
732	 0,193116364562689 
733	 0,195247727742653 
734	 0,197475316670361 
735	 0,198936705129499 
736	 0,199951447006226 
737	 0,200876684171286 
738	 0,202493966881209 
739	 0,203851441949485 
740	 0,204642295242046 
741	 0,20539281380094 
742	 0,206165066133107 
743	 0,206976103703182 
744	 0,207665276725694 
745	 0,208263523318479 
746	 0,208993463140235 
747	 0,209645356014133 
748	 0,210126991238898 
749	 0,210615800606574 
750	 0,211204688030335 
751	 0,212006176219783 
752	 0,212628878384205 
753	 0,213020731206583 
754	 0,213483760259652 
755	 0,213846558417536 
756	 0,214016819325857 
757	 0,214356654246149 
758	 0,214823691952838 
759	 0,215225864454679 
760	 0,215511737211105 
761	 0,215686148958728 
762	 0,215846686478975 
763	 0,216240811166828 
764	 0,217039365514695 
765	 0,217310340742701 
766	 0,21718580681223 
767	 0,217499020548857 
768	 0,217817927244223 
769	 0,218018276115295 
770	 0,218308521843437 
771	 0,218695587236091 
772	 0,219157633959847 
773	 0,219204727179437 
774	 0,218981370751503 
775	 0,219269473251999 
776	 0,219645026142851 
777	 0,219863492246037 
778	 0,219852015734788 
779	 0,21975771079687 
780	 0,21980635486339 
781	 0,219932952213552 
782	 0,22011279463301 
783	 0,220323907357824 
784	 0,220443885952615 
785	 0,220420864449728 
786	 0,220524783341774 
787	 0,220775508554462 
788	 0,221141119927268 
789	 0,221412769925996 
790	 0,221535156092706 
791	 0,221624723767431 
792	 0,221684652389317 
793	 0,221705916328502 
794	 0,221521066375389 
795	 0,221374325338899 
796	 0,221878380677626 
797	 0,222048465090507 
798	 0,221708647411506 
799	 0,22175193649365 
800	 0,221961200477263 
801	 0,222094760954643 
802	 0,222310188155712 
803	 0,222502674012289 
804	 0,222350632285973 
805	 0,222176582095681 
806	 0,222150233161587 
807	 0,222456985044885 
808	 0,222705847150791 
809	 0,222496795842796 
810	 0,22254884147598 
811	 0,222917711525249 
812	 0,223297030242724 
813	 0,223828878291172 
814	 0,224425369071502 
815	 0,224305251950543 
816	 0,224136589305082 
817	 0,224757406041824 
818	 0,224886188640071 
819	 0,224624212737681 
820	 0,225197730189826 
821	 0,225570989416865 
822	 0,225347839988943 
823	 0,22535265062963 
824	 0,225585074208592 
825	 0,225933920043774 
826	 0,226526574111118 
827	 0,227080319229383 
828	 0,226641659331496 
829	 0,226391400823197 
830	 0,226823378194355 
831	 0,22669629668399 
832	 0,226374184023322 
833	 0,226520932476107 
834	 0,226934768054616 
835	 0,227428616676502 
836	 0,227538566544192 
837	 0,227789253906622 
838	 0,228312543981131 
839	 0,227901415976593 
840	 0,227322717719179 
841	 0,227815765417473 
842	 0,228070650067318 
843	 0,227881034116642 
844	 0,227638706245541 
845	 0,227762768037254 
846	 0,228376802362005 
847	 0,228546683501651 
848	 0,228373547220654 
849	 0,228159804036505 
850	 0,228577953386248 
851	 0,229285248332927 
852	 0,22845730052286 
853	 0,228113079706683 
854	 0,229114889491867 
855	 0,229310923198534 
856	 0,228828252315036 
857	 0,228187971956124 
858	 0,228055646586457 
859	 0,228429104051927 
860	 0,228661687354206 
861	 0,228717255414748 
862	 0,22863098862808 
863	 0,228970223258181 
864	 0,229159415304405 
865	 0,22841201672973 
866	 0,228396524591552 
867	 0,229054965210718 
868	 0,22893636189043 
869	 0,228706254844876 
870	 0,228731775265624 
871	 0,229320799965014 
872	 0,229785659654525 
873	 0,229312787902513 
874	 0,229263990744197 
875	 0,229734409176021 
876	 0,230105330983698 
877	 0,230298359910147 
878	 0,230307697372343 
879	 0,230465786497703 
880	 0,230698611006182 
881	 0,230900730274886 
882	 0,231254611923018 
883	 0,231539206558215 
884	 0,230993166580712 
885	 0,231074882726259 
886	 0,231982512878052 
887	 0,231790276552022 
888	 0,23118442374348 
889	 0,230932619402284 
890	 0,230930301395686 
891	 0,231170929436318 
892	 0,231663028240119 
893	 0,232053945209075 
894	 0,232091601447977 
895	 0,231290387021741 
896	 0,230789487604642 
897	 0,231458357286725 
898	 0,232631136976248 
899	 0,233367194906432 
900	 0,232220490371803 
901	 0,23173845162294 
902	 0,232308627027932 
903	 0,232374170517985 
904	 0,231952161913746 
905	 0,231251381276571 
906	 0,231749445332843 
907	 0,232541689426623 
908	 0,23210716432235 
909	 0,232039708826215 
910	 0,232521187989415 
911	 0,233005116896307 
912	 0,23268744112429 
913	 0,231516275377424 
914	 0,231746691470203 
915	 0,23225923655977 
916	 0,231667438287051 
917	 0,231918914101382 
918	 0,232566686488683 
919	 0,231455020645335 
920	 0,230839455611601 
921	 0,231194658508451 
922	 0,230758463994934 
923	 0,230208978684968 
924	 0,230158258088141 
925	 0,230297659603331 
926	 0,230296746331589 
927	 0,229688946564673 
928	 0,22855172576166 
929	 0,227380714231254 
930	 0,227888940225687 
931	 0,227891266381392 
932	 0,226327492833204 
933	 0,225553919163197 
934	 0,225102427501797 
935	 0,224052236729836 
936	 0,223148742178285 
937	 0,222600605398479 
938	 0,222550999106441 
939	 0,222390720216969 
940	 0,221864215018295 
941	 0,221259558426973 
942	 0,22018970798187 
943	 0,218390512405906 
944	 0,216792983318294 
945	 0,21566733809589 
946	 0,215205142753708 
947	 0,213575780194019 
948	 0,211199372678586 
949	 0,21174363180104 
950	 0,212038542802917 
951	 0,210468511978751 
952	 0,209694917683656 
953	 0,20819823613651 
954	 0,204068154434033 
955	 0,202423880461331 
956	 0,202748038798021 
957	 0,200546994799383 
958	 0,199867807687747 
959	 0,201079900105169 
960	 0,199678740768603 
961	 0,197408497882325 
962	 0,19594042751841 
963	 0,196264192660852 
964	 0,197471279505691 
965	 0,197946343820258 
966	 0,196413896467332 
967	 0,193723483523669 
968	 0,193393615151098 
969	 0,19407135275623 
970	 0,195043241762709 
971	 0,19586078529089 
972	 0,195498961063399 
973	 0,193477467032658 
974	 0,194421977316373 
975	 0,196435280664823 
976	 0,194685936554888 
977	 0,194630091193357 
978	 0,196764879379208 
979	 0,197656496563472 
980	 0,197244034256164 
981	 0,195837883018264 
982	 0,195636937265913 
983	 0,196171190712887 
984	 0,196650918915516 
985	 0,195931041132619 
986	 0,194969291638501 
987	 0,196045945240605 
988	 0,196835677911585 
989	 0,197173244991293 
990	 0,199098500341389 
991	 0,200448269458645 
992	 0,200404744896899 
993	 0,201812795565659 
994	 0,201806526117031 
995	 0,197826132446383 
996	 0,197972920490181 
997	 0,201744673481266 
998	 0,205186159337021 
999	 0,206348955037834 
1000	 0,204945147442147 
1001	 0,202750235252847 
1002	 0,201086581385734 
1003	 0,201011918475008 
1004	 0,203516191670422 
1005	 0,206588041966908 
1006	 0,208127949907114 
1007	 0,208253072390531 
1008	 0,20720473502891 
1009	 0,2054111836793 
1010	 0,205332537222379 
1011	 0,206943692388132 
1012	 0,207691192654464 
1013	 0,20791147695701 
1014	 0,207988918450557 
1015	 0,209002715468126 
1016	 0,212338330245603 
1017	 0,217986203155281 
1018	 0,215916979891052 
1019	 0,210837551449595 
1020	 0,211965467318496 
1021	 0,214311101426731 
1022	 0,215665231130157 
1023	 0,212270601652188 
1024	 0,213657409527897 
1025	 0,220903985094433 
1026	 0,223432272408138 
1027	 0,222058755827576 
1028	 0,218752216689027 
1029	 0,222040048763229 
1030	 0,226455853059681 
1031	 0,224752576867184 
1032	 0,222373445133057 
1033	 0,221349885949894 
1034	 0,223699820135127 
1035	 0,223628469599408 
1036	 0,221684217780585 
1037	 0,22699683963085 
1038	 0,226430918002912 
1039	 0,217226223768854 
1040	 0,21793602829178 
1041	 0,222826298955734 
1042	 0,22572225087916 
1043	 0,224411426335258 
1044	 0,221107344983982 
1045	 0,219729188794998 
1046	 0,222871650706261 
1047	 0,229092000615114 
1048	 0,233292122716143 
1049	 0,239684180561134 
1050	 0,245536005726223 
1051	 0,237016490428606 
1052	 0,23107712134476 
1053	 0,235991358917652 
1054	 0,242014258471275 
1055	 0,244032676426879 
1056	 0,238274792493372 
1057	 0,227237589758926 
1058	 0,221006900372853 
1059	 0,232163481534081 
1060	 0,232701507354506 
1061	 0,225945020122274 
1062	 0,233662148649264 
1063	 0,240867204134728 
1064	 0,240762692638919 
1065	 0,222888861744591 
1066	 0,215039941343633 
1067	 0,227582869288655 
1068	 0,240721020127242 
1069	 0,239723084280078 
1070	 0,21991216475722 
1071	 0,23092040130238 
1072	 0,249969836333576 
1073	 0,242563967493594 
1074	 0,22866144150306 
1075	 0,220085936183445 
