Wavelength	GRA-VIE00662.asd
325	-0,143066400481968 
326	 1,85925505085497E-02 
327	 6,21900575253233E-02 
328	-7,58960202212868E-02 
329	 2,34869060876488E-02 
330	 0,166079431744511 
331	 0,125426587731182 
332	 8,13906410936835E-02 
333	 4,16668787507062E-02 
334	 5,12618254779161E-02 
335	 1,62095764533579E-02 
336	-3,22302564310717E-02 
337	 8,48169443533269E-02 
338	 0,179652337077811 
339	 0,123682703280144 
340	 2,78669289689207E-02 
341	-5,48739595844818E-02 
342	 2,90348002820523E-05 
343	 6,65707005405115E-02 
344	 9,78564233166022E-02 
345	 8,99748062429276E-02 
346	 7,08112796957298E-02 
347	 6,90156367461972E-02 
348	 2,77920945169092E-02 
349	-2,29524697256905E-02 
350	 2,57275560811413E-02 
351	 4,37051890000894E-02 
352	 2,99528650601901E-03 
353	-7,85521405144207E-03 
354	 2,11575649996328E-02 
355	 8,68735880422273E-02 
356	 0,100310050866971 
357	 6,03166621454423E-02 
358	 1,54920031502741E-02 
359	 3,70265704192904E-03 
360	 3,61447860164143E-02 
361	 4,37980754556863E-02 
362	 3,91481940691247E-02 
363	 5,25603367685048E-02 
364	 3,42328607665311E-02 
365	-5,72245217133381E-03 
366	 9,22409608184196E-03 
367	 3,23716125616668E-02 
368	 3,37986277757123E-02 
369	 3,69389143146141E-02 
370	 3,44256860529702E-02 
371	 7,4381274506927E-03 
372	 9,01479271743142E-04 
373	 2,05634348384536E-02 
374	 3,14497772352647E-02 
375	 0,020583512161637 
376	-1,63513181549181E-02 
377	-1,84669672431121E-02 
378	 7,8178510785385E-03 
379	 2,38457600709339E-02 
380	 2,90988611420248E-02 
381	 2,42127786750773E-02 
382	 1,47768525122973E-02 
383	 1,09453966646451E-02 
384	 2,17536653536734E-02 
385	 3,01189664295155E-02 
386	 0,030429271593314 
387	 1,71056462009787E-02 
388	 1,11669783066774E-02 
389	 1,97774802610774E-02 
390	 2,74071030698682E-02 
391	 3,23011507993507E-02 
392	 3,37859774578618E-02 
393	 2,70901983137674E-02 
394	 1,71140414885854E-02 
395	 2,11580181067908E-02 
396	 2,94880031153167E-02 
397	 0,035854041530761 
398	 3,16019742372427E-02 
399	 1,86700312214492E-02 
400	-3,84262023979053E-04 
401	-1,24731207699174E-03 
402	 1,45616231302303E-02 
403	 0,015291609455905 
404	 1,72518506429116E-02 
405	 2,91695528067051E-02 
406	 1,74283499004118E-02 
407	-1,21946526719026E-03 
408	 1,81048605169924E-02 
409	 2,48441024496648E-02 
410	 1,13563346329063E-02 
411	 0,012237083214114 
412	 1,79507084957977E-02 
413	 0,017897723185154 
414	 1,14554314451258E-02 
415	 2,9890139577725E-03 
416	 4,4420831143373E-03 
417	 4,33874691961344E-03 
418	 4,95066965276999E-04 
419	 9,31058952899271E-03 
420	 2,00613238507107E-02 
421	 1,80163323331269E-02 
422	 1,32463412400858E-02 
423	 9,62359399291764E-03 
424	 1,15547036983882E-02 
425	 1,05828966115514E-02 
426	 2,97723649575501E-03 
427	 3,59716308891138E-03 
428	 9,02577442382756E-03 
429	 9,94706190674301E-03 
430	 1,04639246771682E-02 
431	 1,14759330967989E-02 
432	 1,27574218538696E-02 
433	 0,012778140964162 
434	 1,05273590254591E-02 
435	 1,14138305684818E-02 
436	 1,47618979948978E-02 
437	 1,68487599459739E-02 
438	 1,64548903966356E-02 
439	 1,37033447288671E-02 
440	 1,34421247842275E-02 
441	 1,45162930551127E-02 
442	 1,49459707662184E-02 
443	 1,15892764480768E-02 
444	 6,84130224048485E-03 
445	 1,12418489985572E-02 
446	 1,67018772735621E-02 
447	 1,79452416435361E-02 
448	 1,55224593179121E-02 
449	 1,23373987236936E-02 
450	 1,36971849179141E-02 
451	 1,39625014502168E-02 
452	 1,20841028587185E-02 
453	 1,13210875439301E-02 
454	 1,22119215206768E-02 
455	 1,47972794880195E-02 
456	 1,31384376299255E-02 
457	 9,53374491896052E-03 
458	 1,35206991760916E-02 
459	 1,58908063219287E-02 
460	 1,34037742579836E-02 
461	 1,21361912129146E-02 
462	 1,21070461710366E-02 
463	 1,25313090610682E-02 
464	 1,29275539440497E-02 
465	 1,33300145542213E-02 
466	 1,46533876568309E-02 
467	 1,52791321430009E-02 
468	 1,44574051597233E-02 
469	 1,59696311092685E-02 
470	 1,77303153512128E-02 
471	 1,44254569077877E-02 
472	 1,25191513331631E-02 
473	 1,36710394417587E-02 
474	 1,49114088172514E-02 
475	 1,52238888036313E-02 
476	 1,38594246088497E-02 
477	 1,25836543238758E-02 
478	 1,17564522154206E-02 
479	 1,10644984876672E-02 
480	 1,10798347784965E-02 
481	 0,01181025503242 
482	 1,13702859359926E-02 
483	 1,09569850379758E-02 
484	 1,26537600385392E-02 
485	 1,37871002515271E-02 
486	 1,35373768830723E-02 
487	 0,011343191130032 
488	 1,10318999842859E-02 
489	 1,49792752283404E-02 
490	 1,62952679298817E-02 
491	 1,48867379699117E-02 
492	 1,29691071724096E-02 
493	 1,22875435734558E-02 
494	 1,32024825713625E-02 
495	 1,31596709433714E-02 
496	 0,012052254549429 
497	 1,00478623239732E-02 
498	 1,12358595897678E-02 
499	 1,42093426264776E-02 
500	 1,14825408947748E-02 
501	 9,92378835131948E-03 
502	 0,012872793417925 
503	 1,37422968026396E-02 
504	 1,27179960352203E-02 
505	 1,15234744959204E-02 
506	 0,011567671142348 
507	 1,26289029788252E-02 
508	 1,12785857252364E-02 
509	 9,88159518113445E-03 
510	 1,06645476827451E-02 
511	 1,23541046200126E-02 
512	 1,39092542089612E-02 
513	 1,34662482255585E-02 
514	 1,24830275699532E-02 
515	 1,19376269445929E-02 
516	 1,35669239986817E-02 
517	 1,53962388448237E-02 
518	 1,45266120075882E-02 
519	 1,38599153657952E-02 
520	 1,38204808410491E-02 
521	 1,29065769216724E-02 
522	 0,012479686497301 
523	 1,33792178569271E-02 
524	 0,013346239600355 
525	 1,27419958856135E-02 
526	 1,33360737838643E-02 
527	 1,32749554604339E-02 
528	 1,22892385618159E-02 
529	 1,24800480522173E-02 
530	 0,013032297977126 
531	 1,28511456044379E-02 
532	 1,25285926516092E-02 
533	 0,012291623787292 
534	 1,23627286296133E-02 
535	 1,27489519106618E-02 
536	 1,33892845200194E-02 
537	 1,39316642544953E-02 
538	 1,39272898756115E-02 
539	 1,25648296638796E-02 
540	 1,20444315540661E-02 
541	 1,27973045433308E-02 
542	 1,31924511978474E-02 
543	 1,31756853474895E-02 
544	 1,27927099055629E-02 
545	 1,23010611141538E-02 
546	 1,18526803349794E-02 
547	 1,15288889098336E-02 
548	 1,17551078158937E-02 
549	 1,25694360579609E-02 
550	 1,26891712618876E-02 
551	 1,24297351324306E-02 
552	 1,25285228669923E-02 
553	 1,25410811286466E-02 
554	 1,23453319281303E-02 
555	 1,19195063886507E-02 
556	 1,14256675239596E-02 
557	 1,10892676198182E-02 
558	 1,20961791885986E-02 
559	 1,35691126535753E-02 
560	 1,27448347772559E-02 
561	 1,24375863733815E-02 
562	 1,34475666484755E-02 
563	 0,013326205957123 
564	 1,26015373362249E-02 
565	 1,22462482045668E-02 
566	 1,21217917345085E-02 
567	 1,23429878593822E-02 
568	 1,34596728879906E-02 
569	 1,39158080804764E-02 
570	 1,28182724564876E-02 
571	 0,012827570706463 
572	 1,37097862423979E-02 
573	 1,40977743539516E-02 
574	 1,38142832694209E-02 
575	 1,31383011544094E-02 
576	 1,43128554734069E-02 
577	 1,52179284429013E-02 
578	 1,34165745980193E-02 
579	 1,38656912947889E-02 
580	 1,61689751519821E-02 
581	 1,54057222318154E-02 
582	 1,44649587465529E-02 
583	 1,48834820538527E-02 
584	 1,50145177866317E-02 
585	 1,50386833524944E-02 
586	 1,56414512076958E-02 
587	 1,60969904666266E-02 
588	 1,62496015390852E-02 
589	 1,66024443030117E-02 
590	 1,65339007705269E-02 
591	 1,55348814547272E-02 
592	 1,52721817223524E-02 
593	 1,57130107669769E-02 
594	 0,015791881763562 
595	 1,58702232768183E-02 
596	 1,60985207594892E-02 
597	 1,65494039301789E-02 
598	 1,68796720553351E-02 
599	 1,65797877128998E-02 
600	 1,62156387867904E-02 
601	 1,60730828990846E-02 
602	 1,66099189997105E-02 
603	 1,68063817515305E-02 
604	 1,59468166767272E-02 
605	 1,56330426928246E-02 
606	 1,57949244632918E-02 
607	 1,55287638125055E-02 
608	 1,54043469511733E-02 
609	 0,015505997304412 
610	 1,51161581417213E-02 
611	 0,014735052574368 
612	 1,50383919729688E-02 
613	 1,47038116496693E-02 
614	 1,39068178597353E-02 
615	 1,43847943995705E-02 
616	 1,47534340629938E-02 
617	 1,42135376986984E-02 
618	 1,41072971453258E-02 
619	 1,42772264438353E-02 
620	 1,39534009763261E-02 
621	 1,43214086396174E-02 
622	 1,53249696165515E-02 
623	 1,48053292393809E-02 
624	 1,39109513637616E-02 
625	 1,39505090918855E-02 
626	 1,45567181931598E-02 
627	 1,52938467590883E-02 
628	 0,015108030376933 
629	 1,49876849175028E-02 
630	 1,53434631456972E-02 
631	 0,015132965414866 
632	 1,48606107610851E-02 
633	 1,55215422857255E-02 
634	 1,62419423670051E-02 
635	 1,66195962990607E-02 
636	 1,61163947287985E-02 
637	 1,58243046498927E-02 
638	 1,66162416004772E-02 
639	 1,71362654259832E-02 
640	 1,72187421602585E-02 
641	 1,70910705815773E-02 
642	 1,70819748659997E-02 
643	 1,72572994295853E-02 
644	 1,68601665387037E-02 
645	 1,67368451329868E-02 
646	 1,80530295126948E-02 
647	 1,85904372791519E-02 
648	 1,81335134102668E-02 
649	 1,80608272068046E-02 
650	 1,81302224197351E-02 
651	 1,81416803998797E-02 
652	 1,77183266417628E-02 
653	 0,017121792268369 
654	 1,69720301399377E-02 
655	 1,69543972864206E-02 
656	 1,69674315666384E-02 
657	 1,70732036357524E-02 
658	 1,69672207970041E-02 
659	 1,63585434555023E-02 
660	 0,015790026122443 
661	 1,54015178771366E-02 
662	 1,51744598990077E-02 
663	 1,50849822541889E-02 
664	 1,50314838497609E-02 
665	 1,44504266969032E-02 
666	 1,37543716544669E-02 
667	 1,36631638466693E-02 
668	 1,37956296195077E-02 
669	 0,013995248320348 
670	 1,40202039626809E-02 
671	 1,43651562969149E-02 
672	 0,015296007370541 
673	 1,49800955911558E-02 
674	 1,40073061828573E-02 
675	 0,014644725389934 
676	 1,48955048292392E-02 
677	 1,42068094623542E-02 
678	 1,37065546235413E-02 
679	 1,37259109073735E-02 
680	 1,45222513944214E-02 
681	 1,49603932004198E-02 
682	 1,49507726781694E-02 
683	 1,52267500799954E-02 
684	 1,54626618073684E-02 
685	 1,54772190813681E-02 
686	 1,53253192324691E-02 
687	 1,53556778001758E-02 
688	 1,61368028624909E-02 
689	 1,71910629650319E-02 
690	 1,82435972589618E-02 
691	 1,88765188296253E-02 
692	 1,94689677133978E-02 
693	 2,04020537472409E-02 
694	 2,18173514914487E-02 
695	 2,37002079016555E-02 
696	 2,58699982516398E-02 
697	 2,85082651659116E-02 
698	 3,16251659563807E-02 
699	 3,47898824659245E-02 
700	 3,84406816544992E-02 
701	 4,31759129574043E-02 
702	 4,75592114506012E-02 
703	 5,15846442734138E-02 
704	 5,65128871712313E-02 
705	 6,19438746219852E-02 
706	 6,75073045007206E-02 
707	 7,24633332182586E-02 
708	 7,70879812848466E-02 
709	 0,082094850205487 
710	 8,71612369250585E-02 
711	 9,20968726271171E-02 
712	 9,65008009695492E-02 
713	 0,100696634298364 
714	 0,10498765823021 
715	 0,108780654845349 
716	 0,112266765485448 
717	 0,116239537154639 
718	 0,120065716452482 
719	 0,123445548106325 
720	 0,126305143990132 
721	 0,128807176838796 
722	 0,131183924179759 
723	 0,13391245812324 
724	 0,136738643357589 
725	 0,138390118374954 
726	 0,139963404841798 
727	 0,142071809638675 
728	 0,143809204434719 
729	 0,14510596606404 
730	 0,146035574693646 
731	 0,14705160915153 
732	 0,148263491064004 
733	 0,14935851105247 
734	 0,150418270747168 
735	 0,151488923811048 
736	 0,15210699657626 
737	 0,152447799606812 
738	 0,153103233562696 
739	 0,153974944881305 
740	 0,154889516164449 
741	 0,155021624473241 
742	 0,155069605307648 
743	 0,155894693544578 
744	 0,156354877590186 
745	 0,156491180853761 
746	 0,157288888103944 
747	 0,157917418123134 
748	 0,157994596667898 
749	 0,158204927188044 
750	 0,158498304489318 
751	 0,158666201353213 
752	 0,158876849767893 
753	 0,159148637438416 
754	 0,159352772738485 
755	 0,159628518863317 
756	 0,160066113679777 
757	 0,160537667607028 
758	 0,160874594522191 
759	 0,160766531739278 
760	 0,160804872524098 
761	 0,161153424915009 
762	 0,161552846063094 
763	 0,161807413629034 
764	 0,161760142329704 
765	 0,161711823302679 
766	 0,161702027878198 
767	 0,161600370461749 
768	 0,161771323107243 
769	 0,162296549488233 
770	 0,162724488058942 
771	 0,163044154038308 
772	 0,163293067458755 
773	 0,163374129665064 
774	 0,1633315135577 
775	 0,16334062984816 
776	 0,163375264527568 
777	 0,163419336193569 
778	 0,163396174369416 
779	 0,163429603771934 
780	 0,163705265697781 
781	 0,164098560569095 
782	 0,164455086381671 
783	 0,164367360334847 
784	 0,16438520007481 
785	 0,164792149671804 
786	 0,164656516923468 
787	 0,164345558250242 
788	 0,164753971956322 
789	 0,164935817098924 
790	 0,164756593379836 
791	 0,164905164966072 
792	 0,165091914976674 
793	 0,165102862331165 
794	 0,165417186443376 
795	 0,16576669395199 
796	 0,165373354014707 
797	 0,165376818480029 
798	 0,165922960461904 
799	 0,165696659924413 
800	 0,165448627073561 
801	 0,165894457599546 
802	 0,166080577220213 
803	 0,166043168555176 
804	 0,166355467162759 
805	 0,166566049279871 
806	 0,166577812283365 
807	 0,166775939631349 
808	 0,167057720728439 
809	 0,167280181764078 
810	 0,167353093323879 
811	 0,167408343953812 
812	 0,16786765397676 
813	 0,168372615125422 
814	 0,168682616714848 
815	 0,168392751634831 
816	 0,168142968897804 
817	 0,168696407006393 
818	 0,168703824740106 
819	 0,168379843289386 
820	 0,169358398177764 
821	 0,170120755415493 
822	 0,169963919844203 
823	 0,169453489908506 
824	 0,169104755028226 
825	 0,169485363145634 
826	 0,16995829770631 
827	 0,17023486491211 
828	 0,169935242879507 
829	 0,16978955188317 
830	 0,170132838861535 
831	 0,170386325086965 
832	 0,170401829855488 
833	 0,170076121194447 
834	 0,170462526058354 
835	 0,171307511625299 
836	 0,170883768029156 
837	 0,170350354695178 
838	 0,170392250158759 
839	 0,17102724972125 
840	 0,171695724298639 
841	 0,171625996430828 
842	 0,171296943134813 
843	 0,171099567470392 
844	 0,17197298068853 
845	 0,172280179509933 
846	 0,171359143249047 
847	 0,171466867792133 
848	 0,172039050299108 
849	 0,171926572796749 
850	 0,17195033275077 
851	 0,172123034328799 
852	 0,171824426042419 
853	 0,171667805132592 
854	 0,171904949955825 
855	 0,171759201217835 
856	 0,171558856026582 
857	 0,171855263675982 
858	 0,172288947067896 
859	 0,172581475377137 
860	 0,172137293694261 
861	 0,171785386288338 
862	 0,171956691898814 
863	 0,172243560176871 
864	 0,172699121193392 
865	 0,173427458244894 
866	 0,173731298340506 
867	 0,173591669329181 
868	 0,173464468056135 
869	 0,173610281175729 
870	 0,17404185973659 
871	 0,17389361388212 
872	 0,17356142385583 
873	 0,173627533885698 
874	 0,174390575739333 
875	 0,175378165347434 
876	 0,175104684997223 
877	 0,174572573974289 
878	 0,174320867922002 
879	 0,174677507939079 
880	 0,175392679896223 
881	 0,176117368822311 
882	 0,176225697806623 
883	 0,175916696642224 
884	 0,17608939057942 
885	 0,176253608607987 
886	 0,176210518289767 
887	 0,175714392181306 
888	 0,175632382165512 
889	 0,176666953453892 
890	 0,17698553733088 
891	 0,176788354455742 
892	 0,177339203532678 
893	 0,177358132698369 
894	 0,176739112373111 
895	 0,176900181220858 
896	 0,177034867811207 
897	 0,176586482841644 
898	 0,176793565943782 
899	 0,177572814649826 
900	 0,178468627872249 
901	 0,178648375644143 
902	 0,178319610080698 
903	 0,179439787588472 
904	 0,180003215979748 
905	 0,178918577253012 
906	 0,178062582065583 
907	 0,177648178997551 
908	 0,177607726808445 
909	 0,178470460675266 
910	 0,179602337569712 
911	 0,178653422510688 
912	 0,178158905993328 
913	 0,179126608532315 
914	 0,179798448861018 
915	 0,179915043283716 
916	 0,179399071388131 
917	 0,178924886416045 
918	 0,178649162390921 
919	 0,178468839246268 
920	 0,17869661549822 
921	 0,179210356781624 
922	 0,178997123795391 
923	 0,178499249373374 
924	 0,178177464957123 
925	 0,178366688550663 
926	 0,17874846815601 
927	 0,178669586447045 
928	 0,178042990996335 
929	 0,177261036702566 
930	 0,177884300569043 
931	 0,178285474934894 
932	 0,177605533170915 
933	 0,17716186101351 
934	 0,176761935465335 
935	 0,175991532414119 
936	 0,175314947229252 
937	 0,174750434567292 
938	 0,173818703494228 
939	 0,174148923452864 
940	 0,175750360606023 
941	 0,175363806376568 
942	 0,174349330708971 
943	 0,174018660812874 
944	 0,173149034014372 
945	 0,171893776548957 
946	 0,170859092947732 
947	 0,170023719213255 
948	 0,169291745087938 
949	 0,168310836090135 
950	 0,16715989303831 
951	 0,166004439208181 
952	 0,165592313400964 
953	 0,165201571236801 
954	 0,163918052979627 
955	 0,162896530243746 
956	 0,162136896239437 
957	 0,160725605189878 
958	 0,161289204379581 
959	 0,163478079837246 
960	 0,161344432500957 
961	 0,159200044205572 
962	 0,160076398697402 
963	 0,158897329572421 
964	 0,157210002532931 
965	 0,158342593289344 
966	 0,160554608821681 
967	 0,161944217239236 
968	 0,157886080979694 
969	 0,155658502884534 
970	 0,157727478110364 
971	 0,158393762024395 
972	 0,158735459026158 
973	 0,159769573565245 
974	 0,158087144754688 
975	 0,155991384054585 
976	 0,158516420417951 
977	 0,159594081967847 
978	 0,158273144949732 
979	 0,157279575221041 
980	 0,157271053173144 
981	 0,158523599849126 
982	 0,160367934067909 
983	 0,160790725905898 
984	 0,158234671878981 
985	 0,15809847729555 
986	 0,15994750590539 
987	 0,160851594276888 
988	 0,161986671854582 
989	 0,163153304116813 
990	 0,162950798652516 
991	 0,161694574684672 
992	 0,160203263512526 
993	 0,161945437681734 
994	 0,164168734233189 
995	 0,163914125227347 
996	 0,164399786862647 
997	 0,165179649459446 
998	 0,16420083380987 
999	 0,165769768220349 
1000	 0,169325279947084 
1001	 0,168648983436068 
1002	 0,166738577815995 
1003	 0,165812842322703 
1004	 0,168754877906236 
1005	 0,172482031876469 
1006	 0,173578490969961 
1007	 0,171285371480575 
1008	 0,167796318976355 
1009	 0,167077803013899 
1010	 0,168987227557762 
1011	 0,17210994135903 
1012	 0,172095045472615 
1013	 0,171352632798602 
1014	 0,171017477654198 
1015	 0,170743351645114 
1016	 0,172682572431697 
1017	 0,177821918029661 
1018	 0,179654737095772 
1019	 0,178082522544326 
1020	 0,174624489987311 
1021	 0,173628064054172 
1022	 0,176031272049189 
1023	 0,181388627170937 
1024	 0,18246012703302 
1025	 0,178865674862417 
1026	 0,18204675702601 
1027	 0,18514810106817 
1028	 0,183808050583043 
1029	 0,182302038416824 
1030	 0,182076969655101 
1031	 0,183969071131947 
1032	 0,182719651650723 
1033	 0,179484300587833 
1034	 0,178756110591494 
1035	 0,179891264122142 
1036	 0,182109062939716 
1037	 0,182921066281581 
1038	 0,18533368003515 
1039	 0,189380279867573 
1040	 0,188591399995626 
1041	 0,187073195318568 
1042	 0,188257213967266 
1043	 0,188344903563124 
1044	 0,188091375302127 
1045	 0,189022004189289 
1046	 0,187524595453445 
1047	 0,185694912179278 
1048	 0,190242715325536 
1049	 0,191607023592517 
1050	 0,189511469020759 
1051	 0,195197665965169 
1052	 0,200959001760618 
1053	 0,202324359726783 
1054	 0,19750522390953 
1055	 0,193295277204563 
1056	 0,195211204423477 
1057	 0,196791415680693 
1058	 0,192917577067233 
1059	 0,179182476330466 
1060	 0,184509152899597 
1061	 0,200265960583226 
1062	 0,194054288503291 
1063	 0,190714197700459 
1064	 0,195725974297702 
1065	 0,201534083466331 
1066	 0,202962752990532 
1067	 0,199590496898202 
1068	 0,203325397108631 
1069	 0,204018575690647 
1070	 0,196162920853142 
1071	 0,203628995175622 
1072	 0,208518463360382 
1073	 0,189615058021992 
1074	 0,194912338799269 
1075	 0,215722573852929 
