Wavelength	GRA-VAN00352.asd
325	 0,125520510923558 
326	 0,251975147656669 
327	 0,332025007600502 
328	 0,23908843137004 
329	 2,78285699016266E-02 
330	-4,01156502204842E-02 
331	 0,297641107691638 
332	 0,340723693765151 
333	 0,233145158627975 
334	 6,57412412166478E-02 
335	-7,60181959477944E-04 
336	 9,39329505703115E-02 
337	 0,159375514226391 
338	 0,134417985123089 
339	-4,28684080827994E-02 
340	 0,043589023904062 
341	 0,214864515973179 
342	 2,87452421802208E-02 
343	-4,35550049871033E-02 
344	 9,66013654081399E-02 
345	 8,44998049496817E-02 
346	 4,39256011318778E-02 
347	 0,103226126851494 
348	 7,33521118748711E-02 
349	-2,60320895304571E-02 
350	-5,79100538572093E-02 
351	-1,28017560139238E-02 
352	 7,38142391159633E-02 
353	 0,091764900249327 
354	 6,52828210865929E-02 
355	 2,46442307546538E-02 
356	 2,08213394055684E-02 
357	 4,75005367121184E-02 
358	 6,25753475585034E-02 
359	 5,47180894006461E-02 
360	 2,56952790013431E-02 
361	 2,52283867541215E-02 
362	 3,38600580262516E-02 
363	 0,019740813384851 
364	 2,84816952884438E-02 
365	 0,056912741792676 
366	 4,75077292680711E-02 
367	 5,31825447956725E-02 
368	 9,44197515288439E-02 
369	 6,72267691819563E-02 
370	 6,19531726285611E-03 
371	-1,07383489147413E-02 
372	 4,36418829114976E-03 
373	 3,37706595112926E-02 
374	 2,92775621807843E-02 
375	 0,022751357038302 
376	 3,64835010279036E-02 
377	 2,25899998736401E-02 
378	-3,62427421713232E-03 
379	 9,59913951642145E-03 
380	 1,75206974463195E-02 
381	 1,21928831502616E-02 
382	 2,38322131975616E-02 
383	 3,33448406025611E-02 
384	 2,44386252418777E-02 
385	 4,15305301615778E-02 
386	 6,32547208182247E-02 
387	 1,45655559389463E-02 
388	-1,56960037861113E-02 
389	 6,50055408173545E-03 
390	 2,62815453966914E-02 
391	 3,64311892726072E-02 
392	 3,45170267536837E-02 
393	 2,92834224095751E-02 
394	 2,27545922873375E-02 
395	 1,09126269439632E-02 
396	 9,54237939082395E-03 
397	 2,42173693881865E-02 
398	 3,74008543436808E-02 
399	 3,64998879142312E-02 
400	 5,12220595904734E-03 
401	 4,92750969407338E-04 
402	 2,38387419038016E-02 
403	 2,35169129044585E-02 
404	 1,09405369519408E-02 
405	-3,03575192998982E-03 
406	 2,65403279077963E-03 
407	 1,74149827148612E-02 
408	 1,60225794676962E-02 
409	 1,70537122334438E-02 
410	 0,022142853197203 
411	 1,34675384606712E-02 
412	 6,44119707722246E-03 
413	 1,50797141602858E-02 
414	 1,80880043671948E-02 
415	 1,45710284531878E-02 
416	 1,19426164657053E-02 
417	 1,00158226471547E-02 
418	 9,63633313602689E-03 
419	 1,38917610284784E-02 
420	 1,98208776412176E-02 
421	 2,39459740024138E-02 
422	 2,25871616545691E-02 
423	 1,68810712177587E-02 
424	 1,29043854140119E-02 
425	 1,18726270217315E-02 
426	 1,42305164102259E-02 
427	 1,75648074682698E-02 
428	 1,91261251376692E-02 
429	 1,52296506490781E-02 
430	 8,92667369843089E-03 
431	 2,77612213008886E-03 
432	 1,99970172046963E-03 
433	 5,91635849141526E-03 
434	 1,29243692828117E-02 
435	 1,25417669252709E-02 
436	 7,3947285184401E-03 
437	 1,00591583094326E-02 
438	 9,73619970504914E-03 
439	 3,99784403667786E-03 
440	 3,98937466762756E-03 
441	 8,39149282565784E-03 
442	 1,42076757147902E-02 
443	 1,61603548978528E-02 
444	 1,39014314541879E-02 
445	 1,11100937434745E-02 
446	 9,7789875404546E-03 
447	 1,09475825056634E-02 
448	 1,13087740752457E-02 
449	 0,010688580616582 
450	 9,5292089645781E-03 
451	 1,02601570438358E-02 
452	 1,26611538686078E-02 
453	 1,23418489901615E-02 
454	 0,01013250209236 
455	 7,40548096775214E-03 
456	 1,16088023389688E-02 
457	 1,83794819725992E-02 
458	 1,22777592946376E-02 
459	 7,91716041658338E-03 
460	 1,06285399462887E-02 
461	 1,10044910826506E-02 
462	 9,28129129306586E-03 
463	 6,91436535120637E-03 
464	 5,30417190171707E-03 
465	 5,63099789629508E-03 
466	 1,02952357352956E-02 
467	 1,38512637798244E-02 
468	 1,30273151724476E-02 
469	 1,35761273392601E-02 
470	 1,42370184900054E-02 
471	 1,03519735263674E-02 
472	 0,010183876024903 
473	 1,46003788610649E-02 
474	 1,40746571187436E-02 
475	 0,012143671590299 
476	 1,27398060992079E-02 
477	 1,33002216637554E-02 
478	 1,33463070718907E-02 
479	 1,27652553724886E-02 
480	 1,29374891122053E-02 
481	 1,40904512629476E-02 
482	 1,29221027460223E-02 
483	 1,07686516693891E-02 
484	 1,00044866780592E-02 
485	 1,02944825786092E-02 
486	 1,10809505231905E-02 
487	 1,03352473596365E-02 
488	 1,02909391872711E-02 
489	 1,23019404667178E-02 
490	 1,14615626180657E-02 
491	 9,23669191601012E-03 
492	 1,08043740564134E-02 
493	 1,19897027466085E-02 
494	 1,17184305047761E-02 
495	 1,26627260363894E-02 
496	 1,29185835757186E-02 
497	 1,02422047905305E-02 
498	 8,91135239364239E-03 
499	 9,74017570125667E-03 
500	 1,21779941602241E-02 
501	 1,34935499828496E-02 
502	 1,23001868240983E-02 
503	 1,13433041290376E-02 
504	 1,10850656819101E-02 
505	 1,15892490970804E-02 
506	 1,25372256006268E-02 
507	 1,35005968650806E-02 
508	 1,35663706626595E-02 
509	 1,26565909700295E-02 
510	 1,08617385303973E-02 
511	 9,89361745309304E-03 
512	 9,98737537848563E-03 
513	 0,010720488585508 
514	 1,17025595626751E-02 
515	 1,25769981270025E-02 
516	 1,27603674348314E-02 
517	 1,25198416123514E-02 
518	 0,012294382560361 
519	 1,24404713311273E-02 
520	 1,28159807487713E-02 
521	 1,25345155671237E-02 
522	 1,19922586567832E-02 
523	 1,15592064931973E-02 
524	 1,16608882369866E-02 
525	 1,23416521764549E-02 
526	 0,013848399608264 
527	 1,38895182087064E-02 
528	 1,20306501716403E-02 
529	 1,07603544097283E-02 
530	 1,03732320246363E-02 
531	 0,010926083775705 
532	 1,16047577752548E-02 
533	 1,18083515240962E-02 
534	 1,03158390218785E-02 
535	 9,52067239350162E-03 
536	 1,06254776690107E-02 
537	 1,07894600683568E-02 
538	 1,03768978611759E-02 
539	 0,010701403694202 
540	 1,18692869830687E-02 
541	 1,34026425127392E-02 
542	 1,30558691383844E-02 
543	 1,19899460494202E-02 
544	 1,14718193686431E-02 
545	 1,15178181651233E-02 
546	 1,18631439370495E-02 
547	 1,16827707296773E-02 
548	 0,011460332288043 
549	 1,14435718930097E-02 
550	 1,17160218040153E-02 
551	 1,18807180472808E-02 
552	 1,13002467528111E-02 
553	 1,10322893739486E-02 
554	 1,11348344888837E-02 
555	 1,03693895714435E-02 
556	 1,00732798731928E-02 
557	 1,12592335121497E-02 
558	 1,19449714039592E-02 
559	 1,19445890825085E-02 
560	 1,18179296952101E-02 
561	 1,13349607792374E-02 
562	 1,06653397630116E-02 
563	 1,11590714991904E-02 
564	 0,011857904357117 
565	 1,13672221859608E-02 
566	 1,09394665576421E-02 
567	 1,07730507261122E-02 
568	 1,03158525997145E-02 
569	 1,01004491156212E-02 
570	 1,04800650926246E-02 
571	 1,10969875545192E-02 
572	 1,15455591781723E-02 
573	 1,09905683622194E-02 
574	 1,12286151050107E-02 
575	 1,26081418066133E-02 
576	 1,32919815400176E-02 
577	 1,35120606730577E-02 
578	 1,36802020840576E-02 
579	 1,36494099215648E-02 
580	 1,35164640650716E-02 
581	 0,013595764146042 
582	 1,36296702420976E-02 
583	 1,35722665021082E-02 
584	 1,42873952606296E-02 
585	 1,51835188498991E-02 
586	 1,50554633664083E-02 
587	 1,48281088882452E-02 
588	 1,48642395804163E-02 
589	 1,53894845379345E-02 
590	 0,016021566825007 
591	 1,63782411096317E-02 
592	 1,63347862719203E-02 
593	 1,60686881541433E-02 
594	 1,61398188396073E-02 
595	 1,61446275309211E-02 
596	 1,59654774673184E-02 
597	 1,61605247133516E-02 
598	 1,62413954809089E-02 
599	 1,53840872339421E-02 
600	 1,50518905522838E-02 
601	 1,54027702486016E-02 
602	 0,015289131684754 
603	 1,51321899339732E-02 
604	 1,52218620459095E-02 
605	 1,46607041333925E-02 
606	 1,39243319391971E-02 
607	 0,014630164236854 
608	 1,48597492385213E-02 
609	 1,40792282163111E-02 
610	 0,01371142657322 
611	 1,37956088943131E-02 
612	 1,42190488134974E-02 
613	 0,014073163738248 
614	 1,33939409290164E-02 
615	 1,31144092204967E-02 
616	 1,30498243436972E-02 
617	 1,30833268517981E-02 
618	 1,32177400240579E-02 
619	 0,013343699629576 
620	 0,013292432677539 
621	 1,30365830960995E-02 
622	 1,26977484702889E-02 
623	 1,28524028406904E-02 
624	 1,31889807046792E-02 
625	 1,33556797901295E-02 
626	 1,36089324485126E-02 
627	 1,38317576659626E-02 
628	 1,35318946039599E-02 
629	 1,33583790953097E-02 
630	 0,013586128558765 
631	 1,35012675941932E-02 
632	 1,33675564740104E-02 
633	 1,37505627486881E-02 
634	 1,39983250327051E-02 
635	 1,40198279140024E-02 
636	 1,42993394475385E-02 
637	 1,45155542832241E-02 
638	 1,44566059327204E-02 
639	 0,015290473749425 
640	 1,64118293842388E-02 
641	 1,57154785435031E-02 
642	 1,52570222753287E-02 
643	 1,57603760106983E-02 
644	 1,60633481872095E-02 
645	 1,64325156869008E-02 
646	 1,73473012663324E-02 
647	 0,017378638441908 
648	 1,64768096182133E-02 
649	 1,57354524770959E-02 
650	 1,54064801541875E-02 
651	 1,55941392409087E-02 
652	 1,54271076196198E-02 
653	 1,51322941757215E-02 
654	 1,55120302646509E-02 
655	 1,56318663772495E-02 
656	 1,51561460801935E-02 
657	 0,014092257449107 
658	 1,32159056012721E-02 
659	 1,32880830399466E-02 
660	 1,32121007766747E-02 
661	 1,28453315820651E-02 
662	 0,012531860908988 
663	 1,21512956692419E-02 
664	 1,17152704439448E-02 
665	 1,16935687028361E-02 
666	 1,17526969656629E-02 
667	 1,12947708564124E-02 
668	 1,08420504386283E-02 
669	 1,06609735378117E-02 
670	 0,011158292840303 
671	 1,16508364362151E-02 
672	 1,15999816284312E-02 
673	 1,15507210702708E-02 
674	 0,011642046716118 
675	 0,012072854787034 
676	 1,19914173843216E-02 
677	 1,12721003244631E-02 
678	 1,11130833263159E-02 
679	 1,14814616775728E-02 
680	 1,21953879605125E-02 
681	 1,22737850753001E-02 
682	 1,18951613365021E-02 
683	 1,24952140984939E-02 
684	 1,30981051183975E-02 
685	 1,31330521973959E-02 
686	 1,29018273655847E-02 
687	 1,28113710640268E-02 
688	 1,35245019667443E-02 
689	 1,39304408353007E-02 
690	 1,39238842366625E-02 
691	 1,45167252588671E-02 
692	 1,57525605667482E-02 
693	 1,75841756701203E-02 
694	 1,92486133866701E-02 
695	 2,08330511344396E-02 
696	 2,29658414972347E-02 
697	 2,53541630358213E-02 
698	 2,80216443490666E-02 
699	 3,16037946912573E-02 
700	 3,59767407941953E-02 
701	 0,040892807921041 
702	 4,58272334935319E-02 
703	 0,050757721713491 
704	 5,61253081817858E-02 
705	 6,21603068863313E-02 
706	 6,88737334940575E-02 
707	 7,51922101334904E-02 
708	 8,13129265880815E-02 
709	 8,78728471443668E-02 
710	 9,46295612021801E-02 
711	 0,101460194485468 
712	 0,108141974584448 
713	 0,114634703120744 
714	 0,12091332867015 
715	 0,127095681938956 
716	 0,133199855734202 
717	 0,139267975627416 
718	 0,144825470878839 
719	 0,149695359649048 
720	 0,154095643381487 
721	 0,158402955980478 
722	 0,163062412504169 
723	 0,167365494117114 
724	 0,171179646527931 
725	 0,174673040632987 
726	 0,177953378903305 
727	 0,18109301511028 
728	 0,183988351257873 
729	 0,186647024132851 
730	 0,189120763655186 
731	 0,191282084596828 
732	 0,193115020753094 
733	 0,194730692729068 
734	 0,196099330843761 
735	 0,197236541327477 
736	 0,19868390211347 
737	 0,20034184745169 
738	 0,201740078472211 
739	 0,202912249043092 
740	 0,203833514084967 
741	 0,204364377951686 
742	 0,205096475837 
743	 0,206679997910309 
744	 0,207573664660612 
745	 0,207720593230664 
746	 0,208053293398547 
747	 0,208681200350514 
748	 0,20959340987005 
749	 0,210061601989076 
750	 0,210314987245012 
751	 0,21084676179483 
752	 0,211344264005255 
753	 0,21175688735821 
754	 0,212247202643285 
755	 0,212556967850632 
756	 0,212534383808198 
757	 0,212610171848062 
758	 0,212825539640284 
759	 0,213099578756763 
760	 0,213459274594404 
761	 0,213861485817483 
762	 0,214123772310449 
763	 0,214322867282379 
764	 0,21453157564972 
765	 0,214550852691845 
766	 0,214495776766144 
767	 0,214746279328967 
768	 0,214999326523653 
769	 0,215166048111196 
770	 0,215466044858649 
771	 0,2158131686655 
772	 0,21608148478045 
773	 0,215969991472666 
774	 0,215671791440524 
775	 0,215995787742508 
776	 0,216246477616039 
777	 0,216119414201771 
778	 0,216176343533162 
779	 0,216397191881419 
780	 0,216667451904113 
781	 0,216595784998479 
782	 0,216323579764773 
783	 0,216803090818012 
784	 0,21712322076606 
785	 0,216776583120288 
786	 0,216924777443612 
787	 0,217310888780608 
788	 0,217169395081201 
789	 0,217233851087864 
790	 0,217626568261437 
791	 0,217984342202795 
792	 0,217995966826248 
793	 0,217475955587273 
794	 0,217048654874078 
795	 0,217001324977627 
796	 0,217741084306643 
797	 0,218047431589667 
798	 0,217651675276909 
799	 0,217571441422245 
800	 0,217576003205401 
801	 0,217434281533601 
802	 0,217690297215314 
803	 0,218139183899545 
804	 0,218012448393013 
805	 0,217895270569191 
806	 0,217983855957815 
807	 0,218116431871326 
808	 0,218208621492636 
809	 0,218196403414562 
810	 0,218410226931367 
811	 0,218869521628063 
812	 0,219479046347057 
813	 0,219849515683734 
814	 0,21982452789749 
815	 0,219675361682012 
816	 0,219612815366294 
817	 0,219840289413264 
818	 0,219901189092611 
819	 0,219843889076695 
820	 0,2201763156117 
821	 0,220345478920105 
822	 0,22014155191288 
823	 0,220032304369626 
824	 0,220092920782178 
825	 0,220351921927303 
826	 0,221048350484929 
827	 0,22185542995204 
828	 0,221650707815035 
829	 0,221332963751975 
830	 0,221329862068915 
831	 0,221075895609625 
832	 0,220761949371717 
833	 0,220710861353976 
834	 0,221105304740465 
835	 0,221708297904832 
836	 0,221584611948298 
837	 0,22163616788956 
838	 0,222196334851796 
839	 0,221934381602808 
840	 0,221416780706928 
841	 0,221630719877394 
842	 0,22183003387267 
843	 0,221833148311869 
844	 0,221687374850642 
845	 0,221445632272982 
846	 0,221223964981639 
847	 0,221549521063616 
848	 0,221921077828884 
849	 0,221568120761596 
850	 0,221615287902115 
851	 0,222026395948236 
852	 0,221752680052227 
853	 0,221289405436574 
854	 0,220945537483563 
855	 0,220814633359819 
856	 0,220885147960621 
857	 0,221109245867545 
858	 0,221378095328333 
859	 0,221551499989152 
860	 0,221312410286328 
861	 0,221162828186241 
862	 0,22131720762684 
863	 0,221307582670646 
864	 0,221078673538991 
865	 0,220639959443961 
866	 0,220931236008857 
867	 0,221812790504499 
868	 0,222179167567397 
869	 0,222262995410557 
870	 0,222238265122201 
871	 0,222673353777202 
872	 0,222864224974385 
873	 0,221971611720122 
874	 0,222223458924818 
875	 0,223271487702173 
876	 0,222572360818422 
877	 0,222217735978445 
878	 0,222935938717363 
879	 0,223538233278098 
880	 0,223851334195965 
881	 0,223831681907117 
882	 0,224487635316136 
883	 0,225302569592183 
884	 0,224268050541516 
885	 0,223836751458885 
886	 0,224578457902363 
887	 0,224467070283454 
888	 0,22390831480926 
889	 0,223439859360951 
890	 0,223436993884584 
891	 0,223933569989555 
892	 0,224878656211948 
893	 0,225246206973157 
894	 0,22493158896318 
895	 0,225272563130551 
896	 0,225644624697499 
897	 0,225551508227675 
898	 0,225474668025183 
899	 0,225367986708146 
900	 0,225005532299949 
901	 0,224956360884315 
902	 0,225169894388593 
903	 0,224740351576971 
904	 0,22457091596606 
905	 0,225120874457825 
906	 0,225332496291471 
907	 0,22516467679624 
908	 0,224761834787353 
909	 0,224786884706837 
910	 0,225230917778587 
911	 0,225483832427389 
912	 0,225723796856841 
913	 0,225824201596044 
914	 0,224675969750585 
915	 0,22337927329435 
916	 0,223248491141794 
917	 0,223976206755686 
918	 0,22496679164223 
919	 0,225086161458384 
920	 0,224113012675563 
921	 0,222418337668296 
922	 0,222110766497006 
923	 0,222467542068542 
924	 0,222734891168337 
925	 0,222693464864041 
926	 0,222240365546746 
927	 0,221303097639421 
928	 0,220665583390294 
929	 0,220443807149861 
930	 0,220174405727054 
931	 0,219289943851495 
932	 0,2177457178354 
933	 0,217816378311531 
934	 0,217933475738212 
935	 0,215865768405732 
936	 0,214785965749514 
937	 0,214773139857727 
938	 0,213963571841798 
939	 0,213094446862653 
940	 0,212403124449066 
941	 0,211916289795961 
942	 0,211019472711364 
943	 0,209307683773653 
944	 0,208578120388454 
945	 0,208093678863084 
946	 0,205924297393468 
947	 0,203948145573179 
948	 0,20285915611716 
949	 0,203196997098036 
950	 0,202442970738782 
951	 0,199593154791309 
952	 0,198619086312311 
953	 0,197699944504495 
954	 0,194335806414974 
955	 0,193493958626305 
956	 0,19430715086371 
957	 0,191701066896941 
958	 0,189982506099984 
959	 0,189919163774781 
960	 0,187970621824627 
961	 0,186160058237411 
962	 0,186106034848198 
963	 0,187068408691849 
964	 0,187737033834863 
965	 0,186373236748335 
966	 0,184606153736709 
967	 0,183254278605627 
968	 0,183224962858041 
969	 0,184011338643322 
970	 0,185064706313289 
971	 0,185150278365967 
972	 0,184130368527227 
973	 0,182289085444473 
974	 0,18304179023408 
975	 0,184676814887735 
976	 0,183066410659679 
977	 0,182756686357936 
978	 0,184088403251361 
979	 0,183764096193047 
980	 0,183458706606786 
981	 0,1839155981576 
982	 0,184499371235515 
983	 0,184665020088353 
984	 0,184052929330842 
985	 0,184634327777688 
986	 0,185797381844635 
987	 0,185592255863491 
988	 0,18639355460873 
989	 0,188185485711097 
990	 0,188579395798443 
991	 0,187965722368593 
992	 0,186869183603493 
993	 0,186935071064333 
994	 0,187819783597222 
995	 0,188971523277574 
996	 0,190441471336291 
997	 0,191483496164318 
998	 0,190756696055955 
999	 0,19058156518402 
1000	 0,191345079988762 
1001	 0,191774163130138 
1002	 0,192007549524957 
1003	 0,192412079996059 
1004	 0,194763314156486 
1005	 0,197065909978885 
1006	 0,197281899512883 
1007	 0,196133847747056 
1008	 0,194799462224165 
1009	 0,19499636982148 
1010	 0,197738616855339 
1011	 0,201359276466954 
1012	 0,199661218957892 
1013	 0,198255371651682 
1014	 0,199658894798778 
1015	 0,20295704916785 
1016	 0,205243405662739 
1017	 0,20447858566155 
1018	 0,204761551734215 
1019	 0,204906172641893 
1020	 0,202399474518052 
1021	 0,204635828007325 
1022	 0,209935340934126 
1023	 0,208385488035759 
1024	 0,208552985108576 
1025	 0,2124605460591 
1026	 0,216104187614643 
1027	 0,215625839826607 
1028	 0,209829696416678 
1029	 0,208421309572544 
1030	 0,2106820975074 
1031	 0,214207014707392 
1032	 0,216852911330418 
1033	 0,218781109889172 
1034	 0,221776748299004 
1035	 0,21712232635583 
1036	 0,208348954536573 
1037	 0,216409313809252 
1038	 0,223461245041443 
1039	 0,222311990477638 
1040	 0,220934787520133 
1041	 0,220566879901822 
1042	 0,221528532223685 
1043	 0,220131566074677 
1044	 0,216481411937593 
1045	 0,211993857194696 
1046	 0,215989987989839 
1047	 0,225081992422713 
1048	 0,226135340316639 
1049	 0,231744833167491 
1050	 0,240030403073881 
1051	 0,230394571475136 
1052	 0,223561359676928 
1053	 0,229297086120542 
1054	 0,234363624820986 
1055	 0,236294237167111 
1056	 0,233266561541527 
1057	 0,222874027465431 
1058	 0,216714963419462 
1059	 0,230305048437199 
1060	 0,233251028262824 
1061	 0,228629935976322 
1062	 0,239044286352778 
1063	 0,240581355653774 
1064	 0,22938749799019 
1065	 0,216965649908984 
1066	 0,213785701477769 
1067	 0,223254256114817 
1068	 0,234374752436505 
1069	 0,238665714196363 
1070	 0,232466914949254 
1071	 0,238344495327845 
1072	 0,241795210988053 
1073	 0,224118337805433 
1074	 0,210453305043935 
1075	 0,210753229022581 
