Wavelength	GRA-VIE00398.asd
325	-5,90144472139204E-02 
326	 0,114347476651055 
327	 0,20218007537801 
328	 6,77148327845702E-02 
329	 7,89111669883246E-03 
330	 4,11149861497974E-02 
331	 0,163749889164517 
332	 0,173603579602308 
333	 0,103854160834356 
334	 8,93654079293568E-02 
335	 0,176942338128647 
336	 0,277725268714327 
337	 0,159239122121511 
338	 7,38838256012568E-02 
339	 0,184929440552408 
340	 0,196984500632074 
341	 0,118383198429072 
342	 0,113651886570714 
343	 0,122716989056687 
344	 0,126539925778303 
345	 0,130351004547687 
346	 0,126192726012566 
347	 0,105523273696755 
348	 6,24480912313446E-02 
349	 2,46228439835195E-02 
350	 6,78838955360874E-02 
351	 8,60242405021005E-02 
352	 5,85327889228829E-02 
353	 0,074600192061711 
354	 0,101061995085018 
355	 0,093842798482545 
356	 9,13728877056989E-02 
357	 8,76683053348242E-02 
358	 3,71009147911429E-02 
359	 1,84543080939948E-02 
360	 5,67827655631422E-02 
361	 4,00157755420449E-02 
362	 1,52783348371553E-02 
363	 6,17351764881594E-02 
364	 7,90414668682025E-02 
365	 5,42308988688301E-02 
366	 2,39739982173441E-02 
367	 0,027145725565827 
368	 7,71289806845963E-02 
369	 7,52022362458176E-02 
370	 0,040367511078247 
371	 2,31413220162704E-02 
372	 3,25435939229918E-02 
373	 6,29019871595364E-02 
374	 7,37137612290312E-02 
375	 5,71473963633433E-02 
376	 0,013254593908535 
377	 2,35324605841735E-03 
378	 0,022826413941971 
379	 4,58103560627003E-02 
380	 5,26176750856205E-02 
381	 0,042466155205962 
382	 4,27275459231319E-02 
383	 4,34149606191034E-02 
384	 3,44815325537822E-02 
385	 4,21076300738466E-02 
386	 5,74058989522123E-02 
387	 4,79095332492341E-02 
388	 4,75292992883384E-02 
389	 6,25230049820367E-02 
390	 4,85377703222093E-02 
391	 2,96545130764229E-02 
392	 3,78432271997017E-02 
393	 3,43822215431717E-02 
394	 1,88713992842003E-02 
395	 0,0159611489076 
396	 2,33635737013961E-02 
397	 3,73292113798233E-02 
398	 3,97205584400464E-02 
399	 3,16104817084106E-02 
400	 1,69957278699067E-02 
401	 2,08711542881168E-02 
402	 3,91467538614512E-02 
403	 3,10406292908071E-02 
404	 2,30470933803029E-02 
405	 3,18232079699921E-02 
406	 2,59867122899711E-02 
407	 1,58317304139877E-02 
408	 3,30244847401817E-02 
409	 3,54709747046967E-02 
410	 1,83843195140657E-02 
411	 1,71561763756902E-02 
412	 2,33582437155236E-02 
413	 2,69264960332137E-02 
414	 2,01490009463962E-02 
415	 1,05274927594653E-02 
416	 2,25381008689686E-02 
417	 2,89152331970312E-02 
418	 2,09474843509039E-02 
419	 1,51494011520305E-02 
420	 1,46985632139077E-02 
421	 2,15645988510742E-02 
422	 0,019693891798569 
423	 1,15500125431674E-02 
424	 1,84634606936781E-02 
425	 2,38637005841585E-02 
426	 1,87176064953843E-02 
427	 1,77658803236178E-02 
428	 1,87485154689444E-02 
429	 0,013673820876077 
430	 1,25679359209024E-02 
431	 1,66344399588732E-02 
432	 1,76945775903308E-02 
433	 1,67584114619013E-02 
434	 1,51677373853158E-02 
435	 1,48244740310559E-02 
436	 1,57272644107749E-02 
437	 1,69317915284543E-02 
438	 1,74926871330554E-02 
439	 1,72125445790338E-02 
440	 1,80801299355898E-02 
441	 1,87779658967227E-02 
442	 1,75077485788152E-02 
443	 1,69597008713325E-02 
444	 1,77356302135402E-02 
445	 1,96329014755817E-02 
446	 2,05589277668996E-02 
447	 1,93448058981025E-02 
448	 1,75627326626793E-02 
449	 1,69090040489735E-02 
450	 2,02951966123619E-02 
451	 2,10057712472635E-02 
452	 1,79503446881542E-02 
453	 0,016555439131583 
454	 1,66153104140522E-02 
455	 1,77022340024584E-02 
456	 1,99601138170661E-02 
457	 2,16735225385584E-02 
458	 1,83089490186215E-02 
459	 1,60832963314092E-02 
460	 1,72270112621344E-02 
461	 1,72466471343279E-02 
462	 1,62845608858558E-02 
463	 1,51174794214821E-02 
464	 1,46878434885568E-02 
465	 1,51897908135153E-02 
466	 1,65506677844142E-02 
467	 1,63995797239516E-02 
468	 1,38528171847551E-02 
469	 1,65131449460597E-02 
470	 2,03444420997683E-02 
471	 1,48171905896063E-02 
472	 1,37739287726048E-02 
473	 1,93117149915924E-02 
474	 1,84330723776995E-02 
475	 1,66735875797786E-02 
476	 1,98155944274054E-02 
477	 1,90763895944571E-02 
478	 1,51367623261225E-02 
479	 1,44274689894529E-02 
480	 1,53132804543591E-02 
481	 0,016618902723216 
482	 1,53360173005177E-02 
483	 1,32484002374401E-02 
484	 1,34243165764316E-02 
485	 1,54062163133309E-02 
486	 1,79057367911787E-02 
487	 0,016535394873592 
488	 1,54066971832678E-02 
489	 1,74395380572492E-02 
490	 1,85809384090187E-02 
491	 1,81014655786584E-02 
492	 1,56179463166859E-02 
493	 1,41441700576688E-02 
494	 0,014738784395546 
495	 1,62873151456489E-02 
496	 1,67507844685306E-02 
497	 1,40787972626727E-02 
498	 1,43290327690468E-02 
499	 1,67517392047028E-02 
500	 1,43990028780772E-02 
501	 0,012934587753619 
502	 1,50998857777403E-02 
503	 0,015356841989176 
504	 1,44353771891998E-02 
505	 1,49323333987785E-02 
506	 1,46557976312701E-02 
507	 0,013344362521329 
508	 1,24208820016519E-02 
509	 1,24306934077567E-02 
510	 0,013713350720072 
511	 1,47567658134784E-02 
512	 0,015229780583911 
513	 1,52377706682858E-02 
514	 1,49550049636066E-02 
515	 1,45881338801788E-02 
516	 1,46508004344396E-02 
517	 1,50475788751224E-02 
518	 1,55869314065483E-02 
519	 1,56413653738762E-02 
520	 1,52445719828821E-02 
521	 1,52025124498115E-02 
522	 1,52240147597297E-02 
523	 1,50777995591587E-02 
524	 0,014585227575399 
525	 1,43030156892313E-02 
526	 1,58133245610815E-02 
527	 1,58655251382372E-02 
528	 1,39545489483371E-02 
529	 1,40047898844948E-02 
530	 1,47962646721507E-02 
531	 1,46096589534972E-02 
532	 0,014607526607183 
533	 1,48203792581413E-02 
534	 1,45452373488302E-02 
535	 1,44020394394375E-02 
536	 1,47956189171233E-02 
537	 1,59918233038188E-02 
538	 1,68982467831657E-02 
539	 1,54756096917128E-02 
540	 1,41712616852753E-02 
541	 1,39065098393367E-02 
542	 1,48670941429149E-02 
543	 1,57055817529682E-02 
544	 1,51556607142026E-02 
545	 1,46995011247447E-02 
546	 1,46034610913916E-02 
547	 1,47141832255696E-02 
548	 1,47671282487799E-02 
549	 1,46444748236423E-02 
550	 1,45836010549029E-02 
551	 1,46529781241691E-02 
552	 1,49074022958768E-02 
553	 1,53793523149979E-02 
554	 1,57462320937542E-02 
555	 1,48056992997747E-02 
556	 1,36636766161123E-02 
557	 1,33275813979822E-02 
558	 1,42548566546333E-02 
559	 1,54364331290459E-02 
560	 1,39914991753932E-02 
561	 1,35610196154619E-02 
562	 1,51442194555789E-02 
563	 1,51846653288426E-02 
564	 1,43460920690732E-02 
565	 1,39136898244305E-02 
566	 1,44326753633969E-02 
567	 1,55032839086711E-02 
568	 1,50712446349916E-02 
569	 1,45740568414475E-02 
570	 1,49910644422367E-02 
571	 1,53895607536237E-02 
572	 1,56925619582576E-02 
573	 1,61757307458468E-02 
574	 1,57470290319894E-02 
575	 1,44850051364129E-02 
576	 1,49851773184995E-02 
577	 1,57929208595805E-02 
578	 1,51161775575078E-02 
579	 1,52978111257194E-02 
580	 0,016250282341125 
581	 1,60010450959672E-02 
582	 1,58050657832191E-02 
583	 1,62805702050508E-02 
584	 1,62943410368895E-02 
585	 1,62274485972587E-02 
586	 1,70453541176534E-02 
587	 1,73381394471762E-02 
588	 0,016955699579304 
589	 1,73164355179557E-02 
590	 1,76993820154959E-02 
591	 1,74086041927063E-02 
592	 1,73042452475174E-02 
593	 1,73063472611171E-02 
594	 1,66405153169336E-02 
595	 1,63195459889865E-02 
596	 1,67514973238972E-02 
597	 1,71644026050511E-02 
598	 1,74684136854536E-02 
599	 0,017676727158698 
600	 1,77889643536144E-02 
601	 1,77520311022638E-02 
602	 0,01736403454061 
603	 1,69367284197683E-02 
604	 1,67240654513851E-02 
605	 1,66638220932045E-02 
606	 0,016502517890273 
607	 1,54695140690295E-02 
608	 1,54102328800763E-02 
609	 1,65906620859069E-02 
610	 1,60476201309328E-02 
611	 1,51158157948877E-02 
612	 1,57278307746126E-02 
613	 1,60592354998171E-02 
614	 1,58316457544797E-02 
615	 1,55857737370757E-02 
616	 1,56325650958822E-02 
617	 1,60920140759294E-02 
618	 0,016014369675293 
619	 1,57389748350239E-02 
620	 1,62222980923742E-02 
621	 1,67569639507939E-02 
622	 1,69179903582532E-02 
623	 1,58669055330125E-02 
624	 1,48351531198932E-02 
625	 1,51175268704336E-02 
626	 1,59436136161751E-02 
627	 1,67344349710128E-02 
628	 1,63791747621745E-02 
629	 1,59584588025991E-02 
630	 1,59951010134067E-02 
631	 1,58288580560976E-02 
632	 1,56700503137431E-02 
633	 1,59558963360068E-02 
634	 1,64373601625178E-02 
635	 1,69516090187895E-02 
636	 1,72136987345545E-02 
637	 1,73334041453031E-02 
638	 1,74150647446741E-02 
639	 1,74373922056984E-02 
640	 1,74108421739543E-02 
641	 1,73225032890881E-02 
642	 1,73425828476236E-02 
643	 1,75396821337638E-02 
644	 1,78576997558556E-02 
645	 1,80587561178911E-02 
646	 1,78484200409727E-02 
647	 1,80227312463192E-02 
648	 1,85089094137735E-02 
649	 1,82868508565595E-02 
650	 1,81513996998018E-02 
651	 1,85338723297498E-02 
652	 1,81467293737571E-02 
653	 1,74555186311466E-02 
654	 1,77645874675254E-02 
655	 1,82345319822636E-02 
656	 1,84749814597741E-02 
657	 1,80670265534261E-02 
658	 1,75004935483936E-02 
659	 1,72966789087089E-02 
660	 1,68519983904759E-02 
661	 1,62178461095332E-02 
662	 1,58945095785252E-02 
663	 1,55096849633675E-02 
664	 1,49786362648067E-02 
665	 0,015081657987232 
666	 1,53623124541309E-02 
667	 1,49813429606334E-02 
668	 1,46776960485429E-02 
669	 0,014620317943283 
670	 1,45141430382139E-02 
671	 1,48150462143217E-02 
672	 1,57736663976293E-02 
673	 1,59009955815954E-02 
674	 1,53290388553338E-02 
675	 0,014960045249678 
676	 1,49205085812957E-02 
677	 1,51944391574146E-02 
678	 1,51161384996288E-02 
679	 1,49185992253353E-02 
680	 0,014945052312389 
681	 0,014916179259918 
682	 1,49013854412538E-02 
683	 1,53888525624748E-02 
684	 1,55450677525386E-02 
685	 1,50097571061615E-02 
686	 1,51407019156762E-02 
687	 1,57206389755666E-02 
688	 1,59867326722252E-02 
689	 1,68202136519079E-02 
690	 1,81139556845832E-02 
691	 1,82320376591052E-02 
692	 1,84882629678424E-02 
693	 2,00517503145208E-02 
694	 2,14094722057053E-02 
695	 2,26249445467698E-02 
696	 2,46078874649639E-02 
697	 2,67677179247305E-02 
698	 0,028932241379997 
699	 3,15485357251876E-02 
700	 3,45591300908631E-02 
701	 3,78328057127404E-02 
702	 4,11107455967356E-02 
703	 4,46040021142763E-02 
704	 4,93704683709781E-02 
705	 5,39153496648808E-02 
706	 5,73891942119383E-02 
707	 6,14232991738522E-02 
708	 6,57702159101919E-02 
709	 6,94832793780528E-02 
710	 7,35579712666078E-02 
711	 7,80592883035639E-02 
712	 8,19302282437461E-02 
713	 8,53267611854283E-02 
714	 0,088459614231648 
715	 9,13460170986014E-02 
716	 9,42073310920149E-02 
717	 9,75758045343203E-02 
718	 0,10074081457367 
719	 0,103418643007927 
720	 0,105991889662038 
721	 0,108128791957407 
722	 0,109389424981471 
723	 0,111479332293249 
724	 0,11422860806818 
725	 0,115556518112203 
726	 0,116788858429327 
727	 0,118613041556071 
728	 0,119487037409177 
729	 0,120019485323313 
730	 0,121686105888221 
731	 0,122799655993315 
732	 0,123148084480904 
733	 0,124128105476666 
734	 0,125279643302294 
735	 0,126147466697767 
736	 0,126764022927713 
737	 0,127227174758858 
738	 0,127774130478425 
739	 0,128303378890722 
740	 0,128785107173407 
741	 0,129225583934352 
742	 0,129660158273335 
743	 0,130127772232496 
744	 0,13058492277306 
745	 0,131055861878555 
746	 0,131666755922505 
747	 0,132171493216735 
748	 0,132461469413554 
749	 0,132827230004602 
750	 0,133172313955023 
751	 0,133297250451653 
752	 0,133294231539772 
753	 0,133366340616004 
754	 0,134164238376629 
755	 0,134855088797849 
756	 0,134855023575838 
757	 0,134798517304763 
758	 0,134846570243473 
759	 0,135078137890105 
760	 0,135597586109503 
761	 0,136236253725187 
762	 0,136102378085958 
763	 0,135853558774231 
764	 0,136141395114373 
765	 0,136614121367694 
766	 0,136988209759041 
767	 0,136629918029042 
768	 0,136662596293689 
769	 0,137407765573316 
770	 0,137850802279393 
771	 0,138027998355463 
772	 0,138094389503552 
773	 0,138258431544763 
774	 0,138516515411285 
775	 0,138645741450589 
776	 0,138872504861588 
777	 0,139248227121753 
778	 0,139291403018526 
779	 0,139182080864159 
780	 0,139260821690998 
781	 0,139304666081492 
782	 0,139338094419176 
783	 0,139616602461925 
784	 0,139994326699134 
785	 0,140329217555624 
786	 0,140352644866516 
787	 0,140185724993276 
788	 0,140077442815595 
789	 0,140454671876899 
790	 0,14121108786999 
791	 0,141351162937418 
792	 0,141196022559594 
793	 0,141059185500335 
794	 0,141147822965583 
795	 0,141413317718097 
796	 0,141654304435535 
797	 0,141884651437333 
798	 0,142099679264262 
799	 0,14230906693287 
800	 0,142581415342445 
801	 0,142943793105186 
802	 0,142790840337427 
803	 0,14246647627669 
804	 0,14319711712926 
805	 0,143579087344765 
806	 0,143238665183076 
807	 0,143144444607679 
808	 0,14340836125517 
809	 0,144043590893777 
810	 0,144493407042636 
811	 0,144579973572757 
812	 0,144129663822918 
813	 0,144032384867748 
814	 0,144589519536411 
815	 0,144965311726343 
816	 0,14511300223094 
817	 0,145086478903389 
818	 0,14558102220729 
819	 0,146393059039537 
820	 0,146424065524132 
821	 0,1463965106741 
822	 0,146605484357814 
823	 0,146584361529702 
824	 0,146590388667651 
825	 0,146993364325573 
826	 0,147340989639384 
827	 0,147533613332704 
828	 0,14767789718185 
829	 0,147599809641696 
830	 0,147303333138206 
831	 0,147368020701394 
832	 0,147721117031808 
833	 0,148165287493199 
834	 0,148549597715069 
835	 0,148776823619681 
836	 0,148758135798186 
837	 0,148599521297102 
838	 0,148425732914658 
839	 0,148495210602211 
840	 0,148960990363348 
841	 0,149980354638448 
842	 0,149944818128492 
843	 0,149019431609199 
844	 0,149218779299237 
845	 0,14946831246161 
846	 0,149303869001898 
847	 0,149792845320367 
848	 0,150408378331878 
849	 0,150269965800311 
850	 0,150561605840051 
851	 0,151296305493568 
852	 0,15160619194522 
853	 0,151419022342174 
854	 0,150829318057067 
855	 0,150740637648307 
856	 0,151200709212601 
857	 0,152097836763864 
858	 0,152054680776425 
859	 0,151268805186807 
860	 0,151528958124497 
861	 0,15217674990676 
862	 0,152749406850854 
863	 0,152495497778227 
864	 0,152252353358519 
865	 0,153185507712795 
866	 0,153944366832632 
867	 0,154234700307829 
868	 0,154271172727983 
869	 0,154001469793342 
870	 0,153627052006489 
871	 0,154365981000609 
872	 0,155245880566404 
873	 0,1549951298811 
874	 0,154751906808126 
875	 0,154760520382746 
876	 0,154971874804802 
877	 0,155164169802323 
878	 0,155242837684835 
879	 0,155388967069799 
880	 0,155293539212665 
881	 0,154710117869475 
882	 0,155580996266184 
883	 0,157240055597986 
884	 0,157005809382366 
885	 0,156143036539829 
886	 0,155343960000173 
887	 0,155687363114103 
888	 0,156445016451476 
889	 0,156841603623141 
890	 0,156944591875604 
891	 0,157077057343156 
892	 0,157999880442951 
893	 0,158532469457479 
894	 0,158343882256098 
895	 0,157907029134126 
896	 0,157422546952829 
897	 0,157101591948778 
898	 0,157313057065373 
899	 0,157961139864409 
900	 0,158787412559268 
901	 0,159150380970213 
902	 0,159246448900719 
903	 0,160779534091191 
904	 0,161607555710873 
905	 0,160585002022035 
906	 0,15985060030431 
907	 0,159753430298267 
908	 0,160357671159132 
909	 0,160601724626559 
910	 0,160553241440188 
911	 0,161507227921196 
912	 0,161844057535639 
913	 0,161015194723337 
914	 0,16072033543725 
915	 0,160686034102029 
916	 0,160474988449823 
917	 0,160927204980389 
918	 0,161585440587911 
919	 0,160831740879899 
920	 0,160643225205508 
921	 0,161488305335928 
922	 0,162256939375218 
923	 0,161814801170355 
924	 0,159582774029531 
925	 0,158862258216858 
926	 0,159730785027609 
927	 0,161344460719514 
928	 0,161148399231311 
929	 0,159432261951979 
930	 0,160490566869156 
931	 0,161119174085143 
932	 0,159747733358572 
933	 0,159490691184402 
934	 0,159625277021638 
935	 0,15883325378088 
936	 0,158634298593948 
937	 0,158706747129569 
938	 0,15697117703715 
939	 0,156665156456019 
940	 0,158346973610957 
941	 0,158016711295127 
942	 0,157214842900642 
943	 0,157452106256972 
944	 0,157647708522182 
945	 0,157541090852499 
946	 0,156981060776086 
947	 0,156173711043765 
948	 0,155138178561448 
949	 0,15361387043609 
950	 0,152355547016744 
951	 0,151780441706335 
952	 0,151487185984838 
953	 0,151054915327266 
954	 0,150062617675013 
955	 0,149008902549677 
956	 0,148256668981996 
957	 0,148435398249223 
958	 0,148518616902364 
959	 0,148024034555338 
960	 0,146537218596118 
961	 0,145859395017669 
962	 0,147019301306965 
963	 0,146375032896735 
964	 0,145215133171595 
965	 0,146247992393833 
966	 0,148101120674979 
967	 0,149114680026096 
968	 0,145020495711402 
969	 0,142908033160645 
970	 0,145335218493873 
971	 0,14784282008168 
972	 0,148479214055875 
973	 0,146097946192191 
974	 0,145273345203174 
975	 0,146311353666494 
976	 0,148306293891244 
977	 0,148018862791848 
978	 0,145585203630559 
979	 0,145042332308623 
980	 0,144675376285331 
981	 0,144144673083523 
982	 0,146515335655193 
983	 0,14841560175662 
984	 0,146564726332297 
985	 0,146626620970067 
986	 0,148027877036608 
987	 0,14754369182328 
988	 0,14813500908153 
989	 0,150018890977183 
990	 0,151136925153395 
991	 0,150999599898647 
992	 0,149836603045341 
993	 0,150724414591522 
994	 0,15214196776853 
995	 0,152308688115688 
996	 0,152524776487615 
997	 0,152949201574966 
998	 0,153471568074982 
999	 0,153972107740519 
1000	 0,154297185786894 
1001	 0,154065558366476 
1002	 0,1539657855391 
1003	 0,154606881323935 
1004	 0,157309088774355 
1005	 0,1592343064228 
1006	 0,157748390812253 
1007	 0,155718752118401 
1008	 0,155012538080954 
1009	 0,157830863213567 
1010	 0,160034221453141 
1011	 0,161159681588724 
1012	 0,164433231684959 
1013	 0,1647574653481 
1014	 0,161161423606096 
1015	 0,16070794889706 
1016	 0,162184331206233 
1017	 0,164120105933921 
1018	 0,166970679489883 
1019	 0,168031368679976 
1020	 0,163549558864016 
1021	 0,162341272487079 
1022	 0,165913094398126 
1023	 0,172826656575006 
1024	 0,173045660740457 
1025	 0,166377294887652 
1026	 0,16971419126258 
1027	 0,174497677096073 
1028	 0,174765173101752 
1029	 0,172813722496544 
1030	 0,17201840033665 
1031	 0,175528459783775 
1032	 0,174168970031661 
1033	 0,169455805776436 
1034	 0,168132383399294 
1035	 0,169845154834074 
1036	 0,173180364198907 
1037	 0,172982892723066 
1038	 0,174946876570353 
1039	 0,179426324594668 
1040	 0,174570293502755 
1041	 0,169465408868357 
1042	 0,172335465629935 
1043	 0,181070372012279 
1044	 0,18679964343889 
1045	 0,179598057503726 
1046	 0,178266772824178 
1047	 0,182870940995322 
1048	 0,183623821700451 
1049	 0,175023257773695 
1050	 0,162642446209451 
1051	 0,175313861863459 
1052	 0,188229942926093 
1053	 0,189161932273905 
1054	 0,185423387339356 
1055	 0,183758909716026 
1056	 0,188428133634071 
1057	 0,184834261919704 
1058	 0,180232541640361 
1059	 0,187138200522436 
1060	 0,193754478099477 
1061	 0,194061479549158 
1062	 0,181195219876595 
1063	 0,17164839622238 
1064	 0,171458555870013 
1065	 0,18000540901318 
1066	 0,190126197630251 
1067	 0,196799113369431 
1068	 0,192590979505895 
1069	 0,190989432105471 
1070	 0,200380177188452 
1071	 0,200315684188357 
1072	 0,191460883309481 
1073	 0,1788423712583 
1074	 0,185727798854156 
1075	 0,203000706242519 
