Wavelength	GRA-VIE-00035.asd
325	 0,105579561019832 
326	-3,00120669536717E-02 
327	-6,13331234639889E-02 
328	 3,55937615129559E-02 
329	 6,28332306127041E-02 
330	 0,117530637405655 
331	 0,23908049780631 
332	 0,143617006617114 
333	-0,042723896915578 
334	 9,41687931619051E-02 
335	 9,54325222947541E-02 
336	-5,68100387944881E-02 
337	 6,34622427381127E-02 
338	 0,209823182711198 
339	 0,132106931066977 
340	 9,20680487264813E-02 
341	 9,87007192649913E-02 
342	 0,106124290598893 
343	 7,24179502453692E-02 
344	 2,99541535039426E-04 
345	 4,90994009518393E-03 
346	 0,036114729277487 
347	 4,47905215051766E-02 
348	 3,43433653916918E-02 
349	 1,34373376868118E-02 
350	 7,46303979377652E-03 
351	 1,05119287244091E-02 
352	 1,14962026959777E-02 
353	-5,45171230478325E-02 
354	-8,97066389563969E-02 
355	 0,017077904753605 
356	 4,66952466533357E-02 
357	 3,29251521234078E-03 
358	-1,05733456830192E-02 
359	-3,50482965526496E-04 
360	 2,62195933984909E-02 
361	 2,52927046095065E-02 
362	 4,60476439458464E-03 
363	-2,02908822931739E-02 
364	-6,47749182206808E-03 
365	 3,53077349976886E-02 
366	 2,64910895764944E-02 
367	 1,20195306284585E-02 
368	 0,017435657424538 
369	 1,52145178949279E-02 
370	 8,57547694586054E-03 
371	 9,60914668429605E-03 
372	-5,4071728051194E-04 
373	-1,72184098106651E-02 
374	-2,13712040260591E-03 
375	 2,21053282880528E-02 
376	 3,63962625724297E-02 
377	 4,43366415308595E-02 
378	 4,55005852068944E-02 
379	 3,77740551343091E-02 
380	 0,03753973361415 
381	 4,50006941825856E-02 
382	 3,10724911671087E-02 
383	 1,15668279166578E-02 
384	 5,59778079090423E-03 
385	 1,75198155998966E-03 
386	 2,81647120400993E-03 
387	 2,44316855050169E-02 
388	 3,36549727683827E-02 
389	 2,14045704281219E-02 
390	 1,35061677049266E-02 
391	 0,014566066608601 
392	 2,62656205760718E-02 
393	 3,23373461277734E-02 
394	 2,88754285062804E-02 
395	 0,013894278336011 
396	 8,00877503902681E-03 
397	 2,00277200828474E-02 
398	 2,52475048774253E-02 
399	 2,10785698437166E-02 
400	 7,45079875567281E-03 
401	 3,89222902006002E-03 
402	 1,02137923385932E-02 
403	 4,22206223536207E-03 
404	-1,92210599222148E-04 
405	 6,16165559113481E-03 
406	 0,016131026614991 
407	 2,35484428860461E-02 
408	 1,87182404562766E-02 
409	 0,012076259201454 
410	 9,38994817631748E-03 
411	 1,94943930062275E-02 
412	 2,95772445406238E-02 
413	 2,81127674881439E-02 
414	 2,01439867304843E-02 
415	 1,06678222166183E-02 
416	 8,57180982098867E-03 
417	 1,17774137092421E-02 
418	 1,74989815473955E-02 
419	 1,55673996396729E-02 
420	 1,00148385735124E-02 
421	 6,9472858957774E-03 
422	 9,87622066904947E-03 
423	 1,67205152203145E-02 
424	 0,018764625002532 
425	 1,59124158444674E-02 
426	 9,27876551492788E-03 
427	 8,66260590037307E-03 
428	 0,012098322100686 
429	 1,36889154479683E-02 
430	 1,34589698904227E-02 
431	 1,14896424057482E-02 
432	 8,0225710807462E-03 
433	 8,84938174931805E-03 
434	 1,79420710525097E-02 
435	 1,76261386907838E-02 
436	 1,08763660444865E-02 
437	 1,34560157866903E-02 
438	 1,64961564888184E-02 
439	 1,67453099977122E-02 
440	 1,64173604516966E-02 
441	 0,014898830068053 
442	 0,01120305841578 
443	 1,19757289016584E-02 
444	 1,60000766244553E-02 
445	 0,013536152619745 
446	 1,07527700774146E-02 
447	 1,13867056033907E-02 
448	 1,26222294096569E-02 
449	 1,31907963068775E-02 
450	 1,13088904117683E-02 
451	 1,13292282947295E-02 
452	 1,32722051152772E-02 
453	 9,96709433590915E-03 
454	 8,8357649733252E-03 
455	 1,63089186840793E-02 
456	 1,87516878227758E-02 
457	 1,57437002972208E-02 
458	 1,31682157227402E-02 
459	 1,27559115421346E-02 
460	 1,48014329610477E-02 
461	 1,44880065345124E-02 
462	 1,22974716603307E-02 
463	 9,51750771236886E-03 
464	 9,17562257530392E-03 
465	 1,11386346300313E-02 
466	 1,19572710491708E-02 
467	 1,20748421873892E-02 
468	 1,19009830304313E-02 
469	 1,23472187439377E-02 
470	 1,36051239416099E-02 
471	 1,61319017959884E-02 
472	 1,56612899536136E-02 
473	 1,22297668672784E-02 
474	 1,35727462912659E-02 
475	 1,42432230076277E-02 
476	 8,96018721729903E-03 
477	 9,5343917216208E-03 
478	 1,46299058382511E-02 
479	 1,40162795880402E-02 
480	 1,27733556245318E-02 
481	 1,30121728258944E-02 
482	 1,23762063212565E-02 
483	 1,22941223804633E-02 
484	 1,52856395492044E-02 
485	 1,45995837595555E-02 
486	 1,02744138571765E-02 
487	 9,43444474636775E-03 
488	 1,09109492436613E-02 
489	 1,34692750854162E-02 
490	 1,50990449220008E-02 
491	 1,53559453285386E-02 
492	 1,41883520735039E-02 
493	 1,30948125940339E-02 
494	 1,27347327728949E-02 
495	 1,29756652901267E-02 
496	 1,30147043637454E-02 
497	 1,19984011729783E-02 
498	 1,14409786874032E-02 
499	 1,15120130255195E-02 
500	 1,13440812465894E-02 
501	 1,24422247776006E-02 
502	 1,49724478310147E-02 
503	 1,31891293485954E-02 
504	 1,01117723131865E-02 
505	 1,23816053001936E-02 
506	 1,34625535003616E-02 
507	 1,20928868638467E-02 
508	 1,15682478158323E-02 
509	 1,18169437770832E-02 
510	 1,25964317729878E-02 
511	 1,31860466925025E-02 
512	 1,34743463745168E-02 
513	 0,013761030603329 
514	 1,34649800153414E-02 
515	 1,25258816844119E-02 
516	 1,21964410391288E-02 
517	 1,20813561105485E-02 
518	 1,14162865605864E-02 
519	 1,15884102194442E-02 
520	 1,26542896735243E-02 
521	 1,36237717468617E-02 
522	 1,40881963151593E-02 
523	 1,37862879600097E-02 
524	 1,32473665259242E-02 
525	 1,25537011045616E-02 
526	 0,011387526883853 
527	 1,15253695314472E-02 
528	 1,30074881497387E-02 
529	 1,24291994198134E-02 
530	 1,12182430098749E-02 
531	 1,12868087753805E-02 
532	 1,25666362664527E-02 
533	 1,40657573399463E-02 
534	 1,26724723145331E-02 
535	 1,15936313826061E-02 
536	 1,24783938630684E-02 
537	 1,19300179633574E-02 
538	 1,08653807488319E-02 
539	 1,18145733856856E-02 
540	 1,25109686676372E-02 
541	 1,23952302208643E-02 
542	 0,012326357149565 
543	 0,012475652104267 
544	 1,29366631691795E-02 
545	 1,29838689353094E-02 
546	 1,26302067553496E-02 
547	 1,23489792955896E-02 
548	 1,20622054628376E-02 
549	 1,18191525720517E-02 
550	 1,21148783519993E-02 
551	 1,24108060180429E-02 
552	 1,17685660110662E-02 
553	 1,17377000321693E-02 
554	 1,24360784996605E-02 
555	 1,24627766217705E-02 
556	 1,22597371251529E-02 
557	 1,22458772382559E-02 
558	 1,26617733878536E-02 
559	 1,30730567664806E-02 
560	 1,21326801985662E-02 
561	 1,18623473062538E-02 
562	 1,28783383237148E-02 
563	 0,013451503134004 
564	 0,013635827154281 
565	 1,37231487219422E-02 
566	 1,38979240989274E-02 
567	 1,41329265207833E-02 
568	 1,40773853000523E-02 
569	 1,40071370728808E-02 
570	 1,41320842352332E-02 
571	 1,44215924669387E-02 
572	 1,48947459628491E-02 
573	 1,56835701736493E-02 
574	 1,59986028503651E-02 
575	 1,57186948356997E-02 
576	 1,58544553334074E-02 
577	 1,63718082117909E-02 
578	 1,71125903598937E-02 
579	 1,67343144331402E-02 
580	 0,015560441541315 
581	 1,55057302724542E-02 
582	 1,59934104155537E-02 
583	 1,67119698641162E-02 
584	 1,78988712804619E-02 
585	 1,89148397539417E-02 
586	 0,018698302743997 
587	 1,78560640248917E-02 
588	 1,69247513439062E-02 
589	 1,72208534821786E-02 
590	 1,77623719705102E-02 
591	 1,75959589967347E-02 
592	 1,74169729539926E-02 
593	 1,73104934598391E-02 
594	 1,71980001066364E-02 
595	 1,68504414982663E-02 
596	 1,62413650382486E-02 
597	 1,60659488735827E-02 
598	 1,58056136214251E-02 
599	 1,45341272882609E-02 
600	 1,43793327292381E-02 
601	 1,53533212881054E-02 
602	 1,49961477074119E-02 
603	 0,014673618806753 
604	 1,53835822980487E-02 
605	 1,52093547013314E-02 
606	 1,44429783828533E-02 
607	 1,46514950312676E-02 
608	 1,45194149563025E-02 
609	 1,37624312085052E-02 
610	 1,35860897480094E-02 
611	 1,38402309412545E-02 
612	 1,42060063806648E-02 
613	 1,41504552415101E-02 
614	 1,37146482583242E-02 
615	 1,35421901855294E-02 
616	 1,34601954071533E-02 
617	 0,013441314785344 
618	 1,42827358567276E-02 
619	 1,52396179628744E-02 
620	 1,46614889202393E-02 
621	 1,41151164804971E-02 
622	 1,41247432147802E-02 
623	 1,44836462659826E-02 
624	 1,47966442507656E-02 
625	 1,46913014608103E-02 
626	 1,48788025861274E-02 
627	 1,53255360463836E-02 
628	 1,55124395969757E-02 
629	 1,55018480451443E-02 
630	 1,53775246878702E-02 
631	 1,55455520187927E-02 
632	 1,58640357676901E-02 
633	 0,01598114152888 
634	 1,67379576423008E-02 
635	 1,79631162104088E-02 
636	 1,80525318024875E-02 
637	 1,76333521783162E-02 
638	 1,73436957923857E-02 
639	 1,76696648586386E-02 
640	 1,85308675541997E-02 
641	 1,95887005566769E-02 
642	 0,020017001903477 
643	 1,95822823861486E-02 
644	 0,019272113696276 
645	 1,95701203715314E-02 
646	 2,09532970187961E-02 
647	 2,14212447299545E-02 
648	 2,08826391907012E-02 
649	 2,09421415146025E-02 
650	 2,13633197461905E-02 
651	 2,19738097191104E-02 
652	 2,27875276769102E-02 
653	 2,32035966184515E-02 
654	 2,19117203908939E-02 
655	 2,15645302264392E-02 
656	 2,26580310003576E-02 
657	 2,27969456549502E-02 
658	 2,22746461611776E-02 
659	 2,15768477695053E-02 
660	 2,14014750404516E-02 
661	 2,15479847424334E-02 
662	 2,09669184473324E-02 
663	 2,00192521632982E-02 
664	 0,019078842907289 
665	 1,94693379487872E-02 
666	 2,00807248750395E-02 
667	 1,89601330353979E-02 
668	 1,79631635655228E-02 
669	 1,75801706792827E-02 
670	 1,74742748034749E-02 
671	 0,017464383511091 
672	 0,017404011698327 
673	 1,73896655239657E-02 
674	 0,017389929607278 
675	 1,72742898030906E-02 
676	 1,73389020274049E-02 
677	 1,75977724290793E-02 
678	 1,74936610064737E-02 
679	 1,72079154436759E-02 
680	 1,70139621782941E-02 
681	 1,71812206121095E-02 
682	 1,74899468845149E-02 
683	 1,69189335713238E-02 
684	 1,67706579628777E-02 
685	 1,76803554572622E-02 
686	 1,80457776378225E-02 
687	 1,81245404248715E-02 
688	 1,87661556819276E-02 
689	 1,94522846368992E-02 
690	 0,020006360826242 
691	 0,020221066741593 
692	 2,09421328045625E-02 
693	 2,28589394211444E-02 
694	 2,45704318600141E-02 
695	 2,60903037601575E-02 
696	 2,81370840155199E-02 
697	 3,06426518859034E-02 
698	 3,35440755635316E-02 
699	 3,65077387501858E-02 
700	 3,96436827276069E-02 
701	 4,31241494027439E-02 
702	 4,71202462423157E-02 
703	 5,14801137775187E-02 
704	 0,055580526299904 
705	 5,97006908478394E-02 
706	 6,40103840562736E-02 
707	 6,83711818329874E-02 
708	 0,072815364305428 
709	 7,74609065935862E-02 
710	 8,19867262251344E-02 
711	 8,61979202031366E-02 
712	 8,97599372346231E-02 
713	 9,34803251684901E-02 
714	 9,80324773043123E-02 
715	 0,101946603861868 
716	 0,105131534150089 
717	 0,108097284796849 
718	 0,111134983403806 
719	 0,1142934713354 
720	 0,116902152752121 
721	 0,1192661514216 
722	 0,121845753990715 
723	 0,124008933360844 
724	 0,125848537497263 
725	 0,128202249708621 
726	 0,130363019434073 
727	 0,131911835685543 
728	 0,133260267221783 
729	 0,134607274838016 
730	 0,136224701799857 
731	 0,137413530613179 
732	 0,138156695706993 
733	 0,139367596859089 
734	 0,140626456816086 
735	 0,141553506566736 
736	 0,14247884196811 
737	 0,143393101326205 
738	 0,144145269330386 
739	 0,144778982173483 
740	 0,14535354512576 
741	 0,146084299571412 
742	 0,146854069006 
743	 0,147498955140387 
744	 0,147580620487792 
745	 0,147376182663793 
746	 0,148017816320906 
747	 0,14874322302176 
748	 0,149122960889067 
749	 0,14917859201774 
750	 0,149258026571638 
751	 0,149901386581644 
752	 0,15022902821668 
753	 0,150132562054953 
754	 0,150110480841234 
755	 0,150503735562649 
756	 0,151460675437908 
757	 0,1519757730808 
758	 0,152021625358433 
759	 0,151889662193685 
760	 0,151760332794663 
761	 0,151743895477783 
762	 0,151865030674847 
763	 0,152046896496004 
764	 0,15221520783233 
765	 0,152454215694254 
766	 0,152639893669245 
767	 0,152354821530277 
768	 0,152402149550371 
769	 0,153003088000452 
770	 0,153447119964761 
771	 0,153449483583469 
772	 0,15278669211286 
773	 0,152659587163576 
774	 0,153182432694461 
775	 0,153817773264525 
776	 0,154109291095858 
777	 0,153858335846946 
778	 0,15368128346149 
779	 0,153692870143344 
780	 0,153939771427408 
781	 0,154098799670471 
782	 0,154144900201749 
783	 0,154352891739414 
784	 0,154603022287216 
785	 0,154790268778477 
786	 0,154772976741256 
787	 0,154608074335252 
788	 0,154400927863864 
789	 0,154630921926357 
790	 0,155202940810625 
791	 0,155073423431855 
792	 0,154796092091374 
793	 0,154832946632177 
794	 0,154919845766018 
795	 0,154998862244213 
796	 0,155033048932966 
797	 0,155022940999539 
798	 0,154996022417428 
799	 0,155074052414694 
800	 0,155170236586289 
801	 0,155217578614115 
802	 0,155593937216344 
803	 0,156049548061338 
804	 0,155749319940294 
805	 0,155587891188777 
806	 0,155892025714087 
807	 0,156485629947904 
808	 0,156883032654514 
809	 0,156617071460591 
810	 0,156514945697955 
811	 0,156760524298444 
812	 0,157376250527679 
813	 0,157759241745387 
814	 0,157683459382108 
815	 0,157605584082814 
816	 0,157689145489739 
817	 0,158065947017776 
818	 0,158440908400718 
819	 0,158717681986862 
820	 0,158898309290228 
821	 0,158841494816399 
822	 0,158618483687127 
823	 0,159072454674313 
824	 0,159773764470972 
825	 0,160062911616481 
826	 0,159740150289345 
827	 0,159164180967365 
828	 0,159573456095842 
829	 0,160275621905994 
830	 0,160858611765323 
831	 0,161256991998879 
832	 0,161326642456552 
833	 0,160912191990573 
834	 0,161213869569838 
835	 0,162069452106639 
836	 0,16183441055472 
837	 0,161783534231166 
838	 0,162455331526333 
839	 0,162487480480869 
840	 0,162209960323243 
841	 0,162292826149124 
842	 0,162485873150125 
843	 0,162721922252667 
844	 0,162891342171988 
845	 0,163364988797522 
846	 0,164203970433906 
847	 0,164504686677225 
848	 0,16402472602717 
849	 0,162601670601791 
850	 0,162550291921289 
851	 0,163768701575146 
852	 0,163762057675399 
853	 0,163689924740559 
854	 0,164054245808662 
855	 0,163936383782447 
856	 0,163526683227991 
857	 0,163216104052245 
858	 0,163227037530862 
859	 0,16357984549561 
860	 0,164108885996265 
861	 0,164624998754878 
862	 0,164957296519241 
863	 0,164868768449094 
864	 0,164577582893679 
865	 0,164402312411101 
866	 0,164401538752387 
867	 0,164624600689703 
868	 0,165234430446146 
869	 0,165303643917926 
870	 0,164635950812118 
871	 0,165036258830946 
872	 0,165801955353317 
873	 0,165903125039649 
874	 0,165892741768201 
875	 0,166044761449258 
876	 0,166890240229503 
877	 0,167335302425077 
878	 0,16701275662443 
879	 0,166762266891899 
880	 0,166817770868354 
881	 0,167315929952078 
882	 0,167446728976 
883	 0,167488624660729 
884	 0,168741066630837 
885	 0,169471595862767 
886	 0,169201563468558 
887	 0,169052264781178 
888	 0,169129438124171 
889	 0,169443555384411 
890	 0,16958146336588 
891	 0,169562688170107 
892	 0,169637609128683 
893	 0,169475712788091 
894	 0,169176457398748 
895	 0,169595227469497 
896	 0,170155554917774 
897	 0,170380669315894 
898	 0,170426533930703 
899	 0,170617528307951 
900	 0,17151890025062 
901	 0,171830522036238 
902	 0,17136575196027 
903	 0,170937158384343 
904	 0,170742619161897 
905	 0,170891608876483 
906	 0,171064089724944 
907	 0,171322187475817 
908	 0,171810070264813 
909	 0,172044051419489 
910	 0,172001183603976 
911	 0,172056386791529 
912	 0,171918946235824 
913	 0,171619311186599 
914	 0,17215173185357 
915	 0,1726436319515 
916	 0,172109747906831 
917	 0,172130736003917 
918	 0,172594287593379 
919	 0,172420999844451 
920	 0,172047201988121 
921	 0,171663701644618 
922	 0,1714619679634 
923	 0,17140436780962 
924	 0,171409989048323 
925	 0,171116684305334 
926	 0,170698348659344 
927	 0,170552527909016 
928	 0,170897425010479 
929	 0,171411218602893 
930	 0,170801426044436 
931	 0,169604541726197 
932	 0,168455626033476 
933	 0,169306697332856 
934	 0,170134190383535 
935	 0,168207838752457 
936	 0,167325638314351 
937	 0,167722904571521 
938	 0,16752558424563 
939	 0,167496874130498 
940	 0,167553779661939 
941	 0,16602718943759 
942	 0,164771218355488 
943	 0,165274443589952 
944	 0,164165811049372 
945	 0,162771964249739 
946	 0,164641077381284 
947	 0,164741303009952 
948	 0,162507990167729 
949	 0,161503792395235 
950	 0,160788942314399 
951	 0,160026195664329 
952	 0,160688346455799 
953	 0,160808353798389 
954	 0,158028520861757 
955	 0,155514741469035 
956	 0,154040358851389 
957	 0,153712361056764 
958	 0,153158377795832 
959	 0,152144984696398 
960	 0,15227176470283 
961	 0,15234075946329 
962	 0,151527307797833 
963	 0,151235908374788 
964	 0,151559406466457 
965	 0,152328544222879 
966	 0,151244872199432 
967	 0,14887051989756 
968	 0,148649278165734 
969	 0,149568115980772 
970	 0,15087148432793 
971	 0,150820115706781 
972	 0,150640280532442 
973	 0,151371313436026 
974	 0,150340890455607 
975	 0,148746272506706 
976	 0,149390318771757 
977	 0,151365836555743 
978	 0,153277950420836 
979	 0,151327961693868 
980	 0,14996141783827 
981	 0,150915072313398 
982	 0,149999589755131 
983	 0,148769262069585 
984	 0,149024538331898 
985	 0,149238395151532 
986	 0,149340858924881 
987	 0,149679706916607 
988	 0,150560261542788 
989	 0,151937372222746 
990	 0,153246197331863 
991	 0,154763361213227 
992	 0,156341935420325 
993	 0,156697426524936 
994	 0,155588438777884 
995	 0,153164207662966 
996	 0,152748448178168 
997	 0,153868215962576 
998	 0,154296434132336 
999	 0,153802436030534 
1000	 0,152594658478633 
1001	 0,151431343373796 
1002	 0,153253047087 
1003	 0,158317371680729 
1004	 0,159409858360219 
1005	 0,158118495754021 
1006	 0,15690054521885 
1007	 0,158679248241586 
1008	 0,16136957562031 
1009	 0,160243903586763 
1010	 0,161013243487953 
1011	 0,163349533826448 
1012	 0,160791599271129 
1013	 0,160006295844097 
1014	 0,162682079728265 
1015	 0,161021346902682 
1016	 0,160306844432902 
1017	 0,164606147945318 
1018	 0,166384752088973 
1019	 0,165317845248692 
1020	 0,16271773391259 
1021	 0,161426984655699 
1022	 0,162131768558625 
1023	 0,16396287917311 
1024	 0,167998903801915 
1025	 0,172768605119448 
1026	 0,171251504077767 
1027	 0,169173424743614 
1028	 0,170070714212518 
1029	 0,168899051763328 
1030	 0,168493936342423 
1031	 0,172343254045259 
1032	 0,174672142035643 
1033	 0,174297347599734 
1034	 0,171174811819639 
1035	 0,17413994654718 
1036	 0,18108987399493 
1037	 0,175979322959468 
1038	 0,169204242842314 
1039	 0,16709950527135 
1040	 0,173481194287132 
1041	 0,182064853735547 
1042	 0,18672894652486 
1043	 0,183407442882048 
1044	 0,178107511325998 
1045	 0,179223112715696 
1046	 0,172277816128522 
1047	 0,164091043394469 
1048	 0,17878843834573 
1049	 0,18160449394863 
1050	 0,170949724985751 
1051	 0,183452940628465 
1052	 0,19178507743227 
1053	 0,184343221416344 
1054	 0,179440687874352 
1055	 0,175631196328414 
1056	 0,172164473218993 
1057	 0,18330487091727 
1058	 0,192316587482312 
1059	 0,175890450907043 
1060	 0,174248067141595 
1061	 0,183946406233031 
1062	 0,176477554705709 
1063	 0,180393900709037 
1064	 0,194332988085527 
1065	 0,182125723831992 
1066	 0,169357137137262 
1067	 0,17054965089785 
1068	 0,197589597898403 
1069	 0,206523139301432 
1070	 0,170854109508566 
1071	 0,157528831913111 
1072	 0,166723766310491 
1073	 0,184523324689298 
1074	 0,181309438196418 
1075	 0,171202737150223 
