Wavelength	GRA-VAN00042.asd
325	 0,267679253544306 
326	 3,45354065535089E-02 
327	-2,33004108168786E-02 
328	 0,215077222300418 
329	 0,165669698924649 
330	 2,98943339712122E-02 
331	 0,111367798358109 
332	 0,164478902505781 
333	 0,189072661846753 
334	 0,152157142155177 
335	 9,38969977654524E-02 
336	 7,08400747235189E-02 
337	 0,122380796544768 
338	 0,157113392171911 
339	 9,66761951700345E-02 
340	 9,86661565607899E-02 
341	 0,129530792098791 
342	 5,77082513466555E-02 
343	 2,50213006016511E-02 
344	 6,20351952135086E-02 
345	 2,98409308673316E-02 
346	 5,46456526413451E-03 
347	 7,11307504876384E-02 
348	 4,81402438095316E-02 
349	-3,56024500790146E-02 
350	-0,01682922712603 
351	 2,15111705660413E-02 
352	 3,81165956596991E-02 
353	 3,60892748070078E-02 
354	 2,27333356348606E-02 
355	 6,07009719129144E-03 
356	 3,16432294888638E-02 
357	 7,49203007741441E-02 
358	 4,94973686443703E-02 
359	 3,18885395910186E-02 
360	 5,76760410597931E-02 
361	 8,59410896990542E-02 
362	 8,87139796480197E-02 
363	 2,98919803086004E-02 
364	 1,10269750702738E-02 
365	 0,040161393176608 
366	 4,12639277792859E-02 
367	 3,97782628664396E-02 
368	 4,76659471608347E-02 
369	 3,03754426259931E-02 
370	 2,63131221592938E-04 
371	-1,91194108336766E-02 
372	 1,10301356048523E-02 
373	 6,86247977474391E-02 
374	 4,30287970069915E-02 
375	 9,27150676994389E-03 
376	 2,65802819679857E-02 
377	 2,72608051294919E-02 
378	 1,68397922312148E-02 
379	 2,96078173924461E-02 
380	 4,06399258408101E-02 
381	 4,36147067117296E-02 
382	 4,51099518270661E-02 
383	 4,23903990206405E-02 
384	 3,37347063950673E-02 
385	 4,30122147104964E-02 
386	 0,058813068522162 
387	 4,27860559604679E-02 
388	 2,98732987927576E-02 
389	 3,38637966352127E-02 
390	 3,65353975912818E-02 
391	 3,96936838343332E-02 
392	 4,69568192862894E-02 
393	 0,047441626049155 
394	 3,93371640593548E-02 
395	 0,023196762286943 
396	 0,013305942779487 
397	 1,74087042501379E-02 
398	 3,58582961648052E-02 
399	 4,92736582885599E-02 
400	 3,01230967573553E-02 
401	 2,41681875786213E-02 
402	 3,55709815044644E-02 
403	 3,44927562957886E-02 
404	 2,18806720328505E-02 
405	 2,39490362001907E-03 
406	 0,014952115914616 
407	 3,89676579144807E-02 
408	 2,54368602612679E-02 
409	 2,17135018006137E-02 
410	 3,47203359803412E-02 
411	 2,74774470758707E-02 
412	 0,019048781330571 
413	 2,78375176347425E-02 
414	 3,56927867151012E-02 
415	 3,69158784723317E-02 
416	 2,51614706942655E-02 
417	 1,41918594912663E-02 
418	 1,13968409453544E-02 
419	 1,91672164762452E-02 
420	 2,99272122259777E-02 
421	 3,50641750843448E-02 
422	 3,06998763183672E-02 
423	 2,10965169952588E-02 
424	 2,28888771248444E-02 
425	 2,63255016377137E-02 
426	 2,58106072777667E-02 
427	 2,77006278906645E-02 
428	 2,93756241120075E-02 
429	 2,45909218146355E-02 
430	 2,30411401346986E-02 
431	 2,59352057850682E-02 
432	 0,024514938673553 
433	 2,38345083158539E-02 
434	 2,79269282477188E-02 
435	 2,47332281891827E-02 
436	 1,74520072396566E-02 
437	 1,97379319556948E-02 
438	 2,31719591032783E-02 
439	 2,41752742957583E-02 
440	 2,22593776734305E-02 
441	 2,10539533052172E-02 
442	 2,51383015495352E-02 
443	 2,55832746157241E-02 
444	 2,27477063571252E-02 
445	 2,55330585562411E-02 
446	 2,76311946345475E-02 
447	 2,54424791646417E-02 
448	 2,35586434694057E-02 
449	 2,34824780205196E-02 
450	 2,69653826872687E-02 
451	 2,84318407552425E-02 
452	 0,026967782234228 
453	 0,027715688502309 
454	 2,75394491888765E-02 
455	 2,37910758218596E-02 
456	 2,51544218255432E-02 
457	 2,92766511313221E-02 
458	 2,51756013644589E-02 
459	 2,31186142784594E-02 
460	 2,65143110979773E-02 
461	 2,71348376878956E-02 
462	 2,59656567570885E-02 
463	 2,53418379992327E-02 
464	 2,37535005735393E-02 
465	 2,22132131024893E-02 
466	 2,47359167141596E-02 
467	 0,028849349806885 
468	 3,24223411880557E-02 
469	 3,24120683675867E-02 
470	 3,02114259815051E-02 
471	 2,93803254022114E-02 
472	 0,028764556604775 
473	 2,81708522374145E-02 
474	 2,75857387273824E-02 
475	 2,75869888256178E-02 
476	 0,028676758107754 
477	 2,90530030132835E-02 
478	 2,90462366023464E-02 
479	 3,10404567746317E-02 
480	 3,12235015986882E-02 
481	 2,85005895643482E-02 
482	 2,88992174461161E-02 
483	 3,02791548533538E-02 
484	 2,84880980864924E-02 
485	 2,89001853200706E-02 
486	 3,14108334692291E-02 
487	 3,00583042659609E-02 
488	 2,86887079609366E-02 
489	 3,00640769248637E-02 
490	 3,05056645643639E-02 
491	 2,98832583006933E-02 
492	 2,91067415648634E-02 
493	 2,91895149851573E-02 
494	 3,02087923281976E-02 
495	 3,03449402185408E-02 
496	 2,93991499271139E-02 
497	 2,73841903511692E-02 
498	 2,85924813376164E-02 
499	 3,20420287153923E-02 
500	 3,18575219345781E-02 
501	 3,04005195914792E-02 
502	 2,91924780106274E-02 
503	 2,90084771040101E-02 
504	 2,96042880650087E-02 
505	 3,02825477257519E-02 
506	 3,14002169845845E-02 
507	 3,26670480352329E-02 
508	 3,29212301128048E-02 
509	 3,19988334129864E-02 
510	 2,99920597785245E-02 
511	 3,00673342491379E-02 
512	 3,14871558519874E-02 
513	 3,03311574476576E-02 
514	 3,08807363386694E-02 
515	 3,41455129412694E-02 
516	 3,43003782997158E-02 
517	 3,28370977937689E-02 
518	 3,25982547224364E-02 
519	 3,29841119669566E-02 
520	 3,34788213943345E-02 
521	 3,25067118822221E-02 
522	 3,16764171324907E-02 
523	 3,21467632815609E-02 
524	 0,0327920132529 
525	 3,34762645459433E-02 
526	 3,45734912919823E-02 
527	 0,034483337169097 
528	 3,30070784134244E-02 
529	 3,22883775477693E-02 
530	 3,23312099221019E-02 
531	 3,29078091596969E-02 
532	 3,32294693900362E-02 
533	 3,28862794843452E-02 
534	 3,10274413988541E-02 
535	 3,05959414930914E-02 
536	 3,28916088541968E-02 
537	 3,29681049411497E-02 
538	 3,19730603499351E-02 
539	 3,33119456839412E-02 
540	 3,44652924964061E-02 
541	 3,46347359538719E-02 
542	 3,39277997588883E-02 
543	 3,30803012363919E-02 
544	 3,28259072688923E-02 
545	 0,033361986860349 
546	 3,42518301727656E-02 
547	 3,41097049690802E-02 
548	 3,43761710614501E-02 
549	 3,54526723321336E-02 
550	 3,49657861179482E-02 
551	 3,39617144062914E-02 
552	 3,44725154868242E-02 
553	 3,46133565239947E-02 
554	 0,034134410106952 
555	 3,42768428159656E-02 
556	 3,43067051407684E-02 
557	 3,37038537076243E-02 
558	 3,41789960686866E-02 
559	 3,53775336034754E-02 
560	 3,57780152011327E-02 
561	 3,55534045486998E-02 
562	 3,49420752472046E-02 
563	 3,52599059082016E-02 
564	 3,57167623762668E-02 
565	 3,51208138245745E-02 
566	 3,47906706285997E-02 
567	 3,50103802824921E-02 
568	 3,55959247356624E-02 
569	 3,57924993713498E-02 
570	 3,51609797753406E-02 
571	 3,49162937950713E-02 
572	 3,52093219608476E-02 
573	 3,58609370778734E-02 
574	 3,70267905374201E-02 
575	 3,83422528904975E-02 
576	 3,78950819901884E-02 
577	 3,72017725118217E-02 
578	 3,80813123699715E-02 
579	 0,038753004274213 
580	 3,89087127559608E-02 
581	 3,88649224362559E-02 
582	 3,90123096764225E-02 
583	 3,95454142344421E-02 
584	 3,99320284409971E-02 
585	 0,040251500822256 
586	 4,08375157796148E-02 
587	 0,040694198740282 
588	 0,040017925565246 
589	 0,041047339950747 
590	 4,23371707961163E-02 
591	 4,24700125443591E-02 
592	 4,22271717021052E-02 
593	 4,19603398467885E-02 
594	 4,21736309084251E-02 
595	 4,25004381671938E-02 
596	 0,042777229011489 
597	 4,31629592409132E-02 
598	 4,34608032768963E-02 
599	 0,043388920270703 
600	 0,042831421238956 
601	 4,19803013644662E-02 
602	 4,14917371570757E-02 
603	 4,17639562328957E-02 
604	 4,29035436939572E-02 
605	 4,24819947914634E-02 
606	 0,041178234147014 
607	 4,17761619335759E-02 
608	 4,21730568469767E-02 
609	 4,16738382257117E-02 
610	 0,040940376371677 
611	 0,040507562618598 
612	 4,09446882195891E-02 
613	 4,13801872103231E-02 
614	 4,14188600480205E-02 
615	 4,05364222135393E-02 
616	 3,98926284801975E-02 
617	 4,02231038339933E-02 
618	 4,08683315005966E-02 
619	 4,14073476575615E-02 
620	 4,12827889310573E-02 
621	 0,040806564805488 
622	 4,02267304028288E-02 
623	 4,00608863150261E-02 
624	 4,03027781457282E-02 
625	 4,08747423361388E-02 
626	 4,09824808710628E-02 
627	 4,08197791243858E-02 
628	 4,16510941356148E-02 
629	 4,18751810478037E-02 
630	 4,08729660203084E-02 
631	 4,05094317843366E-02 
632	 4,08810984283391E-02 
633	 4,17941742006228E-02 
634	 4,21038111826235E-02 
635	 4,17431602687074E-02 
636	 4,21726637485589E-02 
637	 4,24538241730777E-02 
638	 4,18742733920432E-02 
639	 4,23662707478752E-02 
640	 4,35425040041099E-02 
641	 4,35175044323975E-02 
642	 4,35481694077291E-02 
643	 4,40566069515188E-02 
644	 4,44746425087062E-02 
645	 4,48184984109063E-02 
646	 4,51757562310142E-02 
647	 4,52964193790799E-02 
648	 4,50115351626846E-02 
649	 4,38090264212791E-02 
650	 0,043343440248373 
651	 4,44816668829194E-02 
652	 4,42187255155192E-02 
653	 4,31255599854689E-02 
654	 0,043362691263601 
655	 4,32710722658901E-02 
656	 4,23915395274279E-02 
657	 4,11714728771412E-02 
658	 4,02230687106018E-02 
659	 4,01178887731333E-02 
660	 3,99771961002638E-02 
661	 0,039559035077248 
662	 3,87626458047785E-02 
663	 3,80721930182814E-02 
664	 3,77689557277159E-02 
665	 3,78963222664229E-02 
666	 3,79006123603211E-02 
667	 0,036915406485812 
668	 0,036279159207488 
669	 3,62569096355076E-02 
670	 3,61669590814006E-02 
671	 3,62583218220946E-02 
672	 3,66964080421096E-02 
673	 3,69558535065282E-02 
674	 3,69373023598592E-02 
675	 0,036602256365123 
676	 0,036454756914147 
677	 0,036654262774702 
678	 3,67667024386449E-02 
679	 3,69778388825439E-02 
680	 3,75371019460224E-02 
681	 3,73346684393069E-02 
682	 3,66814708201824E-02 
683	 3,73550375373228E-02 
684	 3,84712102857809E-02 
685	 3,93735623985878E-02 
686	 3,92324950583457E-02 
687	 3,89235671152413E-02 
688	 4,02139026558292E-02 
689	 4,12342097932367E-02 
690	 4,17288745568892E-02 
691	 4,31265492539375E-02 
692	 4,49338795626969E-02 
693	 0,046682773793096 
694	 4,88270882538602E-02 
695	 5,12620728214245E-02 
696	 5,35170997703073E-02 
697	 5,59586505898934E-02 
698	 5,87854812125478E-02 
699	 6,21162981531706E-02 
700	 6,59056430561738E-02 
701	 7,00734228792001E-02 
702	 7,37975516425619E-02 
703	 7,70734300841413E-02 
704	 8,06566889085653E-02 
705	 8,46144649806796E-02 
706	 8,88372161199826E-02 
707	 9,21067051756927E-02 
708	 9,48195888912633E-02 
709	 9,80258727111584E-02 
710	 0,101169601038612 
711	 0,104137194903055 
712	 0,107125531155691 
713	 0,109987155914695 
714	 0,112551648108578 
715	 0,114369440372841 
716	 0,115902570100951 
717	 0,118644584813986 
718	 0,120782940210609 
719	 0,121731130427961 
720	 0,122841516261528 
721	 0,124354243666305 
722	 0,126397937943473 
723	 0,127391442251053 
724	 0,127572244751061 
725	 0,129157240979726 
726	 0,130658437809587 
727	 0,131224058871851 
728	 0,131880190654503 
729	 0,132719762693851 
730	 0,13371038028861 
731	 0,134008837890505 
732	 0,13374618474928 
733	 0,134703361572131 
734	 0,135754394149966 
735	 0,135905286354833 
736	 0,136119530427313 
737	 0,136543664779294 
738	 0,137102516754513 
739	 0,137704774094925 
740	 0,13821919935581 
741	 0,138220820235321 
742	 0,138196606503174 
743	 0,138732832451083 
744	 0,139214226990887 
745	 0,139486240940031 
746	 0,139520499861813 
747	 0,139606462916886 
748	 0,139928474178155 
749	 0,140592961314895 
750	 0,141072417889487 
751	 0,140546441202211 
752	 0,140310016650989 
753	 0,140658206032776 
754	 0,141213412809775 
755	 0,141539285252653 
756	 0,141369907703031 
757	 0,141389077359435 
758	 0,141665601903907 
759	 0,142119904536853 
760	 0,142452562306237 
761	 0,142569399123767 
762	 0,142625451548692 
763	 0,142722700960942 
764	 0,142930425035926 
765	 0,142882612435181 
766	 0,142697346441377 
767	 0,142810068813005 
768	 0,143204344657239 
769	 0,143782779959333 
770	 0,143997132293521 
771	 0,144075601833498 
772	 0,144340642324918 
773	 0,144481335213958 
774	 0,144466201272712 
775	 0,144376757989427 
776	 0,144416592707085 
777	 0,144644080997058 
778	 0,144612429601923 
779	 0,144495880390122 
780	 0,144619259946828 
781	 0,14483033450357 
782	 0,145003955392998 
783	 0,144850968612037 
784	 0,144668634510035 
785	 0,144670091222497 
786	 0,144809248318882 
787	 0,145074695003939 
788	 0,145459625442156 
789	 0,145786986543471 
790	 0,146015853749734 
791	 0,14631500846305 
792	 0,146402208571045 
793	 0,14611205488809 
794	 0,146187431585813 
795	 0,146531194041901 
796	 0,146669018408301 
797	 0,146651482099775 
798	 0,146617623183628 
799	 0,147225444773752 
800	 0,147775488756918 
801	 0,147608911362524 
802	 0,147342227485048 
803	 0,147171619085755 
804	 0,147312979644782 
805	 0,147193469096327 
806	 0,14680819637559 
807	 0,147389730833087 
808	 0,148059228317317 
809	 0,147827047756322 
810	 0,147715492368356 
811	 0,147853621556299 
812	 0,147922693257088 
813	 0,148380933825391 
814	 0,149192791363748 
815	 0,149031262894822 
816	 0,148495252632471 
817	 0,148438844280886 
818	 0,148772688126149 
819	 0,149341324055233 
820	 0,149805529284604 
821	 0,149748013628766 
822	 0,149120747327409 
823	 0,149089196053587 
824	 0,149306439131768 
825	 0,149178146019937 
826	 0,150096404286997 
827	 0,151437565376444 
828	 0,150126919312018 
829	 0,149403173803403 
830	 0,150636287280368 
831	 0,150764951591452 
832	 0,150116349495404 
833	 0,14959085978031 
834	 0,149827935902641 
835	 0,150678624689156 
836	 0,151032336635542 
837	 0,151214776754276 
838	 0,15132156074875 
839	 0,150845025489162 
840	 0,150362730118004 
841	 0,150730591203155 
842	 0,150831322094125 
843	 0,150613229156751 
844	 0,15089071093848 
845	 0,151191834882071 
846	 0,151263365500496 
847	 0,151315410383703 
848	 0,151282824959815 
849	 0,151049590669443 
850	 0,150978662906475 
851	 0,151013191298064 
852	 0,150547566699391 
853	 0,150517846490507 
854	 0,151257657110136 
855	 0,151295599439906 
856	 0,151044656468011 
857	 0,151293347971424 
858	 0,15135289546359 
859	 0,151205847728512 
860	 0,151321533359791 
861	 0,151389820778894 
862	 0,151357202778077 
863	 0,152046872484374 
864	 0,15258097177433 
865	 0,151761930658314 
866	 0,150990804147414 
867	 0,150750486193919 
868	 0,151406229559605 
869	 0,151857863313353 
870	 0,151658803069445 
871	 0,151831152124099 
872	 0,151909461796523 
873	 0,151283461856706 
874	 0,151824597282255 
875	 0,153089709883058 
876	 0,152626590757585 
877	 0,151987772652422 
878	 0,15191713128182 
879	 0,152732233017686 
880	 0,153255600172259 
881	 0,152284519511895 
882	 0,151794090187496 
883	 0,151931170804447 
884	 0,151834528107272 
885	 0,152491833747247 
886	 0,153786322811936 
887	 0,153366797747606 
888	 0,152801814619148 
889	 0,15357107774065 
890	 0,153501918383659 
891	 0,152946949866393 
892	 0,153576030619726 
893	 0,153601610129696 
894	 0,152854567640124 
895	 0,153358834268284 
896	 0,153534927254963 
897	 0,152321724928186 
898	 0,152333992398157 
899	 0,15316617816422 
900	 0,153383309420656 
901	 0,153396545328292 
902	 0,153366020313855 
903	 0,153612579836126 
904	 0,153718195950584 
905	 0,153456270070973 
906	 0,153158117510704 
907	 0,153210794969647 
908	 0,154069860754864 
909	 0,154249540111673 
910	 0,153829856615172 
911	 0,154414855002022 
912	 0,154519180813404 
913	 0,153672698048982 
914	 0,153442710159869 
915	 0,153734480474973 
916	 0,154237381554816 
917	 0,154095911165964 
918	 0,153658178396239 
919	 0,154376560673027 
920	 0,154524902397633 
921	 0,153790161770911 
922	 0,153684494556424 
923	 0,153977813676039 
924	 0,154340761467852 
925	 0,154080201170311 
926	 0,153465661468296 
927	 0,153169878414771 
928	 0,153354581545261 
929	 0,153850540916149 
930	 0,153847872005937 
931	 0,153552550565894 
932	 0,153221693725307 
933	 0,153751420739348 
934	 0,154297994087202 
935	 0,15369195465773 
936	 0,152837256794776 
937	 0,15210605973484 
938	 0,151871914141397 
939	 0,151836452822608 
940	 0,15192736791205 
941	 0,152431022213844 
942	 0,152866587470548 
943	 0,152813047887855 
944	 0,152614336339797 
945	 0,152415807990557 
946	 0,152422178596842 
947	 0,151331236949945 
948	 0,149640107483756 
949	 0,150579528302328 
950	 0,151303973645346 
951	 0,150341496468909 
952	 0,149755118682939 
953	 0,149105909017157 
954	 0,14774072336248 
955	 0,148725987761985 
956	 0,150982707674909 
957	 0,150080485370325 
958	 0,149355211455696 
959	 0,149563354104482 
960	 0,148790296644302 
961	 0,147768651712755 
962	 0,147277960756802 
963	 0,148607484479792 
964	 0,149907782249918 
965	 0,14819079753273 
966	 0,147480489808136 
967	 0,14809449837582 
968	 0,147722518950905 
969	 0,147137009989011 
970	 0,146874835060367 
971	 0,14825788419645 
972	 0,148903330102087 
973	 0,14686789195566 
974	 0,145968857626026 
975	 0,146487076575537 
976	 0,147706444378318 
977	 0,14774924894982 
978	 0,147075426301008 
979	 0,14962136492526 
980	 0,150798949024847 
981	 0,148830075936761 
982	 0,147626804695855 
983	 0,147533992847017 
984	 0,148449605580221 
985	 0,148811486408336 
986	 0,148822973774962 
987	 0,14947079307868 
988	 0,15102917876272 
989	 0,152548372120849 
990	 0,150328556393334 
991	 0,148533399130901 
992	 0,149154590902708 
993	 0,149763067461851 
994	 0,149445142943246 
995	 0,147804958843588 
996	 0,149460613592682 
997	 0,152652176569519 
998	 0,152345099380707 
999	 0,151483914346114 
1000	 0,151313497790103 
1001	 0,15343361667906 
1002	 0,153943833948699 
1003	 0,151787771251191 
1004	 0,153664905205379 
1005	 0,154778231453096 
1006	 0,150676403128914 
1007	 0,150317604211814 
1008	 0,152519276203263 
1009	 0,15238362389167 
1010	 0,155090626964032 
1011	 0,158874682260301 
1012	 0,153505997960535 
1013	 0,150880162593445 
1014	 0,154719570268055 
1015	 0,1546696873358 
1016	 0,152740742437945 
1017	 0,151456147837077 
1018	 0,153578376185585 
1019	 0,156180878564851 
1020	 0,154375461379588 
1021	 0,153758533759125 
1022	 0,154487243886788 
1023	 0,15301870454864 
1024	 0,15320531800412 
1025	 0,15568921293971 
1026	 0,157556575422874 
1027	 0,15681948761706 
1028	 0,15351170577065 
1029	 0,157195267147424 
1030	 0,161777736589657 
1031	 0,159274074364211 
1032	 0,155190268350719 
1033	 0,154861604123481 
1034	 0,166945443013383 
1035	 0,169502608190468 
1036	 0,161095476725422 
1037	 0,161415736020059 
1038	 0,160446173049876 
1039	 0,155454558564635 
1040	 0,155198600897874 
1041	 0,158520681988111 
1042	 0,16294434662663 
1043	 0,160127454634843 
1044	 0,155631297059958 
1045	 0,158561518674593 
1046	 0,160401543252522 
1047	 0,161336269901598 
1048	 0,165862422160588 
1049	 0,171500166702071 
1050	 0,174569950385168 
1051	 0,164708592805701 
1052	 0,159180022400672 
1053	 0,165894988717518 
1054	 0,171893810913246 
1055	 0,17406058327103 
1056	 0,169736436257776 
1057	 0,153461897374053 
1058	 0,143660812858464 
1059	 0,165127753313972 
1060	 0,163253179322391 
1061	 0,147274589970047 
1062	 0,166083785676639 
1063	 0,174604413256555 
1064	 0,16428859330915 
1065	 0,153073522674745 
1066	 0,148705344695345 
1067	 0,153422608417568 
1068	 0,154408082585021 
1069	 0,15614603132859 
1070	 0,162016134963309 
1071	 0,169331603885962 
1072	 0,170779613926809 
1073	 0,159005657343847 
1074	 0,137788820569371 
1075	 0,127393021028388 
