Wavelength	GRA-BER00434.asd
325	-0,03910311591305 
326	 0,105607196006032 
327	 0,188381089965292 
328	 0,139185208607233 
329	-6,31053294645453E-03 
330	-9,33553125984825E-02 
331	 5,27891304413493E-02 
332	 0,11180554961002 
333	 7,43057033273302E-02 
334	 5,14052432792713E-02 
335	 2,23579172994279E-02 
336	-0,015999838833152 
337	-8,09613704659671E-02 
338	-8,54460167704585E-02 
339	 4,44566747335438E-02 
340	 9,68657948073657E-02 
341	 0,0718882961834 
342	 6,31118613087078E-02 
343	 1,36356781274276E-02 
344	-5,98686380125316E-02 
345	 8,17501254819039E-03 
346	 8,65609148292917E-02 
347	 4,08244642867344E-02 
348	 9,54003907993116E-03 
349	 4,14665086611418E-03 
350	-6,82767426258954E-03 
351	 2,46614283978004E-02 
352	 8,82923607495561E-02 
353	 8,50181039678438E-02 
354	 4,64096481765137E-02 
355	 7,7940928745977E-03 
356	-9,83114077403586E-03 
357	-1,28558574879685E-03 
358	 2,20438706124092E-02 
359	 0,028950165887187 
360	 1,66212701392167E-02 
361	 4,27757588886108E-02 
362	 6,68925799364059E-02 
363	 2,43524735877384E-02 
364	-4,86914112853745E-03 
365	-5,58158530636323E-03 
366	 1,07986240080563E-02 
367	 2,69741590314391E-02 
368	 0,033577847215674 
369	 6,18610934046928E-02 
370	 0,079827280185096 
371	 3,17120281465613E-02 
372	 8,59178178684724E-03 
373	 3,01732569752124E-02 
374	 4,62155442488435E-02 
375	 3,85884072723886E-02 
376	-6,32800157412024E-04 
377	-1,31713041817943E-03 
378	 2,67239610032829E-02 
379	 0,037081118848384 
380	 2,62909756503411E-02 
381	 2,6375352600375E-03 
382	 2,27580318289835E-02 
383	 4,44612325249073E-02 
384	 2,81426189721311E-02 
385	 2,58608000891593E-02 
386	 3,43137523963421E-02 
387	 1,81198423218197E-02 
388	 1,37481138312854E-02 
389	 2,92698532055024E-02 
390	 2,17214414541401E-02 
391	 1,22185037388907E-02 
392	 2,89552360933933E-02 
393	 2,64235490363281E-02 
394	 8,36716394643349E-03 
395	 1,92831169188257E-02 
396	 2,66697479790566E-02 
397	 1,62568932603715E-02 
398	 1,01705654301785E-02 
399	 1,04832581186488E-02 
400	 1,66052042663724E-02 
401	 1,65775769813363E-02 
402	 1,11621745942414E-02 
403	 1,59659530129999E-02 
404	 0,019277653811576 
405	 1,37942775608852E-02 
406	 1,26371431344358E-02 
407	 1,39014410949952E-02 
408	 9,46090523138254E-03 
409	 8,78995081013464E-03 
410	 1,41384112041108E-02 
411	 2,38092029005041E-02 
412	 2,57565666329061E-02 
413	 1,03933441133749E-02 
414	 0,010166142391394 
415	 2,09495169185388E-02 
416	 1,53793063679645E-02 
417	 1,47589174511242E-02 
418	 0,023886320988495 
419	 1,88611035245066E-02 
420	 1,03281504375747E-02 
421	 1,44164918641715E-02 
422	 1,52765231271516E-02 
423	 1,22755513102237E-02 
424	 1,63531059881405E-02 
425	 1,64042865847102E-02 
426	 7,86846164216638E-03 
427	 1,10777135688862E-02 
428	 1,99820547496768E-02 
429	 1,95148173673329E-02 
430	 1,58857768308866E-02 
431	 1,24246234213702E-02 
432	 1,67125344977033E-02 
433	 1,81161893426762E-02 
434	 8,24186906795875E-03 
435	 8,1945242784136E-03 
436	 1,52398217115526E-02 
437	 1,22664030451469E-02 
438	 9,53121733288726E-03 
439	 1,03627924531564E-02 
440	 9,62437908608299E-03 
441	 9,65529206605088E-03 
442	 1,38393051952062E-02 
443	 0,014859026444 
444	 0,012441356988467 
445	 1,16494165226694E-02 
446	 1,27973616086073E-02 
447	 1,54657980550767E-02 
448	 1,35898245863868E-02 
449	 1,05182869466357E-02 
450	 1,42941922782908E-02 
451	 0,01465696661218 
452	 1,01539067684591E-02 
453	 9,15807907287196E-03 
454	 1,08665658973308E-02 
455	 1,39378698979512E-02 
456	 1,48530692765703E-02 
457	 1,43514840717554E-02 
458	 1,66967637222029E-02 
459	 0,018184180895667 
460	 1,73786073933854E-02 
461	 0,015980931140282 
462	 1,40293120825969E-02 
463	 1,12768587837188E-02 
464	 1,14128857855324E-02 
465	 1,34458839102411E-02 
466	 1,02278585659268E-02 
467	 8,31469334790173E-03 
468	 1,14690984699957E-02 
469	 1,16867333357275E-02 
470	 9,6640591583951E-03 
471	 8,81337224693216E-03 
472	 9,76211155676565E-03 
473	 1,22371986662234E-02 
474	 1,36745490492574E-02 
475	 1,32331533708266E-02 
476	 1,04985286534514E-02 
477	 1,09972119543172E-02 
478	 1,36683976559136E-02 
479	 1,21831147416748E-02 
480	 1,08819487266057E-02 
481	 1,16457473255652E-02 
482	 1,25986269677519E-02 
483	 1,35289402995983E-02 
484	 1,45009672140011E-02 
485	 1,39039529851735E-02 
486	 1,21846110651804E-02 
487	 1,27252329958131E-02 
488	 1,35045679592185E-02 
489	 1,29210532762802E-02 
490	 1,10077043020765E-02 
491	 9,32720150578373E-03 
492	 1,18476810625813E-02 
493	 1,22049915777067E-02 
494	 9,14373951281606E-03 
495	 8,76878258615713E-03 
496	 1,00944348737223E-02 
497	 1,14393322343412E-02 
498	 1,30794979117219E-02 
499	 1,40907507186143E-02 
500	 1,16462840043494E-02 
501	 9,64451679375469E-03 
502	 1,01742626036202E-02 
503	 1,03950767701486E-02 
504	 1,06253649011068E-02 
505	 1,21641580329134E-02 
506	 1,28541356489791E-02 
507	 1,23818481081221E-02 
508	 1,25054433826337E-02 
509	 1,25360959253024E-02 
510	 1,18656240266829E-02 
511	 1,21243462132312E-02 
512	 1,27618375455133E-02 
513	 1,14020547975024E-02 
514	 1,05951676300162E-02 
515	 1,14199527211152E-02 
516	 0,013050117526648 
517	 1,43493568841433E-02 
518	 1,39616071248724E-02 
519	 1,28641634090724E-02 
520	 0,011799698125281 
521	 0,012234042397055 
522	 1,28329817075185E-02 
523	 1,26740130109158E-02 
524	 1,30885188625824E-02 
525	 1,36810276026377E-02 
526	 1,31014575716596E-02 
527	 1,25560077076474E-02 
528	 1,25265032834953E-02 
529	 1,31396431360557E-02 
530	 1,37175802899582E-02 
531	 1,34954959112109E-02 
532	 1,28605188174837E-02 
533	 1,22833587501592E-02 
534	 1,29386857493291E-02 
535	 1,32956961500671E-02 
536	 1,26437258813886E-02 
537	 1,32393617827993E-02 
538	 1,42473979027135E-02 
539	 0,013607592796962 
540	 1,28634958203652E-02 
541	 0,012563361048685 
542	 1,27876113926079E-02 
543	 1,32452572292887E-02 
544	 1,36370150203977E-02 
545	 0,013971214953271 
546	 1,41783699672466E-02 
547	 1,41311114818324E-02 
548	 1,38970286333708E-02 
549	 1,36479488220959E-02 
550	 1,44125434350869E-02 
551	 1,49256807840536E-02 
552	 1,29789763191496E-02 
553	 1,27948067524503E-02 
554	 1,47366157456412E-02 
555	 1,50800636872742E-02 
556	 1,48778500568628E-02 
557	 1,50109226994515E-02 
558	 1,40955868187228E-02 
559	 1,29023149385842E-02 
560	 1,38227761985462E-02 
561	 1,52116440988797E-02 
562	 1,62313116555579E-02 
563	 1,61804680424336E-02 
564	 1,59957188642696E-02 
565	 1,69782864560499E-02 
566	 1,81741506377224E-02 
567	 1,91013801627917E-02 
568	 1,89183009969059E-02 
569	 0,018985146002615 
570	 2,02460467916351E-02 
571	 2,19937342533162E-02 
572	 2,35099200124818E-02 
573	 0,023513628693098 
574	 0,02363159824484 
575	 2,44766630050035E-02 
576	 2,59262529517764E-02 
577	 2,70221045877159E-02 
578	 2,67377911517147E-02 
579	 2,62659620497438E-02 
580	 2,59758780610219E-02 
581	 2,59624008956221E-02 
582	 2,62126306707822E-02 
583	 2,66101900837922E-02 
584	 2,64687814786263E-02 
585	 2,57946094714153E-02 
586	 2,46494638627329E-02 
587	 2,48301203670224E-02 
588	 2,61344757132758E-02 
589	 2,50043686604779E-02 
590	 2,33426395827388E-02 
591	 2,30568654828357E-02 
592	 2,32627091149665E-02 
593	 0,023393689192276 
594	 0,02232375080597 
595	 2,14121181242281E-02 
596	 2,12955017231922E-02 
597	 0,021481523098997 
598	 2,16075350589945E-02 
599	 0,021233447191456 
600	 0,020752474983598 
601	 2,02872000830067E-02 
602	 1,98318527362167E-02 
603	 1,93619454747698E-02 
604	 1,88841414039404E-02 
605	 1,87581490114478E-02 
606	 0,018695663660191 
607	 1,77532259989556E-02 
608	 1,73350897694428E-02 
609	 0,017756788728184 
610	 1,74327867465819E-02 
611	 1,69941736559515E-02 
612	 1,73719631236785E-02 
613	 1,76075651552239E-02 
614	 1,75269679566426E-02 
615	 1,74065320741408E-02 
616	 1,71536896711027E-02 
617	 1,67827377657212E-02 
618	 1,68705828253652E-02 
619	 1,72604497808434E-02 
620	 1,74825691213858E-02 
621	 1,77616751586541E-02 
622	 1,79733246096158E-02 
623	 1,71886836698242E-02 
624	 1,66711093164348E-02 
625	 1,76873599512258E-02 
626	 1,79298949415436E-02 
627	 1,75583307631927E-02 
628	 1,85817167563852E-02 
629	 1,95647056327644E-02 
630	 1,97847864432973E-02 
631	 1,97653162069666E-02 
632	 1,97071534374019E-02 
633	 1,98025397138621E-02 
634	 2,02858755408887E-02 
635	 2,10641618383039E-02 
636	 2,14717937890832E-02 
637	 2,17606608317444E-02 
638	 2,21695306358853E-02 
639	 2,27683191893113E-02 
640	 2,33774077130781E-02 
641	 2,35779991167614E-02 
642	 2,33570249275531E-02 
643	 2,28741835533713E-02 
644	 2,30628224923179E-02 
645	 2,36137716524669E-02 
646	 2,40143105952871E-02 
647	 2,36889415595707E-02 
648	 2,29074793291852E-02 
649	 2,30950674402213E-02 
650	 2,37192645936062E-02 
651	 2,42636062714756E-02 
652	 2,35190223616709E-02 
653	 2,22352785337694E-02 
654	 2,22975664645337E-02 
655	 2,24385652364149E-02 
656	 2,23473660979757E-02 
657	 2,26513947754714E-02 
658	 2,27805209098884E-02 
659	 2,21265827860014E-02 
660	 2,08583171537913E-02 
661	 0,019515839314384 
662	 1,94635620733291E-02 
663	 1,94093881180558E-02 
664	 1,87383926368686E-02 
665	 1,81374777812301E-02 
666	 1,76544536268512E-02 
667	 1,72388638276293E-02 
668	 1,68569541187834E-02 
669	 1,65575178633838E-02 
670	 0,016600153550185 
671	 1,66169963178827E-02 
672	 1,63012815537117E-02 
673	 1,56545694293786E-02 
674	 1,50881666981016E-02 
675	 0,01563688915021 
676	 1,58842318844999E-02 
677	 1,54111032451568E-02 
678	 1,51480939811182E-02 
679	 1,50466893808312E-02 
680	 1,49573720043795E-02 
681	 1,48764678566956E-02 
682	 1,47909473413395E-02 
683	 1,45936325991547E-02 
684	 1,48174862341393E-02 
685	 1,56793229529978E-02 
686	 1,61940859891894E-02 
687	 1,64395679072849E-02 
688	 1,67712987665737E-02 
689	 1,75233738752878E-02 
690	 0,018673138518358 
691	 1,95460084182925E-02 
692	 2,04507053439322E-02 
693	 2,16912567103054E-02 
694	 2,30738246884194E-02 
695	 2,48328393436605E-02 
696	 2,76019878865302E-02 
697	 0,030843389473993 
698	 3,42665092177451E-02 
699	 3,76633460648792E-02 
700	 4,11977612558532E-02 
701	 4,51070529751604E-02 
702	 4,99217551845637E-02 
703	 5,55072227884147E-02 
704	 6,09835814280876E-02 
705	 6,66011599373006E-02 
706	 7,24690169027066E-02 
707	 7,81819853822026E-02 
708	 8,38910550802313E-02 
709	 9,00103074999264E-02 
710	 9,61280795487301E-02 
711	 0,101971832797369 
712	 0,107002100413083 
713	 0,112059278054249 
714	 0,117858081830307 
715	 0,122905616129501 
716	 0,127356975729147 
717	 0,132452792828527 
718	 0,136990968530656 
719	 0,140668869971933 
720	 0,144862267535082 
721	 0,149194703809809 
722	 0,153025597458809 
723	 0,156153603481578 
724	 0,158855090264174 
725	 0,162162674264075 
726	 0,165529159266956 
727	 0,168516541937262 
728	 0,170472138092072 
729	 0,171910537006509 
730	 0,173897033511585 
731	 0,175789673507591 
732	 0,177497806660463 
733	 0,179407669920798 
734	 0,181260817870387 
735	 0,182800411035776 
736	 0,183809049707924 
737	 0,18455418805413 
738	 0,185798121724318 
739	 0,186872079852836 
740	 0,187616275601482 
741	 0,188586162992972 
742	 0,189633278446038 
743	 0,190532326087857 
744	 0,191133422265962 
745	 0,191513678087273 
746	 0,192022405885867 
747	 0,192497313610279 
748	 0,192902392907941 
749	 0,193603011813564 
750	 0,194297742002359 
751	 0,194450588033169 
752	 0,194999221296273 
753	 0,195936213520571 
754	 0,196249011302751 
755	 0,196262593698832 
756	 0,196269397605771 
757	 0,196571242653478 
758	 0,197032324924016 
759	 0,197257901994625 
760	 0,197533035954489 
761	 0,197875820357913 
762	 0,19797899767902 
763	 0,19795390630788 
764	 0,197947829610664 
765	 0,198409912475932 
766	 0,199010966083841 
767	 0,198580582942955 
768	 0,198613261609231 
769	 0,199496312732814 
770	 0,19975391884312 
771	 0,199666793984644 
772	 0,19971407856422 
773	 0,199799908097097 
774	 0,199922273602722 
775	 0,200085230855774 
776	 0,200255603903322 
777	 0,200428307687072 
778	 0,20074974770263 
779	 0,200964623224315 
780	 0,200683424500894 
781	 0,200635228488466 
782	 0,200894048006103 
783	 0,200933507491907 
784	 0,201066745015492 
785	 0,201404397901584 
786	 0,201041380511667 
787	 0,200490821193719 
788	 0,200877623705709 
789	 0,20124742121925 
790	 0,20137497673484 
791	 0,201642926447636 
792	 0,201716988159699 
793	 0,201382278904149 
794	 0,201354721305835 
795	 0,201543988972396 
796	 0,201466356326703 
797	 0,201536841503483 
798	 0,201792612151501 
799	 0,201733918179837 
800	 0,20171974933575 
801	 0,202082410547417 
802	 0,20232808390192 
803	 0,202432775878324 
804	 0,202631041792447 
805	 0,202552608573364 
806	 0,2022131662507 
807	 0,202409182663517 
808	 0,202853693298406 
809	 0,203165638346563 
810	 0,203165803064031 
811	 0,203031820597627 
812	 0,203400013882854 
813	 0,203678397629304 
814	 0,2037038554577 
815	 0,204118593174039 
816	 0,204539371919118 
817	 0,204467249521402 
818	 0,204503295003472 
819	 0,204653297608135 
820	 0,204441727846535 
821	 0,204540450310993 
822	 0,205189716005982 
823	 0,205718649507253 
824	 0,206034743003349 
825	 0,206118670195254 
826	 0,205827960841762 
827	 0,20545538146093 
828	 0,205950903963721 
829	 0,206567143242436 
830	 0,20683685005977 
831	 0,20651105512247 
832	 0,206101865125374 
833	 0,206332311200585 
834	 0,206702839095286 
835	 0,206970736207594 
836	 0,206745605313003 
837	 0,20664745573791 
838	 0,207002876911993 
839	 0,207537091197414 
840	 0,207795165601245 
841	 0,207206464782419 
842	 0,207442445384816 
843	 0,20846708711887 
844	 0,208733870382233 
845	 0,208524821432649 
846	 0,208090006432091 
847	 0,208090959151492 
848	 0,208393221517234 
849	 0,208684745875821 
850	 0,20825864218597 
851	 0,207444787180582 
852	 0,207960626610225 
853	 0,208450719455243 
854	 0,208279924236565 
855	 0,208500360383698 
856	 0,208990963599321 
857	 0,209434712643023 
858	 0,209689177543676 
859	 0,209675850931095 
860	 0,209296719362417 
861	 0,209018048255829 
862	 0,209086222968234 
863	 0,209290719571682 
864	 0,209379431516568 
865	 0,209075145024364 
866	 0,209115814382261 
867	 0,209520850772819 
868	 0,209777802276609 
869	 0,210013767189448 
870	 0,210284563065376 
871	 0,21066070565527 
872	 0,210971162629671 
873	 0,21100022616219 
874	 0,210369281644384 
875	 0,209604012750779 
876	 0,210406862208736 
877	 0,211171492708768 
878	 0,211189641261938 
879	 0,21076300468063 
880	 0,210258419499513 
881	 0,210084489771172 
882	 0,210814345543187 
883	 0,211951489327983 
884	 0,211948052074923 
885	 0,211762004721131 
886	 0,211682879056301 
887	 0,211363850315987 
888	 0,211193797792382 
889	 0,211498849768104 
890	 0,211543995793643 
891	 0,211343073642426 
892	 0,21122305783541 
893	 0,211199632343121 
894	 0,211269663450967 
895	 0,21136458394844 
896	 0,211263859301545 
897	 0,210874282087259 
898	 0,210938522888116 
899	 0,211375339664899 
900	 0,211836216597344 
901	 0,211998763523812 
902	 0,211869903160945 
903	 0,211943231482664 
904	 0,21195921080558 
905	 0,211805038319532 
906	 0,211880214682299 
907	 0,212113705392266 
908	 0,212334960567198 
909	 0,211724556691734 
910	 0,210608858967861 
911	 0,210646324605336 
912	 0,210788475544291 
913	 0,210566520260522 
914	 0,210295468812875 
915	 0,210216520198103 
916	 0,210518204052142 
917	 0,210119286718552 
918	 0,209359254796251 
919	 0,209664922069821 
920	 0,209950435929024 
921	 0,209886064134396 
922	 0,209936495894698 
923	 0,209384620860627 
924	 0,207846710167428 
925	 0,207755143544724 
926	 0,208330124285601 
927	 0,207421181691056 
928	 0,207248926567775 
929	 0,20769524924596 
930	 0,20597251610781 
931	 0,204564747563756 
932	 0,204715746660209 
933	 0,204041363912184 
934	 0,202995272105122 
935	 0,202473272399362 
936	 0,202113998448411 
937	 0,201665077286912 
938	 0,200547370770595 
939	 0,199891263028728 
940	 0,199910230066133 
941	 0,199418201203352 
942	 0,19811515517434 
943	 0,195976581306785 
944	 0,194823147549679 
945	 0,194670928748075 
946	 0,194998313062688 
947	 0,193522024536734 
948	 0,190542522080874 
949	 0,189908419117227 
950	 0,189364567658105 
951	 0,187682440690464 
952	 0,185848843220887 
953	 0,184276111871029 
954	 0,183290299037861 
955	 0,181451224389063 
956	 0,179647090495744 
957	 0,181119439095732 
958	 0,181204221521965 
959	 0,178832288462086 
960	 0,177146821135192 
961	 0,176622059812139 
962	 0,177225167035331 
963	 0,176102845523857 
964	 0,174498678403206 
965	 0,174934704594464 
966	 0,174098481913799 
967	 0,172295104805203 
968	 0,17307597891714 
969	 0,173614909631819 
970	 0,172880746839635 
971	 0,172196497433044 
972	 0,172324209575457 
973	 0,173691645010637 
974	 0,174210864217835 
975	 0,173679553730128 
976	 0,172403607268043 
977	 0,172124249541894 
978	 0,173092121108892 
979	 0,174329540476657 
980	 0,174710285963278 
981	 0,173626334437527 
982	 0,171174401079084 
983	 0,170169043896579 
984	 0,172988974410679 
985	 0,173767915623002 
986	 0,17306350686141 
987	 0,174131805676047 
988	 0,175384494718728 
989	 0,17609506701672 
990	 0,175250044199984 
991	 0,174232684540996 
992	 0,174191379117723 
993	 0,177152655649123 
994	 0,179029577558542 
995	 0,175955050520992 
996	 0,174388482147701 
997	 0,175026712617754 
998	 0,176775951526654 
999	 0,177000015407142 
1000	 0,176361937882076 
1001	 0,180813016015999 
1002	 0,182687565140238 
1003	 0,179307892326725 
1004	 0,179200908831599 
1005	 0,180443904114588 
1006	 0,180505948547845 
1007	 0,179625588722252 
1008	 0,179391654488289 
1009	 0,182505356682994 
1010	 0,185056685444615 
1011	 0,185954311629402 
1012	 0,18521411434034 
1013	 0,186118116845944 
1014	 0,189007712738592 
1015	 0,187099847870257 
1016	 0,185503804559081 
1017	 0,188370978878102 
1018	 0,190109556407434 
1019	 0,189978852350055 
1020	 0,188177243542352 
1021	 0,189574354851463 
1022	 0,192971665420345 
1023	 0,191360281045718 
1024	 0,191435533569072 
1025	 0,194072981896476 
1026	 0,192207934660758 
1027	 0,192044977537319 
1028	 0,196079307346126 
1029	 0,190599018416139 
1030	 0,186326948545069 
1031	 0,19606851665983 
1032	 0,198052439884985 
1033	 0,192868306950655 
1034	 0,190254201707449 
1035	 0,191295236954726 
1036	 0,195203603449383 
1037	 0,197995076665184 
1038	 0,195212131943061 
1039	 0,187440899483293 
1040	 0,188650543938231 
1041	 0,195527486297134 
1042	 0,203126812078036 
1043	 0,202376722100035 
1044	 0,19880562716387 
1045	 0,201863756310368 
1046	 0,20609565486453 
1047	 0,20824732355718 
1048	 0,203582604408541 
1049	 0,19843552933967 
1050	 0,195480146116427 
1051	 0,19638204725181 
1052	 0,197327863645719 
1053	 0,196580167111225 
1054	 0,196028282650546 
1055	 0,19975301747298 
1056	 0,209241636495498 
1057	 0,209129066787986 
1058	 0,203180433218069 
1059	 0,199659668949381 
1060	 0,191336150132312 
1061	 0,185527772139391 
1062	 0,200725841786973 
1063	 0,211206785008709 
1064	 0,210206678609054 
1065	 0,201096991511104 
1066	 0,204969823493212 
1067	 0,22348819395411 
1068	 0,211521747025689 
1069	 0,199164879347509 
1070	 0,208881782798668 
1071	 0,212622728224819 
1072	 0,20564324107098 
1073	 0,188186034234951 
1074	 0,186086376788405 
1075	 0,1946910146097 
