Wavelength	GRA-VIE00256.asd
325	 0,013824081839982 
326	 0,146481722694898 
327	 0,273453247077342 
328	 0,282107544491489 
329	 0,319295443207643 
330	 0,276583804616051 
331	 0,113114054351659 
332	 0,129372499743026 
333	 0,281745163211393 
334	 0,30743860280688 
335	 0,275636028630147 
336	 0,241043661125189 
337	 0,243989781992036 
338	 0,239802947373671 
339	 0,200947593779284 
340	 0,186458231100395 
341	 0,20328020049521 
342	 0,243188574114784 
343	 0,269519522269391 
344	 0,270462206678208 
345	 0,239821081623503 
346	 0,196196837190881 
347	 0,167902390502634 
348	 0,205025531235736 
349	 0,270178630175615 
350	 0,244297591869608 
351	 0,207011827246376 
352	 0,188751793353665 
353	 0,235368250456009 
354	 0,289839280243717 
355	 0,28985734786377 
356	 0,275155590469857 
357	 0,253336994422353 
358	 0,213126899504236 
359	 0,212164030102903 
360	 0,266222547854623 
361	 0,267831718774032 
362	 0,251954920816195 
363	 0,283812653158311 
364	 0,294276534104729 
365	 0,274371385042672 
366	 0,247915205819853 
367	 0,240891331487729 
368	 0,263260072247127 
369	 0,250859644183793 
370	 0,228544613097426 
371	 0,252945401296645 
372	 0,258573663734777 
373	 0,237443547151558 
374	 0,23966429170436 
375	 0,256148675219237 
376	 0,275184147153954 
377	 0,2468850954581 
378	 0,209698904872799 
379	 0,267513003622168 
380	 0,295135805213978 
381	 0,270787364398265 
382	 0,266756886943569 
383	 0,272688126458506 
384	 0,274873699116358 
385	 0,275156713466115 
386	 0,275558192771637 
387	 0,281883776702663 
388	 0,283643006930004 
389	 0,279101950304055 
390	 0,285876031399219 
391	 0,291031302174796 
392	 0,278185078692811 
393	 0,270404252162147 
394	 0,270836084181753 
395	 0,271824842171536 
396	 0,276324530203578 
397	 0,284363915453593 
398	 0,285983294650552 
399	 0,279977980711706 
400	 0,265418025632781 
401	 0,26713857122751 
402	 0,28307720079247 
403	 0,280333835133749 
404	 0,275954790482602 
405	 0,280852757326716 
406	 0,276471467637323 
407	 0,269003017589386 
408	 0,276988647539399 
409	 0,278414396144533 
410	 0,270464801597179 
411	 0,269899490451288 
412	 0,274340939251282 
413	 0,280139238838591 
414	 0,276711057643946 
415	 0,268343707089927 
416	 0,271468810334913 
417	 0,273834354548005 
418	 0,272115637331635 
419	 0,277659606179722 
420	 0,282651577559795 
421	 0,276362232399161 
422	 0,271805061420928 
423	 0,271624515658262 
424	 0,273645173995934 
425	 0,273456955550698 
426	 0,269491899306714 
427	 0,273516589803361 
428	 0,280301349776618 
429	 0,278230171394476 
430	 0,276094967195722 
431	 0,276172889000824 
432	 0,275999790017069 
433	 0,277218923098002 
434	 0,281091687422884 
435	 0,284062872688203 
436	 0,284860511473228 
437	 0,281717607687614 
438	 0,280769849127661 
439	 0,283736223216699 
440	 0,284055348705981 
441	 0,281572947701712 
442	 0,276830117203885 
443	 0,278067974205963 
444	 0,28438929754649 
445	 0,285337857750912 
446	 0,285596367518057 
447	 0,287539886414844 
448	 0,285506556780552 
449	 0,282236472767978 
450	 0,283849274333887 
451	 0,287636750632617 
452	 0,291636567495998 
453	 0,291502392137364 
454	 0,290396508749183 
455	 0,291269679002249 
456	 0,290082582890579 
457	 0,287458547512759 
458	 0,286542071290014 
459	 0,28751497077848 
460	 0,290010825341206 
461	 0,291071937314334 
462	 0,290386608766425 
463	 0,288002668198005 
464	 0,287748594926482 
465	 0,289880151709489 
466	 0,291729820308757 
467	 0,291969089519563 
468	 0,290056212180484 
469	 0,289857295659405 
470	 0,290206752623798 
471	 0,287294370770304 
472	 0,286850352452756 
473	 0,289564086723043 
474	 0,289171682684438 
475	 0,288445894599144 
476	 0,29027256966097 
477	 0,290160163584911 
478	 0,288602823582187 
479	 0,289614635588364 
480	 0,289966082109033 
481	 0,288390903743474 
482	 0,286952002180813 
483	 0,286445119618494 
484	 0,28771133166549 
485	 0,288527353575278 
486	 0,288246242277004 
487	 0,286660503901902 
488	 0,286978069916888 
489	 0,291033736245448 
490	 0,291433763993766 
491	 0,288877877038673 
492	 0,287888653360356 
493	 0,285812181056384 
494	 0,283048009214489 
495	 0,285768566445662 
496	 0,289127142519568 
497	 0,287342184562367 
498	 0,286247407456006 
499	 0,286677779630663 
500	 0,286764135116231 
501	 0,287859277451616 
502	 0,290120016242488 
503	 0,288238755696024 
504	 0,285822770750285 
505	 0,290518806747027 
506	 0,291962045986176 
507	 0,288763985870886 
508	 0,289103584784387 
509	 0,291237680889324 
510	 0,293155647735545 
511	 0,293661601056227 
512	 0,293214747683472 
513	 0,293759489697349 
514	 0,294266844417767 
515	 0,2943639680165 
516	 0,294515559834192 
517	 0,294557293536569 
518	 0,294171786933236 
519	 0,294735058726782 
520	 0,295965119137655 
521	 0,295409426299614 
522	 0,2951686893662 
523	 0,296598263802792 
524	 0,296828350139254 
525	 0,296150665956351 
526	 0,296335114304186 
527	 0,2960728466089 
528	 0,295077933225883 
529	 0,294124531162048 
530	 0,293476549946816 
531	 0,293343634912611 
532	 0,294331514747655 
533	 0,295676877722751 
534	 0,294600162008873 
535	 0,293931526844611 
536	 0,295137456728531 
537	 0,295506666699908 
538	 0,295258188051221 
539	 0,295553973196723 
540	 0,295072156416089 
541	 0,293890939295085 
542	 0,294106906361314 
543	 0,294877258419185 
544	 0,29528619576299 
545	 0,295987985730102 
546	 0,29664925428151 
547	 0,29594935626829 
548	 0,295773977828352 
549	 0,296876685683186 
550	 0,297474019020219 
551	 0,297582283375538 
552	 0,297578378116166 
553	 0,297264810577726 
554	 0,296728099442122 
555	 0,296419594913058 
556	 0,296097725236577 
557	 0,295597950698976 
558	 0,295593919306691 
559	 0,295901567584057 
560	 0,295746924167702 
561	 0,295755668760031 
562	 0,296042689322915 
563	 0,295841724546785 
564	 0,295271773820608 
565	 0,294566279923985 
566	 0,294978353722156 
567	 0,296339413913865 
568	 0,296853643720941 
569	 0,297104151145574 
570	 0,297532940746401 
571	 0,298253292418659 
572	 0,29921030429686 
573	 0,300243462667767 
574	 0,301095052769898 
575	 0,301919278010171 
576	 0,304114243910714 
577	 0,306293125535618 
578	 0,306856661355884 
579	 0,307744117390791 
580	 0,30923255184759 
581	 0,310823758272552 
582	 0,311904288868732 
583	 0,312257196085645 
584	 0,313418961314675 
585	 0,314759708359631 
586	 0,314714008627596 
587	 0,315712770935311 
588	 0,317931050379515 
589	 0,318722112098172 
590	 0,31894294090189 
591	 0,319493770866941 
592	 0,319921872467766 
593	 0,320237257382097 
594	 0,320605837482669 
595	 0,321068899011012 
596	 0,321647184138281 
597	 0,322404837402551 
598	 0,322826714414226 
599	 0,322151511065988 
600	 0,321597238975836 
601	 0,321548627474488 
602	 0,322058633793833 
603	 0,32204251014436 
604	 0,320760091696083 
605	 0,320195972253961 
606	 0,31998250728863 
607	 0,318215887175154 
608	 0,316979257880968 
609	 0,316894194594176 
610	 0,316506430585344 
611	 0,316119925318584 
612	 0,316253487949267 
613	 0,315996678072186 
614	 0,315347458051869 
615	 0,315108885856313 
616	 0,314833336764967 
617	 0,31426452701405 
618	 0,313771642195015 
619	 0,313412494977875 
620	 0,313152693610541 
621	 0,313236178768872 
622	 0,313596926409363 
623	 0,313534356388667 
624	 0,313439053488785 
625	 0,313751119855682 
626	 0,314354792541599 
627	 0,31485420669781 
628	 0,314087192626552 
629	 0,313838021395351 
630	 0,314869056766093 
631	 0,315298696323609 
632	 0,315502651559199 
633	 0,316466829855995 
634	 0,317264978369525 
635	 0,317761007118751 
636	 0,318503082660235 
637	 0,319469916253442 
638	 0,320576938574465 
639	 0,321097097369326 
640	 0,32133619078542 
641	 0,322382326178449 
642	 0,323680218794604 
643	 0,32482649964012 
644	 0,324859485173129 
645	 0,324675094289215 
646	 0,325543017150728 
647	 0,325858523814782 
648	 0,325377682668028 
649	 0,324682504512934 
650	 0,32420981192116 
651	 0,324122309070465 
652	 0,32294516155156 
653	 0,321203057838809 
654	 0,320389419903969 
655	 0,319566084332461 
656	 0,318445015953135 
657	 0,317206229503171 
658	 0,315659013085011 
659	 0,313639698542382 
660	 0,312080245223538 
661	 0,310767463196174 
662	 0,308309203491842 
663	 0,306485643081069 
664	 0,305977951033112 
665	 0,304652732245065 
666	 0,302932215155136 
667	 0,301836579359599 
668	 0,301258223362753 
669	 0,301007454773232 
670	 0,300300584581997 
671	 0,300022617685881 
672	 0,300741368443214 
673	 0,300259271450997 
674	 0,299020563854281 
675	 0,299005046801868 
676	 0,299170560520591 
677	 0,299152171371279 
678	 0,298986110634666 
679	 0,298844124342447 
680	 0,298931634535417 
681	 0,299285448601695 
682	 0,299892487858178 
683	 0,300611557772274 
684	 0,301651074046309 
685	 0,303120349716418 
686	 0,304731653862806 
687	 0,306803146409094 
688	 0,309917207433267 
689	 0,313651878490051 
690	 0,317824042119127 
691	 0,322140579717945 
692	 0,327329390516758 
693	 0,333992683617135 
694	 0,340984724164887 
695	 0,348427991511713 
696	 0,357301050528459 
697	 0,366655723895253 
698	 0,376107234632752 
699	 0,386097972341638 
700	 0,39651431857866 
701	 0,407154127237648 
702	 0,417855430743381 
703	 0,428399537369603 
704	 0,438366400320019 
705	 0,448161834533408 
706	 0,45795755012019 
707	 0,467003614230668 
708	 0,47539036188358 
709	 0,483451591122708 
710	 0,491190670136629 
711	 0,498544512800926 
712	 0,505121573592633 
713	 0,511243520419064 
714	 0,517227787382391 
715	 0,522754094338933 
716	 0,527730852050498 
717	 0,532030302474716 
718	 0,536184995786666 
719	 0,540372219611273 
720	 0,543980320481668 
721	 0,547258561152812 
722	 0,550612974160955 
723	 0,553588276449916 
724	 0,556067751884279 
725	 0,558050645353192 
726	 0,559878627721845 
727	 0,561798839944811 
728	 0,563918525714772 
729	 0,565853515590636 
730	 0,56686890802698 
731	 0,568083539453123 
732	 0,569664696588449 
733	 0,570728506398453 
734	 0,571499236995855 
735	 0,572211876717384 
736	 0,57296016645229 
737	 0,573692393627119 
738	 0,574185025641596 
739	 0,574727377635689 
740	 0,575414382822286 
741	 0,576128078315989 
742	 0,576671245389735 
743	 0,576842557880784 
744	 0,577185963019309 
745	 0,577784679223722 
746	 0,578516442634513 
747	 0,578950777047401 
748	 0,578936310130723 
749	 0,579237173332602 
750	 0,579788541602769 
751	 0,580351698791409 
752	 0,580600043136434 
753	 0,580604449009156 
754	 0,581067694768694 
755	 0,581435006749394 
756	 0,581357009494299 
757	 0,581628843677985 
758	 0,582090917073096 
759	 0,582149164724021 
760	 0,58236472901059 
761	 0,582785899775827 
762	 0,582775699330817 
763	 0,582674896122992 
764	 0,582818277578611 
765	 0,582861263865519 
766	 0,582778684451693 
767	 0,582601692552408 
768	 0,582766751305318 
769	 0,583349506504734 
770	 0,58361703948031 
771	 0,583811727243049 
772	 0,584279631181296 
773	 0,584217450814015 
774	 0,583744770560028 
775	 0,583739667252597 
776	 0,583971416723862 
777	 0,584245030559227 
778	 0,583992628817754 
779	 0,583659608608928 
780	 0,583982538945303 
781	 0,584364946536809 
782	 0,584622028533048 
783	 0,584681557329657 
784	 0,58488929389006 
785	 0,585362430026496 
786	 0,58501625382961 
787	 0,58436786922061 
788	 0,584604264184456 
789	 0,584732048477442 
790	 0,584570285324701 
791	 0,5845960815829 
792	 0,584877580132316 
793	 0,585398005434816 
794	 0,585513687728042 
795	 0,585298526238204 
796	 0,585104794975432 
797	 0,585365991753427 
798	 0,585969428870621 
799	 0,585521319257264 
800	 0,585046883774247 
801	 0,58551072539635 
802	 0,585639533591689 
803	 0,58545789620263 
804	 0,58564290577453 
805	 0,585854244095981 
806	 0,585977149161885 
807	 0,586063336757492 
808	 0,586051136968011 
809	 0,585910111546854 
810	 0,586463622493315 
811	 0,587403913712128 
812	 0,587437241006498 
813	 0,587240779946275 
814	 0,587121338966866 
815	 0,587118026380364 
816	 0,587213727891607 
817	 0,587371231093079 
818	 0,587565098279181 
819	 0,587800231378892 
820	 0,588164328629981 
821	 0,588355351145826 
822	 0,588279429038825 
823	 0,58840268011206 
824	 0,588493357575193 
825	 0,588204373319078 
826	 0,588186577032419 
827	 0,588399418987921 
828	 0,588189942652596 
829	 0,587962687265054 
830	 0,587970958938358 
831	 0,588430852342375 
832	 0,588811558198478 
833	 0,588383626997446 
834	 0,588123169946931 
835	 0,588165131207685 
836	 0,588089954545566 
837	 0,587976470357692 
838	 0,587851389246173 
839	 0,587576224643818 
840	 0,587506307575327 
841	 0,588138049764652 
842	 0,58850448440828 
843	 0,588479248527016 
844	 0,58861851149209 
845	 0,588472764116743 
846	 0,587951212066186 
847	 0,588205969998776 
848	 0,588585755313799 
849	 0,588007186885224 
850	 0,588243224560994 
851	 0,5892346751092 
852	 0,589307016225166 
853	 0,589207428264288 
854	 0,589315095476952 
855	 0,589382784415496 
856	 0,589292431487208 
857	 0,588919320999893 
858	 0,589156629779965 
859	 0,589853736797965 
860	 0,589806803511622 
861	 0,589567136418408 
862	 0,589458880738204 
863	 0,58960223920351 
864	 0,589888604039658 
865	 0,59014820412517 
866	 0,590445690717771 
867	 0,590753889247766 
868	 0,591045526202378 
869	 0,590975728601187 
870	 0,59051401886386 
871	 0,590559320743223 
872	 0,590767883334916 
873	 0,590620315104898 
874	 0,58997424948073 
875	 0,589357578583788 
876	 0,590451413964213 
877	 0,591035602832586 
878	 0,590349099470465 
879	 0,590007574439235 
880	 0,589989718653941 
881	 0,590126069020239 
882	 0,590292592165912 
883	 0,590392038960337 
884	 0,590291443193861 
885	 0,590088342749403 
886	 0,589965053096699 
887	 0,59061651776566 
888	 0,591201853595309 
889	 0,590913085375076 
890	 0,590204171406305 
891	 0,589733155282731 
892	 0,590745020082923 
893	 0,591521703967009 
894	 0,591598300177643 
895	 0,591881734877383 
896	 0,59155778788606 
897	 0,59021320560868 
898	 0,59022146982106 
899	 0,591265355954988 
900	 0,592139434046354 
901	 0,591946734532514 
902	 0,590932493229099 
903	 0,591185623495968 
904	 0,591786982867682 
905	 0,592045519496776 
906	 0,591453637444493 
907	 0,590724708786044 
908	 0,590945312117658 
909	 0,591260257483943 
910	 0,591395043656713 
911	 0,591156823896807 
912	 0,591136627844219 
913	 0,591471353092891 
914	 0,591009768829684 
915	 0,590869462902388 
916	 0,592267725139621 
917	 0,592791851097921 
918	 0,592281734550235 
919	 0,591670692567902 
920	 0,590850747662043 
921	 0,590048294241449 
922	 0,590124930945544 
923	 0,590211761103715 
924	 0,589666974674646 
925	 0,589964091241572 
926	 0,590686685358595 
927	 0,590724602919002 
928	 0,589914236022532 
929	 0,588726622326632 
930	 0,589063002427135 
931	 0,589477079602046 
932	 0,589183779544791 
933	 0,589163982154213 
934	 0,589238406583256 
935	 0,589059025755019 
936	 0,588913296117576 
937	 0,588567615157018 
938	 0,586954566346081 
939	 0,586767477384039 
940	 0,58837249901171 
941	 0,587865046856425 
942	 0,586774767348343 
943	 0,58660754731143 
944	 0,586367481258285 
945	 0,585642186861327 
946	 0,583925526204101 
947	 0,582878226602259 
948	 0,582745103650756 
949	 0,582630057929266 
950	 0,581464857220564 
951	 0,578961306831159 
952	 0,577479797018681 
953	 0,576797903271912 
954	 0,576329212740348 
955	 0,576498383337491 
956	 0,576803000288576 
957	 0,575746552271133 
958	 0,575670232155679 
959	 0,576593045002548 
960	 0,574658586929747 
961	 0,572790748923719 
962	 0,573131340093143 
963	 0,573149179099945 
964	 0,572677490183896 
965	 0,572013623792032 
966	 0,572070690310285 
967	 0,572546071422913 
968	 0,571628289542776 
969	 0,571337559002942 
970	 0,572312141524403 
971	 0,573169873630278 
972	 0,57285288976992 
973	 0,570796709855521 
974	 0,570464527601283 
975	 0,571527526463964 
976	 0,572307419263133 
977	 0,572275727899738 
978	 0,571623923424502 
979	 0,571872042757872 
980	 0,571744537564666 
981	 0,57081092265668 
982	 0,570195157404708 
983	 0,570826893279267 
984	 0,573230236993272 
985	 0,573256178193655 
986	 0,572090144815876 
987	 0,573616284398512 
988	 0,574327415746438 
989	 0,574131860000389 
990	 0,576478005187505 
991	 0,578039199814157 
992	 0,577287737516222 
993	 0,57640276920789 
994	 0,57625763348146 
995	 0,577464365558645 
996	 0,578937664256133 
997	 0,579959532104218 
998	 0,579604725603814 
999	 0,580202771493131 
1000	 0,581767519898161 
1001	 0,581949552064718 
1002	 0,581239524603777 
1003	 0,580217970446898 
1004	 0,580542362895782 
1005	 0,581465757435162 
1006	 0,582036907173145 
1007	 0,581406409987732 
1008	 0,581070327338382 
1009	 0,583880856072717 
1010	 0,585871430307963 
1011	 0,58622351415044 
1012	 0,586515168849289 
1013	 0,584762944957307 
1014	 0,581703841487989 
1015	 0,58524556311233 
1016	 0,589256039362703 
1017	 0,588504815931326 
1018	 0,589396337606217 
1019	 0,589780654239942 
1020	 0,585371154605728 
1021	 0,584422391334887 
1022	 0,587242489476387 
1023	 0,588935438664578 
1024	 0,58964142709402 
1025	 0,589725427851145 
1026	 0,591585268115792 
1027	 0,593294728247129 
1028	 0,593788253563156 
1029	 0,595545400160174 
1030	 0,59725914132123 
1031	 0,597095528070011 
1032	 0,595909322019968 
1033	 0,593412870555732 
1034	 0,588620002782662 
1035	 0,589114977159133 
1036	 0,594673468540061 
1037	 0,597004547195778 
1038	 0,597159529900401 
1039	 0,595842176845294 
1040	 0,595201312574268 
1041	 0,594646827325497 
1042	 0,593733744788705 
1043	 0,593646935522188 
1044	 0,594078714174056 
1045	 0,594326483185527 
1046	 0,591530386156001 
1047	 0,588737083747209 
1048	 0,594287369170258 
1049	 0,598064702463057 
1050	 0,597597567694953 
1051	 0,596988042667262 
1052	 0,596252504558363 
1053	 0,595746970026441 
1054	 0,596658369017237 
1055	 0,59679232997902 
1056	 0,595041326703216 
1057	 0,600647928372309 
1058	 0,603331607285122 
1059	 0,58846694139755 
1060	 0,591060943230931 
1061	 0,60285185060075 
1062	 0,588234073429379 
1063	 0,592053904957653 
1064	 0,614384477309518 
1065	 0,60354896315366 
1066	 0,591222858438687 
1067	 0,590606787795681 
1068	 0,593205241841214 
1069	 0,596488701219342 
1070	 0,599367016699367 
1071	 0,610865224923041 
1072	 0,61611803935654 
1073	 0,598217104431286 
1074	 0,579250849425903 
1075	 0,574865479944473 
