Wavelength	GRA-VIE00265.asd
325	-3,60323910552491E-02 
326	 0,100601391236871 
327	 0,286010916373921 
328	 0,288572570344238 
329	 0,21072204221697 
330	 0,112764479931941 
331	 0,103370842122845 
332	 8,53029467108313E-02 
333	 6,27929941006704E-02 
334	 0,129538945328837 
335	 0,197711005598469 
336	 0,215379292615937 
337	 0,176743324387761 
338	 0,147309461767676 
339	 0,164802910112671 
340	 6,45052609375206E-02 
341	-6,10994986112723E-02 
342	 0,160258271461557 
343	 0,265425700119286 
344	 0,178919206499413 
345	 0,125634647821167 
346	 9,98833372436164E-02 
347	 9,46712863379443E-02 
348	 7,61830116387465E-02 
349	 5,62336487396801E-02 
350	 9,10802199731997E-02 
351	 9,41068227426364E-02 
352	 4,97833352559926E-02 
353	 4,19913171774309E-02 
354	 7,19889802339994E-02 
355	 0,127797985251701 
356	 0,139596858534755 
357	 0,103506044105095 
358	 4,64501358050869E-02 
359	 0,033023498694517 
360	 8,38867373890986E-02 
361	 9,85654191261092E-02 
362	 9,32114026510368E-02 
363	 0,108759963933465 
364	 0,109191489454116 
365	 9,25315824243977E-02 
366	 7,72026721680845E-02 
367	 8,04077557415166E-02 
368	 0,105637611112989 
369	 8,80731065032002E-02 
370	 5,88934847786371E-02 
371	 8,50622177088239E-02 
372	 8,82257965309386E-02 
373	 0,061880608548939 
374	 8,20140233773266E-02 
375	 0,100424695026913 
376	 8,11619973871389E-02 
377	 6,30513896551916E-02 
378	 6,21368519883001E-02 
379	 9,89042930820859E-02 
380	 0,112958729473749 
381	 9,47264755630731E-02 
382	 8,66339158659158E-02 
383	 8,15130585993237E-02 
384	 0,071669567825275 
385	 7,95934466424692E-02 
386	 9,76424158420173E-02 
387	 0,1014496721516 
388	 0,101418962159319 
389	 0,100571301187705 
390	 9,46709935891367E-02 
391	 0,088878901188176 
392	 8,95015708040799E-02 
393	 0,0855988564528 
394	 7,95177617939006E-02 
395	 8,61503080602846E-02 
396	 9,42294797254523E-02 
397	 9,77741041986351E-02 
398	 9,44657406921941E-02 
399	 8,59754831840512E-02 
400	 7,40961918324222E-02 
401	 7,06438277092571E-02 
402	 7,58802945304992E-02 
403	 7,74369716620622E-02 
404	 7,84464695228013E-02 
405	 8,02128278868636E-02 
406	 7,07608165766736E-02 
407	 6,09839223892558E-02 
408	 7,73848394177738E-02 
409	 8,50033962404499E-02 
410	 7,70447202829819E-02 
411	 7,06939481197835E-02 
412	 0,070070922816875 
413	 7,70217547637124E-02 
414	 7,23839124963304E-02 
415	 6,12383574436313E-02 
416	 0,066479773139777 
417	 7,02491922326215E-02 
418	 6,73969519576471E-02 
419	 0,072564929931427 
420	 7,77394290078865E-02 
421	 7,16054638984785E-02 
422	 6,48715958917646E-02 
423	 6,20012416185995E-02 
424	 6,83959858818648E-02 
425	 7,20321386084459E-02 
426	 6,65663811960108E-02 
427	 6,50998958997758E-02 
428	 6,68992911571303E-02 
429	 6,75229262691731E-02 
430	 6,72484351866684E-02 
431	 6,66358209867534E-02 
432	 6,87499136057673E-02 
433	 6,95690434714529E-02 
434	 6,59635930050138E-02 
435	 6,70948046435518E-02 
436	 7,11348410309518E-02 
437	 6,89589718000333E-02 
438	 6,82611598571316E-02 
439	 7,12790421525263E-02 
440	 7,17822267636047E-02 
441	 7,11405688277136E-02 
442	 0,071748140313882 
443	 6,96576830771227E-02 
444	 6,61635870801932E-02 
445	 6,83647853415019E-02 
446	 0,072113715843897 
447	 7,42925098364134E-02 
448	 7,16922931407399E-02 
449	 6,75902835125745E-02 
450	 6,86952085241747E-02 
451	 7,13106909827743E-02 
452	 7,36528687147364E-02 
453	 0,073413220939347 
454	 7,23480331368592E-02 
455	 7,20873475500858E-02 
456	 6,99264671214532E-02 
457	 6,68740115234643E-02 
458	 6,63708693307685E-02 
459	 6,79100913247489E-02 
460	 7,07720020037522E-02 
461	 7,20392577711263E-02 
462	 0,071555174769331 
463	 6,95868624431919E-02 
464	 6,88067732205048E-02 
465	 6,96879275331215E-02 
466	 7,11104137817537E-02 
467	 0,072035566523884 
468	 7,18503727307175E-02 
469	 7,18121513913051E-02 
470	 7,19044860077528E-02 
471	 7,17422798265067E-02 
472	 7,10523521653532E-02 
473	 0,070197647973736 
474	 0,07132395623466 
475	 7,23664557839822E-02 
476	 7,12884760262447E-02 
477	 7,07283373052524E-02 
478	 7,07297386733302E-02 
479	 6,97914819887023E-02 
480	 6,92612246168054E-02 
481	 6,95660707029893E-02 
482	 6,88493637844854E-02 
483	 6,84335558205729E-02 
484	 7,06190364097202E-02 
485	 7,10291951131872E-02 
486	 6,90239782419738E-02 
487	 6,65361435470608E-02 
488	 6,60306717253762E-02 
489	 0,068973084285167 
490	 7,04605251514757E-02 
491	 7,02311596139319E-02 
492	 6,97936207528564E-02 
493	 0,068652416076468 
494	 6,72621461020425E-02 
495	 0,068433527774192 
496	 6,94686267541779E-02 
497	 6,72185789489989E-02 
498	 6,71806169028253E-02 
499	 6,88009995147888E-02 
500	 6,62141840906867E-02 
501	 6,45946888348634E-02 
502	 6,65384025733847E-02 
503	 6,75668599460292E-02 
504	 6,77810523818172E-02 
505	 6,85352343364977E-02 
506	 6,82135743520832E-02 
507	 6,69815074832673E-02 
508	 6,74782379081058E-02 
509	 6,84982941132248E-02 
510	 0,068845096899137 
511	 6,89078857399952E-02 
512	 6,90358951489626E-02 
513	 7,01290318162242E-02 
514	 7,04484519789636E-02 
515	 6,95887054617482E-02 
516	 7,02398710312988E-02 
517	 7,13284991343597E-02 
518	 7,10000193057843E-02 
519	 7,14248788429543E-02 
520	 7,24859357359727E-02 
521	 7,16064533365111E-02 
522	 7,11658912460836E-02 
523	 7,26182653001846E-02 
524	 7,17346833312921E-02 
525	 0,069661644336847 
526	 7,05117892355267E-02 
527	 7,11472186499628E-02 
528	 7,06676181554443E-02 
529	 7,03037497283684E-02 
530	 0,069915985752646 
531	 6,92570871408198E-02 
532	 6,96038387418853E-02 
533	 7,05833048207427E-02 
534	 7,01858214769016E-02 
535	 6,93764123424088E-02 
536	 6,88992861506492E-02 
537	 7,00036486871546E-02 
538	 7,13395992579176E-02 
539	 7,01035241281858E-02 
540	 0,069370574379207 
541	 0,06991136043493 
542	 7,05893920469739E-02 
543	 7,05578174397062E-02 
544	 6,91727731801214E-02 
545	 6,92397437108782E-02 
546	 7,04589062777863E-02 
547	 7,03781275409752E-02 
548	 6,98132534675449E-02 
549	 6,93209444173393E-02 
550	 0,070106752976904 
551	 7,11676368492814E-02 
552	 7,07410052302818E-02 
553	 7,04500951451555E-02 
554	 7,05477799769034E-02 
555	 7,01081564512061E-02 
556	 0,069589118623139 
557	 6,94023875960376E-02 
558	 6,95160942957708E-02 
559	 6,98448410771426E-02 
560	 7,02876134068395E-02 
561	 7,03242276635321E-02 
562	 6,98226693257675E-02 
563	 6,95386355566434E-02 
564	 0,069338813771103 
565	 6,89476826097898E-02 
566	 6,87183652987653E-02 
567	 6,87825144712626E-02 
568	 6,92722701707763E-02 
569	 6,97103294944237E-02 
570	 6,98065316623455E-02 
571	 0,070229171079114 
572	 7,09713785176954E-02 
573	 0,071863108301759 
574	 7,22878629644712E-02 
575	 7,22339704353634E-02 
576	 7,30060356851713E-02 
577	 7,39141420834548E-02 
578	 7,41106109681335E-02 
579	 7,48774713101471E-02 
580	 7,61081734830859E-02 
581	 7,66613348276794E-02 
582	 7,67203933416818E-02 
583	 0,076533039139476 
584	 7,72019636211829E-02 
585	 7,83340904671698E-02 
586	 7,89726247342577E-02 
587	 7,96115653471737E-02 
588	 8,03267969814231E-02 
589	 8,09398121602068E-02 
590	 8,12644453641602E-02 
591	 0,081170087742936 
592	 0,081285919607322 
593	 8,17192711332477E-02 
594	 8,25128267874116E-02 
595	 8,25660505473652E-02 
596	 8,16523133624416E-02 
597	 8,21735358850336E-02 
598	 0,083108550956092 
599	 8,25461739734223E-02 
600	 8,23398485358668E-02 
601	 8,26829611321433E-02 
602	 8,22515633802606E-02 
603	 8,17904130172268E-02 
604	 8,18592989651555E-02 
605	 8,16334948498612E-02 
606	 8,10966472303207E-02 
607	 8,05037336730513E-02 
608	 8,01625244859921E-02 
609	 8,00602045515197E-02 
610	 7,92233982350093E-02 
611	 7,83881911759901E-02 
612	 7,85423147055669E-02 
613	 0,078486926161618 
614	 7,80522972942237E-02 
615	 0,077711773155149 
616	 0,077455382306755 
617	 7,72765700599375E-02 
618	 7,70820106230943E-02 
619	 7,69427006473988E-02 
620	 7,70179708120283E-02 
621	 7,72751178784255E-02 
622	 7,75189754632057E-02 
623	 7,69199721024251E-02 
624	 7,62630344785669E-02 
625	 7,64003749533139E-02 
626	 7,70771128201342E-02 
627	 7,78410847192224E-02 
628	 7,75868502691165E-02 
629	 7,72890997614067E-02 
630	 7,74272325917833E-02 
631	 7,74339003747022E-02 
632	 7,76257678753195E-02 
633	 7,86140736423093E-02 
634	 7,94742490258054E-02 
635	 7,99568107527261E-02 
636	 0,080373348399241 
637	 8,05715917980298E-02 
638	 8,04805874243271E-02 
639	 0,080923599136575 
640	 8,18073453143475E-02 
641	 8,25601187530463E-02 
642	 0,083000978600048 
643	 8,30993027438304E-02 
644	 8,33689671162448E-02 
645	 8,37416597792047E-02 
646	 8,40591218664631E-02 
647	 8,42309656581272E-02 
648	 8,42796653552481E-02 
649	 8,44581930043202E-02 
650	 8,43441765257912E-02 
651	 8,36725353616978E-02 
652	 8,27118696883904E-02 
653	 8,19155410803537E-02 
654	 8,21506846953726E-02 
655	 8,17995624896548E-02 
656	 8,05360522877073E-02 
657	 7,97801988500908E-02 
658	 7,89954761226273E-02 
659	 0,077580868316902 
660	 7,66457108507117E-02 
661	 7,60666468853143E-02 
662	 7,48227410480211E-02 
663	 7,33006774344168E-02 
664	 7,18392243570977E-02 
665	 7,12821820814624E-02 
666	 7,12652100250688E-02 
667	 7,10791668354256E-02 
668	 0,070665031627226 
669	 7,00754477943662E-02 
670	 6,96139369872682E-02 
671	 6,96970067784071E-02 
672	 7,04892681516757E-02 
673	 0,069856152288794 
674	 6,84990448796042E-02 
675	 6,90228606948437E-02 
676	 6,95772069659836E-02 
677	 6,95688050104905E-02 
678	 0,069665505180699 
679	 6,97461752289681E-02 
680	 6,96185537468688E-02 
681	 6,95598549094657E-02 
682	 6,96610003934065E-02 
683	 6,99074384792175E-02 
684	 7,04300861048117E-02 
685	 7,12834518573968E-02 
686	 7,21942613067837E-02 
687	 7,32984663329914E-02 
688	 7,48548200391856E-02 
689	 7,70654691551663E-02 
690	 7,98071776130354E-02 
691	 8,21796451556079E-02 
692	 8,49730003564128E-02 
693	 0,088936723153848 
694	 9,39151257992922E-02 
695	 9,96923766693163E-02 
696	 0,105712791763796 
697	 0,11280892157055 
698	 0,121146367606684 
699	 0,129499671544271 
700	 0,138477641739335 
701	 0,148986774763807 
702	 0,159372315629301 
703	 0,169416155304492 
704	 0,180014531069381 
705	 0,190719640544411 
706	 0,201226328377777 
707	 0,211710167115015 
708	 0,221916306723886 
709	 0,231315850325504 
710	 0,240474025969363 
711	 0,249626196900162 
712	 0,259002811940452 
713	 0,26762482242146 
714	 0,274667158534001 
715	 0,281271935772566 
716	 0,287825438147267 
717	 0,294704482305934 
718	 0,30109187627442 
719	 0,306676580608506 
720	 0,311919636529933 
721	 0,316689551613131 
722	 0,320800118281025 
723	 0,324987831205715 
724	 0,329241304365216 
725	 0,332944441403345 
726	 0,336020248591462 
727	 0,338513302986403 
728	 0,341285097069192 
729	 0,344031463255857 
730	 0,345940777758426 
731	 0,348002903549165 
732	 0,350361163999622 
733	 0,352253928793999 
734	 0,353847475038162 
735	 0,355315848048681 
736	 0,35668141569219 
737	 0,357978875175165 
738	 0,359239088354436 
739	 0,36049915323396 
740	 0,361731067303256 
741	 0,36271879539826 
742	 0,363544561344108 
743	 0,364325873857046 
744	 0,365097000876683 
745	 0,365899036791745 
746	 0,366791102598256 
747	 0,367711289240584 
748	 0,368604160957223 
749	 0,369414344011378 
750	 0,370018015579096 
751	 0,370230673609011 
752	 0,370653107492744 
753	 0,371386009561484 
754	 0,372067029240822 
755	 0,372726424771189 
756	 0,373376573097218 
757	 0,373936459666017 
758	 0,374371624191452 
759	 0,374609847841218 
760	 0,375074958682539 
761	 0,375773490735544 
762	 0,375986756790221 
763	 0,376155377532576 
764	 0,376718911103044 
765	 0,377459369507698 
766	 0,378095914929341 
767	 0,378000975298167 
768	 0,377978726948372 
769	 0,378356592247796 
770	 0,378902611997829 
771	 0,379455291654643 
772	 0,379848554811994 
773	 0,380122828252828 
774	 0,380366926287495 
775	 0,380835347944138 
776	 0,381208801618623 
777	 0,381380062445414 
778	 0,381907975445682 
779	 0,382353968440609 
780	 0,381985471329295 
781	 0,382267791718354 
782	 0,383192165085951 
783	 0,383173492246682 
784	 0,383390189509851 
785	 0,384440750178911 
786	 0,38443829033589 
787	 0,383869463762523 
788	 0,384043063671725 
789	 0,384508331858143 
790	 0,385098312261727 
791	 0,385653779956927 
792	 0,385947062910786 
793	 0,385870615511321 
794	 0,38629219315397 
795	 0,386906765697034 
796	 0,386696206288161 
797	 0,386840145402116 
798	 0,387518327948836 
799	 0,387549796635246 
800	 0,387585893983664 
801	 0,388236463463512 
802	 0,388484290210158 
803	 0,388481907835763 
804	 0,389160827163036 
805	 0,389564521868846 
806	 0,389453287437407 
807	 0,389521234364486 
808	 0,38985579586877 
809	 0,390474104265631 
810	 0,390949941775693 
811	 0,391278110269005 
812	 0,391727274285051 
813	 0,392243966749534 
814	 0,392750369537065 
815	 0,392922620380872 
816	 0,393007342281983 
817	 0,393324057407295 
818	 0,39359910372351 
819	 0,393891312863603 
820	 0,394607182557814 
821	 0,395041122520855 
822	 0,394935358863633 
823	 0,395010844114445 
824	 0,395318459236943 
825	 0,39581597695841 
826	 0,396312306025709 
827	 0,39663309551838 
828	 0,396441094813285 
829	 0,396216202308105 
830	 0,396257175965421 
831	 0,396592912873006 
832	 0,397095722064618 
833	 0,397584499971422 
834	 0,397937300997429 
835	 0,398074086967265 
836	 0,397842983002395 
837	 0,397834526708818 
838	 0,398292032805547 
839	 0,398358787618513 
840	 0,398386693898173 
841	 0,39899201681059 
842	 0,399672323812039 
843	 0,400179405046388 
844	 0,400285160377151 
845	 0,399776059684468 
846	 0,398869720963845 
847	 0,399871236062258 
848	 0,401186836602345 
849	 0,400253679243438 
850	 0,400219624546131 
851	 0,401311836411036 
852	 0,401591730522072 
853	 0,401739594117435 
854	 0,402034008178861 
855	 0,401849376642778 
856	 0,401646221640124 
857	 0,4021158907364 
858	 0,402411237082189 
859	 0,402457145118544 
860	 0,40271935160971 
861	 0,40295571890293 
862	 0,403122468162929 
863	 0,403772525392277 
864	 0,404492318213569 
865	 0,404681640475588 
866	 0,404812778833241 
867	 0,40498385516293 
868	 0,405154329956291 
869	 0,405215314985023 
870	 0,405192368208538 
871	 0,405578976926592 
872	 0,406023001869657 
873	 0,406054151474695 
874	 0,405932572051084 
875	 0,405839875054623 
876	 0,406066557411871 
877	 0,406534364531443 
878	 0,407165762789438 
879	 0,40788304985349 
880	 0,407981446604422 
881	 0,406864637924586 
882	 0,407246964152518 
883	 0,40865537381234 
884	 0,408334886546737 
885	 0,408000678107974 
886	 0,40810905750308 
887	 0,407811273544481 
888	 0,407525057930231 
889	 0,407707654087363 
890	 0,408559427207012 
891	 0,409694712205347 
892	 0,410236861589758 
893	 0,410716719017077 
894	 0,411063083403622 
895	 0,410187835487442 
896	 0,409712439110626 
897	 0,410725224192978 
898	 0,410572646817551 
899	 0,409943379276592 
900	 0,410824332538458 
901	 0,41099521536236 
902	 0,410360732793632 
903	 0,410945904161884 
904	 0,4119719449976 
905	 0,412781030663618 
906	 0,412490133514033 
907	 0,411817992372804 
908	 0,411938537899156 
909	 0,412047229802668 
910	 0,412083695196997 
911	 0,412500857233567 
912	 0,412620773618443 
913	 0,412267754303043 
914	 0,412454966594545 
915	 0,412896065188786 
916	 0,413160807287031 
917	 0,413228939160445 
918	 0,412919978538875 
919	 0,411763220956504 
920	 0,4108736165813 
921	 0,410783579462618 
922	 0,411780336972901 
923	 0,412447332279883 
924	 0,411735860346574 
925	 0,411636727027901 
926	 0,411912820963751 
927	 0,411580408050575 
928	 0,410653729083553 
929	 0,409675077035726 
930	 0,410684931781228 
931	 0,411224230529636 
932	 0,41002996299669 
933	 0,409197835280306 
934	 0,408968045342385 
935	 0,409306183507453 
936	 0,409585417188374 
937	 0,409244134667465 
938	 0,406946117083617 
939	 0,406366488980901 
940	 0,408158826691617 
941	 0,407809179447211 
942	 0,405973102612981 
943	 0,403743535747617 
944	 0,40368914401044 
945	 0,404451378126476 
946	 0,402643391689557 
947	 0,401499862918733 
948	 0,401210521413076 
949	 0,398930642899222 
950	 0,397120881207953 
951	 0,39690046245214 
952	 0,395606368286933 
953	 0,39409780942143 
954	 0,393673329140402 
955	 0,392476639310631 
956	 0,390630916662742 
957	 0,389374338094686 
958	 0,388563669884987 
959	 0,388250433434486 
960	 0,388917020491585 
961	 0,388546892667472 
962	 0,385903402791464 
963	 0,383891593731513 
964	 0,383583752475766 
965	 0,385808757710154 
966	 0,38716866033485 
967	 0,386782402990076 
968	 0,384849394658477 
969	 0,38402677785108 
970	 0,385265069006649 
971	 0,386599377962122 
972	 0,386599089010543 
973	 0,384301372622517 
974	 0,382175720266489 
975	 0,381556005725036 
976	 0,383925813257866 
977	 0,385261866354619 
978	 0,384991852569115 
979	 0,385747912782005 
980	 0,385514345323843 
981	 0,384085021992083 
982	 0,386210796141581 
983	 0,388552488924495 
984	 0,387473891520668 
985	 0,385471146730883 
986	 0,384483064442401 
987	 0,387368357628298 
988	 0,387892423147572 
989	 0,386071610681941 
990	 0,389117245012496 
991	 0,391613808176486 
992	 0,391058188085877 
993	 0,390892017676942 
994	 0,391264939901871 
995	 0,392049573549055 
996	 0,393291180757951 
997	 0,394691211735263 
998	 0,395704272632212 
999	 0,397101434502196 
1000	 0,398679085012184 
1001	 0,399180540343664 
1002	 0,398767651264976 
1003	 0,398211914921446 
1004	 0,40127379854778 
1005	 0,404180343082586 
1006	 0,403285824913582 
1007	 0,403305436531268 
1008	 0,403827496658616 
1009	 0,402680179765135 
1010	 0,40302918409654 
1011	 0,405141195683618 
1012	 0,407377118951199 
1013	 0,407284931687931 
1014	 0,404641330818873 
1015	 0,404516736417774 
1016	 0,405779000608845 
1017	 0,40729732135389 
1018	 0,410491043921889 
1019	 0,414246208733428 
1020	 0,416594675874584 
1021	 0,412609899728914 
1022	 0,407006272169184 
1023	 0,416789708591047 
1024	 0,419604130204347 
1025	 0,41168010741855 
1026	 0,413105615390856 
1027	 0,417476296544536 
1028	 0,420028993253362 
1029	 0,420796754097457 
1030	 0,422180872430501 
1031	 0,426305753879208 
1032	 0,420939992090872 
1033	 0,412893147475986 
1034	 0,420747268461005 
1035	 0,424723758716709 
1036	 0,422140544266974 
1037	 0,423781580818799 
1038	 0,426012195367935 
1039	 0,426839753948524 
1040	 0,424592193787923 
1041	 0,423283515046944 
1042	 0,425876358744651 
1043	 0,42630237970351 
1044	 0,427458589628343 
1045	 0,433827858773018 
1046	 0,429912554271059 
1047	 0,420435170273445 
1048	 0,424377476586284 
1049	 0,426429257805478 
1050	 0,425310450209381 
1051	 0,435377289673302 
1052	 0,440036463753507 
1053	 0,433472478192519 
1054	 0,432155519429735 
1055	 0,433863121957605 
1056	 0,435745735044219 
1057	 0,439624814647015 
1058	 0,439451559374513 
1059	 0,427746652628755 
1060	 0,428093078112274 
1061	 0,435421208527609 
1062	 0,42631060857752 
1063	 0,431788934390906 
1064	 0,450966974639078 
1065	 0,444644274956091 
1066	 0,438475877317308 
1067	 0,440891608473709 
1068	 0,431986991292002 
1069	 0,430074316741286 
1070	 0,445002697719395 
1071	 0,436969245272315 
1072	 0,42225813105414 
1073	 0,424519669871865 
1074	 0,428937426091276 
1075	 0,433248902836736 
