Wavelength	GRA-BER00244.asd
325	 0,302012082638656 
326	 0,43087135005306 
327	 0,373428739696813 
328	 0,18082603536923 
329	 0,142316667845273 
330	 0,208389482976322 
331	 0,330418783873501 
332	 0,350538590769839 
333	 0,30357333429804 
334	 0,293625024975793 
335	 0,302971708320347 
336	 0,32140642626086 
337	 0,313358745981408 
338	 0,290376571665432 
339	 0,255878044299342 
340	 0,183889135659929 
341	 0,13169495692208 
342	 0,190538589487229 
343	 0,247107199134724 
344	 0,25508226776589 
345	 0,257447523430664 
346	 0,247912341186439 
347	 0,221081069553551 
348	 0,209484509254483 
349	 0,209183938689579 
350	 0,195440648555348 
351	 0,199187616890828 
352	 0,222279415258398 
353	 0,215828313710759 
354	 0,203411252309694 
355	 0,217028879348325 
356	 0,209999598251099 
357	 0,191854926737896 
358	 0,217570169242907 
359	 0,235338492072066 
360	 0,224580464254279 
361	 0,223139147607882 
362	 0,229404525974222 
363	 0,235541218824148 
364	 0,252427291328893 
365	 0,272001262475312 
366	 0,262246428804383 
367	 0,25776262869971 
368	 0,275672974715395 
369	 0,264193513342683 
370	 0,236752196025162 
371	 0,222104380831097 
372	 0,235071979051276 
373	 0,269987627157443 
374	 0,292535820815172 
375	 0,289752188023747 
376	 0,255318695248392 
377	 0,242248753815741 
378	 0,251536822408719 
379	 0,264529388513726 
380	 0,264223199970449 
381	 0,250184665963216 
382	 0,257271684228678 
383	 0,273080549870893 
384	 0,283472140274015 
385	 0,269497275949159 
386	 0,243540793874766 
387	 0,247713516177832 
388	 0,260374390520049 
389	 0,271381799680215 
390	 0,269344855502237 
391	 0,268052370145082 
392	 0,284349678502547 
393	 0,293158472496086 
394	 0,290301172628319 
395	 0,277126845701822 
396	 0,2712122546606 
397	 0,279953827664043 
398	 0,277017903472479 
399	 0,268317616424923 
400	 0,265906437610679 
401	 0,279142811519924 
402	 0,298554922720683 
403	 0,283083926947714 
404	 0,269912331551 
405	 0,282990237018582 
406	 0,289447694778578 
407	 0,289043730108578 
408	 0,29162851722631 
409	 0,289759356122916 
410	 0,283176886188649 
411	 0,279869034971076 
412	 0,27708747467763 
413	 0,272448587221575 
414	 0,276788444172431 
415	 0,285718142972089 
416	 0,284558460890128 
417	 0,282229492812818 
418	 0,282240768896751 
419	 0,282583424747833 
420	 0,282209093461427 
421	 0,280017517431691 
422	 0,278466234934326 
423	 0,279340358884251 
424	 0,286745317038686 
425	 0,292373919326531 
426	 0,291159186021574 
427	 0,285340711448212 
428	 0,279309632550592 
429	 0,279732113595812 
430	 0,28386379296573 
431	 0,288751868865028 
432	 0,285835163825046 
433	 0,282364104302236 
434	 0,28464016328728 
435	 0,283482875948488 
436	 0,279984356750143 
437	 0,280960033277805 
438	 0,282836489091588 
439	 0,284376643257689 
440	 0,287182221457721 
441	 0,289012576819601 
442	 0,287043667126047 
443	 0,28830220271658 
444	 0,292091472208251 
445	 0,289968290603867 
446	 0,288608152157006 
447	 0,291271803532238 
448	 0,287420650719972 
449	 0,282113285593695 
450	 0,287336748042916 
451	 0,290248693586491 
452	 0,288317943907664 
453	 0,288945956691658 
454	 0,291714850928099 
455	 0,295585568229785 
456	 0,295202722115951 
457	 0,292334258993842 
458	 0,294626114115084 
459	 0,295804291074577 
460	 0,294063423637678 
461	 0,29562430529391 
462	 0,297580879244252 
463	 0,295391328023459 
464	 0,294543664071419 
465	 0,295450491108546 
466	 0,294228653818595 
467	 0,294130609686388 
468	 0,296904904498012 
469	 0,297744710476451 
470	 0,297088133815834 
471	 0,297147937566011 
472	 0,29801780035087 
473	 0,299079363454839 
474	 0,296818861395791 
475	 0,294669152494351 
476	 0,29606182272672 
477	 0,296646250184706 
478	 0,296169427014327 
479	 0,29648724172383 
480	 0,296775524330945 
481	 0,2964870325646 
482	 0,294527742714756 
483	 0,29252403073393 
484	 0,292982105094504 
485	 0,293683448843214 
486	 0,293861568858946 
487	 0,292858520990151 
488	 0,29293298823557 
489	 0,295473480730306 
490	 0,296297574009391 
491	 0,295501769048055 
492	 0,29475603166224 
493	 0,294843286920205 
494	 0,295708910392314 
495	 0,295037828042071 
496	 0,293708220589356 
497	 0,292916334802598 
498	 0,291505993057267 
499	 0,290355003992258 
500	 0,292645043151782 
501	 0,295861955654529 
502	 0,298129530036422 
503	 0,297316836040295 
504	 0,295370521312475 
505	 0,296082293272361 
506	 0,296778599820748 
507	 0,29689534413161 
508	 0,297540266957645 
509	 0,297985254636113 
510	 0,297592436458791 
511	 0,297316662283454 
512	 0,297324757845443 
513	 0,29764425286419 
514	 0,297371895879943 
515	 0,29637172051659 
516	 0,296385356057605 
517	 0,29723281877357 
518	 0,298459194358208 
519	 0,298413257711424 
520	 0,297362988820384 
521	 0,298080458497625 
522	 0,2987676260455 
523	 0,298171794132784 
524	 0,297824507776581 
525	 0,297841722203539 
526	 0,297972867472326 
527	 0,297863688661319 
528	 0,297461914909412 
529	 0,297376905700936 
530	 0,297190610415783 
531	 0,296393278221222 
532	 0,296267490969622 
533	 0,296765623767111 
534	 0,296822881612699 
535	 0,296596971092568 
536	 0,296262352170991 
537	 0,29650398142771 
538	 0,297062326011545 
539	 0,297338498557254 
540	 0,297139309764516 
541	 0,296692973385385 
542	 0,297384422985514 
543	 0,298202074006683 
544	 0,298144496652868 
545	 0,298673326592571 
546	 0,299711105060558 
547	 0,300390821675251 
548	 0,300230104790748 
549	 0,2992209117275 
550	 0,299195789731326 
551	 0,299825409212189 
552	 0,300250007971833 
553	 0,300655651959726 
554	 0,300783783137133 
555	 0,299429396499326 
556	 0,29868958230367 
557	 0,300106687899155 
558	 0,299917817346934 
559	 0,298680213853427 
560	 0,299728272117413 
561	 0,299787507595853 
562	 0,29813997094738 
563	 0,298763784909323 
564	 0,300150047926972 
565	 0,299859385413089 
566	 0,300352505513731 
567	 0,30181448093162 
568	 0,302726700373369 
569	 0,303357379939846 
570	 0,303982852778166 
571	 0,305314848122692 
572	 0,307214004649548 
573	 0,309295925030752 
574	 0,310296860441696 
575	 0,310277347012927 
576	 0,31237530502467 
577	 0,31475673988054 
578	 0,315165758657384 
579	 0,316093376492973 
580	 0,317474116787117 
581	 0,317232428394687 
582	 0,317174082729702 
583	 0,318292657815852 
584	 0,319577427061106 
585	 0,320849851720217 
586	 0,322122623980052 
587	 0,322642439386267 
588	 0,322434072379559 
589	 0,322674851791084 
590	 0,323186418785864 
591	 0,323748755242471 
592	 0,324447637444166 
593	 0,32499502249874 
594	 0,324647330436985 
595	 0,324146880724097 
596	 0,323836492181339 
597	 0,323370958445275 
598	 0,322963679369748 
599	 0,322977665789576 
600	 0,322883630616585 
601	 0,322460610141925 
602	 0,321398729603716 
603	 0,320833165871248 
604	 0,321521161214024 
605	 0,321324195959992 
606	 0,32023633100089 
607	 0,319133855382024 
608	 0,318285770556666 
609	 0,317785434427339 
610	 0,317134791982186 
611	 0,31641146944175 
612	 0,315765960011679 
613	 0,315292236191718 
614	 0,3149891368984 
615	 0,31473337171776 
616	 0,314597711861016 
617	 0,314595218536454 
618	 0,314446637993182 
619	 0,314216910782075 
620	 0,314101660693274 
621	 0,314091842894092 
622	 0,314247784067282 
623	 0,314806216166685 
624	 0,315451819721964 
625	 0,315841813302193 
626	 0,315779648958238 
627	 0,315565076096514 
628	 0,316153805529817 
629	 0,316895060227353 
630	 0,31743492083736 
631	 0,317809253630299 
632	 0,318195014408571 
633	 0,318870871000584 
634	 0,319642386761148 
635	 0,320422890474498 
636	 0,321103353867987 
637	 0,321825230044302 
638	 0,322734951809079 
639	 0,324114254528429 
640	 0,325633271057356 
641	 0,32642787831675 
642	 0,326857574770924 
643	 0,327152821912608 
644	 0,327871817940385 
645	 0,328461631070456 
646	 0,328139419019802 
647	 0,328322934366185 
648	 0,32888797662796 
649	 0,328165638780463 
650	 0,327022158469455 
651	 0,32609736190813 
652	 0,325503990532691 
653	 0,324990516238648 
654	 0,323972650975701 
655	 0,323076392074032 
656	 0,322337041026552 
657	 0,320883300369326 
658	 0,319248810238342 
659	 0,318027634415815 
660	 0,316789233240322 
661	 0,315337719440393 
662	 0,313180876616587 
663	 0,311878906358308 
664	 0,312016156197845 
665	 0,31142331267589 
666	 0,310622421414239 
667	 0,310877890342864 
668	 0,310483489088388 
669	 0,309349653306841 
670	 0,309128221674054 
671	 0,30902808660556 
672	 0,308462206014275 
673	 0,308698554749815 
674	 0,309379892364762 
675	 0,309174063002255 
676	 0,308816226349976 
677	 0,308662069396761 
678	 0,30914094597461 
679	 0,309768481613023 
680	 0,309934023592408 
681	 0,310130452836282 
682	 0,310477476371483 
683	 0,310953762344701 
684	 0,311512040645117 
685	 0,312205357720632 
686	 0,313602645016761 
687	 0,315537491533725 
688	 0,317559852372463 
689	 0,319959130241365 
690	 0,322987814811824 
691	 0,327196815248677 
692	 0,332250327578183 
693	 0,337803883453636 
694	 0,343750390832408 
695	 0,350063527284942 
696	 0,356633442117866 
697	 0,364438839980863 
698	 0,373650529415245 
699	 0,382542821557808 
700	 0,391464885844915 
701	 0,401099314198212 
702	 0,411180726934565 
703	 0,421319767149935 
704	 0,430670001583217 
705	 0,439812939176342 
706	 0,449063117392411 
707	 0,458073943267715 
708	 0,466659222074228 
709	 0,474561018607749 
710	 0,482214022188128 
711	 0,489658169338044 
712	 0,496394892751907 
713	 0,502784330616743 
714	 0,509185585876503 
715	 0,515459742162174 
716	 0,521411590573597 
717	 0,526694854258059 
718	 0,531398012394015 
719	 0,535616757021362 
720	 0,539731137869328 
721	 0,543627034002657 
722	 0,547105889316855 
723	 0,550771531015065 
724	 0,554476861815463 
725	 0,557282377868353 
726	 0,559644787960587 
727	 0,561849728948044 
728	 0,56375043244159 
729	 0,565538036816779 
730	 0,567566199310928 
731	 0,569285331420634 
732	 0,570590354708823 
733	 0,571789481098187 
734	 0,572959050213277 
735	 0,574146638806861 
736	 0,575161631571663 
737	 0,576032521856921 
738	 0,576916434745821 
739	 0,577701575713637 
740	 0,578431259205214 
741	 0,579611751790752 
742	 0,580541361868112 
743	 0,58040158783848 
744	 0,580454971837165 
745	 0,580972804885085 
746	 0,581791187147541 
747	 0,582573453654272 
748	 0,583122554691303 
749	 0,583648284014871 
750	 0,584007167676102 
751	 0,583925912877868 
752	 0,584396354970047 
753	 0,585255110818972 
754	 0,584753302715235 
755	 0,58421540548032 
756	 0,584591536144057 
757	 0,585004974638703 
758	 0,585343888814549 
759	 0,585711502748667 
760	 0,5856805771186 
761	 0,585258838019317 
762	 0,585117693643531 
763	 0,585335470748807 
764	 0,585889800887249 
765	 0,585803900744987 
766	 0,585317792351875 
767	 0,585661465203637 
768	 0,585580520596278 
769	 0,584775419927375 
770	 0,584480361022676 
771	 0,584613857904839 
772	 0,584940677968914 
773	 0,585243610073409 
774	 0,585290650131856 
775	 0,584516571759585 
776	 0,584281214175646 
777	 0,585133205133529 
778	 0,585407165580299 
779	 0,58539663860021 
780	 0,585831341228459 
781	 0,585706390457408 
782	 0,585053894451532 
783	 0,584895443270335 
784	 0,584998692891315 
785	 0,585158433953538 
786	 0,584951123235416 
787	 0,584734942938654 
788	 0,585287863171294 
789	 0,585487413249743 
790	 0,585158034935674 
791	 0,585100449007433 
792	 0,585145105926195 
793	 0,585136956073408 
794	 0,585093804640226 
795	 0,584993357401366 
796	 0,584774719136455 
797	 0,584666503340926 
798	 0,584739604738729 
799	 0,584973860947875 
800	 0,5848616433718 
801	 0,584029576810521 
802	 0,584084086264552 
803	 0,58468860684186 
804	 0,584068594665781 
805	 0,584078893452648 
806	 0,585070392671144 
807	 0,585111303168583 
808	 0,584713749168234 
809	 0,584567234773029 
810	 0,584300484559822 
811	 0,584122293748524 
812	 0,584776361509675 
813	 0,585360499645712 
814	 0,585478913353228 
815	 0,585359147069032 
816	 0,585353203820338 
817	 0,585841566392301 
818	 0,586486551575371 
819	 0,587000033589735 
820	 0,586772967358828 
821	 0,586727269931467 
822	 0,587217666868094 
823	 0,587363298636841 
824	 0,587386759581882 
825	 0,587678512447861 
826	 0,587770258202052 
827	 0,587634596356233 
828	 0,58755549869878 
829	 0,587392063604003 
830	 0,587136645613782 
831	 0,5872030919076 
832	 0,587311058250947 
833	 0,587027735410767 
834	 0,586800887973004 
835	 0,586777365450667 
836	 0,587063224569949 
837	 0,587255626075145 
838	 0,587146662528374 
839	 0,587055254364211 
840	 0,586933080671105 
841	 0,586666275507615 
842	 0,58634219487743 
843	 0,586060666708382 
844	 0,586004862444796 
845	 0,586151238588141 
846	 0,586484653529074 
847	 0,58706634000517 
848	 0,587481741349485 
849	 0,587172854168253 
850	 0,586956631639316 
851	 0,5869937164099 
852	 0,587037081603813 
853	 0,587144903988756 
854	 0,587252471045512 
855	 0,58668107640544 
856	 0,58626323162138 
857	 0,587190145070161 
858	 0,587812954379732 
859	 0,587720993389853 
860	 0,586966317875751 
861	 0,586715092911147 
862	 0,587409527776495 
863	 0,587346242546332 
864	 0,587185025602016 
865	 0,587991389795029 
866	 0,588536773442811 
867	 0,588616975116807 
868	 0,588591150062351 
869	 0,588376562207019 
870	 0,588046864873653 
871	 0,588127206468297 
872	 0,588416511782483 
873	 0,58859758620716 
874	 0,588343637950048 
875	 0,587767108891678 
876	 0,587324517958027 
877	 0,587425351827255 
878	 0,588030285421803 
879	 0,587732925974114 
880	 0,587300267768512 
881	 0,587636189684187 
882	 0,587772485873962 
883	 0,587658636075342 
884	 0,58769076064012 
885	 0,587674829499972 
886	 0,587509286298586 
887	 0,586945782733925 
888	 0,586679184448857 
889	 0,587294901513772 
890	 0,587554600874392 
891	 0,587592989254623 
892	 0,588313239463347 
893	 0,588297095031441 
894	 0,587433615902227 
895	 0,587365884090234 
896	 0,587602386840485 
897	 0,58771579062065 
898	 0,587800151387907 
899	 0,588096090778388 
900	 0,589076632230633 
901	 0,589024837662664 
902	 0,587890798114859 
903	 0,587385302402288 
904	 0,587650540828235 
905	 0,588482564681601 
906	 0,587623008147241 
907	 0,586427085838582 
908	 0,587191610669264 
909	 0,58778329504691 
910	 0,587782679671879 
911	 0,587610553072325 
912	 0,587416057941345 
913	 0,58723919204578 
914	 0,586677799984945 
915	 0,586264357555198 
916	 0,586568211247389 
917	 0,586515654773109 
918	 0,586160798138041 
919	 0,58621476733726 
920	 0,586320920828897 
921	 0,586266325759115 
922	 0,585631987345214 
923	 0,58506792016109 
924	 0,585061789655084 
925	 0,584709559302144 
926	 0,584140731205334 
927	 0,583825476679777 
928	 0,583863905996433 
929	 0,583989002886079 
930	 0,583165842910012 
931	 0,582036103833661 
932	 0,581128128085254 
933	 0,581145838431495 
934	 0,581342014816305 
935	 0,580701191746002 
936	 0,581080164923126 
937	 0,581901284618447 
938	 0,58026394346634 
939	 0,579483345901479 
940	 0,58029078145094 
941	 0,579381193223818 
942	 0,578438259033275 
943	 0,578851889330615 
944	 0,577309138852948 
945	 0,574863937805833 
946	 0,574428907186233 
947	 0,574295445907235 
948	 0,573837532618318 
949	 0,572536498813047 
950	 0,571619170119093 
951	 0,571484837864132 
952	 0,56979311546915 
953	 0,567691393046077 
954	 0,566860897707397 
955	 0,567807077924425 
956	 0,568851700607646 
957	 0,565260584768743 
958	 0,563265421556417 
959	 0,564139008781069 
960	 0,562634519612567 
961	 0,562061592126154 
962	 0,56434832038534 
963	 0,56248311119347 
964	 0,559276608808977 
965	 0,560389658364984 
966	 0,56057388678861 
967	 0,559505236417946 
968	 0,560537633774581 
969	 0,559935108470586 
970	 0,556984092791213 
971	 0,556887046208244 
972	 0,557392007564447 
973	 0,556320829231475 
974	 0,556423935647677 
975	 0,557328675787895 
976	 0,557634289965176 
977	 0,557184673268414 
978	 0,556417790713303 
979	 0,557170575500948 
980	 0,557436142359033 
981	 0,556416466023181 
982	 0,555487785466844 
983	 0,55603826192632 
984	 0,55897921392583 
985	 0,559770681591705 
986	 0,55871858429202 
987	 0,558125401313536 
988	 0,557866160017753 
989	 0,558136761160858 
990	 0,559499834851897 
991	 0,560092574164286 
992	 0,559036179565369 
993	 0,557390135812268 
994	 0,556891753979544 
995	 0,55895848712678 
996	 0,559679457543535 
997	 0,5598184858276 
998	 0,562400506487167 
999	 0,562566507730966 
1000	 0,560828061308797 
1001	 0,564275783905208 
1002	 0,566295244201069 
1003	 0,563995817304522 
1004	 0,561727867596794 
1005	 0,560787267345712 
1006	 0,562111710889817 
1007	 0,565976955828904 
1008	 0,569320586075296 
1009	 0,566838935964614 
1010	 0,566501217750107 
1011	 0,569200013406824 
1012	 0,570556618590261 
1013	 0,569735471804527 
1014	 0,567470031522272 
1015	 0,569958792228489 
1016	 0,573175832254415 
1017	 0,573481625105474 
1018	 0,573052143737025 
1019	 0,571477602386173 
1020	 0,567857364985096 
1021	 0,569530602232659 
1022	 0,574756265608001 
1023	 0,573566870412395 
1024	 0,573283469365718 
1025	 0,575104297992393 
1026	 0,572686187361873 
1027	 0,57217159716238 
1028	 0,576474294365396 
1029	 0,574987146158574 
1030	 0,573822916767452 
1031	 0,580421609985709 
1032	 0,57987399450698 
1033	 0,575259238179784 
1034	 0,578795585309495 
1035	 0,579470308837989 
1036	 0,577629311145892 
1037	 0,586389343012992 
1038	 0,587080593392705 
1039	 0,575844059747165 
1040	 0,580619674143818 
1041	 0,587014709507407 
1042	 0,582768807004429 
1043	 0,57931485588254 
1044	 0,578498995887209 
1045	 0,580578226109934 
1046	 0,581726932102764 
1047	 0,581588526781416 
1048	 0,581555641900634 
1049	 0,583110916263802 
1050	 0,585513934644933 
1051	 0,584704518425545 
1052	 0,580730446715728 
1053	 0,575127351021981 
1054	 0,573976990457323 
1055	 0,577452029122857 
1056	 0,584688284951022 
1057	 0,590740258337969 
1058	 0,593032054340717 
1059	 0,589855977744049 
1060	 0,583734178403702 
1061	 0,578916498060629 
1062	 0,582347243677292 
1063	 0,587381664367748 
1064	 0,589496627244262 
1065	 0,58135922117459 
1066	 0,574006671048136 
1067	 0,57477356753403 
1068	 0,587807512165136 
1069	 0,603303184724662 
1070	 0,611770327346788 
1071	 0,601292792496757 
1072	 0,583717191298194 
1073	 0,574715660865564 
1074	 0,57437254549627 
1075	 0,579027474481009 
