Wavelength	GRA-VAN00227.asd
325	-1,24832032370571E-02 
326	 1,79343041964811E-03 
327	 8,51412134298922E-02 
328	 0,142541362234648 
329	-2,76682406923168E-02 
330	-0,167959064814044 
331	 7,13817302171683E-02 
332	 0,142399428016042 
333	 0,125746921527847 
334	 6,25006142204314E-02 
335	 6,00107974889786E-02 
336	 0,122609916601774 
337	 0,070763098097293 
338	 3,92400673003129E-03 
339	 3,70034499753573E-03 
340	 5,48125450290599E-03 
341	 8,45501253908556E-05 
342	-0,013159347881205 
343	 5,02490643728899E-03 
344	 4,29970312516882E-02 
345	 2,67931959849098E-02 
346	 0,021330811713652 
347	 8,61244423593456E-02 
348	 5,95841159136458E-02 
349	-3,47789466661663E-02 
350	-5,97973577745158E-02 
351	-2,69129859302211E-02 
352	 3,22551923845027E-02 
353	 4,47486038400653E-02 
354	 2,88352598162754E-02 
355	 6,95847804895797E-03 
356	 2,26442972315214E-02 
357	 5,38502280437634E-02 
358	 1,63100945186714E-02 
359	-1,36757359729541E-02 
360	 0,00411597368312 
361	 3,71189987147331E-02 
362	 6,38482759014181E-02 
363	 5,86665348965314E-02 
364	 3,73878832924451E-02 
365	 1,51216836932525E-02 
366	 2,70327172586681E-02 
367	 4,96874891617016E-02 
368	 6,38672921263203E-02 
369	 4,27285616363867E-02 
370	 9,42778695658035E-03 
371	 7,94172579312346E-03 
372	 3,02199839321776E-02 
373	 5,37252858406893E-02 
374	 0,014310608709609 
375	-1,86440290314711E-02 
376	 9,23195369273581E-03 
377	 2,01968326976224E-02 
378	 1,69285204034054E-02 
379	 3,16194673105801E-02 
380	 3,51023810685451E-02 
381	 2,50336773146797E-02 
382	 3,07869890503761E-02 
383	 4,01693296586872E-02 
384	 4,11060198363492E-02 
385	 0,03846536874726 
386	 3,19874325150922E-02 
387	 1,56631589940297E-02 
388	 8,31812003077264E-03 
389	 1,66281607844454E-02 
390	 0,024068730622495 
391	 2,19419673130369E-02 
392	 2,68040398990693E-03 
393	 0,010029898565998 
394	 3,46812432416119E-02 
395	 0,020370474357833 
396	 0,002391397931148 
397	 6,70565807110088E-04 
398	 2,15884701548899E-02 
399	 0,042006823206445 
400	 2,80788881726511E-02 
401	 2,56994579962099E-02 
402	 3,69362496726519E-02 
403	 2,46336143527896E-02 
404	 7,89877511719062E-03 
405	 2,25932825147742E-03 
406	 1,40752821975862E-02 
407	 3,04405347590371E-02 
408	 2,74225030375005E-02 
409	 2,50192973084946E-02 
410	 2,69249860126561E-02 
411	 2,04438507488745E-02 
412	 1,61235041864767E-02 
413	 2,33658144383564E-02 
414	 2,40756441275383E-02 
415	 1,88722250733243E-02 
416	 1,78592360200248E-02 
417	 1,54949947231294E-02 
418	 1,13769802609623E-02 
419	 1,51987401748774E-02 
420	 2,32897453962327E-02 
421	 3,05926641688692E-02 
422	 3,13341096872511E-02 
423	 2,62062747793774E-02 
424	 2,20072487728028E-02 
425	 2,10326091237135E-02 
426	 2,40383380909306E-02 
427	 2,49011699897613E-02 
428	 2,33859716981263E-02 
429	 2,06959542264539E-02 
430	 1,82235188454766E-02 
431	 1,68000618423227E-02 
432	 0,01711372820766 
433	 1,88669873041876E-02 
434	 2,13795968239034E-02 
435	 0,018577439805873 
436	 0,013163092880374 
437	 1,48515530077001E-02 
438	 1,73122523757464E-02 
439	 1,78795345632449E-02 
440	 1,63202007508657E-02 
441	 1,56584918440947E-02 
442	 1,96625028869734E-02 
443	 2,16937719303066E-02 
444	 2,12411816366173E-02 
445	 2,27854413373744E-02 
446	 2,24377362355098E-02 
447	 1,84066103671188E-02 
448	 1,66948418508324E-02 
449	 1,73637910986569E-02 
450	 1,88521305173472E-02 
451	 2,09829250058675E-02 
452	 2,27777287472822E-02 
453	 2,12061354950351E-02 
454	 1,88667560415531E-02 
455	 1,83976394232784E-02 
456	 2,12860777190749E-02 
457	 2,46236977814487E-02 
458	 1,96866202143134E-02 
459	 1,72992229683421E-02 
460	 2,09619843135088E-02 
461	 2,03447288723728E-02 
462	 0,018273410928311 
463	 1,97539613853806E-02 
464	 1,83786309836713E-02 
465	 1,47543012141536E-02 
466	 1,59672023204433E-02 
467	 1,97860298713623E-02 
468	 2,41617721123825E-02 
469	 2,53628948777597E-02 
470	 2,34892427715229E-02 
471	 1,94459653758886E-02 
472	 1,91298804791006E-02 
473	 0,022982786683847 
474	 2,24194581990451E-02 
475	 2,04345759756855E-02 
476	 2,04116360631286E-02 
477	 2,03866051320446E-02 
478	 2,01215699365229E-02 
479	 2,00486241354522E-02 
480	 1,91848783060398E-02 
481	 1,76465925763053E-02 
482	 1,97414743339327E-02 
483	 2,18897803721601E-02 
484	 1,81619967690126E-02 
485	 0,017966604869489 
486	 2,17029504582421E-02 
487	 2,07814934334584E-02 
488	 1,93697174744539E-02 
489	 2,04032834676549E-02 
490	 1,87086138875528E-02 
491	 1,61220231817616E-02 
492	 1,85610332344454E-02 
493	 2,11101817899744E-02 
494	 2,20017975150503E-02 
495	 2,22324168901736E-02 
496	 2,09311686569167E-02 
497	 1,71795857326446E-02 
498	 1,75468962551966E-02 
499	 2,13671084853779E-02 
500	 2,19513663687276E-02 
501	 2,12811255681727E-02 
502	 2,05918127785606E-02 
503	 2,06536409523328E-02 
504	 0,021231409009047 
505	 2,17147104318466E-02 
506	 2,17171180578166E-02 
507	 2,14785084931395E-02 
508	 2,29237162035557E-02 
509	 2,34704363778833E-02 
510	 2,09975139544666E-02 
511	 2,11242360966547E-02 
512	 2,27725622466504E-02 
513	 1,99274256908912E-02 
514	 1,85867822575209E-02 
515	 2,09680462921035E-02 
516	 2,35883173447992E-02 
517	 2,50546594805299E-02 
518	 2,40272850982688E-02 
519	 2,34364503850515E-02 
520	 2,36967482593626E-02 
521	 2,30351303135992E-02 
522	 2,26328148414245E-02 
523	 2,32257858461753E-02 
524	 0,022844195508966 
525	 2,18602818792779E-02 
526	 0,021748405332244 
527	 2,20180385762694E-02 
528	 2,23067889256617E-02 
529	 0,021386778274077 
530	 2,07236842105263E-02 
531	 2,20319726788762E-02 
532	 0,022581429969959 
533	 2,19163061503851E-02 
534	 2,04797532387641E-02 
535	 2,01821972392789E-02 
536	 2,18823163831464E-02 
537	 0,022398631874421 
538	 2,20777688424514E-02 
539	 2,23351126979314E-02 
540	 2,32259255408816E-02 
541	 2,43329157552618E-02 
542	 2,36506113319225E-02 
543	 2,23416304294476E-02 
544	 2,16618614142125E-02 
545	 2,16355022624357E-02 
546	 2,19931344590179E-02 
547	 2,18003464197909E-02 
548	 2,21255492406889E-02 
549	 0,023286509700126 
550	 2,38434419141291E-02 
551	 2,36330287815977E-02 
552	 2,26412038393005E-02 
553	 2,23096072778748E-02 
554	 2,26278629017082E-02 
555	 2,14761782247748E-02 
556	 2,06195153699736E-02 
557	 0,021462932872154 
558	 2,20105680416049E-02 
559	 0,02215772977778 
560	 2,26748065026921E-02 
561	 2,28536263419661E-02 
562	 2,25546233420143E-02 
563	 2,27704334736536E-02 
564	 2,29987667148403E-02 
565	 2,24740813880923E-02 
566	 2,19036737381639E-02 
567	 2,15294456288586E-02 
568	 2,14629965704811E-02 
569	 2,14577043438857E-02 
570	 2,13797962059653E-02 
571	 2,17369685088182E-02 
572	 2,23398942545417E-02 
573	 2,25726164112757E-02 
574	 2,32562045000994E-02 
575	 2,44032920058833E-02 
576	 2,46237870526686E-02 
577	 2,44284094970593E-02 
578	 0,024507042105289 
579	 2,47896379816701E-02 
580	 0,025243584282824 
581	 2,58408172784817E-02 
582	 2,59499605546088E-02 
583	 2,54284701081613E-02 
584	 2,63097270349232E-02 
585	 2,76000284188802E-02 
586	 2,70703533276323E-02 
587	 2,67857343482922E-02 
588	 0,027326116769191 
589	 0,028324275596364 
590	 2,90320261442228E-02 
591	 2,88163760049556E-02 
592	 2,87815608561217E-02 
593	 2,89982726958731E-02 
594	 2,89490807793897E-02 
595	 2,91599188918819E-02 
596	 2,97277901945551E-02 
597	 2,96143335875703E-02 
598	 2,92348992700446E-02 
599	 2,93955969415692E-02 
600	 2,88250029229978E-02 
601	 2,77663292233008E-02 
602	 2,85325122882828E-02 
603	 0,029406241892168 
604	 2,89979588326188E-02 
605	 2,80263939269602E-02 
606	 2,70923268682821E-02 
607	 0,027420092947115 
608	 2,73064022282548E-02 
609	 2,64210940338651E-02 
610	 2,69775931250927E-02 
611	 2,75699605137705E-02 
612	 2,62808259755573E-02 
613	 2,59009030974737E-02 
614	 2,66313515850959E-02 
615	 0,026817453297808 
616	 2,65057218446004E-02 
617	 0,025850232364296 
618	 2,61218504600918E-02 
619	 2,67872450749361E-02 
620	 2,64765146310225E-02 
621	 2,56685305267093E-02 
622	 2,47781113748292E-02 
623	 2,49835328172558E-02 
624	 2,55371744051992E-02 
625	 2,56136681573459E-02 
626	 2,60179331582634E-02 
627	 0,026525378800851 
628	 2,60302043853972E-02 
629	 2,55849378160189E-02 
630	 2,56879868652637E-02 
631	 2,55717949485291E-02 
632	 0,025575832764564 
633	 2,63886600716254E-02 
634	 2,71085688406276E-02 
635	 2,75171281148802E-02 
636	 2,80303040265998E-02 
637	 2,82689118737064E-02 
638	 2,79704387718707E-02 
639	 2,80853017911325E-02 
640	 2,86016067580541E-02 
641	 2,90137380892221E-02 
642	 2,94656418662725E-02 
643	 2,99096220419683E-02 
644	 2,98621752308187E-02 
645	 2,97813914050776E-02 
646	 3,03135179153094E-02 
647	 3,00538970460598E-02 
648	 2,90940855180626E-02 
649	 2,89431520133936E-02 
650	 2,92503743793209E-02 
651	 2,96559528053326E-02 
652	 2,90910185023472E-02 
653	 2,82476449844947E-02 
654	 2,90022389119638E-02 
655	 2,88501942211771E-02 
656	 2,72473756991009E-02 
657	 2,58331062599554E-02 
658	 2,51173314749131E-02 
659	 2,54575887301834E-02 
660	 2,53486737915785E-02 
661	 2,46697282764456E-02 
662	 2,41610819533524E-02 
663	 2,35898204441397E-02 
664	 2,29686207887063E-02 
665	 2,31243460016421E-02 
666	 2,33831594112732E-02 
667	 2,25539167517244E-02 
668	 2,19727108700034E-02 
669	 2,19535983275498E-02 
670	 2,21059060176804E-02 
671	 0,022271157335888 
672	 2,23198143125709E-02 
673	 2,22953469343686E-02 
674	 2,22198203159712E-02 
675	 2,21424133308292E-02 
676	 2,19530588066062E-02 
677	 2,17119598049796E-02 
678	 2,18862736217308E-02 
679	 2,24020650118055E-02 
680	 2,31099849220006E-02 
681	 2,28365836425609E-02 
682	 2,19359700732113E-02 
683	 2,24458401327209E-02 
684	 2,32171774995678E-02 
685	 2,35544777795575E-02 
686	 2,36124971379446E-02 
687	 2,37883102481344E-02 
688	 2,47915799720842E-02 
689	 2,53901808804423E-02 
690	 2,55030528963092E-02 
691	 2,63833619249398E-02 
692	 2,80048869880427E-02 
693	 3,02612896332879E-02 
694	 3,25590463221057E-02 
695	 3,50036156733266E-02 
696	 3,82069742877881E-02 
697	 4,17333992517024E-02 
698	 4,54300101871584E-02 
699	 4,94062590426001E-02 
700	 5,40553972032533E-02 
701	 5,98419884497545E-02 
702	 6,57578261153609E-02 
703	 7,14287590861768E-02 
704	 7,65899425710262E-02 
705	 8,22898902103324E-02 
706	 0,089044580744174 
707	 0,095302260839033 
708	 0,101022375406101 
709	 0,106566875113294 
710	 0,111853656868676 
711	 0,116866871822016 
712	 0,121518638430409 
713	 0,126032678595639 
714	 0,130588674010642 
715	 0,134694560506121 
716	 0,138486584633763 
717	 0,142655844979089 
718	 0,146152428867371 
719	 0,148665027847731 
720	 0,151129410157539 
721	 0,153682301860638 
722	 0,156373960330267 
723	 0,158639188025797 
724	 0,160537357950955 
725	 0,162793364675896 
726	 0,164797173223792 
727	 0,166216586781398 
728	 0,167604748993342 
729	 0,168981339347346 
730	 0,170261465013274 
731	 0,171150712416969 
732	 0,171709857486071 
733	 0,17259370786386 
734	 0,173529604378167 
735	 0,174263330854151 
736	 0,174953005782483 
737	 0,175610817857315 
738	 0,176173994053951 
739	 0,176875731397479 
740	 0,177704681362516 
741	 0,178104853359656 
742	 0,17826225595685 
743	 0,178450119419021 
744	 0,178814534208773 
745	 0,179292173722229 
746	 0,179515851031156 
747	 0,179858995092197 
748	 0,180475502699009 
749	 0,180982972301596 
750	 0,181282434640229 
751	 0,181295916549738 
752	 0,181428953915848 
753	 0,1817652390569 
754	 0,182106633669485 
755	 0,182449194148664 
756	 0,1827500867076 
757	 0,182610005005283 
758	 0,182362667825129 
759	 0,182791589747416 
760	 0,183299528327796 
761	 0,18361734845597 
762	 0,183481191711888 
763	 0,183384771868739 
764	 0,183763490204766 
765	 0,183754271423038 
766	 0,183425971191224 
767	 0,183345296728108 
768	 0,1834745009369 
769	 0,183820296597238 
770	 0,184367832875407 
771	 0,184921892152976 
772	 0,185259972584514 
773	 0,185280536928175 
774	 0,185097554923575 
775	 0,185133586445075 
776	 0,18508876202575 
777	 0,184862233424574 
778	 0,184813290885536 
779	 0,184984170984557 
780	 0,185374855796353 
781	 0,185586841338856 
782	 0,185566990351624 
783	 0,185607648664012 
784	 0,18555234011047 
785	 0,185362658156004 
786	 0,185584550443752 
787	 0,185999980646013 
788	 0,186078118736001 
789	 0,186236315734218 
790	 0,186549911124661 
791	 0,186893890324413 
792	 0,186880888711748 
793	 0,186298251768947 
794	 0,186267202323439 
795	 0,186630633571795 
796	 0,1866269365098 
797	 0,186589599700446 
798	 0,186638562586201 
799	 0,18686310696546 
800	 0,187147518033829 
801	 0,187348299053228 
802	 0,187038844570036 
803	 0,186567029031273 
804	 0,187043514307698 
805	 0,187358810953335 
806	 0,187213393036371 
807	 0,187388310497859 
808	 0,187580469685057 
809	 0,187445871045558 
810	 0,187824395114001 
811	 0,188495673775783 
812	 0,188362669777768 
813	 0,188235799696062 
814	 0,188399405581606 
815	 0,18836603080402 
816	 0,18831244267084 
817	 0,188489382453546 
818	 0,188865124824266 
819	 0,189232690455668 
820	 0,189043741133554 
821	 0,188720020316003 
822	 0,188506626496443 
823	 0,188452961307489 
824	 0,188659317118811 
825	 0,189225531154453 
826	 0,189788410921006 
827	 0,190120297277901 
828	 0,189840561568799 
829	 0,189755293635063 
830	 0,190173511059742 
831	 0,190059726978094 
832	 0,18960107626375 
833	 0,189205333479297 
834	 0,18951288649544 
835	 0,190289153128423 
836	 0,190209429646602 
837	 0,190027214285572 
838	 0,190105694190622 
839	 0,189908213862872 
840	 0,189848364562971 
841	 0,190561301847964 
842	 0,190776698261119 
843	 0,190352246220007 
844	 0,189883225309501 
845	 0,189906584046549 
846	 0,190606037765821 
847	 0,190884601140632 
848	 0,190870342100596 
849	 0,190935780180079 
850	 0,191114450827691 
851	 0,191198132173681 
852	 0,19034635696018 
853	 0,190014180707553 
854	 0,190771678188043 
855	 0,19057102015942 
856	 0,190058356624235 
857	 0,190417870062777 
858	 0,190387064359185 
859	 0,190019549936764 
860	 0,190499743794751 
861	 0,190893824066044 
862	 0,190745790047504 
863	 0,190524545678011 
864	 0,190311556051233 
865	 0,190150410791053 
866	 0,190195244246417 
867	 0,190424652556873 
868	 0,19067709256292 
869	 0,190813252829482 
870	 0,190824416759786 
871	 0,191221195200994 
872	 0,191432747161104 
873	 0,190782545573271 
874	 0,191303396521769 
875	 0,192526482998965 
876	 0,191693434578448 
877	 0,191376618711617 
878	 0,192331803580713 
879	 0,19227950790671 
880	 0,191777569111525 
881	 0,191629337891713 
882	 0,192075721901373 
883	 0,192599934612745 
884	 0,191551676121712 
885	 0,191302988898928 
886	 0,192381873925519 
887	 0,192671753713851 
888	 0,192590320228224 
889	 0,192635157078251 
890	 0,192490128957532 
891	 0,192396281591981 
892	 0,193014932810487 
893	 0,193132907035369 
894	 0,192598734332959 
895	 0,192686013399505 
896	 0,192821611682069 
897	 0,192575618661704 
898	 0,192609680348752 
899	 0,192804095098036 
900	 0,192767418355455 
901	 0,192858322475274 
902	 0,193065912198704 
903	 0,192907718150787 
904	 0,193161556954893 
905	 0,19402538739876 
906	 0,193077355909061 
907	 0,191922754877443 
908	 0,193190806828412 
909	 0,193427956120335 
910	 0,192533716760775 
911	 0,192998348779756 
912	 0,193383673447978 
913	 0,193076126489309 
914	 0,192721465166501 
915	 0,192156111186115 
916	 0,191228674694295 
917	 0,191507111804843 
918	 0,192629347525515 
919	 0,192880587637441 
920	 0,193106335825387 
921	 0,193435147183563 
922	 0,193307031376455 
923	 0,192898145654553 
924	 0,192421719756577 
925	 0,192272834909106 
926	 0,192112798340592 
927	 0,191188252102658 
928	 0,190680939356081 
929	 0,190903995404232 
930	 0,191766571579339 
931	 0,191834160395414 
932	 0,190583155396577 
933	 0,190823156941848 
934	 0,191359137841041 
935	 0,190311803239326 
936	 0,189398396980103 
937	 0,188867752879134 
938	 0,188167464469463 
939	 0,188294925667984 
940	 0,189130320393583 
941	 0,188100006776708 
942	 0,186928978767311 
943	 0,187181597170354 
944	 0,187296253500362 
945	 0,187041943451069 
946	 0,186515394820214 
947	 0,185259164787337 
948	 0,183674642520543 
949	 0,183500792081984 
950	 0,183895208694109 
951	 0,184135487678134 
952	 0,1831831375219 
953	 0,18145438002977 
954	 0,179697273203111 
955	 0,18016222892458 
956	 0,181379226575745 
957	 0,178042949686401 
958	 0,176630666536312 
959	 0,178337646209659 
960	 0,177709111890266 
961	 0,176505141690073 
962	 0,176232612248544 
963	 0,176596982110393 
964	 0,177002624775734 
965	 0,176602922391288 
966	 0,176374201645813 
967	 0,176170643577617 
968	 0,174611276337955 
969	 0,173867370637387 
970	 0,174806451530329 
971	 0,176639281678904 
972	 0,177466110698795 
973	 0,175894662139765 
974	 0,175604979152705 
975	 0,17600221705189 
976	 0,174867029863501 
977	 0,173726407291974 
978	 0,173489168967412 
979	 0,17581115223491 
980	 0,177596706918369 
981	 0,177422524941758 
982	 0,177237727373738 
983	 0,176753576491626 
984	 0,17565729046687 
985	 0,175302166366074 
986	 0,17577520920622 
987	 0,176707391029947 
988	 0,177700535934192 
989	 0,178354281188083 
990	 0,177751863245425 
991	 0,178061870752627 
992	 0,180044304699117 
993	 0,181120038647737 
994	 0,180281912415094 
995	 0,17715464905108 
996	 0,176733542030954 
997	 0,178643805554675 
998	 0,180120880237126 
999	 0,182248773825481 
1000	 0,184056302786389 
1001	 0,181486211691407 
1002	 0,179909843157812 
1003	 0,181427567476444 
1004	 0,180701746732239 
1005	 0,180041279445334 
1006	 0,181906433927562 
1007	 0,184093475959667 
1008	 0,185202344171634 
1009	 0,183546466057603 
1010	 0,182922910089953 
1011	 0,183784378533797 
1012	 0,183785289792049 
1013	 0,183907662533084 
1014	 0,184449616566293 
1015	 0,184485341876829 
1016	 0,186125272522459 
1017	 0,190366735058936 
1018	 0,189616020810953 
1019	 0,186769195641815 
1020	 0,187795420001776 
1021	 0,187130853137811 
1022	 0,18508640961158 
1023	 0,18538074174248 
1024	 0,190438535516475 
1025	 0,197841594447787 
1026	 0,193695259856636 
1027	 0,189814483185352 
1028	 0,193381556621854 
1029	 0,193815257362834 
1030	 0,193456697880601 
1031	 0,195858588825893 
1032	 0,194508379918873 
1033	 0,191688936137476 
1034	 0,194460095304184 
1035	 0,195211052105271 
1036	 0,193375605667665 
1037	 0,195025954354196 
1038	 0,195992819407187 
1039	 0,194764919458166 
1040	 0,193852691618141 
1041	 0,192981902924631 
1042	 0,191782391064415 
1043	 0,189673351058758 
1044	 0,188406199570655 
1045	 0,190277506951004 
1046	 0,19111181672282 
1047	 0,191484937090346 
1048	 0,194698651580356 
1049	 0,200674605870722 
1050	 0,206593724936116 
1051	 0,203084101383716 
1052	 0,20064462297857 
1053	 0,203728270997686 
1054	 0,203447459916085 
1055	 0,201431723256959 
1056	 0,19912128090939 
1057	 0,191006527169428 
1058	 0,18576834083363 
1059	 0,195774956378787 
1060	 0,197337271955138 
1061	 0,194149593115567 
1062	 0,2067986682806 
1063	 0,209649983898675 
1064	 0,19864059750277 
1065	 0,187377320694276 
1066	 0,183127234936213 
1067	 0,187491395994306 
1068	 0,187095826337539 
1069	 0,186045423574723 
1070	 0,187539070799353 
1071	 0,188471292056013 
1072	 0,188644385047083 
1073	 0,18834976761541 
1074	 0,18739260613759 
1075	 0,190585685115658 
