Wavelength	GRA-VAN00838.asd
325	 9,54388295864599E-02 
326	-9,31232353338666E-02 
327	-1,77384024134517E-02 
328	 0,324132128827526 
329	 0,206137554826864 
330	-6,11198935019552E-02 
331	 5,95233236191269E-02 
332	 0,128108766324444 
333	 0,134295115160719 
334	-1,19060488428087E-02 
335	-2,28490360941173E-02 
336	 0,138111415510375 
337	 0,140244905807592 
338	 0,060623782395655 
339	-4,84337111877772E-02 
340	 0,002202513224912 
341	 0,10415518571586 
342	 1,27969213970063E-02 
343	-1,41281874569263E-02 
344	 6,57902476677979E-02 
345	 2,39057441434816E-02 
346	-1,56334084513066E-02 
347	 7,76681692057676E-02 
348	 6,70755553569125E-02 
349	-2,62384865883609E-02 
350	-5,09510681935586E-02 
351	 6,36272427095747E-03 
352	 0,102111070430036 
353	 8,15670351369234E-02 
354	 1,80633275690537E-02 
355	 4,14704067601842E-03 
356	 3,27746219096788E-02 
357	 7,71230076876019E-02 
358	 0,080936242663926 
359	 6,33569559371053E-02 
360	 4,33359497453874E-02 
361	 6,81278837704037E-02 
362	 8,94072136273254E-02 
363	 3,49686868114004E-02 
364	 2,40568225636096E-02 
365	 6,07417011782572E-02 
366	 4,09962663405404E-02 
367	 0,025001918050378 
368	 4,50867146122427E-02 
369	 0,054442124125848 
370	 4,76137693023228E-02 
371	 2,22476083898694E-02 
372	 1,46052516516566E-02 
373	 2,91953850907953E-02 
374	 2,72951526025455E-02 
375	 3,17083816174677E-02 
376	 5,45400827619967E-02 
377	 2,62675256736339E-02 
378	-1,80371698610318E-02 
379	 2,80874500348245E-02 
380	 5,27564069132247E-02 
381	 3,29049485185703E-02 
382	 2,82937900404936E-02 
383	 3,16775025718555E-02 
384	 3,36002612944329E-02 
385	 4,40569640092502E-02 
386	 5,32603868917555E-02 
387	 3,37857814715008E-02 
388	 2,04310895940311E-02 
389	 2,58695725175459E-02 
390	 2,19873381417924E-02 
391	 1,97124707413812E-02 
392	 3,35884712293396E-02 
393	 0,030386975892958 
394	 0,015833490400313 
395	 3,15734545877874E-02 
396	 3,29456873594071E-02 
397	 4,97136582016445E-03 
398	 1,31221490153798E-02 
399	 3,19002462586808E-02 
400	 1,32675731368548E-02 
401	 1,11118462278376E-02 
402	 2,88009382080681E-02 
403	 3,02611749543331E-02 
404	 0,019605881061044 
405	 2,76087874781649E-03 
406	 6,95453332369657E-03 
407	 2,25598046017034E-02 
408	 2,50283185871039E-02 
409	 2,55544473414517E-02 
410	 2,59235789923904E-02 
411	 2,12779733882123E-02 
412	 1,55709436683813E-02 
413	 1,29109689958449E-02 
414	 1,62699573389765E-02 
415	 2,17064145626359E-02 
416	 1,85419277550544E-02 
417	 1,36285766834737E-02 
418	 1,12381919069366E-02 
419	 1,75302949888267E-02 
420	 2,59895609733563E-02 
421	 2,85920745744548E-02 
422	 2,64219661193596E-02 
423	 2,15960193322517E-02 
424	 1,98387110927129E-02 
425	 1,99208278996046E-02 
426	 2,07503871737818E-02 
427	 1,95995101350612E-02 
428	 1,82993286325576E-02 
429	 2,14433433766306E-02 
430	 1,80854719403903E-02 
431	 8,85592193354663E-03 
432	 0,010872520292065 
433	 1,74746697472661E-02 
434	 2,18167343228809E-02 
435	 2,03611887403443E-02 
436	 0,015594333014562 
437	 1,60637967128699E-02 
438	 0,015428066845982 
439	 1,22987395419085E-02 
440	 1,35429669643034E-02 
441	 0,016074741313704 
442	 1,52879450104447E-02 
443	 1,70974463904989E-02 
444	 2,06913861229567E-02 
445	 1,87585099326188E-02 
446	 1,67405874158905E-02 
447	 1,77199394958253E-02 
448	 1,67090570149005E-02 
449	 1,52725554134573E-02 
450	 1,74853653362758E-02 
451	 2,04440712828113E-02 
452	 2,21565835971126E-02 
453	 1,81729089897944E-02 
454	 1,48927941082684E-02 
455	 1,81163674316693E-02 
456	 2,12312908218631E-02 
457	 2,22088243294916E-02 
458	 1,92753979255599E-02 
459	 1,70751212915113E-02 
460	 1,76285367445283E-02 
461	 1,87184609705097E-02 
462	 1,92819568191304E-02 
463	 1,82453873564199E-02 
464	 1,68576503779039E-02 
465	 1,59195064894771E-02 
466	 1,64613804029827E-02 
467	 1,83876919494015E-02 
468	 2,12862813488408E-02 
469	 2,28335828777037E-02 
470	 2,19234477454847E-02 
471	 0,016715839879765 
472	 1,47156227242476E-02 
473	 1,72032649920356E-02 
474	 1,63512611328311E-02 
475	 1,57941208076677E-02 
476	 0,019256545663435 
477	 1,98355917023184E-02 
478	 1,79947868298717E-02 
479	 1,88512617786996E-02 
480	 2,00549960567947E-02 
481	 0,020424250712298 
482	 0,019593110998907 
483	 1,85981181452119E-02 
484	 1,90141307735438E-02 
485	 1,86296873355805E-02 
486	 1,74035999151271E-02 
487	 1,74040603138721E-02 
488	 1,78616734300365E-02 
489	 1,81198478579958E-02 
490	 1,77435118245559E-02 
491	 0,017465470461908 
492	 1,92187866860554E-02 
493	 2,07437140610359E-02 
494	 2,09576907993374E-02 
495	 1,89303006256702E-02 
496	 1,69484323985867E-02 
497	 0,017571925622682 
498	 1,82758188042867E-02 
499	 1,83109563998583E-02 
500	 1,71235632550305E-02 
501	 1,66720124011764E-02 
502	 1,79710763557591E-02 
503	 1,95860027084763E-02 
504	 2,04805562838175E-02 
505	 1,91724681061706E-02 
506	 1,86538641445985E-02 
507	 1,95432479684518E-02 
508	 0,020305636077953 
509	 2,01328282854407E-02 
510	 1,84980279420175E-02 
511	 1,79902245885983E-02 
512	 1,82669812928854E-02 
513	 1,66014093966906E-02 
514	 1,71036192351919E-02 
515	 2,06587326624175E-02 
516	 2,10542786013469E-02 
517	 1,94896831836016E-02 
518	 1,84797294982977E-02 
519	 1,82896137421925E-02 
520	 1,87995563719437E-02 
521	 1,89604785993732E-02 
522	 1,89254023845524E-02 
523	 1,88846871090989E-02 
524	 1,95875187362503E-02 
525	 0,020593632160918 
526	 2,09045314957212E-02 
527	 1,98432588990002E-02 
528	 1,77654186432272E-02 
529	 1,79269816121337E-02 
530	 1,88375866527199E-02 
531	 1,85250545898261E-02 
532	 1,82785521774732E-02 
533	 1,82651702921388E-02 
534	 1,81174710935249E-02 
535	 1,81392501040157E-02 
536	 1,84356613065362E-02 
537	 1,82187333013092E-02 
538	 1,80745024292709E-02 
539	 1,93550612584919E-02 
540	 0,020000275275611 
541	 1,94636674323376E-02 
542	 1,85421287996986E-02 
543	 1,76817926464342E-02 
544	 1,72962535997644E-02 
545	 1,76595938498161E-02 
546	 1,84181377634783E-02 
547	 1,84824167375142E-02 
548	 1,84874087730262E-02 
549	 1,87372151870308E-02 
550	 0,019205075551832 
551	 1,94995991063643E-02 
552	 1,90403889066625E-02 
553	 1,82906041788372E-02 
554	 1,75882115882903E-02 
555	 1,75204947042693E-02 
556	 1,77883169486138E-02 
557	 1,80971217207207E-02 
558	 0,01819902181969 
559	 1,81597222660595E-02 
560	 1,83432682878192E-02 
561	 1,82322674798888E-02 
562	 0,017838256427202 
563	 1,86255243671068E-02 
564	 1,93246659975334E-02 
565	 1,81318906751928E-02 
566	 1,75186872903485E-02 
567	 1,78634143142771E-02 
568	 1,81282280144072E-02 
569	 1,80227066595982E-02 
570	 1,74399074470066E-02 
571	 1,75417337757928E-02 
572	 1,81103143991085E-02 
573	 1,82465156040429E-02 
574	 1,84720966596787E-02 
575	 1,89335707786863E-02 
576	 1,95806795016062E-02 
577	 2,00023636453797E-02 
578	 1,97527542273038E-02 
579	 0,019023003539033 
580	 1,83687967856496E-02 
581	 1,92834770699481E-02 
582	 2,01776138792098E-02 
583	 2,01698014270077E-02 
584	 2,01270369431804E-02 
585	 2,02872944815868E-02 
586	 2,09132353074254E-02 
587	 2,09917380859665E-02 
588	 2,05400358466642E-02 
589	 2,12580320023652E-02 
590	 2,16931993608231E-02 
591	 2,05378298149351E-02 
592	 2,01577796297545E-02 
593	 2,05454131299428E-02 
594	 2,02792009238955E-02 
595	 2,02268088215864E-02 
596	 2,07173927267254E-02 
597	 2,13202682960106E-02 
598	 2,15735763262028E-02 
599	 2,08777488671035E-02 
600	 0,020268453993082 
601	 2,00094262382063E-02 
602	 1,96944963492856E-02 
603	 1,97524414812669E-02 
604	 2,04139851558379E-02 
605	 0,020278300190178 
606	 1,95912602391652E-02 
607	 0,019591875813098 
608	 1,94263937835121E-02 
609	 1,90013372520682E-02 
610	 0,019531699361973 
611	 2,03093842298259E-02 
612	 2,03564994897706E-02 
613	 1,99480607822205E-02 
614	 1,93825228620245E-02 
615	 1,93922370501855E-02 
616	 1,95382130547093E-02 
617	 1,95612104616708E-02 
618	 1,98788232719908E-02 
619	 2,01562000273681E-02 
620	 0,019646249300552 
621	 1,90459716983494E-02 
622	 1,86748792943161E-02 
623	 1,87224734710046E-02 
624	 1,90888714088119E-02 
625	 1,96166196304218E-02 
626	 0,019295690917595 
627	 1,85422016105169E-02 
628	 1,92956477123569E-02 
629	 0,019761275248916 
630	 1,91930767374947E-02 
631	 1,93803680369605E-02 
632	 1,98924433629877E-02 
633	 1,96839046644411E-02 
634	 1,96907706245677E-02 
635	 0,020083744305424 
636	 2,04431071845214E-02 
637	 2,06427178061475E-02 
638	 2,06000922765811E-02 
639	 2,05246935023058E-02 
640	 2,05630975654547E-02 
641	 2,09699353218398E-02 
642	 2,13565125473218E-02 
643	 2,15476016881812E-02 
644	 2,15725465537894E-02 
645	 0,021703942287151 
646	 2,22907898107821E-02 
647	 2,21839385515904E-02 
648	 2,13219354734103E-02 
649	 2,04402325104529E-02 
650	 2,02046680822951E-02 
651	 2,09350610503617E-02 
652	 2,10747938793757E-02 
653	 2,08680981888847E-02 
654	 2,14234234547302E-02 
655	 2,13381280254195E-02 
656	 2,03373159614462E-02 
657	 1,93840462997337E-02 
658	 1,90353951409976E-02 
659	 1,97316656570624E-02 
660	 1,97979311346433E-02 
661	 1,91040049290265E-02 
662	 1,82898430565722E-02 
663	 1,82394181149879E-02 
664	 1,91749400788426E-02 
665	 1,90171793484925E-02 
666	 1,82956852410536E-02 
667	 1,82173181863007E-02 
668	 1,83297197311304E-02 
669	 1,84598504373818E-02 
670	 1,83724413779122E-02 
671	 1,81776149735779E-02 
672	 1,80099849395295E-02 
673	 1,82778029121594E-02 
674	 1,88150031031499E-02 
675	 1,91868274999183E-02 
676	 1,88477785101863E-02 
677	 1,78802208724444E-02 
678	 1,79940302093809E-02 
679	 1,87587088659226E-02 
680	 1,94704262533852E-02 
681	 1,86785730450773E-02 
682	 0,017120074169523 
683	 1,83279639950001E-02 
684	 1,96989979888635E-02 
685	 1,96870293683866E-02 
686	 1,91010263475942E-02 
687	 1,87011341982022E-02 
688	 0,019699050099503 
689	 1,99373089400519E-02 
690	 1,92349124136181E-02 
691	 1,98033725523179E-02 
692	 2,10383870097853E-02 
693	 2,22955475947506E-02 
694	 2,34556017759999E-02 
695	 2,45327580003386E-02 
696	 0,025593053042718 
697	 2,72500658521159E-02 
698	 2,96016279625364E-02 
699	 0,031325376546192 
700	 3,33806933115443E-02 
701	 3,71314649525719E-02 
702	 4,03373268449697E-02 
703	 4,27891771218818E-02 
704	 4,57397126862461E-02 
705	 4,93411913362791E-02 
706	 5,35579844158529E-02 
707	 5,72106791505995E-02 
708	 6,05265511523423E-02 
709	 6,42774933678344E-02 
710	 6,78519358643546E-02 
711	 7,11418591929848E-02 
712	 7,45102151211766E-02 
713	 7,78167006796071E-02 
714	 8,09196169403327E-02 
715	 8,39358650099859E-02 
716	 8,69149599723795E-02 
717	 8,99919570249268E-02 
718	 9,26085977834087E-02 
719	 9,46314396662725E-02 
720	 9,67769739968736E-02 
721	 9,90328623614495E-02 
722	 0,101294870016816 
723	 0,102924187044057 
724	 0,104157022197025 
725	 0,106395768604291 
726	 0,108234329039118 
727	 0,108928975813904 
728	 0,109993201981891 
729	 0,111371449014051 
730	 0,112611295795616 
731	 0,113412577568493 
732	 0,113841202312287 
733	 0,114685000043683 
734	 0,11552959270866 
735	 0,116031606276345 
736	 0,116922977112546 
737	 0,118023028501551 
738	 0,11861207089281 
739	 0,118908833504294 
740	 0,119065203879726 
741	 0,11950033138932 
742	 0,119998508070417 
743	 0,12027110900123 
744	 0,120718992575681 
745	 0,121265586452813 
746	 0,121401707820484 
747	 0,121531359884869 
748	 0,121828543346528 
749	 0,121833451971702 
750	 0,121862238278072 
751	 0,122476379849175 
752	 0,122935108379177 
753	 0,123091008376838 
754	 0,123228692152765 
755	 0,12346952874634 
756	 0,123877046118422 
757	 0,124185292809076 
758	 0,124325616303203 
759	 0,124224894900157 
760	 0,124334261098478 
761	 0,124738997248273 
762	 0,125049062715195 
763	 0,125197800071315 
764	 0,125151008516122 
765	 0,125021485697549 
766	 0,124977502471412 
767	 0,125383671319958 
768	 0,125711238535709 
769	 0,125781039540037 
770	 0,1259236675428 
771	 0,126176739069246 
772	 0,126544095964585 
773	 0,126755144298453 
774	 0,126772000640016 
775	 0,126688320060738 
776	 0,126638340026726 
777	 0,126684478509342 
778	 0,12661893754265 
779	 0,126656852899879 
780	 0,127142400354764 
781	 0,127399664486846 
782	 0,127368929139491 
783	 0,127584233151007 
784	 0,127690613536024 
785	 0,127495379178695 
786	 0,127427930408487 
787	 0,12751527826479 
788	 0,127668955923151 
789	 0,128110005703162 
790	 0,128711451400434 
791	 0,128763401753572 
792	 0,128576038243895 
793	 0,128440840377938 
794	 0,128477349111774 
795	 0,128653839370807 
796	 0,128842750144552 
797	 0,128992198392448 
798	 0,129095051063472 
799	 0,129263262681907 
800	 0,129425140459512 
801	 0,129512457942698 
802	 0,129605366121659 
803	 0,129717886909688 
804	 0,129870269327667 
805	 0,129859912038693 
806	 0,129710768675991 
807	 0,130023470712731 
808	 0,130268260452608 
809	 0,129884396726706 
810	 0,1300268521681 
811	 0,130586584882272 
812	 0,130514336241258 
813	 0,130741093990814 
814	 0,131483722721912 
815	 0,131646650288433 
816	 0,131432320213387 
817	 0,13121484545079 
818	 0,131509354638637 
819	 0,132167082183222 
820	 0,13238848544214 
821	 0,132352452710908 
822	 0,132199454128833 
823	 0,13235529244722 
824	 0,132539844554499 
825	 0,132345653440298 
826	 0,132670855700697 
827	 0,13334984861427 
828	 0,133165538530853 
829	 0,132999044320711 
830	 0,133252374363786 
831	 0,133372004607273 
832	 0,133264491107874 
833	 0,132887574632946 
834	 0,133294309220019 
835	 0,134296385255962 
836	 0,134402639787038 
837	 0,134335012093283 
838	 0,134421960404884 
839	 0,134061525893584 
840	 0,133796735497343 
841	 0,134444397739763 
842	 0,134835681558934 
843	 0,134826685242036 
844	 0,135034520093394 
845	 0,135128844323779 
846	 0,13499854522408 
847	 0,135197946761156 
848	 0,135361116889734 
849	 0,134897793264126 
850	 0,135038581823195 
851	 0,135745911730719 
852	 0,135851192375457 
853	 0,135828297812076 
854	 0,13587253845569 
855	 0,135502925240643 
856	 0,135167065263866 
857	 0,135519294554205 
858	 0,135900397512872 
859	 0,136208340244839 
860	 0,136800072625249 
861	 0,136795802606825 
862	 0,135987865774966 
863	 0,136271047251356 
864	 0,136837501301063 
865	 0,136400775321053 
866	 0,136373493851115 
867	 0,136797968312231 
868	 0,136696962134068 
869	 0,137002365451043 
870	 0,137933153615381 
871	 0,138060122636822 
872	 0,137738598465314 
873	 0,137573084739879 
874	 0,137918221900487 
875	 0,138503002943735 
876	 0,138281239159533 
877	 0,137998503375961 
878	 0,138034408757137 
879	 0,138605598740393 
880	 0,139136661276725 
881	 0,139021650554785 
882	 0,13909852278084 
883	 0,139196112426772 
884	 0,138214182568334 
885	 0,138344550008052 
886	 0,139897433923047 
887	 0,140008427838723 
888	 0,139669447380506 
889	 0,139920179287948 
890	 0,139684541540709 
891	 0,139334566247864 
892	 0,14006244283068 
893	 0,140710074556878 
894	 0,14086636248848 
895	 0,140569864086101 
896	 0,140367161259586 
897	 0,140654466965849 
898	 0,14085951418826 
899	 0,14095058515681 
900	 0,141028563094502 
901	 0,141284075216032 
902	 0,14159675759166 
903	 0,141237073344361 
904	 0,141246021488048 
905	 0,142070925608092 
906	 0,141836680047299 
907	 0,141193909869336 
908	 0,141374502392612 
909	 0,142189479786017 
910	 0,143165876228961 
911	 0,143005849659778 
912	 0,142654448385879 
913	 0,142535617270426 
914	 0,142286194749069 
915	 0,141919736459596 
916	 0,141514579527572 
917	 0,141807642650566 
918	 0,142479065808686 
919	 0,142374599204659 
920	 0,142109025417642 
921	 0,141972435212583 
922	 0,142436264257447 
923	 0,142375756029217 
924	 0,141057643795692 
925	 0,141022448628598 
926	 0,141733691773968 
927	 0,14149463806078 
928	 0,141060914489058 
929	 0,140749092056523 
930	 0,141057049806748 
931	 0,141009583578974 
932	 0,140150001152669 
933	 0,139647189225956 
934	 0,13930591169356 
935	 0,138706090567216 
936	 0,13802705606051 
937	 0,137465972005454 
938	 0,137444890422536 
939	 0,137563701198687 
940	 0,137524283392477 
941	 0,136735166679243 
942	 0,136101417896089 
943	 0,136314542117534 
944	 0,135421829833324 
945	 0,134439794907271 
946	 0,135930828567597 
947	 0,134729716828364 
948	 0,131198557231014 
949	 0,132446528624768 
950	 0,133548740919412 
951	 0,13194117349717 
952	 0,130790181697385 
953	 0,129943866649318 
954	 0,128883169727638 
955	 0,128890725713026 
956	 0,12918238114885 
957	 0,126852699831772 
958	 0,126392205541884 
959	 0,128255932700218 
960	 0,12701784065917 
961	 0,125127351120463 
962	 0,124716772994486 
963	 0,125895040409767 
964	 0,12734013848226 
965	 0,127056447983008 
966	 0,124951813498549 
967	 0,122181138458263 
968	 0,122138960774321 
969	 0,122823283485434 
970	 0,12338980825741 
971	 0,124466540841637 
972	 0,124361048985661 
973	 0,121947622820491 
974	 0,122214892144779 
975	 0,123917868697121 
976	 0,123271391536974 
977	 0,123035317455437 
978	 0,123906757485454 
979	 0,125828038457031 
980	 0,126955657747705 
981	 0,126384485426188 
982	 0,124753724264927 
983	 0,12418253195607 
984	 0,126417398298861 
985	 0,126811443536846 
986	 0,125580839774153 
987	 0,124833414885138 
988	 0,12495527801155 
989	 0,126036326600446 
990	 0,127780309615593 
991	 0,128490914188655 
992	 0,127739005321735 
993	 0,129070824841354 
994	 0,12991043884323 
995	 0,127756048530465 
996	 0,129098415439529 
997	 0,132360298181227 
998	 0,132186302741909 
999	 0,131763726925858 
1000	 0,131977197521666 
1001	 0,132939795791735 
1002	 0,132836120745785 
1003	 0,131335593893774 
1004	 0,132420641276612 
1005	 0,133525630110115 
1006	 0,132153366905414 
1007	 0,132615138020386 
1008	 0,133373373993202 
1009	 0,130401823914506 
1010	 0,132045439979751 
1011	 0,137293134748035 
1012	 0,135036084880601 
1013	 0,134485352269311 
1014	 0,138435811280438 
1015	 0,139080898307941 
1016	 0,139027038680191 
1017	 0,140461982873112 
1018	 0,139668942324723 
1019	 0,136985080026667 
1020	 0,133862776911761 
1021	 0,135849292118277 
1022	 0,141176140729234 
1023	 0,140753773152659 
1024	 0,142276359649211 
1025	 0,146554270408618 
1026	 0,145835557822567 
1027	 0,143253789721461 
1028	 0,14166885528293 
1029	 0,144085028015246 
1030	 0,147062964372464 
1031	 0,146246483452598 
1032	 0,143289124308854 
1033	 0,142099331352736 
1034	 0,149954046724503 
1035	 0,151133628950381 
1036	 0,14529668869007 
1037	 0,148660168570547 
1038	 0,15080600873694 
1039	 0,148009832970402 
1040	 0,145764932987399 
1041	 0,147748090542137 
1042	 0,154434196787669 
1043	 0,146132955543199 
1044	 0,133560855082972 
1045	 0,135276513811387 
1046	 0,145638876784253 
1047	 0,157349246403032 
1048	 0,156056385798874 
1049	 0,156524787866956 
1050	 0,160100366282431 
1051	 0,153155082036713 
1052	 0,152707279208423 
1053	 0,163353824095918 
1054	 0,157754558728594 
1055	 0,151716272612163 
1056	 0,158446342858133 
1057	 0,155434767352853 
1058	 0,153334868660374 
1059	 0,169681927197204 
1060	 0,168198867497257 
1061	 0,154934763409531 
1062	 0,161414061856572 
1063	 0,170815606275373 
1064	 0,17378524876493 
1065	 0,151591917609466 
1066	 0,14026879787305 
1067	 0,152971060737302 
1068	 0,16097016562808 
1069	 0,161769989256391 
1070	 0,155119755830487 
1071	 0,148269052598142 
1072	 0,146455198531274 
1073	 0,153026486904703 
1074	 0,146751907091659 
1075	 0,14095952091533 
