Wavelength	GRA-VAN00338.asd
325	 0,555620310117313 
326	 0,525544512504703 
327	 0,47316048362579 
328	 0,463221839771724 
329	 0,421276449547833 
330	 0,412829686329978 
331	 0,49106537905813 
332	 0,463946019013998 
333	 0,38701704576717 
334	 0,336617365240037 
335	 0,282686008536311 
336	 0,256172154595375 
337	 0,292335738757278 
338	 0,312911402680205 
339	 0,251097092163627 
340	 0,24413571915096 
341	 0,277415000702068 
342	 0,277573578020467 
343	 0,240052691727224 
344	 0,192369608564593 
345	 0,185809293823564 
346	 0,202559554851762 
347	 0,222536395892637 
348	 0,203014453653131 
349	 0,159637700194722 
350	 0,16029808149675 
351	 0,185803041936137 
352	 0,212859472773266 
353	 0,200515651844456 
354	 0,170703231658135 
355	 0,151994991108611 
356	 0,158725345550274 
357	 0,177634549858369 
358	 0,165312711730849 
359	 0,164045615638594 
360	 0,186857526613055 
361	 0,176741967663918 
362	 0,153374737184443 
363	 0,148688372427324 
364	 0,159095913223764 
365	 0,178401723282785 
366	 0,186730847382385 
367	 0,184782871442279 
368	 0,17578716193358 
369	 0,177692448144538 
370	 0,180820080656959 
371	 0,162774034613262 
372	 0,150911728743248 
373	 0,151853525960304 
374	 0,147424873842321 
375	 0,142453285100024 
376	 0,143426120168373 
377	 0,171865325566408 
378	 0,205835325944751 
379	 0,186725632167617 
380	 0,162129855971682 
381	 0,15046958043317 
382	 0,16595331041203 
383	 0,180293692646855 
384	 0,169416777913025 
385	 0,173464029277969 
386	 0,182982481655691 
387	 0,152792625349374 
388	 0,138837245799783 
389	 0,157982470868733 
390	 0,151767176667169 
391	 0,141907550751743 
392	 0,157768590979937 
393	 0,165820011103165 
394	 0,163077947169691 
395	 0,163333036588623 
396	 0,163704456346041 
397	 0,162759324752981 
398	 0,16053303329218 
399	 0,155802990226734 
400	 0,14566264519434 
401	 0,149201963964578 
402	 0,163225347473927 
403	 0,161724391935571 
404	 0,149143783627814 
405	 0,131781609240441 
406	 0,137643470632981 
407	 0,15427399325483 
408	 0,151731075386564 
409	 0,147593783927347 
410	 0,146333264152864 
411	 0,144011311769448 
412	 0,141862046605936 
413	 0,141163577828652 
414	 0,14080469608233 
415	 0,140229305060595 
416	 0,139250146774297 
417	 0,134955674409549 
418	 0,128348608918653 
419	 0,131888084010677 
420	 0,13914574265315 
421	 0,141327544893583 
422	 0,141863057458154 
423	 0,140437706818972 
424	 0,132528518406342 
425	 0,130756330036152 
426	 0,141015073916996 
427	 0,144640563700172 
428	 0,142740492317607 
429	 0,142274132188989 
430	 0,140290416176575 
431	 0,136985157352266 
432	 0,135428641968728 
433	 0,136457692583653 
434	 0,140040684957209 
435	 0,136771768855511 
436	 0,129807220597053 
437	 0,131583053495047 
438	 0,134847937620957 
439	 0,136398279004814 
440	 0,135084448020084 
441	 0,134175880148822 
442	 0,137901530233322 
443	 0,137008901531474 
444	 0,132429055424342 
445	 0,135214438774267 
446	 0,136651433166447 
447	 0,132255553647238 
448	 0,132786742050346 
449	 0,13642706241903 
450	 0,136964051022684 
451	 0,138662845768663 
452	 0,141641944301329 
453	 0,141318370190457 
454	 0,139650832789731 
455	 0,138699202217036 
456	 0,139097972957771 
457	 0,139857796541521 
458	 0,137631117721316 
459	 0,137080520349829 
460	 0,139332606098927 
461	 0,137435489416225 
462	 0,135613290427299 
463	 0,140271090578871 
464	 0,140159896719097 
465	 0,135563914263266 
466	 0,137794139723538 
467	 0,140675951443087 
468	 0,140488539380693 
469	 0,143009944066537 
470	 0,145636075262066 
471	 0,141572315363207 
472	 0,139160304712716 
473	 0,140455026991794 
474	 0,140744768487486 
475	 0,140885776213752 
476	 0,141903886078246 
477	 0,142749288493133 
478	 0,142776375510924 
479	 0,140843272689049 
480	 0,138752387210075 
481	 0,1377194231647 
482	 0,139158398066167 
483	 0,140598058460749 
484	 0,138199638531931 
485	 0,138256177975872 
486	 0,141038331922746 
487	 0,14093434708109 
488	 0,14007594048326 
489	 0,140056750602035 
490	 0,139201416545947 
491	 0,138010392943573 
492	 0,13789844338416 
493	 0,138980825490958 
494	 0,140806744076971 
495	 0,141150087059928 
496	 0,139477903335479 
497	 0,135527022363299 
498	 0,135883651208964 
499	 0,139510720055027 
500	 0,138124938903363 
501	 0,137271295910409 
502	 0,139685446043389 
503	 0,14083365412573 
504	 0,141040456525835 
505	 0,142005255736668 
506	 0,141652383181016 
507	 0,140335860357261 
508	 0,142237487799173 
509	 0,143983548212053 
510	 0,142579467201686 
511	 0,142612542192631 
512	 0,143879207776003 
513	 0,143260520368642 
514	 0,144000924764648 
515	 0,146856366902554 
516	 0,147332713860864 
517	 0,146678631230842 
518	 0,147230015099063 
519	 0,148008213655738 
520	 0,148715770495619 
521	 0,149246891565343 
522	 0,149036721866683 
523	 0,147874233362836 
524	 0,148041076699778 
525	 0,149039305603659 
526	 0,149004070985006 
527	 0,148479019968655 
528	 0,14768928969266 
529	 0,146967285160487 
530	 0,146584892053613 
531	 0,146785473692559 
532	 0,146624456510818 
533	 0,146079938274087 
534	 0,145665640171052 
535	 0,146147423543302 
536	 0,147662238396851 
537	 0,147255718552283 
538	 0,146169189057128 
539	 0,147434002686365 
540	 0,148732809946365 
541	 0,14911022909514 
542	 0,147743697280687 
543	 0,146295401619604 
544	 0,146395870283968 
545	 0,146856448541968 
546	 0,147397701380635 
547	 0,148027455499163 
548	 0,148344836545559 
549	 0,148259109115444 
550	 0,148789750305059 
551	 0,149269878124814 
552	 0,148490363197508 
553	 0,147738387757392 
554	 0,147390063480541 
555	 0,147280776204776 
556	 0,147129815645337 
557	 0,146738176000039 
558	 0,146688181846425 
559	 0,146813957614264 
560	 0,146494246400357 
561	 0,145879992420463 
562	 0,14515252755534 
563	 0,145082954080709 
564	 0,14506947898853 
565	 0,144230498323863 
566	 0,143992809974108 
567	 0,144415074902784 
568	 0,144232275726659 
569	 0,144468689381197 
570	 0,145726136614636 
571	 0,146360245475336 
572	 0,146850512365606 
573	 0,148924499249689 
574	 0,150448602313958 
575	 0,150989314492591 
576	 0,152723507279874 
577	 0,154338528986877 
578	 0,154253305066918 
579	 0,155253390506733 
580	 0,157392290257376 
581	 0,158721330594369 
582	 0,160011003645958 
583	 0,16157683096844 
584	 0,162422303380123 
585	 0,163115512606406 
586	 0,164929268866537 
587	 0,165921989249861 
588	 0,166069743334133 
589	 0,168153434297519 
590	 0,170003189166065 
591	 0,169605567054734 
592	 0,169567055280344 
593	 0,170124856962546 
594	 0,170454990611276 
595	 0,17053750306717 
596	 0,170498161370308 
597	 0,171502456267283 
598	 0,172448370213699 
599	 0,171542868258408 
600	 0,170538771230441 
601	 0,169953376461781 
602	 0,169570031110991 
603	 0,169584554025371 
604	 0,169989947372158 
605	 0,168910967038971 
606	 0,166970406522711 
607	 0,166432284316888 
608	 0,166200420287383 
609	 0,165864792369266 
610	 0,165334977719707 
611	 0,164711437542761 
612	 0,164139946231491 
613	 0,163709477313435 
614	 0,163236154430743 
615	 0,161945421946754 
616	 0,16097681563235 
617	 0,161009661529031 
618	 0,161014313955349 
619	 0,160994864106265 
620	 0,161385638105959 
621	 0,16095204584936 
622	 0,159719907924726 
623	 0,159921371339881 
624	 0,160465307850026 
625	 0,160133988600225 
626	 0,160184947585742 
627	 0,160690679288424 
628	 0,161206518019431 
629	 0,161195497149509 
630	 0,160593436174986 
631	 0,161240902749375 
632	 0,162345555666961 
633	 0,162236677802073 
634	 0,162789445027 
635	 0,164189837505313 
636	 0,16485046991292 
637	 0,165510955623132 
638	 0,166793706681077 
639	 0,167856102401801 
640	 0,168653352178027 
641	 0,169500765015985 
642	 0,170236370348538 
643	 0,170800877776681 
644	 0,171232229220061 
645	 0,17159174086247 
646	 0,171951904073491 
647	 0,17220745299803 
648	 0,172179359642024 
649	 0,171392367428195 
650	 0,170436038844274 
651	 0,169675720349067 
652	 0,16841762022828 
653	 0,167084158180574 
654	 0,16686545731383 
655	 0,165595696619336 
656	 0,162906544001391 
657	 0,160858615929673 
658	 0,159184053716572 
659	 0,157462486785719 
660	 0,155399159124362 
661	 0,15318812929003 
662	 0,151621294682359 
663	 0,15006037327622 
664	 0,148303315828308 
665	 0,147358336117622 
666	 0,146625290613883 
667	 0,144993497818868 
668	 0,143744381516788 
669	 0,143150666016526 
670	 0,142714415967107 
671	 0,142460531555749 
672	 0,142377732588439 
673	 0,142066263048336 
674	 0,141599609910318 
675	 0,141302763815398 
676	 0,141212342874666 
677	 0,141290556508123 
678	 0,141058634823825 
679	 0,141166309264362 
680	 0,14239524377642 
681	 0,142612486066542 
682	 0,142018318598658 
683	 0,142855442750604 
684	 0,144303022040507 
685	 0,145816226834867 
686	 0,146913233205712 
687	 0,14831882799223 
688	 0,151474006481923 
689	 0,154346497292167 
690	 0,156786213465912 
691	 0,160748702683854 
692	 0,166077852681679 
693	 0,172533609786978 
694	 0,179481066167344 
695	 0,187032837368778 
696	 0,195831231458872 
697	 0,205565478413443 
698	 0,216006459909088 
699	 0,226653122602644 
700	 0,237796427144181 
701	 0,249851798870256 
702	 0,2622581196938 
703	 0,274705272904441 
704	 0,286861316118849 
705	 0,299056758346478 
706	 0,311368782083961 
707	 0,322986437970887 
708	 0,333964687901434 
709	 0,344593864642442 
710	 0,354620465316155 
711	 0,364140248729933 
712	 0,373805239903639 
713	 0,383053137049788 
714	 0,391333050604907 
715	 0,398900352340584 
716	 0,405960084124148 
717	 0,412833148477436 
718	 0,419484481854264 
719	 0,425771364220241 
720	 0,430775095835101 
721	 0,435246574215425 
722	 0,440252224704316 
723	 0,444494404084037 
724	 0,447963888457571 
725	 0,451651296468225 
726	 0,455101168820137 
727	 0,458027263565783 
728	 0,460401233925181 
729	 0,46258712211433 
730	 0,465257837242311 
731	 0,467400935455492 
732	 0,468877223712747 
733	 0,470502357439695 
734	 0,47211757080575 
735	 0,473568573167219 
736	 0,475008515536958 
737	 0,47638722086355 
738	 0,47750513080905 
739	 0,478672890955243 
740	 0,479849231760785 
741	 0,480118864536576 
742	 0,480229713911407 
743	 0,48110885358876 
744	 0,481931674406639 
745	 0,482591589305262 
746	 0,483373504085226 
747	 0,484060169952442 
748	 0,484534197551093 
749	 0,484850273880329 
750	 0,485154424692147 
751	 0,485646981329984 
752	 0,486222526875967 
753	 0,486782584892643 
754	 0,487066485289265 
755	 0,48745136143413 
756	 0,488142297331076 
757	 0,488261220176853 
758	 0,488142024167707 
759	 0,488759019066647 
760	 0,489172023148301 
761	 0,489184684615762 
762	 0,489386168518504 
763	 0,489699838737728 
764	 0,490004694169647 
765	 0,489938941905992 
766	 0,489700498748651 
767	 0,489998988775407 
768	 0,490207466073698 
769	 0,490163995651769 
770	 0,490423624489621 
771	 0,490855947116791 
772	 0,491246854384042 
773	 0,491324890115827 
774	 0,491150847109218 
775	 0,491086028663494 
776	 0,491232395837223 
777	 0,491565618677447 
778	 0,491433364827076 
779	 0,491195903838453 
780	 0,491487560889861 
781	 0,491587323297637 
782	 0,491412100551039 
783	 0,491383489082692 
784	 0,491351178376779 
785	 0,49125430142272 
786	 0,491396679221057 
787	 0,491736929228163 
788	 0,492139013796073 
789	 0,492419699566211 
790	 0,492490867987046 
791	 0,492320907774691 
792	 0,492104317963786 
793	 0,492028472929054 
794	 0,492337611070556 
795	 0,492721704661585 
796	 0,492421928335576 
797	 0,492257519711452 
798	 0,492403186884198 
799	 0,492296080292993 
800	 0,492047343545088 
801	 0,491811685377729 
802	 0,491917936952846 
803	 0,492223708680796 
804	 0,492160755286131 
805	 0,49231467647411 
806	 0,492805252708227 
807	 0,493122395598044 
808	 0,493145992227837 
809	 0,49282955368856 
810	 0,492952500815884 
811	 0,493507764828327 
812	 0,49397479220975 
813	 0,494479108338257 
814	 0,494900848664229 
815	 0,494388290851418 
816	 0,493802333004072 
817	 0,494213238158605 
818	 0,494370548167335 
819	 0,494232750474602 
820	 0,494526548672566 
821	 0,49492147559745 
822	 0,495277272443077 
823	 0,495811935213502 
824	 0,496097641154578 
825	 0,495596800675376 
826	 0,495570893265941 
827	 0,496024351411996 
828	 0,495904217781344 
829	 0,495837982007733 
830	 0,496061529302076 
831	 0,495894746109214 
832	 0,495607651035611 
833	 0,495655572939098 
834	 0,495986856202303 
835	 0,496454409882148 
836	 0,496654375122987 
837	 0,496707948092131 
838	 0,496680050698319 
839	 0,496559213443118 
840	 0,496458947264734 
841	 0,496525748374153 
842	 0,496802347197238 
843	 0,497130204066949 
844	 0,496971941308631 
845	 0,496786640161251 
846	 0,496873812169383 
847	 0,49735551547847 
848	 0,497940646301441 
849	 0,498216712377172 
850	 0,497732591260212 
851	 0,496843436608825 
852	 0,497040692616569 
853	 0,497424144777243 
854	 0,497497851409889 
855	 0,497442239883909 
856	 0,497418960642115 
857	 0,497625516324559 
858	 0,498057028710808 
859	 0,498561138302198 
860	 0,498747949873606 
861	 0,498572113478651 
862	 0,498134672420198 
863	 0,498266194879049 
864	 0,498493706111455 
865	 0,498105582091245 
866	 0,498560086056616 
867	 0,499562164884102 
868	 0,499161601701198 
869	 0,498704349764858 
870	 0,498813668532046 
871	 0,499108094128257 
872	 0,499291842527196 
873	 0,499074625977322 
874	 0,499399010721441 
875	 0,500060323639234 
876	 0,499931109596717 
877	 0,499393471862858 
878	 0,498771768995689 
879	 0,498818148911745 
880	 0,499370360744016 
881	 0,500134654312681 
882	 0,500505874676949 
883	 0,500340754807212 
884	 0,499543166580712 
885	 0,499415593522138 
886	 0,500227755829826 
887	 0,500502259269065 
888	 0,500453851766742 
889	 0,500372908195445 
890	 0,500156547549885 
891	 0,50016977464174 
892	 0,501254825692454 
893	 0,501912864586636 
894	 0,501780916385492 
895	 0,50178816593261 
896	 0,501675810806715 
897	 0,501294513799215 
898	 0,501356227326016 
899	 0,501634166220707 
900	 0,501527102520382 
901	 0,501477689140072 
902	 0,501474605541383 
903	 0,500976136318255 
904	 0,500664280073691 
905	 0,50094443214612 
906	 0,501375597887775 
907	 0,501676712013169 
908	 0,501548278408336 
909	 0,501476455393321 
910	 0,50167450747817 
911	 0,502512730642436 
912	 0,502622083784551 
913	 0,501595971726989 
914	 0,501214940395046 
915	 0,501529088207506 
916	 0,502337297706595 
917	 0,502471137498686 
918	 0,501951609178044 
919	 0,501544979492177 
920	 0,500943961776259 
921	 0,500307984691302 
922	 0,500672256671852 
923	 0,501113376516857 
924	 0,500871209561098 
925	 0,500874140164839 
926	 0,500849686253351 
927	 0,500052230764098 
928	 0,499608607861552 
929	 0,499586207260981 
930	 0,498921546404505 
931	 0,498304288057975 
932	 0,498193074828143 
933	 0,498839290182726 
934	 0,499194810938494 
935	 0,497961097359941 
936	 0,496662447622932 
937	 0,495760157058601 
938	 0,495461196009444 
939	 0,495112293243153 
940	 0,494591710772402 
941	 0,494823338572107 
942	 0,494874259177187 
943	 0,493929522676388 
944	 0,492703077494454 
945	 0,492058429051743 
946	 0,493413331644143 
947	 0,492522772360446 
948	 0,489350920374041 
949	 0,488716920646937 
950	 0,487876936491685 
951	 0,485762858939394 
952	 0,486325143505197 
953	 0,487056584643579 
954	 0,484639726597528 
955	 0,483161717264194 
956	 0,482742175699191 
957	 0,481472873012738 
958	 0,47950722741446 
959	 0,477458260707858 
960	 0,477898691790068 
961	 0,47854170083404 
962	 0,477698856669399 
963	 0,477347472981042 
964	 0,477446515053411 
965	 0,477530741172489 
966	 0,476953917883041 
967	 0,475998575260296 
968	 0,476053793814206 
969	 0,476292730698627 
970	 0,476388598202361 
971	 0,476708152550895 
972	 0,476477607062767 
973	 0,475263775284655 
974	 0,476359898303613 
975	 0,478332997089613 
976	 0,477642426515493 
977	 0,477737210504493 
978	 0,478943218187842 
979	 0,479125276410345 
980	 0,47882502081888 
981	 0,478291511799541 
982	 0,477224214579697 
983	 0,477042769369232 
984	 0,478918468279711 
985	 0,479413542255345 
986	 0,478176894847018 
987	 0,47573565689081 
988	 0,475569917351465 
989	 0,478196041475479 
990	 0,481420177260636 
991	 0,48292928511087 
992	 0,482072668020971 
993	 0,483433151320617 
994	 0,484847525232085 
995	 0,483871486871036 
996	 0,483097524891978 
997	 0,483790909303899 
998	 0,487471631787038 
999	 0,488693663142219 
1000	 0,487075813928373 
1001	 0,48730377274233 
1002	 0,488443587281347 
1003	 0,490011200818966 
1004	 0,491682138400292 
1005	 0,492858757303106 
1006	 0,492954452004814 
1007	 0,49118154935035 
1008	 0,488803408675556 
1009	 0,488081880541652 
1010	 0,490563894799778 
1011	 0,494576649199578 
1012	 0,493143127478116 
1013	 0,493384074362344 
1014	 0,497069194988833 
1015	 0,495489623752079 
1016	 0,495750621918155 
1017	 0,502704227926507 
1018	 0,501534925095887 
1019	 0,495733195082627 
1020	 0,493898346691455 
1021	 0,493850787104446 
1022	 0,495649225048497 
1023	 0,500629352833745 
1024	 0,50360357520867 
1025	 0,503053575356929 
1026	 0,502069088675703 
1027	 0,501926667150861 
1028	 0,503483777077929 
1029	 0,506207641632631 
1030	 0,50861234406188 
1031	 0,509019533815613 
1032	 0,507082144031373 
1033	 0,506060433098335 
1034	 0,512661227123415 
1035	 0,512889878257623 
1036	 0,506962224990307 
1037	 0,5114395268542 
1038	 0,511458611454318 
1039	 0,503043073601958 
1040	 0,501339842070358 
1041	 0,507252074131742 
1042	 0,51863309290323 
1043	 0,519323395702555 
1044	 0,512905581233952 
1045	 0,508202969973971 
1046	 0,506913282387577 
1047	 0,50873185782544 
1048	 0,510883877742836 
1049	 0,518066605719357 
1050	 0,527904117238356 
1051	 0,529141632462194 
1052	 0,524028169231918 
1053	 0,516185510630552 
1054	 0,516503929035785 
1055	 0,519321154053042 
1056	 0,518493302604446 
1057	 0,510165750588496 
1058	 0,504115474040324 
1059	 0,514103703103528 
1060	 0,513358818304642 
1061	 0,506052585859631 
1062	 0,515013315354726 
1063	 0,522613265094283 
1064	 0,523592857630561 
1065	 0,516265227703104 
1066	 0,518379871327757 
1067	 0,532087323502572 
1068	 0,524338882436567 
1069	 0,512781644212943 
1070	 0,512723801624528 
1071	 0,527388357995606 
1072	 0,540130176601473 
1073	 0,531638050713067 
1074	 0,522786133541781 
1075	 0,523527518084437 
