Wavelength	GRA-BER00414.asd
325	 0,039218344370412 
326	-7,94471007104274E-02 
327	-3,66300814749974E-02 
328	 0,139584616152707 
329	 2,93294417430068E-03 
330	-0,11081246515236 
331	 0,138980767429989 
332	 0,146979335222587 
333	-1,05695023277298E-02 
334	 2,31615196622973E-02 
335	-7,2521323259986E-03 
336	-0,115604980055603 
337	-0,104637089186068 
338	-3,54765746132124E-02 
339	 1,96097983792097E-02 
340	 0,01178087952827 
341	-3,18854384962215E-02 
342	-5,21774336395152E-02 
343	-4,14434127894238E-02 
344	-6,25343519841706E-03 
345	-1,22091222674313E-02 
346	-4,40337495098225E-03 
347	 6,48385862082755E-02 
348	 7,11261047010364E-02 
349	 3,38939745812588E-02 
350	 2,76372764849036E-02 
351	 6,14564168793612E-02 
352	 0,114135150718079 
353	 9,87061145557128E-02 
354	 5,72130370776539E-02 
355	 3,69260269865735E-02 
356	 4,27123415171224E-02 
357	 6,38843639875292E-02 
358	 5,83017349121952E-02 
359	 2,96260924648142E-02 
360	-1,40252628418619E-02 
361	 2,13720063691492E-02 
362	 7,30660214771069E-02 
363	 0,035939212652095 
364	 5,96680878179155E-03 
365	 3,73920836784009E-03 
366	 2,69779319703622E-02 
367	 4,12252246641853E-02 
368	 2,87412195563417E-02 
369	 0,04189697841254 
370	 0,061531434059555 
371	 4,84903489295496E-02 
372	 5,43841138355437E-02 
373	 7,69985787034971E-02 
374	 0,038805777712777 
375	 5,6405350548157E-03 
376	 2,48009903203067E-02 
377	 1,47859734138646E-02 
378	-7,13172758254775E-03 
379	 2,57000170772873E-02 
380	 4,65684915044281E-02 
381	 4,04185598702768E-02 
382	 2,82959046159227E-02 
383	 2,16314416764097E-02 
384	 2,88610523577225E-02 
385	 4,42468251421456E-02 
386	 5,66983959007776E-02 
387	 4,58079133644121E-02 
388	 3,93072386418658E-02 
389	 4,48575753678107E-02 
390	 0,030794760328937 
391	 2,07160547996003E-02 
392	 4,53000805029883E-02 
393	 5,40006528873082E-02 
394	 4,45597220643824E-02 
395	 0,045645818010178 
396	 5,13953563779594E-02 
397	 5,63718464063738E-02 
398	 4,14694200714156E-02 
399	 0,027061388243518 
400	 4,52056974091645E-02 
401	 5,43486397018962E-02 
402	 4,82520387176448E-02 
403	 4,49943645610554E-02 
404	 4,50072891855492E-02 
405	 4,80542869539216E-02 
406	 5,04031818185238E-02 
407	 5,15199988510019E-02 
408	 5,18244922907364E-02 
409	 5,20657123393872E-02 
410	 5,24402486095056E-02 
411	 5,31429275094531E-02 
412	 5,14089468696805E-02 
413	 4,50506130623816E-02 
414	 4,26666908890693E-02 
415	 4,46599192014193E-02 
416	 4,76272854069133E-02 
417	 4,96316976370602E-02 
418	 5,01006588579795E-02 
419	 5,25649390358851E-02 
420	 5,42439418367791E-02 
421	 5,11664772195606E-02 
422	 5,04494432157521E-02 
423	 5,30056163166974E-02 
424	 5,67095092784515E-02 
425	 5,68214759327623E-02 
426	 5,17109598214037E-02 
427	 5,31287876740381E-02 
428	 5,70075126890306E-02 
429	 5,30845968297726E-02 
430	 5,11040189927425E-02 
431	 5,34417189626997E-02 
432	 5,77741817986398E-02 
433	 5,91740396703725E-02 
434	 5,40907100723669E-02 
435	 5,29584066508946E-02 
436	 5,56204038884949E-02 
437	 5,66937325265819E-02 
438	 5,61183552800657E-02 
439	 5,42344753670205E-02 
440	 5,42494551889342E-02 
441	 0,055765297495852 
442	 5,78594131901681E-02 
443	 5,84505186794842E-02 
444	 5,72657596606249E-02 
445	 5,47377371525748E-02 
446	 5,55022425514886E-02 
447	 6,13943233484469E-02 
448	 6,12993035670569E-02 
449	 5,84635453985996E-02 
450	 6,21859465078671E-02 
451	 6,19432236493298E-02 
452	 5,65775391017004E-02 
453	 5,55026299572012E-02 
454	 5,80099672444249E-02 
455	 0,062674656534996 
456	 6,42994786498682E-02 
457	 6,34644271683316E-02 
458	 6,48034656786883E-02 
459	 6,63005127820866E-02 
460	 6,67496689226831E-02 
461	 6,38314350339185E-02 
462	 6,02680802099186E-02 
463	 5,98397637994788E-02 
464	 6,06971318027363E-02 
465	 6,19442509067332E-02 
466	 6,21821979469694E-02 
467	 6,27393276777728E-02 
468	 6,42928802117136E-02 
469	 6,50358487657867E-02 
470	 6,42604539180972E-02 
471	 6,08397636305163E-02 
472	 5,87657863091888E-02 
473	 5,97144087437513E-02 
474	 6,44232623764687E-02 
475	 6,73047060799981E-02 
476	 6,33561679210919E-02 
477	 6,39531953566307E-02 
478	 6,78855900066203E-02 
479	 6,48671138718981E-02 
480	 6,28841733663766E-02 
481	 6,50815141684922E-02 
482	 6,54259839375552E-02 
483	 6,59530290572148E-02 
484	 7,07273969662899E-02 
485	 7,09879286848341E-02 
486	 6,67876020431761E-02 
487	 6,74287991060796E-02 
488	 7,06990040735398E-02 
489	 7,42284478311622E-02 
490	 7,27446943698807E-02 
491	 6,81780637139631E-02 
492	 6,66513605591515E-02 
493	 6,71568697751795E-02 
494	 6,90999344249648E-02 
495	 7,01296376665537E-02 
496	 0,07085826672967 
497	 7,22027537428931E-02 
498	 7,30867267976952E-02 
499	 7,29459423105753E-02 
500	 7,05469947111949E-02 
501	 6,91343998086958E-02 
502	 7,04176492538546E-02 
503	 7,19205048864713E-02 
504	 0,072919609098938 
505	 7,29096148798926E-02 
506	 0,07181156623763 
507	 7,03559270095398E-02 
508	 7,14317209656581E-02 
509	 7,32163462716546E-02 
510	 7,39831387455057E-02 
511	 7,48813718631392E-02 
512	 7,56492409421539E-02 
513	 7,51073820613186E-02 
514	 7,46255935383092E-02 
515	 7,47867699368373E-02 
516	 7,48259291419113E-02 
517	 7,52934107303679E-02 
518	 7,70858698047027E-02 
519	 7,74258388305237E-02 
520	 7,65369550187919E-02 
521	 7,81043133146925E-02 
522	 7,95251447671395E-02 
523	 7,90066498413996E-02 
524	 7,90051065727578E-02 
525	 7,93914053607815E-02 
526	 7,87953392939744E-02 
527	 7,92102391918612E-02 
528	 8,08288781933895E-02 
529	 8,07436238052749E-02 
530	 8,03018118091229E-02 
531	 8,12607417131368E-02 
532	 8,15155535670004E-02 
533	 8,10589946181552E-02 
534	 8,13657722970677E-02 
535	 8,16913316604272E-02 
536	 8,17583107550144E-02 
537	 8,31303694075438E-02 
538	 8,47173734597231E-02 
539	 8,42009871790612E-02 
540	 8,35418307255264E-02 
541	 8,34553295420665E-02 
542	 8,41211943994815E-02 
543	 8,48122579179163E-02 
544	 8,48512942997636E-02 
545	 8,54445199660153E-02 
546	 8,63130219859995E-02 
547	 8,59976783022715E-02 
548	 8,56095885061208E-02 
549	 8,58226330546893E-02 
550	 8,71993222336112E-02 
551	 8,88389636218955E-02 
552	 0,089323349415808 
553	 0,08927340575359 
554	 8,89702206868793E-02 
555	 8,87225642779325E-02 
556	 8,89761993450824E-02 
557	 8,99243694479335E-02 
558	 8,92082137089206E-02 
559	 8,75418539355659E-02 
560	 8,75660995408951E-02 
561	 8,88632094930541E-02 
562	 9,09140077843071E-02 
563	 9,14398812168715E-02 
564	 9,11748238416732E-02 
565	 9,13831176562568E-02 
566	 9,18117578245985E-02 
567	 9,22266531041831E-02 
568	 0,091875987264062 
569	 9,15366096109184E-02 
570	 9,17945347931361E-02 
571	 9,27738016146182E-02 
572	 9,36261529526123E-02 
573	 9,23914259590277E-02 
574	 9,18478066462375E-02 
575	 9,28045094184741E-02 
576	 9,37670283295808E-02 
577	 9,43533643737801E-02 
578	 0,094278640791252 
579	 9,42269100785555E-02 
580	 9,43080284901634E-02 
581	 9,41217362735861E-02 
582	 0,094688577260034 
583	 0,096267908908265 
584	 0,096058739520233 
585	 9,48907512200629E-02 
586	 9,48031567777118E-02 
587	 9,54937892954146E-02 
588	 9,65774411623943E-02 
589	 9,66908531596762E-02 
590	 0,096251819751479 
591	 9,57778528230658E-02 
592	 0,096349290169718 
593	 9,73783235641781E-02 
594	 9,65989283019486E-02 
595	 9,59196672104448E-02 
596	 9,62858464252844E-02 
597	 0,0976154485068 
598	 9,87996826431402E-02 
599	 9,82321826098558E-02 
600	 9,77205207937791E-02 
601	 9,77858987622366E-02 
602	 9,83162611973451E-02 
603	 9,85592679686695E-02 
604	 9,79983140997501E-02 
605	 0,097934995723601 
606	 0,098255948068651 
607	 9,81333175768061E-02 
608	 9,78827353121357E-02 
609	 0,097634506173083 
610	 9,74245625485355E-02 
611	 9,75904956307711E-02 
612	 9,85185263745618E-02 
613	 9,86345726560735E-02 
614	 0,098062545316078 
615	 0,098689721962062 
616	 9,90865387396664E-02 
617	 9,84791815279719E-02 
618	 9,85825783077435E-02 
619	 9,92535049377906E-02 
620	 9,97408671927229E-02 
621	 0,100090167449093 
622	 0,100230230421974 
623	 9,99717175851327E-02 
624	 9,96269784448909E-02 
625	 9,95304593219732E-02 
626	 9,97174292674546E-02 
627	 0,100122683395376 
628	 0,100570924170686 
629	 0,100847739762874 
630	 0,100854746608007 
631	 0,100887755271727 
632	 0,100890965153329 
633	 0,100680281875247 
634	 0,100907090569377 
635	 0,101576293369287 
636	 0,101957045100244 
637	 0,101884680238343 
638	 0,10132696531236 
639	 0,101549735192669 
640	 0,102265811561723 
641	 0,102144216677783 
642	 0,101894013991528 
643	 0,101787674993138 
644	 0,10172513883794 
645	 0,101766921564723 
646	 0,1019905456587 
647	 0,102268289665135 
648	 0,102495093656209 
649	 0,102462512008534 
650	 0,10246819899777 
651	 0,102661845557604 
652	 0,102431812775975 
653	 0,102031837921072 
654	 0,102135292956654 
655	 0,102387609881674 
656	 0,10265754441826 
657	 0,102972382802858 
658	 0,102984414788267 
659	 0,102372462583856 
660	 0,101944837669068 
661	 0,101862602825153 
662	 0,102083711517866 
663	 0,101870458697862 
664	 0,101064651969563 
665	 0,101537897057985 
666	 0,102366237992868 
667	 0,101770141231301 
668	 0,101497753616597 
669	 0,101862467387973 
670	 0,102058927260312 
671	 0,102222669719019 
672	 0,102412428371573 
673	 0,101726148142723 
674	 0,100901486467599 
675	 0,102120345594667 
676	 0,103069771743435 
677	 0,102999259287083 
678	 0,102957192853123 
679	 0,103085852008902 
680	 0,103450484560557 
681	 0,104024870302718 
682	 0,104625682480536 
683	 0,104669516006632 
684	 0,105014172851329 
685	 0,106059581863147 
686	 0,106640606606673 
687	 0,106858532342814 
688	 0,107181750153503 
689	 0,107490356420621 
690	 0,107755147394336 
691	 0,107877490096721 
692	 0,108186339037803 
693	 0,108934445488722 
694	 0,109313513446395 
695	 0,10947696602871 
696	 0,110262000332198 
697	 0,11094807869314 
698	 0,111282472342678 
699	 0,111692897840027 
700	 0,112060688996652 
701	 0,112185698498909 
702	 0,112605881619465 
703	 0,113349890049885 
704	 0,114108383275897 
705	 0,114512778754335 
706	 0,114394973927792 
707	 0,114453588931038 
708	 0,114874129490366 
709	 0,115838133747456 
710	 0,116356088118709 
711	 0,116259240319099 
712	 0,116412417897725 
713	 0,116725993585976 
714	 0,117073003959738 
715	 0,117344418931633 
716	 0,117609563943244 
717	 0,118140980626125 
718	 0,11859092884544 
719	 0,118823358218382 
720	 0,119044384568099 
721	 0,11916344381091 
722	 0,119044637442134 
723	 0,119039474290098 
724	 0,119305077113086 
725	 0,120035448728456 
726	 0,120701288494238 
727	 0,12096921978124 
728	 0,121095112866066 
729	 0,121181315466387 
730	 0,121331242110118 
731	 0,121563513121098 
732	 0,12187243508851 
733	 0,12218177097351 
734	 0,122491182869831 
735	 0,12280697036054 
736	 0,123219170135856 
737	 0,123605430471302 
738	 0,123602128549546 
739	 0,123732494206716 
740	 0,124097638782145 
741	 0,124019308870853 
742	 0,12388976049411 
743	 0,12421319978084 
744	 0,124545853632028 
745	 0,124774192664232 
746	 0,124902474329595 
747	 0,124911492032282 
748	 0,12486967406678 
749	 0,125285861190192 
750	 0,125879868753041 
751	 0,126133747445887 
752	 0,126338138643243 
753	 0,126615077155829 
754	 0,127160941176577 
755	 0,127563516548451 
756	 0,127561240546074 
757	 0,127724093938329 
758	 0,127987242941619 
759	 0,12800584353328 
760	 0,128205440157949 
761	 0,128644967413969 
762	 0,128971427517055 
763	 0,129004868323292 
764	 0,12865641488487 
765	 0,128952308393596 
766	 0,129668512054579 
767	 0,12964993668613 
768	 0,129795855674585 
769	 0,130337452678761 
770	 0,130501797030857 
771	 0,130516446322927 
772	 0,130719906879049 
773	 0,130943169726228 
774	 0,131100960002893 
775	 0,13099515150974 
776	 0,131092181626235 
777	 0,131598020984088 
778	 0,13212184891857 
779	 0,132398830910241 
780	 0,132120450415125 
781	 0,132193822678905 
782	 0,132658228413736 
783	 0,132659999684764 
784	 0,132726584574677 
785	 0,133147695103127 
786	 0,133252415124404 
787	 0,13323460982111 
788	 0,133614779349273 
789	 0,133834482783276 
790	 0,133824859992351 
791	 0,134038093138654 
792	 0,134243279156674 
793	 0,134271953440652 
794	 0,134463542281302 
795	 0,134761032615193 
796	 0,134910819185047 
797	 0,135175713567832 
798	 0,135542623639774 
799	 0,135498924693539 
800	 0,135579351623669 
801	 0,136242166474768 
802	 0,136335291285109 
803	 0,136062995095982 
804	 0,136569765775134 
805	 0,136710537447523 
806	 0,136331699355047 
807	 0,136959188683346 
808	 0,137767973083566 
809	 0,137786385232223 
810	 0,137630204428037 
811	 0,13744317293867 
812	 0,137174733076415 
813	 0,137368353588583 
814	 0,138106553678445 
815	 0,138344121434215 
816	 0,138357698318377 
817	 0,138588541399876 
818	 0,138975229970151 
819	 0,139271024829622 
820	 0,138668999789119 
821	 0,138592613280478 
822	 0,139494426807813 
823	 0,139486961595644 
824	 0,139116392267127 
825	 0,139317411115528 
826	 0,139222015166644 
827	 0,13895148483368 
828	 0,139470504769758 
829	 0,140223020251036 
830	 0,140769624599355 
831	 0,140291534665743 
832	 0,139749733692397 
833	 0,140545247305706 
834	 0,140605547152412 
835	 0,139953306688733 
836	 0,140417036674939 
837	 0,140847187481425 
838	 0,140738538148606 
839	 0,141191307716128 
840	 0,141802271660744 
841	 0,141855633652567 
842	 0,141569992924766 
843	 0,141230560345625 
844	 0,141593625689779 
845	 0,141880760024022 
846	 0,141691676974297 
847	 0,141483927602674 
848	 0,141426647829882 
849	 0,1416747118338 
850	 0,141738736804818 
851	 0,141652308688507 
852	 0,141948352251699 
853	 0,142399499753281 
854	 0,142804426327233 
855	 0,142685073860716 
856	 0,142551891712974 
857	 0,143157370604864 
858	 0,143440971589478 
859	 0,143297342470143 
860	 0,143290951695792 
861	 0,143243485105013 
862	 0,143093121881122 
863	 0,143001504500469 
864	 0,142861144616406 
865	 0,142525286976274 
866	 0,143224943005103 
867	 0,144499402390108 
868	 0,144138873415267 
869	 0,143364060238827 
870	 0,142960281146684 
871	 0,143915848821629 
872	 0,144957569740982 
873	 0,144485429443605 
874	 0,143611973731467 
875	 0,143051754441558 
876	 0,144102415466374 
877	 0,144970169802212 
878	 0,144885202733863 
879	 0,144433477625187 
880	 0,143974089514643 
881	 0,143855709147483 
882	 0,144147989829014 
883	 0,144559986525125 
884	 0,144277738713062 
885	 0,144148029370398 
886	 0,144419282765122 
887	 0,144629331237985 
888	 0,144925584904908 
889	 0,145424687767472 
890	 0,145576832051217 
891	 0,145434236898736 
892	 0,145339096830319 
893	 0,145202336014192 
894	 0,145077503195578 
895	 0,14520954041317 
896	 0,145462420057696 
897	 0,145671345028175 
898	 0,145345108237498 
899	 0,145103906257876 
900	 0,146188715279682 
901	 0,146843996707271 
902	 0,146767270751378 
903	 0,146907199608506 
904	 0,147060128287405 
905	 0,147111749340061 
906	 0,147188198973761 
907	 0,147147746681306 
908	 0,1467798845038 
909	 0,146852307136771 
910	 0,147245429804766 
911	 0,14692932509479 
912	 0,146664515812959 
913	 0,146879944841672 
914	 0,147875472418985 
915	 0,148539008884114 
916	 0,147729192212407 
917	 0,147720690568866 
918	 0,148278849373736 
919	 0,147512311589683 
920	 0,147219687115447 
921	 0,147773696518368 
922	 0,147816897662791 
923	 0,147716442505227 
924	 0,147835578577696 
925	 0,148203824926567 
926	 0,148538419664899 
927	 0,148324304433861 
928	 0,148287660737232 
929	 0,148464464720951 
930	 0,148083601120008 
931	 0,148120323512216 
932	 0,148991149280249 
933	 0,149469356319335 
934	 0,149212394564189 
935	 0,148048770459729 
936	 0,148126720775881 
937	 0,149100216551137 
938	 0,14849032466586 
939	 0,147968977459728 
940	 0,148169265993473 
941	 0,149010517190452 
942	 0,149389908559924 
943	 0,148567425558924 
944	 0,149411448995553 
945	 0,151060969764023 
946	 0,151106310105194 
947	 0,150169345174685 
948	 0,149042155723435 
949	 0,150023512380394 
950	 0,150741379623324 
951	 0,150029484889112 
952	 0,150045664834371 
953	 0,149963450893218 
954	 0,14867739436027 
955	 0,149597335491134 
956	 0,152080876262582 
957	 0,152860930587501 
958	 0,151972025854839 
959	 0,150029444411383 
960	 0,150040076061254 
961	 0,150826465544688 
962	 0,151317779745989 
963	 0,151122935131993 
964	 0,151207190484326 
965	 0,153104037978051 
966	 0,153738659814631 
967	 0,152728382604471 
968	 0,151346364708505 
969	 0,15044748666072 
970	 0,150343532551188 
971	 0,149737532610111 
972	 0,150198297488211 
973	 0,152831151191133 
974	 0,153253153267676 
975	 0,152246350204064 
976	 0,152584314825565 
977	 0,152594168609537 
978	 0,152185494398454 
979	 0,152454197352731 
980	 0,152699811180506 
981	 0,15274120174445 
982	 0,153939898777798 
983	 0,153963037634216 
984	 0,150841416201208 
985	 0,150758124981232 
986	 0,153401744776444 
987	 0,155988222726121 
988	 0,1560790077436 
989	 0,153888594909995 
990	 0,153421797157392 
991	 0,152956754071818 
992	 0,152038839187439 
993	 0,153255138465142 
994	 0,15519940000376 
995	 0,156061596233248 
996	 0,153902017385179 
997	 0,151047926332353 
998	 0,1527154436419 
999	 0,152287836042915 
1000	 0,15006349709959 
1001	 0,154739555527945 
1002	 0,155093433864012 
1003	 0,148028907673671 
1004	 0,150537445281049 
1005	 0,155198114425735 
1006	 0,15396660911169 
1007	 0,154422364804329 
1008	 0,155451237974838 
1009	 0,153009632074153 
1010	 0,152645469573361 
1011	 0,154773076101327 
1012	 0,155712518281072 
1013	 0,155874257739392 
1014	 0,155190135522255 
1015	 0,152881599482178 
1016	 0,150565131990464 
1017	 0,150139592734247 
1018	 0,155520310775121 
1019	 0,160797773434779 
1020	 0,15666664263496 
1021	 0,152773476853206 
1022	 0,151475061526591 
1023	 0,151905363583963 
1024	 0,155007517708976 
1025	 0,159457349948438 
1026	 0,158727870017089 
1027	 0,157734111101537 
1028	 0,159192882247293 
1029	 0,157562409183299 
1030	 0,153553881761891 
1031	 0,14921077733884 
1032	 0,150310171312223 
1033	 0,154901188226278 
1034	 0,156539890073722 
1035	 0,159141720984713 
1036	 0,162194906071824 
1037	 0,16121602211182 
1038	 0,158607262440144 
1039	 0,155790487892194 
1040	 0,153054530518701 
1041	 0,152919171499145 
1042	 0,156455000564102 
1043	 0,155351175836263 
1044	 0,154081617646882 
1045	 0,160020996252201 
1046	 0,16293831944937 
1047	 0,162302747673816 
1048	 0,162682630143856 
1049	 0,157062180531279 
1050	 0,147303320569314 
1051	 0,148308897298784 
1052	 0,150898961660568 
1053	 0,152150203702863 
1054	 0,1647320082144 
1055	 0,172227760263248 
1056	 0,161825719927812 
1057	 0,155793151312828 
1058	 0,153530935582193 
1059	 0,150008450000401 
1060	 0,152739181433868 
1061	 0,159258081935758 
1062	 0,160750428314929 
1063	 0,161769571802405 
1064	 0,161017462187066 
1065	 0,146936353929559 
1066	 0,150533441440328 
1067	 0,175182473771206 
1068	 0,16145320494297 
1069	 0,146287810160953 
1070	 0,157016628393853 
1071	 0,154837624498138 
1072	 0,146840558597478 
1073	 0,146531654235652 
1074	 0,149646785871435 
1075	 0,149448683554887 
