Wavelength	GRA-VAN00634.asd
325	 0,370217263297752 
326	 0,362740478564671 
327	 0,375215347557316 
328	 0,405503448452355 
329	 0,433442382644745 
330	 0,461739745403112 
331	 0,457492864003831 
332	 0,495123613329907 
333	 0,540508181748154 
334	 0,50805365829689 
335	 0,431112746605207 
336	 0,363407666826712 
337	 0,296911775853685 
338	 0,265081690182419 
339	 0,306844751108921 
340	 0,313833105990586 
341	 0,296398013675983 
342	 0,332827284336798 
343	 0,323063971595321 
344	 0,262636387754784 
345	 0,240890089440294 
346	 0,247608955709699 
347	 0,273943943245865 
348	 0,252116649076598 
349	 0,206329301293839 
350	 0,245492719303181 
351	 0,281822335479677 
352	 0,282622986286779 
353	 0,295010520346087 
354	 0,294170492955757 
355	 0,248081870511668 
356	 0,253988301316549 
357	 0,29701413083931 
358	 0,284095485814117 
359	 0,282556588230491 
360	 0,314614205167333 
361	 0,301397138169983 
362	 0,277860160727582 
363	 0,299990622608274 
364	 0,296090933984565 
365	 0,267061966878915 
366	 0,282196760534953 
367	 0,307953235304318 
368	 0,320191626295149 
369	 0,304165997343995 
370	 0,276254828857356 
371	 0,26442905731834 
372	 0,292145944102184 
373	 0,336012280065335 
374	 0,293626386014793 
375	 0,2582570634606 
376	 0,300141468034526 
377	 0,300956905841981 
378	 0,272734104302683 
379	 0,281485342823927 
380	 0,291314559124625 
381	 0,29538912286824 
382	 0,313225135552278 
383	 0,319495298083713 
384	 0,293974466824532 
385	 0,299022463028626 
386	 0,320951196055652 
387	 0,294277575380386 
388	 0,279756992614077 
389	 0,29763423889318 
390	 0,302189378877524 
391	 0,299026920904866 
392	 0,298734907560038 
393	 0,291701560088825 
394	 0,281927636063186 
395	 0,284945866916845 
396	 0,292609931502513 
397	 0,300315573878122 
398	 0,30953347958381 
399	 0,31235746190675 
400	 0,296870914764253 
401	 0,2934479046166 
402	 0,302738042675647 
403	 0,295540673032889 
404	 0,287751312561022 
405	 0,290661835063552 
406	 0,293941368491844 
407	 0,297014667768308 
408	 0,303188133098216 
409	 0,304401836339977 
410	 0,299584364793086 
411	 0,29552028152058 
412	 0,295313013476566 
413	 0,300907635575002 
414	 0,302256114409721 
415	 0,299689344265927 
416	 0,299229768444974 
417	 0,296583653623592 
418	 0,291874863975 
419	 0,295354762720522 
420	 0,302081244745434 
421	 0,305339671893228 
422	 0,304025564546314 
423	 0,299029102274794 
424	 0,293908548825076 
425	 0,291545568121424 
426	 0,293287074228055 
427	 0,29447069103701 
428	 0,295671891731236 
429	 0,299770893714157 
430	 0,29928768128819 
431	 0,294088027578015 
432	 0,293646622064115 
433	 0,29609909327175 
434	 0,298946247748552 
435	 0,295341316855554 
436	 0,288333896343573 
437	 0,289030587097516 
438	 0,290417333418494 
439	 0,289910150820228 
440	 0,289173774689579 
441	 0,289664560127339 
442	 0,293006605205042 
443	 0,294731257868573 
444	 0,294640649388334 
445	 0,296395378633128 
446	 0,296485492252886 
447	 0,293401436553514 
448	 0,293879542114771 
449	 0,296044291978822 
450	 0,29448340490766 
451	 0,294605403572085 
452	 0,297121483917009 
453	 0,297759860689855 
454	 0,297219979376824 
455	 0,296547940880672 
456	 0,299902076782164 
457	 0,304551081711511 
458	 0,301019168169638 
459	 0,299178375764509 
460	 0,302249556823005 
461	 0,301377090781679 
462	 0,299382937287048 
463	 0,301041258541959 
464	 0,300578371674239 
465	 0,298304422277926 
466	 0,300133754601868 
467	 0,303268398789869 
468	 0,305538083339266 
469	 0,305308383118454 
470	 0,303550173722732 
471	 0,302454408473345 
472	 0,302736221110592 
473	 0,304225778863419 
474	 0,304627602879829 
475	 0,304124602979652 
476	 0,303091175699917 
477	 0,302471346261258 
478	 0,302761602494756 
479	 0,30482733686359 
480	 0,306080164109042 
481	 0,305429298129557 
482	 0,305241350542985 
483	 0,305086196448298 
484	 0,303913889082948 
485	 0,303355761831998 
486	 0,3035687522502 
487	 0,303389166525496 
488	 0,302885554936894 
489	 0,302209205937492 
490	 0,30224882178497 
491	 0,302890879175083 
492	 0,303771849638902 
493	 0,303456304766079 
494	 0,301890464818634 
495	 0,301769736610271 
496	 0,302694664340981 
497	 0,303945951543226 
498	 0,304899765353635 
499	 0,305064506348973 
500	 0,303374376105938 
501	 0,302751650162146 
502	 0,304506473804113 
503	 0,304383301048357 
504	 0,303993909387816 
505	 0,307290894596873 
506	 0,308697731994462 
507	 0,307418776101158 
508	 0,307829318235537 
509	 0,308445492129988 
510	 0,307863920909723 
511	 0,308408605006231 
512	 0,309460182009698 
513	 0,308062230983567 
514	 0,307806898495572 
515	 0,30983434952729 
516	 0,310739941410151 
517	 0,310808864751514 
518	 0,310909324628235 
519	 0,311684844815055 
520	 0,312959635516056 
521	 0,313554453370364 
522	 0,31320724182684 
523	 0,311999520234258 
524	 0,312811178746422 
525	 0,314678281866877 
526	 0,314511646211412 
527	 0,313722521426986 
528	 0,312855044158844 
529	 0,312285431158419 
530	 0,311928148896498 
531	 0,31163162840412 
532	 0,311987555008264 
533	 0,312528125063789 
534	 0,311352630577237 
535	 0,310513426747998 
536	 0,311112987990205 
537	 0,311364311646263 
538	 0,311433473079668 
539	 0,312137531758304 
540	 0,312396771645885 
541	 0,312054458598089 
542	 0,312080636013271 
543	 0,312046154275123 
544	 0,311535531658956 
545	 0,311689501172614 
546	 0,312402636434875 
547	 0,312698510937824 
548	 0,313117574054838 
549	 0,313788943918308 
550	 0,31383592097456 
551	 0,313652050480406 
552	 0,314026152493588 
553	 0,313768951087457 
554	 0,312900623619577 
555	 0,312790671893169 
556	 0,313143652689388 
557	 0,313602947431874 
558	 0,3132574148976 
559	 0,312356625702882 
560	 0,311979824308047 
561	 0,31151913063813 
562	 0,310811808293524 
563	 0,310257690668274 
564	 0,309773917343404 
565	 0,309192452428838 
566	 0,309150396183548 
567	 0,309592260776872 
568	 0,309633359372208 
569	 0,310018532678064 
570	 0,311268939404966 
571	 0,313093948507922 
572	 0,314974937481845 
573	 0,315974894012176 
574	 0,316974069429944 
575	 0,318252952545258 
576	 0,319551948920297 
577	 0,320846147620589 
578	 0,322114880317362 
579	 0,323257217066416 
580	 0,324404186445776 
581	 0,326030354341243 
582	 0,327633906402194 
583	 0,32891218979718 
584	 0,329961209935986 
585	 0,330948029457183 
586	 0,332135213765706 
587	 0,333349923747759 
588	 0,334607880772548 
589	 0,336344434351747 
590	 0,33749472419083 
591	 0,337173551612626 
592	 0,337737891636698 
593	 0,339027911923446 
594	 0,33924320129096 
595	 0,33932789197089 
596	 0,339697189878496 
597	 0,340151627598352 
598	 0,34057835684317 
599	 0,340859307184971 
600	 0,34060305582739 
601	 0,339920857353079 
602	 0,339717735179461 
603	 0,339441467589294 
604	 0,338651572157454 
605	 0,337571870527045 
606	 0,336627754026894 
607	 0,336871672160577 
608	 0,336500094395368 
609	 0,335038354089601 
610	 0,334114112627344 
611	 0,333597120320215 
612	 0,333144812130981 
613	 0,332965388193116 
614	 0,332801258921626 
615	 0,331645021077679 
616	 0,330825174215834 
617	 0,331078220240521 
618	 0,330791622190578 
619	 0,330147375009746 
620	 0,329958602772808 
621	 0,329924126592246 
622	 0,329923059822809 
623	 0,329733922963192 
624	 0,3297572927614 
625	 0,33037290274193 
626	 0,330282575256615 
627	 0,329827972062415 
628	 0,330974502160557 
629	 0,331513821808943 
630	 0,330615010710833 
631	 0,331129115999713 
632	 0,33231872526422 
633	 0,332415401964901 
634	 0,333065185433105 
635	 0,334428285617432 
636	 0,335179249264688 
637	 0,335896892815464 
638	 0,337057110976379 
639	 0,337820389138557 
640	 0,338230195056522 
641	 0,338704807384759 
642	 0,339592584172142 
643	 0,340866544904493 
644	 0,341338727563048 
645	 0,341523262350236 
646	 0,342232642828386 
647	 0,342450699063091 
648	 0,341953514665283 
649	 0,340837143335071 
650	 0,339932760062925 
651	 0,339660715168455 
652	 0,338170629087702 
653	 0,336340037451846 
654	 0,336629551356864 
655	 0,336103805209332 
656	 0,333971311860667 
657	 0,331647665553655 
658	 0,329341115584999 
659	 0,327197876893248 
660	 0,325522946703362 
661	 0,3240443619293 
662	 0,321780794197681 
663	 0,319640514361191 
664	 0,318094598418989 
665	 0,316910124179409 
666	 0,315895213308785 
667	 0,31479809157 
668	 0,313834116379523 
669	 0,313115993670607 
670	 0,312791888513144 
671	 0,312779905822922 
672	 0,312952438392006 
673	 0,312710754475945 
674	 0,312222238859187 
675	 0,312202690402036 
676	 0,311940339795389 
677	 0,311413877139565 
678	 0,311967179665685 
679	 0,312793340543509 
680	 0,312821121079537 
681	 0,312580637613472 
682	 0,312584791537174 
683	 0,313962952513767 
684	 0,315722775461873 
685	 0,317247605851891 
686	 0,318665792818025 
687	 0,320339027473462 
688	 0,322844005942082 
689	 0,325845452837211 
690	 0,329358320066196 
691	 0,33360978389312 
692	 0,338964759925205 
693	 0,345699061316679 
694	 0,352871566270187 
695	 0,360364389321594 
696	 0,368399158394383 
697	 0,377077375347018 
698	 0,38643093246678 
699	 0,396319895743755 
700	 0,406642506512147 
701	 0,417278952944275 
702	 0,427658633334083 
703	 0,437716580333743 
704	 0,447935875670548 
705	 0,458008071844294 
706	 0,467674273238336 
707	 0,476865060729743 
708	 0,485569452160794 
709	 0,493756309793582 
710	 0,501441088563727 
711	 0,508674800116808 
712	 0,515530968696571 
713	 0,522095876819048 
714	 0,528405565508449 
715	 0,533939540471315 
716	 0,538803064909086 
717	 0,543425278074663 
718	 0,548096923278569 
719	 0,552844262839551 
720	 0,556829797450158 
721	 0,560190209198136 
722	 0,563221236499505 
723	 0,566175232974369 
724	 0,569126262206799 
725	 0,57206509498486 
726	 0,574425134047106 
727	 0,575911579589704 
728	 0,577124879077983 
729	 0,578485771424713 
730	 0,580577104582951 
731	 0,582300600045387 
732	 0,583385722432038 
733	 0,584364656169095 
734	 0,585158082341203 
735	 0,585725200225627 
736	 0,586595967503556 
737	 0,587667438101591 
738	 0,588529344319673 
739	 0,588819889379105 
740	 0,588582913672128 
741	 0,588971247129993 
742	 0,589629348246408 
743	 0,590029221601498 
744	 0,590248938779671 
745	 0,590463192397212 
746	 0,591231633669883 
747	 0,591764235783637 
748	 0,591686464207001 
749	 0,591616259416569 
750	 0,591742638383309 
751	 0,592241645159493 
752	 0,592307659589138 
753	 0,592073986553486 
754	 0,593018985501782 
755	 0,593765794998195 
756	 0,593394690210308 
757	 0,593418441688449 
758	 0,593736472883548 
759	 0,593643732904828 
760	 0,593598087612055 
761	 0,593714124595218 
762	 0,593779274225211 
763	 0,594026908337559 
764	 0,594611863434853 
765	 0,594284771269403 
766	 0,593460758893046 
767	 0,593886290833719 
768	 0,594082435714777 
769	 0,593643309402154 
770	 0,593782148261884 
771	 0,594102587800574 
772	 0,594029734985481 
773	 0,593866197085061 
774	 0,593712283080893 
775	 0,593626608717691 
776	 0,593767803075175 
777	 0,594120271399243 
778	 0,594017048874381 
779	 0,593593593091821 
780	 0,593160328777058 
781	 0,592938352479984 
782	 0,592947975892584 
783	 0,592970620283468 
784	 0,592930968808115 
785	 0,592795125423585 
786	 0,592739588750616 
787	 0,592807147768827 
788	 0,593048453581165 
789	 0,592964124633352 
790	 0,592576521954222 
791	 0,592695683498091 
792	 0,592804590935845 
793	 0,592485738011051 
794	 0,592020801881386 
795	 0,591682838768374 
796	 0,591949018822483 
797	 0,592183570740674 
798	 0,592181530404176 
799	 0,592166431914857 
800	 0,5920813233414 
801	 0,591875950416477 
802	 0,591711460602458 
803	 0,591584958960128 
804	 0,591348902237743 
805	 0,591368118401102 
806	 0,591728531233696 
807	 0,592144855014658 
808	 0,592266522107098 
809	 0,591791945447957 
810	 0,59165585415566 
811	 0,591913915885316 
812	 0,592125869448141 
813	 0,592280963675362 
814	 0,592358033646312 
815	 0,592458889069292 
816	 0,592383161659416 
817	 0,591910580828027 
818	 0,591861459720582 
819	 0,592295339291727 
820	 0,592856042694048 
821	 0,593048153311499 
822	 0,592678810787331 
823	 0,592364316334125 
824	 0,592202423862737 
825	 0,592225039789886 
826	 0,592781248683399 
827	 0,593490936232268 
828	 0,592919655732464 
829	 0,592481989593618 
830	 0,592835677067602 
831	 0,5930183231687 
832	 0,592952970977619 
833	 0,592681841936228 
834	 0,592594323502522 
835	 0,592706259862635 
836	 0,592673057216246 
837	 0,592744749186578 
838	 0,592953224882247 
839	 0,592602316665861 
840	 0,59198512922804 
841	 0,591616419594093 
842	 0,591840736750344 
843	 0,592360796949581 
844	 0,591837427904557 
845	 0,591501237544553 
846	 0,591939893035473 
847	 0,59213017478521 
848	 0,592155104277203 
849	 0,592295165474231 
850	 0,592376602108962 
851	 0,592332452122055 
852	 0,59208874128812 
853	 0,591793537945588 
854	 0,59154703749137 
855	 0,591343378313474 
856	 0,591264317307096 
857	 0,591410383410687 
858	 0,591662921602256 
859	 0,591919828986609 
860	 0,592044223720995 
861	 0,591910236137947 
862	 0,591532357189567 
863	 0,591462667396917 
864	 0,59148458795578 
865	 0,591244123703568 
866	 0,591377638203828 
867	 0,591714534271748 
868	 0,591215582434691 
869	 0,591083013278958 
870	 0,591711708572127 
871	 0,591760836896684 
872	 0,591464817893684 
873	 0,591275198033677 
874	 0,591813362883137 
875	 0,592588203198336 
876	 0,591793677443992 
877	 0,590877911241618 
878	 0,59055573992861 
879	 0,590924847838475 
880	 0,591613413520491 
881	 0,592166583850392 
882	 0,592071429138178 
883	 0,591530897013231 
884	 0,591295358432182 
885	 0,591552943130903 
886	 0,592193443691195 
887	 0,592115838982606 
888	 0,591924654111716 
889	 0,592206073781822 
890	 0,592136563557332 
891	 0,59193321376257 
892	 0,592409915002736 
893	 0,592617986680507 
894	 0,592356603907053 
895	 0,592182743700458 
896	 0,592227600148795 
897	 0,592562202853885 
898	 0,592997489130334 
899	 0,593278240424104 
900	 0,593056629162014 
901	 0,592449493176268 
902	 0,591775069126407 
903	 0,591893769217365 
904	 0,592453134711111 
905	 0,593065913923871 
906	 0,592774753238675 
907	 0,592217891121326 
908	 0,592464607924348 
909	 0,592411568586764 
910	 0,592031866685228 
911	 0,592069035302132 
912	 0,5922299183765 
913	 0,592330660282388 
914	 0,592159727038052 
915	 0,591857775799958 
916	 0,591635585770711 
917	 0,592109968175263 
918	 0,59274350487904 
919	 0,591776134083909 
920	 0,591525242333462 
921	 0,592408781285286 
922	 0,592303223029332 
923	 0,591783506085983 
924	 0,59141460481845 
925	 0,591037478418972 
926	 0,590772421938372 
927	 0,590867990960675 
928	 0,590358665880868 
929	 0,589326653566816 
930	 0,589165391625125 
931	 0,588957801752242 
932	 0,588334033761358 
933	 0,588749231596802 
934	 0,589222393242625 
935	 0,588370488277505 
936	 0,588276704035572 
937	 0,588626805106047 
938	 0,587049752948919 
939	 0,586268290028795 
940	 0,586997696271228 
941	 0,587204139654193 
942	 0,586867422725924 
943	 0,586087372033926 
944	 0,585001962885922 
945	 0,584084497562485 
946	 0,584124825373657 
947	 0,583420268988158 
948	 0,581906716126058 
949	 0,581310790539877 
950	 0,580706969711035 
951	 0,579655623821023 
952	 0,579061412573447 
953	 0,578216377993367 
954	 0,576281370554787 
955	 0,576160568039568 
956	 0,577037821211004 
957	 0,575098182578783 
958	 0,57398708030761 
959	 0,574416395864262 
960	 0,573622377541949 
961	 0,572637459801342 
962	 0,57233012291636 
963	 0,572470241660079 
964	 0,57265986713632 
965	 0,572358754696212 
966	 0,570825957632372 
967	 0,568999512219658 
968	 0,57026376747788 
969	 0,571525471683259 
970	 0,571546409395985 
971	 0,571772793524286 
972	 0,571120677791029 
973	 0,568907330408835 
974	 0,56929344925619 
975	 0,570964057474214 
976	 0,570257155624252 
977	 0,570773872883669 
978	 0,572540581087047 
979	 0,572356096375563 
980	 0,571755470069568 
981	 0,571382724831499 
982	 0,570105648637262 
983	 0,569648387637574 
984	 0,571522047572639 
985	 0,571372509543262 
986	 0,5703961836186 
987	 0,572464739711783 
988	 0,574448518695913 
989	 0,575423645589485 
990	 0,57562133808192 
991	 0,575268425173649 
992	 0,574841303599484 
993	 0,576209406825635 
994	 0,577127201445701 
995	 0,575473741629201 
996	 0,576178891674735 
997	 0,578840011264257 
998	 0,580971058354212 
999	 0,580917137015463 
1000	 0,578869495505851 
1001	 0,577322016441804 
1002	 0,577417043722921 
1003	 0,579602659029346 
1004	 0,582634119000328 
1005	 0,583868416727096 
1006	 0,58131448043698 
1007	 0,579926009554429 
1008	 0,580022164543279 
1009	 0,580445017579981 
1010	 0,582019265436983 
1011	 0,58400438889194 
1012	 0,583113016278702 
1013	 0,585402935388679 
1014	 0,591601999250944 
1015	 0,590607825447624 
1016	 0,588669210361497 
1017	 0,591017649521883 
1018	 0,591092762591682 
1019	 0,588648145892109 
1020	 0,584939721320539 
1021	 0,588588031741038 
1022	 0,596799730598322 
1023	 0,59570054723293 
1024	 0,595176570449705 
1025	 0,597505225700591 
1026	 0,597325124384533 
1027	 0,596904335761452 
1028	 0,597280200425553 
1029	 0,59405324025126 
1030	 0,59112499569763 
1031	 0,593392100520759 
1032	 0,598209206281204 
1033	 0,602449142280968 
1034	 0,601084126971531 
1035	 0,598758999821165 
1036	 0,5973290889054 
1037	 0,597624596935951 
1038	 0,599662579720841 
1039	 0,602764857336512 
1040	 0,603855866426651 
1041	 0,603234288418474 
1042	 0,6012496025651 
1043	 0,596357041397989 
1044	 0,593325020904214 
1045	 0,59827937101763 
1046	 0,597951098451433 
1047	 0,595828661147057 
1048	 0,607193961950863 
1049	 0,613104416845194 
1050	 0,609951032165706 
1051	 0,607949407053996 
1052	 0,606844846227766 
1053	 0,606718329262445 
1054	 0,605758793232379 
1055	 0,608080903037376 
1056	 0,615170943873573 
1057	 0,608004194777905 
1058	 0,599798376167338 
1059	 0,611864250520643 
1060	 0,609194837223862 
1061	 0,597466753607182 
1062	 0,606982759624893 
1063	 0,612110552478437 
1064	 0,60785863271244 
1065	 0,602801276311667 
1066	 0,607472913206789 
1067	 0,621250368405192 
1068	 0,616268300493711 
1069	 0,607123483046989 
1070	 0,60580959803553 
1071	 0,608875506260423 
1072	 0,61328331780765 
1073	 0,615340949621655 
1074	 0,61372212645082 
1075	 0,613685233136614 
