Wavelength	GRA-VIE00661.asd
325	-8,34583535137562E-02 
326	 1,66387218357675E-02 
327	 0,108546253815292 
328	 9,81129577554568E-02 
329	 0,138716862096941 
330	 0,168962221362368 
331	 0,122469600146818 
332	 7,77216745926692E-02 
333	 2,03040776125785E-02 
334	-3,71877200319758E-02 
335	-1,06914227671084E-02 
336	 7,61136592503252E-02 
337	 0,141216541207703 
338	 0,166908748612964 
339	 0,139476418730936 
340	 9,47847651804012E-02 
341	 6,18665766467689E-02 
342	 0,114186956461626 
343	 0,155902221994313 
344	 0,157207615791516 
345	 0,116287336934475 
346	 7,61063051699682E-02 
347	 8,62069864360585E-02 
348	 3,71374518779665E-02 
349	-3,80886453715163E-02 
350	 6,25541217292309E-03 
351	 2,93479599549546E-02 
352	 1,3339464179233E-03 
353	 0,023904066510201 
354	 6,48182695495886E-02 
355	 8,01409471306176E-02 
356	 0,067963944515483 
357	 3,97746445325164E-02 
358	 2,80729056230374E-02 
359	 2,28481032099524E-02 
360	 2,23311312100185E-02 
361	 5,03404967620042E-02 
362	 7,73677757186447E-02 
363	 6,46824540732505E-02 
364	 5,41812172069912E-02 
365	 5,30822019387631E-02 
366	 4,63389064917407E-02 
367	 5,21359697014101E-02 
368	 0,075237793830419 
369	 5,87223801468408E-02 
370	 2,81192512502124E-02 
371	 3,82710947786385E-02 
372	 3,23970314614344E-02 
373	 6,70833762922607E-03 
374	 0,018623943129196 
375	 2,94539827259501E-02 
376	 1,07203605897175E-02 
377	 1,11880200409066E-03 
378	 9,84945471194145E-03 
379	 4,20398339296966E-02 
380	 6,11425990639894E-02 
381	 5,74280500057229E-02 
382	 3,78472223589793E-02 
383	 2,25792966197001E-02 
384	 3,12127049104299E-02 
385	 4,94284698665626E-02 
386	 6,05914897805329E-02 
387	 3,21360744139623E-02 
388	 2,02873083126578E-02 
389	 4,05065891452774E-02 
390	 0,036003516571179 
391	 2,69331220471286E-02 
392	 4,16667788776448E-02 
393	 4,17714991721623E-02 
394	 2,81657921864322E-02 
395	 3,08278892999638E-02 
396	 3,43197635191417E-02 
397	 3,05050807713016E-02 
398	 1,80449084573139E-02 
399	 5,14050122828843E-03 
400	 1,59814414993799E-03 
401	 1,20072438077558E-02 
402	 2,88888332799702E-02 
403	 2,35204469883704E-02 
404	 1,61574863099711E-02 
405	 2,02732293315719E-02 
406	 1,89344760825862E-02 
407	 1,57018347803418E-02 
408	 2,37580007190428E-02 
409	 2,25168131845904E-02 
410	 1,00431351312276E-02 
411	 3,64202528871383E-03 
412	 8,80793421549873E-03 
413	 2,75796100894978E-02 
414	 2,28949869742215E-02 
415	 3,36207565893386E-03 
416	 9,92380270224291E-03 
417	 1,50320195203575E-02 
418	 1,00922183792527E-02 
419	 1,19323026543443E-02 
420	 1,57687861424094E-02 
421	 1,39584823093478E-02 
422	 1,11528838150291E-02 
423	 9,43652132423453E-03 
424	 1,22301795954655E-02 
425	 0,012241778316644 
426	 6,14021428836244E-03 
427	 5,66143957795494E-03 
428	 9,45766178467402E-03 
429	 0,012639726732283 
430	 1,36401321420265E-02 
431	 1,27361823257523E-02 
432	 1,46762727198854E-02 
433	 1,62889745747783E-02 
434	 1,47927425711691E-02 
435	 1,36816891540724E-02 
436	 1,33400123692429E-02 
437	 1,28391238969353E-02 
438	 1,29461456073063E-02 
439	 1,40937794495099E-02 
440	 1,72069535825447E-02 
441	 1,93390703503776E-02 
442	 1,69828799523851E-02 
443	 1,30883656569588E-02 
444	 1,02538959224729E-02 
445	 1,39325010680714E-02 
446	 1,87563905241068E-02 
447	 2,08897827921378E-02 
448	 0,018325912899908 
449	 1,40964760057241E-02 
450	 1,41761390607434E-02 
451	 1,52461446652325E-02 
452	 1,58690918153359E-02 
453	 1,38938527686382E-02 
454	 1,35082963530331E-02 
455	 1,81093008303917E-02 
456	 1,66917001347705E-02 
457	 1,13408101239474E-02 
458	 1,33630327218022E-02 
459	 1,51612883869961E-02 
460	 1,38636977527059E-02 
461	 1,21471624379414E-02 
462	 1,19517626796982E-02 
463	 1,54849446380351E-02 
464	 0,015767434626106 
465	 1,29443299888189E-02 
466	 1,44278416411249E-02 
467	 1,49862744749753E-02 
468	 1,17788127163814E-02 
469	 1,22644360118251E-02 
470	 1,46798578966893E-02 
471	 1,34830782031132E-02 
472	 1,22034448307284E-02 
473	 1,19974150502129E-02 
474	 1,27410595085748E-02 
475	 1,39355013298822E-02 
476	 1,50157495069372E-02 
477	 1,46360509190772E-02 
478	 1,33881643635686E-02 
479	 1,36870677195475E-02 
480	 1,40975436132446E-02 
481	 1,37758971361865E-02 
482	 0,011422878491638 
483	 9,98007610172537E-03 
484	 0,014034794795014 
485	 1,55284764642472E-02 
486	 1,32475830940917E-02 
487	 1,10463048848799E-02 
488	 1,11742604645325E-02 
489	 1,47886614981217E-02 
490	 1,58181884214112E-02 
491	 1,42092117129288E-02 
492	 1,20521181410249E-02 
493	 1,07537176983158E-02 
494	 1,08674588288038E-02 
495	 0,011345050115473 
496	 1,14604303631911E-02 
497	 1,05507799000797E-02 
498	 1,13890553712428E-02 
499	 1,34764187211838E-02 
500	 1,34494952077387E-02 
501	 0,012972170158827 
502	 0,012896273205281 
503	 1,19006829131885E-02 
504	 1,12519219600453E-02 
505	 0,01353358124204 
506	 1,40244087026168E-02 
507	 1,20486900346931E-02 
508	 1,13221928523184E-02 
509	 1,14286385094177E-02 
510	 1,18128144447199E-02 
511	 0,012012604434808 
512	 1,22854871518877E-02 
513	 1,39117110668115E-02 
514	 1,41124524158182E-02 
515	 1,23185012418123E-02 
516	 1,33283145440956E-02 
517	 1,52139824148967E-02 
518	 1,47006434922741E-02 
519	 1,40104425324218E-02 
520	 1,36420229365627E-02 
521	 1,30784045021132E-02 
522	 1,33936761541656E-02 
523	 1,50661243436398E-02 
524	 0,014540061711504 
525	 1,26465606993741E-02 
526	 1,23771649105478E-02 
527	 1,30446140825669E-02 
528	 1,41173322591685E-02 
529	 1,37676254187627E-02 
530	 1,28785784225245E-02 
531	 1,26191525562914E-02 
532	 1,27838332104838E-02 
533	 1,30671376554079E-02 
534	 1,25157148453558E-02 
535	 0,012358369113304 
536	 1,32132413098941E-02 
537	 1,38804645799442E-02 
538	 1,39366377282654E-02 
539	 1,28332484086794E-02 
540	 1,26383054989564E-02 
541	 1,35903779680806E-02 
542	 1,34036376294395E-02 
543	 1,28165331348419E-02 
544	 1,26599691415654E-02 
545	 1,26631533741807E-02 
546	 1,27699815905578E-02 
547	 1,29934298477642E-02 
548	 1,29373717955167E-02 
549	 1,25200188716007E-02 
550	 1,26891872452649E-02 
551	 1,30691590009995E-02 
552	 1,28946002768817E-02 
553	 1,30581845985482E-02 
554	 0,013530660481979 
555	 1,32451276432772E-02 
556	 1,25760195398715E-02 
557	 1,19616577719308E-02 
558	 0,012645143540489 
559	 1,39415225440744E-02 
560	 1,35970432292552E-02 
561	 1,32070851059399E-02 
562	 1,33542454298351E-02 
563	 1,36000564068424E-02 
564	 1,35404502504481E-02 
565	 1,26928278081617E-02 
566	 1,27040283038309E-02 
567	 1,36192646566227E-02 
568	 1,40726322171236E-02 
569	 1,39908576463236E-02 
570	 1,34227254512213E-02 
571	 1,34019951181035E-02 
572	 1,38925720494657E-02 
573	 1,45304570612386E-02 
574	 1,43735439986816E-02 
575	 0,013529876094932 
576	 1,47641771158767E-02 
577	 1,58770147337297E-02 
578	 1,42829587569818E-02 
579	 1,39019762227903E-02 
580	 1,49620807491502E-02 
581	 1,52641462754277E-02 
582	 1,51184730570677E-02 
583	 0,014788437985877 
584	 1,51589638046945E-02 
585	 1,59234554354816E-02 
586	 1,63400529095642E-02 
587	 1,66305304510837E-02 
588	 1,68258308366864E-02 
589	 1,69113751504618E-02 
590	 1,68104547001273E-02 
591	 1,64790071349347E-02 
592	 1,64103306732667E-02 
593	 1,65149014544633E-02 
594	 1,62207902412864E-02 
595	 0,016080580097411 
596	 1,62921939362472E-02 
597	 1,63466372275452E-02 
598	 0,016274140805352 
599	 1,61964807912566E-02 
600	 1,62865818285184E-02 
601	 1,65788276576713E-02 
602	 1,70953093350068E-02 
603	 1,70809769537485E-02 
604	 1,60862651905311E-02 
605	 1,62344402362818E-02 
606	 1,69340180227935E-02 
607	 1,56844349402629E-02 
608	 1,50923531278618E-02 
609	 1,57986700110366E-02 
610	 1,53879475824316E-02 
611	 1,47320516649098E-02 
612	 1,51364641817346E-02 
613	 1,51060828049208E-02 
614	 1,46673218352583E-02 
615	 1,52227995385567E-02 
616	 1,55188497598842E-02 
617	 1,48246797610526E-02 
618	 1,42115929317054E-02 
619	 1,39875540615558E-02 
620	 1,44042882728179E-02 
621	 1,50966614503431E-02 
622	 1,56986539465903E-02 
623	 1,53048157249317E-02 
624	 1,46685612837387E-02 
625	 1,46252297687544E-02 
626	 1,50128405300896E-02 
627	 1,55925117901104E-02 
628	 1,58653610355144E-02 
629	 1,56195702895579E-02 
630	 0,014919074971981 
631	 1,50979732560784E-02 
632	 0,015797967824315 
633	 1,61935370668143E-02 
634	 1,61478158520486E-02 
635	 1,59025269868844E-02 
636	 1,67317138932686E-02 
637	 1,76321922791296E-02 
638	 1,77262457879999E-02 
639	 1,75456560457684E-02 
640	 1,73171751206442E-02 
641	 1,72711010634827E-02 
642	 1,76665214712908E-02 
643	 1,84194356670058E-02 
644	 1,83029750828665E-02 
645	 1,79729291713239E-02 
646	 1,84257464956733E-02 
647	 1,85857212529446E-02 
648	 1,83412168596486E-02 
649	 1,82182075678009E-02 
650	 1,83615101978395E-02 
651	 1,87692988380475E-02 
652	 1,84285416905587E-02 
653	 1,77254032579484E-02 
654	 1,77353527837389E-02 
655	 1,78810076787749E-02 
656	 0,017936678812116 
657	 1,77220622197144E-02 
658	 1,75202619596903E-02 
659	 1,76062506527181E-02 
660	 1,70094651267745E-02 
661	 1,60089757886323E-02 
662	 1,60380269364128E-02 
663	 1,58389007857489E-02 
664	 1,49533413284164E-02 
665	 1,49071429161181E-02 
666	 1,52383490000584E-02 
667	 1,49566488317146E-02 
668	 1,48080353667659E-02 
669	 1,48721754063508E-02 
670	 1,46061654698794E-02 
671	 1,45256626144271E-02 
672	 1,49882586288629E-02 
673	 1,50105399913421E-02 
674	 0,014749033381365 
675	 0,015003882278661 
676	 1,53029833389574E-02 
677	 1,54424516165575E-02 
678	 1,52638583657989E-02 
679	 1,51085138832126E-02 
680	 1,53876199146437E-02 
681	 1,55243021464916E-02 
682	 0,015499673519515 
683	 1,57507237806568E-02 
684	 1,58254264901745E-02 
685	 1,55639048950036E-02 
686	 1,59423889687111E-02 
687	 1,66365067648437E-02 
688	 1,68034973497884E-02 
689	 1,74398665468905E-02 
690	 1,85455760775202E-02 
691	 1,86855809754693E-02 
692	 0,019124181002735 
693	 2,09827468750701E-02 
694	 2,29329440450232E-02 
695	 2,47605155807591E-02 
696	 2,65152007695612E-02 
697	 0,028892808350185 
698	 3,21376020217352E-02 
699	 3,56791808669814E-02 
700	 3,92957808508764E-02 
701	 4,27782227562422E-02 
702	 4,69492230525807E-02 
703	 5,18753929288297E-02 
704	 5,70409151061179E-02 
705	 6,23879925005514E-02 
706	 6,77891043617398E-02 
707	 7,27390145711122E-02 
708	 7,74617546829986E-02 
709	 8,24895188355009E-02 
710	 8,75422667477041E-02 
711	 9,25269206387864E-02 
712	 9,74466668584642E-02 
713	 0,102083904529878 
714	 0,106259143159362 
715	 0,110046802875434 
716	 0,11368539587432 
717	 0,117782184449475 
718	 0,121469120276547 
719	 0,124463243380188 
720	 0,12746010969394 
721	 0,130307081744226 
722	 0,132745400705722 
723	 0,135312242461696 
724	 0,137925976355272 
725	 0,139849474018183 
726	 0,141741342555485 
727	 0,143922415351871 
728	 0,145476497708277 
729	 0,146614048001841 
730	 0,147927277821812 
731	 0,149094875884079 
732	 0,150102764165307 
733	 0,151247547365549 
734	 0,152303301933514 
735	 0,153085929642551 
736	 0,154026285427763 
737	 0,15494337096133 
738	 0,155136322836066 
739	 0,155527349288766 
740	 0,156383675712598 
741	 0,157030140909415 
742	 0,157500159429486 
743	 0,157899065992319 
744	 0,158305525043748 
745	 0,158754904582564 
746	 0,159253504051266 
747	 0,159812174453365 
748	 0,16038920105241 
749	 0,160703456082061 
750	 0,160841189920058 
751	 0,160984088245665 
752	 0,161178089398906 
753	 0,161406795248979 
754	 0,161483893201954 
755	 0,161681527237416 
756	 0,162152298748031 
757	 0,162313513988609 
758	 0,162351304271085 
759	 0,16283798728723 
760	 0,163305201106273 
761	 0,16357210774668 
762	 0,163599516833187 
763	 0,163521979773425 
764	 0,163487710652032 
765	 0,163722471316832 
766	 0,164093564549672 
767	 0,164136819890555 
768	 0,164171346416391 
769	 0,164321696077328 
770	 0,164526347017476 
771	 0,164785458102743 
772	 0,165098911443467 
773	 0,165296522874453 
774	 0,165353376055334 
775	 0,165305802692675 
776	 0,165389103519647 
777	 0,165665908755762 
778	 0,16557169535062 
779	 0,16545169065117 
780	 0,16589245546982 
781	 0,166428657393653 
782	 0,166735566110621 
783	 0,166100633280201 
784	 0,165773794466201 
785	 0,16645913029656 
786	 0,16655125330817 
787	 0,166307983146773 
788	 0,16661056119821 
789	 0,166750358667624 
790	 0,16666660386153 
791	 0,166967619176437 
792	 0,167382060903424 
793	 0,16766887643578 
794	 0,167866803421508 
795	 0,16791576749125 
796	 0,167667674155873 
797	 0,167530869818953 
798	 0,167627678899902 
799	 0,16771106964961 
800	 0,167918267878562 
801	 0,168347531998226 
802	 0,168363313143015 
803	 0,16818081935391 
804	 0,168716664469601 
805	 0,168983627878866 
806	 0,168705495564022 
807	 0,168443694318974 
808	 0,168530864979221 
809	 0,169234361329071 
810	 0,169695979443261 
811	 0,169813107411354 
812	 0,169879239556118 
813	 0,169895737319733 
814	 0,169904476303845 
815	 0,169999024914906 
816	 0,17018503547933 
817	 0,170454355012555 
818	 0,170832921795869 
819	 0,171144946314612 
820	 0,170822495618312 
821	 0,170798337920583 
822	 0,171392469851607 
823	 0,171526694955903 
824	 0,17135236645767 
825	 0,171211405626552 
826	 0,171468150686052 
827	 0,171914187143079 
828	 0,171503454566197 
829	 0,171435834870513 
830	 0,1721705813126 
831	 0,172245485585335 
832	 0,172072484758464 
833	 0,172419936006111 
834	 0,172777029937662 
835	 0,172878294456053 
836	 0,172213046666797 
837	 0,17189089419106 
838	 0,172426868535482 
839	 0,172762422614143 
840	 0,172775079580969 
841	 0,172480065829417 
842	 0,172316542594829 
843	 0,172513187789657 
844	 0,173481709517103 
845	 0,173762032280312 
846	 0,172817429349793 
847	 0,173094015355128 
848	 0,173859485428413 
849	 0,173699977078179 
850	 0,173738066848744 
851	 0,174087148228928 
852	 0,174265463453676 
853	 0,174199584867648 
854	 0,173889030638727 
855	 0,173632991689289 
856	 0,173635883479911 
857	 0,17410338614995 
858	 0,173917002817125 
859	 0,173251150532127 
860	 0,173597370935852 
861	 0,17410365422897 
862	 0,174289886225357 
863	 0,174078525023357 
864	 0,173960371417391 
865	 0,174569416077054 
866	 0,17538342405461 
867	 0,175951773374204 
868	 0,175331059667012 
869	 0,174868860537983 
870	 0,175199428520275 
871	 0,175792434511118 
872	 0,176152875425565 
873	 0,175782090897946 
874	 0,175771920558186 
875	 0,176092494514226 
876	 0,175853282973927 
877	 0,175896074999715 
878	 0,176484727023081 
879	 0,177001467610471 
880	 0,177255034984517 
881	 0,177132454741783 
882	 0,177306618826117 
883	 0,177715385102646 
884	 0,177846342913512 
885	 0,177666071452535 
886	 0,177373195812881 
887	 0,178155415163956 
888	 0,17868233649027 
889	 0,177795744720505 
890	 0,177906954775546 
891	 0,178817487306739 
892	 0,179138492756041 
893	 0,179236526676688 
894	 0,17929830414582 
895	 0,17987460654653 
896	 0,18001372987834 
897	 0,179076966736817 
898	 0,178391770506035 
899	 0,178410433559515 
900	 0,179536353267956 
901	 0,180002403052055 
902	 0,179686377668743 
903	 0,180350572205337 
904	 0,181020390006755 
905	 0,18104286719524 
906	 0,180417848783382 
907	 0,179798443771645 
908	 0,180080387603385 
909	 0,180531828849283 
910	 0,180932367119361 
911	 0,181326597627333 
912	 0,181104280892827 
913	 0,180252368390532 
914	 0,180495723120473 
915	 0,181108095525891 
916	 0,181113610682705 
917	 0,180763013663427 
918	 0,180418596593377 
919	 0,180957607694626 
920	 0,18094219877148 
921	 0,18021791666475 
922	 0,180657391998545 
923	 0,181190711009901 
924	 0,180843905987218 
925	 0,179737768937322 
926	 0,178767575625695 
927	 0,179500895128813 
928	 0,179531552865778 
929	 0,178750495774476 
930	 0,179484286640713 
931	 0,180188397332811 
932	 0,179954479293491 
933	 0,179343986893269 
934	 0,178682848887556 
935	 0,178303561118615 
936	 0,177897117662514 
937	 0,177463828322385 
938	 0,177216272586695 
939	 0,176870050248673 
940	 0,176215566313892 
941	 0,174718281405492 
942	 0,173798712327547 
943	 0,174566660975675 
944	 0,174897509172577 
945	 0,174382842820064 
946	 0,172982630347207 
947	 0,171950195652355 
948	 0,171471501045804 
949	 0,170613406600768 
950	 0,169815191566697 
951	 0,169279256204128 
952	 0,168639136766809 
953	 0,167907038032357 
954	 0,167124590335227 
955	 0,16558273115447 
956	 0,163721494862293 
957	 0,162935048767375 
958	 0,162582853565971 
959	 0,162454097528624 
960	 0,162668860679806 
961	 0,162491686860145 
962	 0,16148935115977 
963	 0,160932175368275 
964	 0,160747609140401 
965	 0,160518759893765 
966	 0,161655736736313 
967	 0,163022358174883 
968	 0,159897484836006 
969	 0,158255064269617 
970	 0,16022901451128 
971	 0,162157833550503 
972	 0,162805548569397 
973	 0,161433538374095 
974	 0,160354885020546 
975	 0,160300743321061 
976	 0,161819958432981 
977	 0,161240945764141 
978	 0,158858648803284 
979	 0,159283640466551 
980	 0,161310239360758 
981	 0,163611264721355 
982	 0,162512901351099 
983	 0,160053672031243 
984	 0,158752831760016 
985	 0,158924991110831 
986	 0,160300422812661 
987	 0,162052816567976 
988	 0,16442686115139 
989	 0,166622214907479 
990	 0,165790789317196 
991	 0,165729653750012 
992	 0,167737049545299 
993	 0,16634158347172 
994	 0,164939443456699 
995	 0,16705646379667 
996	 0,166110504165427 
997	 0,164276028490987 
998	 0,167994740624653 
999	 0,171408688637986 
1000	 0,172321996867463 
1001	 0,169367315697789 
1002	 0,1680544247972 
1003	 0,170897261851603 
1004	 0,17397943325347 
1005	 0,17621638318022 
1006	 0,176673459491389 
1007	 0,173494102150235 
1008	 0,170105075476497 
1009	 0,172734968511156 
1010	 0,177553033513698 
1011	 0,181864841724688 
1012	 0,18119564418966 
1013	 0,179264925849044 
1014	 0,177927592936212 
1015	 0,17695553440455 
1016	 0,177375700815958 
1017	 0,17951437092528 
1018	 0,179027085940559 
1019	 0,176802798546932 
1020	 0,175221776229316 
1021	 0,175383431067313 
1022	 0,177877929092209 
1023	 0,183788845190038 
1024	 0,186159852061069 
1025	 0,183776788901339 
1026	 0,183742720743482 
1027	 0,184965778053846 
1028	 0,185923338065298 
1029	 0,18114770405283 
1030	 0,179169246769813 
1031	 0,189331669565758 
1032	 0,192378669237291 
1033	 0,187473987846031 
1034	 0,180881331360053 
1035	 0,178978073130706 
1036	 0,183207623630958 
1037	 0,190978484893889 
1038	 0,196165444294285 
1039	 0,195687361793155 
1040	 0,192882596264206 
1041	 0,189306803276543 
1042	 0,186791211663374 
1043	 0,188930956324461 
1044	 0,192906980766657 
1045	 0,194588574286935 
1046	 0,196427142965284 
1047	 0,197893250902077 
1048	 0,19726415115622 
1049	 0,192372733214492 
1050	 0,187068844299044 
1051	 0,198061078106209 
1052	 0,208806526028415 
1053	 0,210468401067746 
1054	 0,205360473153183 
1055	 0,197419325944886 
1056	 0,191444188990557 
1057	 0,196212516262684 
1058	 0,201960505721405 
1059	 0,19398625178998 
1060	 0,194034519777894 
1061	 0,200346512300527 
1062	 0,198854300666664 
1063	 0,197448486753493 
1064	 0,198622823728926 
1065	 0,202647074811019 
1066	 0,208674641419582 
1067	 0,213631475385201 
1068	 0,203410124622277 
1069	 0,196022012453022 
1070	 0,203624573243209 
1071	 0,202236834640394 
1072	 0,199527893543498 
1073	 0,206660721652423 
1074	 0,205637704329303 
1075	 0,199492969854596 
