Wavelength	GRA-VIE00070.asd
325	 0,131997684665635 
326	 0,153254302580162 
327	 0,198839895315429 
328	 0,20381870469027 
329	 0,208696353255967 
330	 0,202312894141403 
331	 0,183234251566647 
332	 0,227375231014829 
333	 0,301507154018823 
334	 0,1789425759557 
335	 0,145562563484752 
336	 0,232421221908456 
337	 0,221510844311347 
338	 0,199898387921254 
339	 0,223490473782316 
340	 0,172728378008212 
341	 7,52339286602357E-02 
342	 8,45050949161447E-02 
343	 0,113011712506975 
344	 0,129002716810647 
345	 0,135502914362577 
346	 0,139294685387236 
347	 0,144276796578413 
348	 0,100614315180386 
349	 4,51304576003008E-02 
350	 9,80251029664547E-02 
351	 0,13180783079141 
352	 0,117392971515938 
353	 0,11783841846682 
354	 0,131311460452793 
355	 0,148621076711044 
356	 0,138683211844806 
357	 0,109957059395656 
358	 0,105945637577116 
359	 0,10164583013362 
360	 0,086867300008004 
361	 0,078718518487487 
362	 8,49946417404131E-02 
363	 0,112730601791157 
364	 0,117053124674242 
365	 9,88510334227663E-02 
366	 0,102772943149939 
367	 0,11264333767686 
368	 0,115795635060853 
369	 0,098791938951685 
370	 8,02263209315707E-02 
371	 9,36139957253136E-02 
372	 0,101883015284783 
373	 9,74067582502821E-02 
374	 9,73670085568449E-02 
375	 9,87840910512047E-02 
376	 9,91040156920546E-02 
377	 0,101416684779277 
378	 0,100473358185283 
379	 8,33279784990105E-02 
380	 7,62714471655305E-02 
381	 0,08292014281899 
382	 8,17858888502468E-02 
383	 8,53359397539994E-02 
384	 0,105370802080177 
385	 0,114745722336465 
386	 0,109959328154308 
387	 9,31332048740591E-02 
388	 8,94392744844755E-02 
389	 0,106058151410367 
390	 0,118197372290782 
391	 0,119544437288308 
392	 0,105469342614229 
393	 8,40313270818244E-02 
394	 0,06787790866025 
395	 8,82363791227844E-02 
396	 0,110713482490921 
397	 0,117894705086191 
398	 0,109354488618056 
399	 9,20940964490014E-02 
400	 7,41205383802655E-02 
401	 7,35715927291126E-02 
402	 8,72927418169872E-02 
403	 0,084047089281874 
404	 0,081084915090496 
405	 0,088557804588016 
406	 7,88901837158231E-02 
407	 6,46466540673322E-02 
408	 8,00075325031616E-02 
409	 8,76931469022437E-02 
410	 8,09792680207037E-02 
411	 8,03198224798037E-02 
412	 8,38012696385309E-02 
413	 8,80660121984214E-02 
414	 8,19234219715835E-02 
415	 7,10181313836627E-02 
416	 7,58502025293042E-02 
417	 7,80787608377681E-02 
418	 7,22275166070067E-02 
419	 7,16940102282061E-02 
420	 7,42802390988549E-02 
421	 7,58094743612992E-02 
422	 7,47860760170219E-02 
423	 7,23850245479136E-02 
424	 7,45135016094104E-02 
425	 7,29881444484214E-02 
426	 6,49467059652245E-02 
427	 7,12924553974454E-02 
428	 8,29835856643741E-02 
429	 8,00252014473555E-02 
430	 7,46762299174749E-02 
431	 7,15419021019571E-02 
432	 0,073775041643019 
433	 7,65615861893484E-02 
434	 7,58531304883614E-02 
435	 7,88725808804998E-02 
436	 8,29781394799411E-02 
437	 0,078206614298784 
438	 7,41807796227498E-02 
439	 7,47372598537284E-02 
440	 7,71449836978129E-02 
441	 7,83743224969492E-02 
442	 7,51387725990015E-02 
443	 7,30980140969925E-02 
444	 7,37440249898762E-02 
445	 7,67594819827222E-02 
446	 8,00489986765048E-02 
447	 8,19320518617678E-02 
448	 8,04596968962867E-02 
449	 7,74943836746985E-02 
450	 7,67490448278679E-02 
451	 7,73917178266117E-02 
452	 7,88172483448688E-02 
453	 7,93972652294975E-02 
454	 7,89031082278835E-02 
455	 7,74380901237335E-02 
456	 7,91934835014852E-02 
457	 8,24376573155556E-02 
458	 8,01904035457487E-02 
459	 7,91824574877894E-02 
460	 8,14554614320319E-02 
461	 8,06812620727953E-02 
462	 7,87190690719349E-02 
463	 7,88191931413945E-02 
464	 7,86789208545784E-02 
465	 7,81066391973165E-02 
466	 7,83302161877598E-02 
467	 7,88140130089512E-02 
468	 7,90806648638344E-02 
469	 0,07823667889683 
470	 7,70186991422904E-02 
471	 7,70985932901086E-02 
472	 7,69591499345241E-02 
473	 7,64238972204418E-02 
474	 7,66684823538294E-02 
475	 7,84542776577332E-02 
476	 0,082126356263691 
477	 8,03373439768388E-02 
478	 0,075173225961603 
479	 0,07648038587221 
480	 7,87432228565633E-02 
481	 7,90993687293871E-02 
482	 7,62967316908422E-02 
483	 7,40213896325632E-02 
484	 7,79516179360709E-02 
485	 8,01728350700683E-02 
486	 7,89471771257048E-02 
487	 0,076252567928107 
488	 7,46840193748551E-02 
489	 0,076068633548255 
490	 0,078237852149135 
491	 7,93626634156644E-02 
492	 7,59438205694749E-02 
493	 7,39947983401354E-02 
494	 7,53699487245523E-02 
495	 0,077239833020398 
496	 7,77210403038835E-02 
497	 7,50753267291236E-02 
498	 7,44988093063833E-02 
499	 7,56396667182931E-02 
500	 7,30516292036171E-02 
501	 0,072308722911307 
502	 0,075836881773746 
503	 7,59711793455273E-02 
504	 7,42913156965638E-02 
505	 7,53156294648966E-02 
506	 7,60817085065652E-02 
507	 7,58081425000472E-02 
508	 7,47302981204802E-02 
509	 0,074309476545912 
510	 7,57742733369965E-02 
511	 7,76223811790984E-02 
512	 7,88739441145699E-02 
513	 7,79049420300464E-02 
514	 7,68524238331066E-02 
515	 7,67976834630971E-02 
516	 7,77547194293609E-02 
517	 7,91169826209842E-02 
518	 8,01115112263136E-02 
519	 8,00778852834931E-02 
520	 7,93404661690397E-02 
521	 7,98415399902746E-02 
522	 8,01234381488053E-02 
523	 7,92158508285511E-02 
524	 0,07872776594248 
525	 7,88284568973974E-02 
526	 7,94077228366526E-02 
527	 0,079537052425551 
528	 7,88783235155732E-02 
529	 7,76757907364614E-02 
530	 7,68386275538166E-02 
531	 7,73254890469867E-02 
532	 7,81761630849996E-02 
533	 7,88947802344144E-02 
534	 7,88325348741823E-02 
535	 7,85659780643533E-02 
536	 7,84811916276062E-02 
537	 7,87565199385061E-02 
538	 7,89612211370612E-02 
539	 7,81988401256647E-02 
540	 7,78929890605453E-02 
541	 7,84400223959406E-02 
542	 7,94853018033254E-02 
543	 7,99478687393751E-02 
544	 7,89008302754406E-02 
545	 7,86924268969324E-02 
546	 7,93381030003929E-02 
547	 7,94896885701631E-02 
548	 7,93009288000044E-02 
549	 7,89474574060566E-02 
550	 7,93805642132182E-02 
551	 7,99273644204537E-02 
552	 7,93617863630156E-02 
553	 7,92238762559393E-02 
554	 7,95786870505838E-02 
555	 7,88737911959737E-02 
556	 7,78524195009298E-02 
557	 7,72701389659484E-02 
558	 7,83170239558946E-02 
559	 7,99447269625245E-02 
560	 7,91148108997159E-02 
561	 7,78278107934091E-02 
562	 7,70595397159179E-02 
563	 7,74386344535498E-02 
564	 7,81707975507942E-02 
565	 7,81380248068674E-02 
566	 7,79530085677998E-02 
567	 7,78883747445418E-02 
568	 7,84091474758309E-02 
569	 7,87836446074798E-02 
570	 7,85464427417337E-02 
571	 7,84251673563571E-02 
572	 7,87233624374726E-02 
573	 7,99022101590491E-02 
574	 8,06281450891182E-02 
575	 8,06964078552026E-02 
576	 8,19058587436445E-02 
577	 8,31815638427263E-02 
578	 8,32425722279276E-02 
579	 8,47324548077264E-02 
580	 8,71745199142647E-02 
581	 0,08724199303285 
582	 8,70708386183764E-02 
583	 8,78286912799912E-02 
584	 8,84484753373502E-02 
585	 8,89914770441924E-02 
586	 8,98099740652136E-02 
587	 9,03816875155209E-02 
588	 9,06388670723144E-02 
589	 9,09994121831471E-02 
590	 9,15574152193094E-02 
591	 9,23521000046514E-02 
592	 9,28548527858513E-02 
593	 9,30977657251509E-02 
594	 9,35265190491555E-02 
595	 9,37098950000907E-02 
596	 9,35697146508801E-02 
597	 9,39479149683909E-02 
598	 0,094551579706497 
599	 9,48502373175429E-02 
600	 9,41889894679081E-02 
601	 9,30200252887124E-02 
602	 0,093987212344344 
603	 9,43757907519986E-02 
604	 9,22654296845676E-02 
605	 9,19424973325816E-02 
606	 9,28704081632653E-02 
607	 9,18700409591797E-02 
608	 0,091049038286727 
609	 9,09343701778061E-02 
610	 8,98827599423565E-02 
611	 8,89935748179961E-02 
612	 8,97448061446262E-02 
613	 8,95721834637567E-02 
614	 8,84721254375123E-02 
615	 8,87223021346873E-02 
616	 0,088851570155877 
617	 8,79975904989402E-02 
618	 0,087308392732603 
619	 8,70178270273102E-02 
620	 8,72255561392489E-02 
621	 8,76967895045201E-02 
622	 8,81364851163062E-02 
623	 8,77474945884763E-02 
624	 0,087138313745058 
625	 8,69849457220903E-02 
626	 8,70330949538818E-02 
627	 8,71874663883745E-02 
628	 8,73089180153387E-02 
629	 0,087410164230291 
630	 0,087553070115414 
631	 8,81578058970706E-02 
632	 8,88946675382097E-02 
633	 8,91498125048661E-02 
634	 8,95961648670452E-02 
635	 0,090295688029361 
636	 0,090611755228682 
637	 0,091104274604981 
638	 9,21981665090069E-02 
639	 9,28574131771661E-02 
640	 9,30903902638537E-02 
641	 9,33493045193575E-02 
642	 9,39851206912083E-02 
643	 9,49954573267693E-02 
644	 9,53190853272782E-02 
645	 9,52946476593097E-02 
646	 0,095492625288392 
647	 9,57033780550648E-02 
648	 9,58311514073744E-02 
649	 9,57291034475952E-02 
650	 9,54124705669964E-02 
651	 9,48951988445012E-02 
652	 9,41957215980561E-02 
653	 9,34385010212874E-02 
654	 9,28644500050322E-02 
655	 9,20572638765104E-02 
656	 9,09943099121528E-02 
657	 9,03555681241924E-02 
658	 8,94775879608257E-02 
659	 8,76933330218146E-02 
660	 8,65483374395533E-02 
661	 8,59771348181972E-02 
662	 8,47822364441882E-02 
663	 8,34805342208575E-02 
664	 0,082373003155233 
665	 8,16638178781912E-02 
666	 0,081201295842584 
667	 8,07140155598851E-02 
668	 8,01500046439385E-02 
669	 0,079519121396564 
670	 7,88935401244236E-02 
671	 7,86702081878322E-02 
672	 7,90996001827615E-02 
673	 7,93212260184154E-02 
674	 7,91961391414422E-02 
675	 7,87703995058014E-02 
676	 7,85038352230633E-02 
677	 7,85065289148847E-02 
678	 7,81090035710835E-02 
679	 7,79600893695777E-02 
680	 7,88623420493165E-02 
681	 0,079168786036536 
682	 7,88635753645583E-02 
683	 7,91587938910268E-02 
684	 7,98737618407031E-02 
685	 8,08640924910277E-02 
686	 8,16714336184552E-02 
687	 8,26755743892555E-02 
688	 8,46082613042129E-02 
689	 0,087267133873298 
690	 9,03515357894875E-02 
691	 9,27796507704645E-02 
692	 9,56876962512433E-02 
693	 0,100130541576855 
694	 0,105590022600079 
695	 0,111932265140473 
696	 0,119010682523366 
697	 0,127089993787851 
698	 0,136274065028841 
699	 0,146550895285007 
700	 0,157572413269016 
701	 0,168890465717643 
702	 0,18114977822919 
703	 0,194168565992482 
704	 0,206967479572101 
705	 0,219795518061297 
706	 0,232773627564919 
707	 0,245790788890158 
708	 0,258620464765542 
709	 0,270896887375147 
710	 0,282545795545034 
711	 0,29360752722442 
712	 0,304430870399811 
713	 0,314721238560146 
714	 0,324224749089281 
715	 0,332991535267897 
716	 0,341263753171671 
717	 0,349689910234331 
718	 0,357397155789064 
719	 0,364036352611457 
720	 0,369809218744227 
721	 0,375211659134865 
722	 0,380862330821309 
723	 0,386280554513367 
724	 0,391165333476191 
725	 0,39499613109764 
726	 0,398483573929536 
727	 0,402046699418104 
728	 0,40516222676465 
729	 0,40793614931518 
730	 0,41067353363166 
731	 0,413063821867152 
732	 0,415114421092651 
733	 0,417222325149119 
734	 0,419253040367216 
735	 0,421067582550299 
736	 0,422650117854798 
737	 0,42397402852689 
738	 0,424895663670163 
739	 0,426125775710873 
740	 0,427784814744503 
741	 0,428819638638331 
742	 0,429563193030798 
743	 0,430495178504601 
744	 0,431191499721679 
745	 0,431762714135527 
746	 0,432823796441996 
747	 0,433747553158426 
748	 0,434244574681222 
749	 0,434836775507924 
750	 0,435557125954906 
751	 0,43636504292381 
752	 0,436957269436663 
753	 0,437265394889193 
754	 0,437333357928358 
755	 0,437714621334822 
756	 0,438729696713432 
757	 0,439402276150643 
758	 0,439611077288629 
759	 0,439375358054574 
760	 0,439742000072708 
761	 0,440767385501581 
762	 0,440845336490136 
763	 0,440701851649988 
764	 0,441083231426292 
765	 0,441546576505022 
766	 0,441956255541009 
767	 0,44217864805755 
768	 0,442348410036438 
769	 0,442520836652454 
770	 0,442631442097655 
771	 0,442865594746395 
772	 0,443428120307994 
773	 0,443681819605808 
774	 0,443671293682139 
775	 0,444025343545479 
776	 0,444355765896677 
777	 0,444459250596852 
778	 0,444380605599494 
779	 0,444351998379208 
780	 0,444699166730722 
781	 0,444883081205081 
782	 0,444859527672335 
783	 0,444963971276786 
784	 0,445411504749258 
785	 0,446193778886235 
786	 0,446036576719814 
787	 0,445301907772912 
788	 0,444900151070306 
789	 0,445283601633047 
790	 0,446313319172224 
791	 0,44673668751116 
792	 0,446737642158928 
793	 0,446561197889013 
794	 0,446935448324188 
795	 0,447493707248565 
796	 0,447147160545217 
797	 0,446898112432987 
798	 0,447105295775494 
799	 0,447745914143432 
800	 0,448279848989932 
801	 0,448217370267086 
802	 0,447950079941546 
803	 0,447801049801342 
804	 0,4483914889142 
805	 0,448899615618623 
806	 0,449031259390257 
807	 0,449102279118247 
808	 0,449071131921595 
809	 0,448905405654051 
810	 0,449279879090022 
811	 0,45000287532002 
812	 0,450148222605815 
813	 0,450250615619883 
814	 0,450480267374783 
815	 0,450466631877 
816	 0,450499062047565 
817	 0,450941005283993 
818	 0,451510678111319 
819	 0,452048400645044 
820	 0,452299925664755 
821	 0,452593152446468 
822	 0,453015882689949 
823	 0,453092539274324 
824	 0,452918985175667 
825	 0,452687010539631 
826	 0,452878805794978 
827	 0,453365162133718 
828	 0,453385009280762 
829	 0,453064279602498 
830	 0,452596303786092 
831	 0,452795469159062 
832	 0,45332877435617 
833	 0,453615081663541 
834	 0,453927538095399 
835	 0,454216412307062 
836	 0,454154520558692 
837	 0,454132457850992 
838	 0,454332174799703 
839	 0,454349548272486 
840	 0,454415168860327 
841	 0,454905365849633 
842	 0,454985963981422 
843	 0,454785564925004 
844	 0,455578194772596 
845	 0,455771299936626 
846	 0,454799548921813 
847	 0,455320895472679 
848	 0,456280109319993 
849	 0,455795372621029 
850	 0,455918012861476 
851	 0,456630439083028 
852	 0,456090249443669 
853	 0,455938257586283 
854	 0,456834314495781 
855	 0,45669321571669 
856	 0,456351618499325 
857	 0,457236607131968 
858	 0,457779376838499 
859	 0,457685160631051 
860	 0,457241236801241 
861	 0,457167960241949 
862	 0,457702450879042 
863	 0,457487309529583 
864	 0,457293034278212 
865	 0,458268598608312 
866	 0,458718795392265 
867	 0,458499699798579 
868	 0,458465885880574 
869	 0,458501322710495 
870	 0,458585585790822 
871	 0,458761612854097 
872	 0,458971141661319 
873	 0,459132655474564 
874	 0,458926090559798 
875	 0,458584703521732 
876	 0,458958663342389 
877	 0,459377023621258 
878	 0,459579999380427 
879	 0,459944745823748 
880	 0,459954329199873 
881	 0,459121122498123 
882	 0,45916012793271 
883	 0,459869711983544 
884	 0,459739824006612 
885	 0,459707774044526 
886	 0,460023581154563 
887	 0,460277154824706 
888	 0,460456554531636 
889	 0,460565691051924 
890	 0,460526835965689 
891	 0,460513003712201 
892	 0,460978958181207 
893	 0,460875078123192 
894	 0,460195811454817 
895	 0,46057469590763 
896	 0,460888595573647 
897	 0,460356500422822 
898	 0,460694331481901 
899	 0,461513536506765 
900	 0,461670137957934 
901	 0,461706351809206 
902	 0,461783530762996 
903	 0,46199298577247 
904	 0,462094093079381 
905	 0,46192948430396 
906	 0,461563676687045 
907	 0,461116538149122 
908	 0,460737538895318 
909	 0,460931795095514 
910	 0,461586387616757 
911	 0,461977526674062 
912	 0,46222560371272 
913	 0,462277247788955 
914	 0,461540038780805 
915	 0,461120856941381 
916	 0,462173364616631 
917	 0,46233296617947 
918	 0,461571758845484 
919	 0,461128153146465 
920	 0,460353450448218 
921	 0,459447518972232 
922	 0,460222849486189 
923	 0,460750414918517 
924	 0,459524682551307 
925	 0,458837759944704 
926	 0,458769530894923 
927	 0,458787017735034 
928	 0,458579264578671 
929	 0,458201787839033 
930	 0,458331298266709 
931	 0,458430682396081 
932	 0,458151796584929 
933	 0,457592670471041 
934	 0,456621625721155 
935	 0,455110410089514 
936	 0,454664482409846 
937	 0,454727767292033 
938	 0,452391234153763 
939	 0,451629438100188 
940	 0,453077103005084 
941	 0,451678944103545 
942	 0,449675986122548 
943	 0,44927613411499 
944	 0,449392202035166 
945	 0,449260348406088 
946	 0,447811030351732 
947	 0,446261373822001 
948	 0,444817518330095 
949	 0,442705740108773 
950	 0,441242124284726 
951	 0,440898898594054 
952	 0,439467861372741 
953	 0,437680978584197 
954	 0,436675320447773 
955	 0,435334160586747 
956	 0,43358461548904 
957	 0,431660030461678 
958	 0,430903794918192 
959	 0,431157621942767 
960	 0,429305738192085 
961	 0,427542405211623 
962	 0,427370330497914 
963	 0,425739333022923 
964	 0,424333771378659 
965	 0,426245835328052 
966	 0,427561255056956 
967	 0,427349292006499 
968	 0,425976563367353 
969	 0,425079526365497 
970	 0,425282204815628 
971	 0,425298714906638 
972	 0,425130813883402 
973	 0,424860695386496 
974	 0,424597701224211 
975	 0,424324021137233 
976	 0,423938084201588 
977	 0,424270313884252 
978	 0,425238366704097 
979	 0,425772522636026 
980	 0,426031032451727 
981	 0,426111200825413 
982	 0,426323588878968 
983	 0,4260641159568 
984	 0,424861899686547 
985	 0,42487419161655 
986	 0,425764614229353 
987	 0,426042070135578 
988	 0,426579452062277 
989	 0,427598615554246 
990	 0,429026399812763 
991	 0,430777786069306 
992	 0,432434840242096 
993	 0,432079397526393 
994	 0,431377875580688 
995	 0,432043055056419 
996	 0,430947301041553 
997	 0,429880524989821 
998	 0,433299042246442 
999	 0,435877931672686 
1000	 0,436337778894065 
1001	 0,436301596539652 
1002	 0,435929605337383 
1003	 0,435985867208576 
1004	 0,439906449031023 
1005	 0,442998790402329 
1006	 0,440769441386476 
1007	 0,437730531867618 
1008	 0,436299796089904 
1009	 0,439050716158131 
1010	 0,443145348834481 
1011	 0,446431604546955 
1012	 0,445539034597853 
1013	 0,442872162625088 
1014	 0,440680217412604 
1015	 0,443759907527694 
1016	 0,44799044887258 
1017	 0,449348054829518 
1018	 0,448072683756377 
1019	 0,446017364433977 
1020	 0,445942035114246 
1021	 0,447281687851653 
1022	 0,449337864366591 
1023	 0,450528026505629 
1024	 0,451465968123532 
1025	 0,452630955659444 
1026	 0,455379290188894 
1027	 0,4578727203037 
1028	 0,458588499479529 
1029	 0,45639964621952 
1030	 0,454632903255015 
1031	 0,456991749127285 
1032	 0,457869345970303 
1033	 0,457159138779333 
1034	 0,456898698734285 
1035	 0,456843961111132 
1036	 0,457559827230873 
1037	 0,461304409441772 
1038	 0,462595010475598 
1039	 0,460072538792017 
1040	 0,461693395320588 
1041	 0,462331023873995 
1042	 0,458537085689619 
1043	 0,461805614444876 
1044	 0,465838793467792 
1045	 0,460979819506247 
1046	 0,460537886796221 
1047	 0,463453148510684 
1048	 0,45996869335505 
1049	 0,459367893002432 
1050	 0,462931547969287 
1051	 0,463502946074332 
1052	 0,466476625198919 
1053	 0,472794484846973 
1054	 0,472519829465925 
1055	 0,470820916861024 
1056	 0,472465947890593 
1057	 0,473532956387199 
1058	 0,471599759122625 
1059	 0,464641279822057 
1060	 0,465596939053609 
1061	 0,469677675201484 
1062	 0,459386970109949 
1063	 0,462897033946188 
1064	 0,479921373432149 
1065	 0,475934346877253 
1066	 0,47103509269233 
1067	 0,473363279030342 
1068	 0,476851545014708 
1069	 0,477057464424217 
1070	 0,471864748220499 
1071	 0,470849987319267 
1072	 0,470736912412094 
1073	 0,466719218157767 
1074	 0,466133722068516 
1075	 0,46992236921867 
