Wavelength	GRA-VIE00915.asd
325	 8,11607385444107E-02 
326	-5,05778344372696E-03 
327	 6,07023336468751E-02 
328	 0,165722369185583 
329	 0,109810482184519 
330	 6,12432638815929E-02 
331	 0,16281577802385 
332	 0,269105791680739 
333	 0,342326544947395 
334	 0,079656207482543 
335	 3,36994779486453E-02 
336	 0,238822817668559 
337	 0,231176481585661 
338	 0,174931739125014 
339	 0,181386529944226 
340	 0,16273384182471 
341	 0,117946159862679 
342	 7,84948912577599E-02 
343	 0,129752063088571 
344	 0,235877381570168 
345	 0,203528193522215 
346	 0,121361553379668 
347	 9,68577407471898E-02 
348	 8,58018271886567E-02 
349	 0,083781116350477 
350	 0,103529623455503 
351	 9,93052408393779E-02 
352	 0,064271520650173 
353	 6,13890788654382E-02 
354	 7,41749825498118E-02 
355	 7,59764709225501E-02 
356	 7,08130976115741E-02 
357	 0,055711629691873 
358	 1,34069659427094E-02 
359	 1,21867608662264E-02 
360	 7,14122116254872E-02 
361	 6,82465748341803E-02 
362	 4,85315851236634E-02 
363	 9,41568894273055E-02 
364	 9,98514541853435E-02 
365	 5,79703657763816E-02 
366	 2,81908499231236E-02 
367	 2,48452848581106E-02 
368	 5,09166085432689E-02 
369	 5,20056703381026E-02 
370	 4,26466872840758E-02 
371	 6,00856572871472E-02 
372	 7,50188368803051E-02 
373	 7,89559390757294E-02 
374	 7,68568994808917E-02 
375	 0,06016319887205 
376	 2,65650181820889E-02 
377	 3,79370944400788E-02 
378	 7,26858082200758E-02 
379	 5,90229245848135E-02 
380	 5,19363210904289E-02 
381	 6,25639855782071E-02 
382	 7,03501536646145E-02 
383	 6,77300391944433E-02 
384	 4,99746470686446E-02 
385	 5,60168546288264E-02 
386	 7,46585367660573E-02 
387	 6,19342362449229E-02 
388	 5,21638386927414E-02 
389	 5,73877097665545E-02 
390	 6,26334018723911E-02 
391	 6,48605402934222E-02 
392	 6,19272938691812E-02 
393	 4,71980596131273E-02 
394	 0,029302906054183 
395	 3,92620762719391E-02 
396	 5,05931804551361E-02 
397	 5,07514673721575E-02 
398	 4,90088567939543E-02 
399	 4,17427433547925E-02 
400	 2,03743855941936E-02 
401	 2,38191845104372E-02 
402	 4,86697811938764E-02 
403	 0,044465582557197 
404	 3,60246382612117E-02 
405	 3,99752228622834E-02 
406	 3,60822148040504E-02 
407	 2,89454082435491E-02 
408	 0,033870950638159 
409	 3,50471787061922E-02 
410	 3,06968275341317E-02 
411	 3,41641148645769E-02 
412	 4,02181587018869E-02 
413	 4,31258405493268E-02 
414	 3,69978642787099E-02 
415	 2,74659032773058E-02 
416	 3,26958376355508E-02 
417	 3,24920727665196E-02 
418	 0,022543884903551 
419	 2,87588249475198E-02 
420	 3,73243130346583E-02 
421	 2,84065539752218E-02 
422	 2,34709401882921E-02 
423	 2,57446387082847E-02 
424	 2,88742899667327E-02 
425	 2,92012026419045E-02 
426	 2,50580209839469E-02 
427	 2,32517497620669E-02 
428	 2,36103655756911E-02 
429	 2,40131371867439E-02 
430	 2,41326252604671E-02 
431	 2,44280133905771E-02 
432	 2,81971599089531E-02 
433	 3,05767356285843E-02 
434	 2,75604670494723E-02 
435	 2,59760285742193E-02 
436	 2,63478492823441E-02 
437	 2,64535990499901E-02 
438	 2,70855839652452E-02 
439	 2,85974153906968E-02 
440	 0,032164073661174 
441	 3,35603816005013E-02 
442	 2,76879421395925E-02 
443	 2,50598635705174E-02 
444	 2,67418989676474E-02 
445	 2,62040583532724E-02 
446	 2,77687498361404E-02 
447	 3,28854831399747E-02 
448	 3,06429637465258E-02 
449	 2,48242761619571E-02 
450	 2,50185613024397E-02 
451	 2,65011536368407E-02 
452	 2,78806939352851E-02 
453	 2,95531811589218E-02 
454	 2,97927782019276E-02 
455	 2,73388175478442E-02 
456	 2,83154547631046E-02 
457	 0,031342203919609 
458	 2,94471261708124E-02 
459	 2,80392780424582E-02 
460	 2,86161238863994E-02 
461	 2,52269383070819E-02 
462	 2,18740596689186E-02 
463	 2,44871438405098E-02 
464	 2,63768034610656E-02 
465	 2,65405438692354E-02 
466	 2,80639707373224E-02 
467	 2,84241694252997E-02 
468	 2,63515580912555E-02 
469	 2,61963310391583E-02 
470	 2,71228078334591E-02 
471	 0,025925803907281 
472	 2,70533768389651E-02 
473	 3,03658929861963E-02 
474	 2,84871540653194E-02 
475	 2,52167777705742E-02 
476	 2,46800221299624E-02 
477	 2,58101048095585E-02 
478	 2,74210270472195E-02 
479	 2,69092708492426E-02 
480	 2,57661586346176E-02 
481	 2,47585158759256E-02 
482	 2,39112241403948E-02 
483	 2,33132233748272E-02 
484	 2,29675208434836E-02 
485	 0,024852407473949 
486	 2,82420846359205E-02 
487	 2,86434150578287E-02 
488	 2,85261186966591E-02 
489	 0,029570892550921 
490	 2,82653672568624E-02 
491	 2,53772605348123E-02 
492	 2,33615951251469E-02 
493	 0,023493157986841 
494	 2,56735152575819E-02 
495	 2,64699453959365E-02 
496	 2,54264965656795E-02 
497	 2,24568469124463E-02 
498	 2,27986131921405E-02 
499	 2,55889868503273E-02 
500	 2,41407322339944E-02 
501	 2,31189287500001E-02 
502	 2,47518393651066E-02 
503	 2,42713885576341E-02 
504	 2,32140062077327E-02 
505	 2,54283576527768E-02 
506	 2,60165012208969E-02 
507	 2,42307062668035E-02 
508	 2,35641896910647E-02 
509	 0,023409077804154 
510	 2,31462449630987E-02 
511	 2,40635008530635E-02 
512	 2,58346108247012E-02 
513	 2,74664568248803E-02 
514	 2,73495991957823E-02 
515	 0,025319766933023 
516	 0,025438630748985 
517	 2,64555465791587E-02 
518	 2,60462973029819E-02 
519	 2,62058350202313E-02 
520	 2,69287937791933E-02 
521	 2,64044117788383E-02 
522	 2,58569655732135E-02 
523	 2,60924156317422E-02 
524	 2,52896966738893E-02 
525	 2,44790245767645E-02 
526	 2,68908318318229E-02 
527	 2,79287249648483E-02 
528	 2,63338432675198E-02 
529	 2,46819837276961E-02 
530	 2,39100652976427E-02 
531	 2,47869713510042E-02 
532	 2,64949254783203E-02 
533	 2,79941515327659E-02 
534	 2,68689713725503E-02 
535	 0,025970686741226 
536	 2,69149825081619E-02 
537	 2,80980807582934E-02 
538	 2,86547234555092E-02 
539	 2,73538124700974E-02 
540	 2,67641083811221E-02 
541	 2,74201500054178E-02 
542	 2,75908527129326E-02 
543	 2,73003907118017E-02 
544	 2,67148795147454E-02 
545	 2,70005121938981E-02 
546	 2,80019981656617E-02 
547	 2,86476695729385E-02 
548	 2,89378267683011E-02 
549	 2,89340766038848E-02 
550	 2,93615120274914E-02 
551	 2,98586831497483E-02 
552	 2,97124014513865E-02 
553	 2,99209358130784E-02 
554	 3,05176388452082E-02 
555	 3,04711133311192E-02 
556	 3,01939445622692E-02 
557	 0,030111461306258 
558	 3,08800069902558E-02 
559	 3,20554081453057E-02 
560	 3,23073673692464E-02 
561	 3,22764559688799E-02 
562	 3,22576453640402E-02 
563	 3,25005970121665E-02 
564	 3,28340442313295E-02 
565	 0,032997158912676 
566	 3,28755535722522E-02 
567	 3,28741798755358E-02 
568	 3,47442189165283E-02 
569	 3,56094282780079E-02 
570	 3,37312615907837E-02 
571	 3,30866408803832E-02 
572	 3,37189357999688E-02 
573	 3,43922842831127E-02 
574	 3,43808947020551E-02 
575	 0,033579343212705 
576	 3,34417865910837E-02 
577	 3,33277820479973E-02 
578	 3,24392450154634E-02 
579	 0,032774265420328 
580	 3,39912993664859E-02 
581	 3,36869980395506E-02 
582	 3,28682076404212E-02 
583	 3,21503981521559E-02 
584	 3,16406637800026E-02 
585	 3,12834849286505E-02 
586	 3,08447119457499E-02 
587	 3,12112826261611E-02 
588	 3,22724106505862E-02 
589	 3,23932027443825E-02 
590	 3,21323372389385E-02 
591	 3,20670174969913E-02 
592	 3,16176597427143E-02 
593	 0,031136900670277 
594	 3,18413211672785E-02 
595	 3,24950821197164E-02 
596	 3,25751240645992E-02 
597	 3,29149619083828E-02 
598	 3,31352445652027E-02 
599	 3,25420657674775E-02 
600	 3,22196041789497E-02 
601	 3,23979725062731E-02 
602	 3,27649375107918E-02 
603	 3,25571022470752E-02 
604	 3,13237405391431E-02 
605	 3,11790217833239E-02 
606	 3,16982904850252E-02 
607	 3,09344775884373E-02 
608	 0,030073375098266 
609	 2,94565805767817E-02 
610	 2,83155717055503E-02 
611	 2,76250546817893E-02 
612	 2,86115674950177E-02 
613	 2,89003792665158E-02 
614	 2,81642862516586E-02 
615	 2,74438614932566E-02 
616	 2,69264792192836E-02 
617	 2,67661980264469E-02 
618	 2,69951125940704E-02 
619	 0,027222592242757 
620	 2,66183332985646E-02 
621	 2,67191263334552E-02 
622	 2,76398798681393E-02 
623	 2,73777041881377E-02 
624	 2,66282498580998E-02 
625	 2,62391889681705E-02 
626	 2,62145422845114E-02 
627	 0,026381104719048 
628	 2,61475128977805E-02 
629	 2,60689134578917E-02 
630	 2,63047369090836E-02 
631	 2,58224174876995E-02 
632	 0,025142359887209 
633	 2,52691548375344E-02 
634	 2,57983755246293E-02 
635	 2,63076528511478E-02 
636	 2,54982890081922E-02 
637	 2,50288029496032E-02 
638	 0,026201071979448 
639	 2,64960341839055E-02 
640	 2,59563477573023E-02 
641	 2,58327557837378E-02 
642	 2,60871189041022E-02 
643	 2,66022106126518E-02 
644	 2,64342183815187E-02 
645	 2,62058083860847E-02 
646	 2,68371114728097E-02 
647	 2,68683745583039E-02 
648	 0,026299107554057 
649	 2,65127363287106E-02 
650	 2,65520737475779E-02 
651	 2,58571138346251E-02 
652	 2,55268875763615E-02 
653	 2,54818022197447E-02 
654	 2,52237749511573E-02 
655	 2,48874562909719E-02 
656	 2,45150672252221E-02 
657	 0,024139307064843 
658	 2,38505771978965E-02 
659	 2,37251673966716E-02 
660	 2,33404250876791E-02 
661	 2,29089167746505E-02 
662	 2,34184227288978E-02 
663	 2,33905030518392E-02 
664	 2,23326361175739E-02 
665	 2,24895578233696E-02 
666	 2,32944299186648E-02 
667	 2,34623845079434E-02 
668	 2,35730517424959E-02 
669	 2,37650853846123E-02 
670	 0,024013497229084 
671	 2,43460006609555E-02 
672	 2,47721155211163E-02 
673	 2,51719697748076E-02 
674	 0,025488570266183 
675	 2,55931562027321E-02 
676	 2,59892245080823E-02 
677	 2,67143464463803E-02 
678	 2,67895288133598E-02 
679	 2,67832408088507E-02 
680	 2,74508296679244E-02 
681	 2,82366363340673E-02 
682	 2,89073905602279E-02 
683	 2,92089467651817E-02 
684	 0,029337010270527 
685	 2,94446146509024E-02 
686	 2,96632649914776E-02 
687	 3,00679286097851E-02 
688	 3,07139857300918E-02 
689	 3,17490451884145E-02 
690	 3,29459960953717E-02 
691	 3,31216719064722E-02 
692	 3,35579319783861E-02 
693	 3,53548411173987E-02 
694	 3,66009385261981E-02 
695	 3,75760821159674E-02 
696	 3,98978241042198E-02 
697	 4,26379869770478E-02 
698	 4,54494119399446E-02 
699	 4,86639066335414E-02 
700	 5,20417769856115E-02 
701	 5,52464059946876E-02 
702	 0,059031883553745 
703	 6,35239752470459E-02 
704	 6,83727276037157E-02 
705	 7,37910309109133E-02 
706	 7,97884615256243E-02 
707	 8,53141671999936E-02 
708	 9,09015979696103E-02 
709	 9,78396746873443E-02 
710	 0,10470931744143 
711	 0,111212515671007 
712	 0,118097612495357 
713	 0,125407750977884 
714	 0,13313960899737 
715	 0,140725012520215 
716	 0,148242541156877 
717	 0,156226163725086 
718	 0,1644105532221 
719	 0,172608413776141 
720	 0,18034361001972 
721	 0,187871010113197 
722	 0,195623271754937 
723	 0,203549475762922 
724	 0,211459022421792 
725	 0,218889344685011 
726	 0,225983788694793 
727	 0,232812260881415 
728	 0,239270065303712 
729	 0,245510615746084 
730	 0,251840017250347 
731	 0,257632297727045 
732	 0,26282100114291 
733	 0,267994400150657 
734	 0,273048590848306 
735	 0,277858759517738 
736	 0,282352661706541 
737	 0,286492120101334 
738	 0,29021077990233 
739	 0,293760243533821 
740	 0,297192890000972 
741	 0,300173882124347 
742	 0,302912925808629 
743	 0,305671320239039 
744	 0,307962724414183 
745	 0,309951413287916 
746	 0,312497108680567 
747	 0,314723814089964 
748	 0,31623405398566 
749	 0,317827674197589 
750	 0,319407796972414 
751	 0,320671909840962 
752	 0,321785754734178 
753	 0,322864571708819 
754	 0,324161029400765 
755	 0,32527179800271 
756	 0,325965954016286 
757	 0,327057164529216 
758	 0,328217318858207 
759	 0,328479406167258 
760	 0,329040512084833 
761	 0,330147021766637 
762	 0,331022662149101 
763	 0,331500788317174 
764	 0,331513504983268 
765	 0,331911336713429 
766	 0,332609598002261 
767	 0,332891512788642 
768	 0,333249730891875 
769	 0,333836651340219 
770	 0,334399255204522 
771	 0,334861818773349 
772	 0,335166778446126 
773	 0,335472373091612 
774	 0,335820858507577 
775	 0,336208404482906 
776	 0,336589714614076 
777	 0,336922641172934 
778	 0,337108349900485 
779	 0,337294794161601 
780	 0,337714502887424 
781	 0,337881071442993 
782	 0,337843865464868 
783	 0,338223323666722 
784	 0,338830759977875 
785	 0,339429080516339 
786	 0,339163930632031 
787	 0,338621577154209 
788	 0,339060677027988 
789	 0,339389701154993 
790	 0,339368733013626 
791	 0,33944431200484 
792	 0,339481510354424 
793	 0,339392656509113 
794	 0,339485211499085 
795	 0,339719398210981 
796	 0,339913101682802 
797	 0,340008890956042 
798	 0,340001457916923 
799	 0,340019105555791 
800	 0,340049382244719 
801	 0,340084825863382 
802	 0,340231715706517 
803	 0,340573823535335 
804	 0,341324233039025 
805	 0,341820408358286 
806	 0,341912915338844 
807	 0,342353987650177 
808	 0,342853429154204 
809	 0,343063868044659 
810	 0,343443885586125 
811	 0,344021599275484 
812	 0,344665974562421 
813	 0,345032609853001 
814	 0,344973216738394 
815	 0,344623185903891 
816	 0,344514382412581 
817	 0,345218850805839 
818	 0,345626285165106 
819	 0,345697263370731 
820	 0,346151616621088 
821	 0,346567307810481 
822	 0,346787968518071 
823	 0,347125554336344 
824	 0,347560833588464 
825	 0,348025968268509 
826	 0,348441503593438 
827	 0,348799192468353 
828	 0,349181576591629 
829	 0,349406471468012 
830	 0,349464677625163 
831	 0,349922993986697 
832	 0,350613440310447 
833	 0,351222459097722 
834	 0,351426548040371 
835	 0,351284187995501 
836	 0,351274559859371 
837	 0,351410845789975 
838	 0,351661248370472 
839	 0,351656323790299 
840	 0,351580823270086 
841	 0,351750873012573 
842	 0,351836305537455 
843	 0,351908551158402 
844	 0,352585962747859 
845	 0,352701200797432 
846	 0,351835834749323 
847	 0,351957038337328 
848	 0,352418589030943 
849	 0,352005368115706 
850	 0,3518827256474 
851	 0,352241986846281 
852	 0,352823217042036 
853	 0,352945902042607 
854	 0,352367324296309 
855	 0,352305504099616 
856	 0,352466037346129 
857	 0,35225587109089 
858	 0,352311816373053 
859	 0,352622174418709 
860	 0,3526256438986 
861	 0,35276432071836 
862	 0,353247218731551 
863	 0,353893653250297 
864	 0,354360913220133 
865	 0,354253592702443 
866	 0,354538837728449 
867	 0,355270523103883 
868	 0,355950861854767 
869	 0,356099807051394 
870	 0,355691869430457 
871	 0,356132110493451 
872	 0,357086447430396 
873	 0,357959772528282 
874	 0,358305477495958 
875	 0,358259708812878 
876	 0,358516287824974 
877	 0,359008709045627 
878	 0,359729296514701 
879	 0,360830844565063 
880	 0,361224555288252 
881	 0,359907776516353 
882	 0,359964857179524 
883	 0,361356165528732 
884	 0,362380947623563 
885	 0,36249814432419 
886	 0,361813314063167 
887	 0,362385999943279 
888	 0,363251907293563 
889	 0,363432347886918 
890	 0,363897560025231 
891	 0,364611121630726 
892	 0,365165295938077 
893	 0,365512245010428 
894	 0,365633216069219 
895	 0,365666347822749 
896	 0,365394981744637 
897	 0,364766328493557 
898	 0,36480654774053 
899	 0,365555834308151 
900	 0,366810549174259 
901	 0,36726640604782 
902	 0,36688378852498 
903	 0,36720524905288 
904	 0,367501969741862 
905	 0,367353822094547 
906	 0,367260548452513 
907	 0,367075738782928 
908	 0,366516447726745 
909	 0,366837239960642 
910	 0,367902950894111 
911	 0,36841286494653 
912	 0,368220175155683 
913	 0,36738820678145 
914	 0,366792423237087 
915	 0,366907259431762 
916	 0,368054186589154 
917	 0,368571766004614 
918	 0,368224025828265 
919	 0,367342375969963 
920	 0,36673442642743 
921	 0,366657904763657 
922	 0,366495455856453 
923	 0,366480848651666 
924	 0,366728018578801 
925	 0,36621695249576 
926	 0,365353668133304 
927	 0,365181562846847 
928	 0,364575052790878 
929	 0,363581360405162 
930	 0,363452563328834 
931	 0,363805097727785 
932	 0,364136566364469 
933	 0,362835442298176 
934	 0,361046171102303 
935	 0,360443098774589 
936	 0,360298628913464 
937	 0,360017952833372 
938	 0,358167733339335 
939	 0,357630365362199 
940	 0,358696213448673 
941	 0,356712193285952 
942	 0,354442277851178 
943	 0,354428806845822 
944	 0,354256902736285 
945	 0,353456234572537 
946	 0,351895491597631 
947	 0,350842311310174 
948	 0,350064934870596 
949	 0,347075069788197 
950	 0,344939856522456 
951	 0,345030344798534 
952	 0,343877098754531 
953	 0,342074172033826 
954	 0,340780859738417 
955	 0,339665714847314 
956	 0,338394388579207 
957	 0,336077420728328 
958	 0,334891391540139 
959	 0,33507767167311 
960	 0,333901194710966 
961	 0,332855851575966 
962	 0,332924183919982 
963	 0,331704157697386 
964	 0,330378066987292 
965	 0,331194252718088 
966	 0,331354377993509 
967	 0,330461148145757 
968	 0,329489429762776 
969	 0,328923925292913 
970	 0,329099137953848 
971	 0,330322896797852 
972	 0,330943675797795 
973	 0,329641889197873 
974	 0,329092679422895 
975	 0,329491772654244 
976	 0,330367922189796 
977	 0,330125279427196 
978	 0,328998538914766 
979	 0,329551283128111 
980	 0,330033388448519 
981	 0,329915518405595 
982	 0,331764005564917 
983	 0,332550145455902 
984	 0,329476223504925 
985	 0,32892695246047 
986	 0,330730221142508 
987	 0,332182757442329 
988	 0,332410909274342 
989	 0,332076560869031 
990	 0,334993125402967 
991	 0,337284513379364 
992	 0,337279426550208 
993	 0,338383689485541 
994	 0,339581183781157 
995	 0,339678220727748 
996	 0,340636641127519 
997	 0,34155675881674 
998	 0,339828566011273 
999	 0,342940372248757 
1000	 0,349491099258363 
1001	 0,346886888147383 
1002	 0,343923075906665 
1003	 0,34509171429877 
1004	 0,348098920400433 
1005	 0,350569646537693 
1006	 0,350428246136622 
1007	 0,349492514207963 
1008	 0,349264016226229 
1009	 0,351741676302975 
1010	 0,352247825929832 
1011	 0,351248884472271 
1012	 0,355153193442115 
1013	 0,356117547590555 
1014	 0,352353632348054 
1015	 0,353383788333979 
1016	 0,356779363535821 
1017	 0,359495923778983 
1018	 0,35848848895449 
1019	 0,356536847305315 
1020	 0,358448842235595 
1021	 0,361279436800576 
1022	 0,364289269154895 
1023	 0,367957353845277 
1024	 0,367807979811659 
1025	 0,364555772889185 
1026	 0,368946991758108 
1027	 0,372267883357764 
1028	 0,369275421553839 
1029	 0,367143823143473 
1030	 0,367162761955249 
1031	 0,369687525107735 
1032	 0,371218483703437 
1033	 0,371631176529359 
1034	 0,372282411448722 
1035	 0,371032746811142 
1036	 0,369483199109579 
1037	 0,374851302244721 
1038	 0,380793589056617 
1039	 0,383299774481397 
1040	 0,380633254331991 
1041	 0,374816733627918 
1042	 0,36896620309682 
1043	 0,371622320068247 
1044	 0,378048655149957 
1045	 0,380606951927386 
1046	 0,380232154236914 
1047	 0,379711968367796 
1048	 0,385646148622812 
1049	 0,388465398074966 
1050	 0,38652401376198 
1051	 0,385445316338645 
1052	 0,389394778288369 
1053	 0,396984625794741 
1054	 0,388129960708714 
1055	 0,378804435824207 
1056	 0,38327430277287 
1057	 0,388716783931142 
1058	 0,391646897833523 
1059	 0,389840206952266 
1060	 0,388739322670421 
1061	 0,386019619839868 
1062	 0,372580757502818 
1063	 0,37714870405796 
1064	 0,397606845136495 
1065	 0,390533424939026 
1066	 0,384772379386587 
1067	 0,391399730441766 
1068	 0,398178528397191 
1069	 0,40034187897644 
1070	 0,395541706639956 
1071	 0,393879363875377 
1072	 0,385905615343141 
1073	 0,361918835891322 
1074	 0,370696232766751 
1075	 0,397013938438122 
