Wavelength	GRA-BER00391.asd
325	 0,116775596366333 
326	 0,149249871436258 
327	 0,20216947428776 
328	 0,220618114017741 
329	 0,138601849232728 
330	 8,38858905165767E-02 
331	 0,171820284396385 
332	 0,234088348651052 
333	 0,236733623348316 
334	 0,173812304996696 
335	 8,97805712334505E-02 
336	 5,01113128189038E-02 
337	 0,152846512860332 
338	 0,221374021830606 
339	 0,135975858598505 
340	 0,127129045088938 
341	 0,165569231972645 
342	 7,32575638618807E-02 
343	 2,04677233087754E-02 
344	 5,76108332123484E-02 
345	 7,99472753678096E-02 
346	 0,106611725758972 
347	 0,15269172011074 
348	 0,135421691226016 
349	 7,81056223497872E-02 
350	 8,15679541677761E-02 
351	 0,078979760784794 
352	 5,44900932862415E-02 
353	 6,75745500654259E-02 
354	 8,34591404177648E-02 
355	 5,65057514411735E-02 
356	 6,20429680664098E-02 
357	 9,13247835270823E-02 
358	 7,68029915462477E-02 
359	 6,85521681827021E-02 
360	 8,35555393535437E-02 
361	 6,66304006911598E-02 
362	 4,57624635854749E-02 
363	 6,85268914389654E-02 
364	 7,86188131725889E-02 
365	 6,84876916627214E-02 
366	 6,29159556538407E-02 
367	 6,43777338429038E-02 
368	 7,26552677066271E-02 
369	 7,25907124656804E-02 
370	 5,95895968081799E-02 
371	 2,56203876661186E-02 
372	 1,14746556786225E-02 
373	 0,027442548578542 
374	 5,03288954423641E-02 
375	 6,06444270957634E-02 
376	 4,62316919968115E-02 
377	 4,23076735932793E-02 
378	 5,05224815526326E-02 
379	 6,36880173266201E-02 
380	 5,65109606535427E-02 
381	 3,03879814417387E-02 
382	 4,03268489494454E-02 
383	 6,06414394089466E-02 
384	 6,46215368439759E-02 
385	 4,61783433644148E-02 
386	 1,99491651049243E-02 
387	 2,84079505250573E-02 
388	 4,34146017930334E-02 
389	 5,11890382736481E-02 
390	 3,46452909554065E-02 
391	 2,16103781776769E-02 
392	 4,52443350554083E-02 
393	 5,95409502595054E-02 
394	 5,85078891457723E-02 
395	 5,50133393368213E-02 
396	 4,70691916533668E-02 
397	 3,54868262916153E-02 
398	 0,029217281781873 
399	 2,28758372169409E-02 
400	 5,29602341074963E-03 
401	 1,39809929543574E-02 
402	 4,52235744379137E-02 
403	 0,05671725470848 
404	 5,03561321673591E-02 
405	 3,07081035895245E-02 
406	 2,27548062152084E-02 
407	 2,66388210753222E-02 
408	 0,03562338128925 
409	 3,79325120147546E-02 
410	 0,031320948642053 
411	 2,66290021392062E-02 
412	 2,33432081029249E-02 
413	 2,07435098114942E-02 
414	 2,49802658272489E-02 
415	 3,13870210475129E-02 
416	 0,025960230341143 
417	 2,28162580940075E-02 
418	 0,026361284583747 
419	 2,49933775944931E-02 
420	 0,021333481960814 
421	 1,98718378265722E-02 
422	 2,16299047928343E-02 
423	 2,49525086946693E-02 
424	 2,31062567439487E-02 
425	 2,35646561735139E-02 
426	 0,029369906476238 
427	 0,026445180776558 
428	 0,01938420151998 
429	 1,93501330463363E-02 
430	 2,12947448189212E-02 
431	 2,36374355786003E-02 
432	 2,59720624173901E-02 
433	 2,72120237278541E-02 
434	 2,64429881821454E-02 
435	 2,32277553488804E-02 
436	 0,019748567163691 
437	 2,16146581056549E-02 
438	 2,29742313834324E-02 
439	 2,22894909340162E-02 
440	 2,61635698953605E-02 
441	 2,87818129504089E-02 
442	 2,24176945257973E-02 
443	 1,89750369495174E-02 
444	 2,03194664924767E-02 
445	 2,18709932527457E-02 
446	 2,35333441540397E-02 
447	 2,46813497629303E-02 
448	 2,14056616527423E-02 
449	 1,74700240659724E-02 
450	 2,05151784056382E-02 
451	 2,47481896605536E-02 
452	 2,71520578568398E-02 
453	 2,27610830294405E-02 
454	 1,90895192107555E-02 
455	 2,30311110347603E-02 
456	 2,69643274157094E-02 
457	 2,81613597172199E-02 
458	 2,35689350746973E-02 
459	 1,92849617291326E-02 
460	 1,84032212404234E-02 
461	 2,10891348260931E-02 
462	 2,44861783376481E-02 
463	 2,49180316182483E-02 
464	 2,39323189621502E-02 
465	 2,24186993897071E-02 
466	 2,20401683233727E-02 
467	 2,18919975042849E-02 
468	 2,14682089822248E-02 
469	 0,021988637800137 
470	 2,28485893690532E-02 
471	 2,25037059877915E-02 
472	 2,27309392443455E-02 
473	 2,36104032817291E-02 
474	 2,26216555700367E-02 
475	 2,19025691753819E-02 
476	 2,35036263688751E-02 
477	 2,27111434984045E-02 
478	 0,019994418397839 
479	 1,90136516038507E-02 
480	 1,94885808172085E-02 
481	 2,09534595988638E-02 
482	 2,08031141037882E-02 
483	 1,99870880186617E-02 
484	 2,04031145917008E-02 
485	 1,95153511320111E-02 
486	 1,74139799703749E-02 
487	 1,68493908901542E-02 
488	 1,69625127306041E-02 
489	 1,71437660272896E-02 
490	 1,87393095043147E-02 
491	 2,07105558517032E-02 
492	 2,02160813905112E-02 
493	 2,05337629398224E-02 
494	 2,20408495844424E-02 
495	 2,02006888707069E-02 
496	 1,83679199837062E-02 
497	 2,05749614646262E-02 
498	 1,86794636079655E-02 
499	 1,40430975637234E-02 
500	 1,66404166159121E-02 
501	 1,90862452118463E-02 
502	 0,017660066135366 
503	 1,83394533199764E-02 
504	 2,01676278413276E-02 
505	 2,03036279683848E-02 
506	 1,95116445325983E-02 
507	 1,85883443435379E-02 
508	 2,01500135412586E-02 
509	 2,14069368991083E-02 
510	 0,019904363454299 
511	 1,88570611233176E-02 
512	 1,86642541457248E-02 
513	 1,85673554633923E-02 
514	 1,90857840451013E-02 
515	 2,01126578398455E-02 
516	 1,96989856518921E-02 
517	 1,89960422099693E-02 
518	 0,019891597114026 
519	 1,94608865048645E-02 
520	 1,79338200120792E-02 
521	 1,90402775276203E-02 
522	 1,98795930044531E-02 
523	 1,84715507825948E-02 
524	 1,75635479567616E-02 
525	 1,75818906672883E-02 
526	 1,86288307506291E-02 
527	 1,88079905332337E-02 
528	 1,78596676823816E-02 
529	 1,85821879729796E-02 
530	 1,95904842539017E-02 
531	 0,019112583274197 
532	 1,86722482519855E-02 
533	 1,84710022228876E-02 
534	 1,79786345155631E-02 
535	 1,75132627280916E-02 
536	 0,017349432025483 
537	 1,81078440474325E-02 
538	 1,90086321437507E-02 
539	 1,84931739728875E-02 
540	 1,80537319940252E-02 
541	 1,81216935059101E-02 
542	 1,82661612942921E-02 
543	 0,018720348910214 
544	 1,96579408797847E-02 
545	 1,95914992188049E-02 
546	 1,88423506118045E-02 
547	 1,92844606751952E-02 
548	 1,92709294388321E-02 
549	 1,82164346475206E-02 
550	 1,78675613670129E-02 
551	 1,81158668206687E-02 
552	 1,84672682826764E-02 
553	 0,018977420781517 
554	 1,93444239936518E-02 
555	 1,84081123188008E-02 
556	 1,77640487308709E-02 
557	 1,86538883019266E-02 
558	 1,89787006929817E-02 
559	 1,89559988853759E-02 
560	 2,03479613980718E-02 
561	 2,05744241571924E-02 
562	 1,90797391937481E-02 
563	 1,91712610926751E-02 
564	 2,03572089278133E-02 
565	 0,021576067471461 
566	 0,022563613340577 
567	 2,32091282641324E-02 
568	 2,35960947926477E-02 
569	 0,0241355608228 
570	 2,50741118829729E-02 
571	 2,57178106852863E-02 
572	 0,026246977356058 
573	 2,73775862089107E-02 
574	 2,79162983290357E-02 
575	 2,78530445710519E-02 
576	 2,95952111507439E-02 
577	 3,12308311372765E-02 
578	 3,05056255681778E-02 
579	 3,06220216167137E-02 
580	 3,15833134843185E-02 
581	 3,09738789420855E-02 
582	 3,02664495276086E-02 
583	 3,03054709711422E-02 
584	 3,07571784734988E-02 
585	 3,10527150342558E-02 
586	 3,02745962942591E-02 
587	 2,94939331346438E-02 
588	 2,90784584283145E-02 
589	 2,90208780145947E-02 
590	 2,87864716775714E-02 
591	 2,79372874911308E-02 
592	 2,77688714202314E-02 
593	 2,81372549232704E-02 
594	 2,80204863001408E-02 
595	 2,74674591050684E-02 
596	 2,65260149823547E-02 
597	 2,54745398484597E-02 
598	 2,48364457515486E-02 
599	 2,53272992350044E-02 
600	 2,54158607246717E-02 
601	 2,48362213270595E-02 
602	 2,43996004476129E-02 
603	 2,43165978636729E-02 
604	 2,46547349642082E-02 
605	 2,42781259376687E-02 
606	 2,34137206997838E-02 
607	 2,31014865097403E-02 
608	 2,28437228651447E-02 
609	 2,25353357731688E-02 
610	 2,25364969782122E-02 
611	 2,25702095227019E-02 
612	 2,22693142897789E-02 
613	 2,23624211798724E-02 
614	 2,27838239713192E-02 
615	 2,27937299059256E-02 
616	 2,24013937095171E-02 
617	 2,17191166258958E-02 
618	 2,17264001391283E-02 
619	 2,20414425786547E-02 
620	 0,021567857891469 
621	 2,14608493267867E-02 
622	 2,19737007923437E-02 
623	 2,23586837470083E-02 
624	 0,0227693899735 
625	 0,023398326032878 
626	 2,40480421003994E-02 
627	 2,44951747045867E-02 
628	 2,41560644105066E-02 
629	 2,42490967333051E-02 
630	 2,52366235128486E-02 
631	 2,53898523168916E-02 
632	 2,52278390257805E-02 
633	 2,59422354028392E-02 
634	 2,62598918387386E-02 
635	 0,026107319961792 
636	 2,67047844463356E-02 
637	 0,027532781600472 
638	 2,81393397488004E-02 
639	 2,90617059987747E-02 
640	 2,99841459854722E-02 
641	 2,99532951509372E-02 
642	 0,029613359731503 
643	 2,93444814486466E-02 
644	 2,96400626497786E-02 
645	 3,01544928798682E-02 
646	 3,03697886845751E-02 
647	 3,08239134154454E-02 
648	 3,14148089256209E-02 
649	 3,13664307597493E-02 
650	 0,03128429333358 
651	 3,15348069444944E-02 
652	 3,15042919223783E-02 
653	 3,12200871313006E-02 
654	 3,08355521229062E-02 
655	 3,10832062439042E-02 
656	 3,18526453806646E-02 
657	 3,12945256265069E-02 
658	 3,04322059858325E-02 
659	 3,04007926251701E-02 
660	 2,99380152661948E-02 
661	 2,89132069356668E-02 
662	 2,76293477925177E-02 
663	 0,026698800541118 
664	 2,63826083332057E-02 
665	 2,58267946286417E-02 
666	 2,53507511596882E-02 
667	 2,56582373700387E-02 
668	 2,51289362162452E-02 
669	 2,38096552537513E-02 
670	 0,023805785535553 
671	 2,40767958422327E-02 
672	 2,37658978184277E-02 
673	 2,34927204095634E-02 
674	 2,33622567956473E-02 
675	 0,023386409123628 
676	 2,34631819118251E-02 
677	 2,35368834003553E-02 
678	 2,36104153637711E-02 
679	 2,35737122813406E-02 
680	 2,33060288743571E-02 
681	 2,31342610748422E-02 
682	 2,31166060305482E-02 
683	 2,31943060246624E-02 
684	 2,30227606670269E-02 
685	 0,02255443999143 
686	 2,31513175151514E-02 
687	 2,42417671637649E-02 
688	 0,024476741028454 
689	 2,50640384954091E-02 
690	 2,61283462985953E-02 
691	 2,64519573041326E-02 
692	 2,73100143665301E-02 
693	 2,97731838632929E-02 
694	 0,031756199028348 
695	 3,33371923024075E-02 
696	 3,56552668654079E-02 
697	 3,88163708820901E-02 
698	 0,042812113120364 
699	 4,69395344422427E-02 
700	 5,13843414430542E-02 
701	 0,056479020089048 
702	 6,22692199789828E-02 
703	 6,84842690690263E-02 
704	 7,42793979156055E-02 
705	 8,03874023552507E-02 
706	 8,71926086358307E-02 
707	 9,39298119795034E-02 
708	 0,100592478611404 
709	 0,107421166672466 
710	 0,113958021004104 
711	 0,120177221510208 
712	 0,126720233161049 
713	 0,133113054570496 
714	 0,138949754998407 
715	 0,145182304766411 
716	 0,151504450252896 
717	 0,156709885462212 
718	 0,161577466072841 
719	 0,166477175921577 
720	 0,171625373468244 
721	 0,176564070426972 
722	 0,180695479570054 
723	 0,18472651428801 
724	 0,188679314047728 
725	 0,191981214878421 
726	 0,195255592504162 
727	 0,198779000963603 
728	 0,20147383983455 
729	 0,203664766386342 
730	 0,206173979342914 
731	 0,208602556030407 
732	 0,210763831210914 
733	 0,212260669953296 
734	 0,213846028197375 
735	 0,21611341555896 
736	 0,217760848454664 
737	 0,218887559959129 
738	 0,220381366691737 
739	 0,221577130356577 
740	 0,222420013147567 
741	 0,223994480017462 
742	 0,2254792818227 
743	 0,225859738810559 
744	 0,226246134184273 
745	 0,226941031023376 
746	 0,228001002556304 
747	 0,229102875577595 
748	 0,230007933536575 
749	 0,230501687064823 
750	 0,23082623591644 
751	 0,231378777922641 
752	 0,232198180287513 
753	 0,233036016823694 
754	 0,232851220704659 
755	 0,232881257863546 
756	 0,233927604227968 
757	 0,234387808524552 
758	 0,234459589137323 
759	 0,235098498546342 
760	 0,235422683969671 
761	 0,235321563816642 
762	 0,235634234610097 
763	 0,236071234921371 
764	 0,236323513255134 
765	 0,236489570876422 
766	 0,236692780066602 
767	 0,237300746899057 
768	 0,237440537097763 
769	 0,236946256328017 
770	 0,237045012411315 
771	 0,237467437262828 
772	 0,237768726649448 
773	 0,238090570042571 
774	 0,23834632198192 
775	 0,238202519444216 
776	 0,238169698943254 
777	 0,238521868400732 
778	 0,239111755022135 
779	 0,239638674318217 
780	 0,239714543549893 
781	 0,23943301172232 
782	 0,239089816671692 
783	 0,239610678209801 
784	 0,240068259743942 
785	 0,239893082519849 
786	 0,239811235112317 
787	 0,239957623249615 
788	 0,240396086102992 
789	 0,240705421775658 
790	 0,240735408888972 
791	 0,240499057481824 
792	 0,240353397577421 
793	 0,240563495403529 
794	 0,240763724550001 
795	 0,240821325709261 
796	 0,240568500626654 
797	 0,240524752126388 
798	 0,240775068515072 
799	 0,240801173276158 
800	 0,240627808820827 
801	 0,24034098726677 
802	 0,240466723568384 
803	 0,240854874362599 
804	 0,240802650208398 
805	 0,241039802458695 
806	 0,241690333889332 
807	 0,241951980501409 
808	 0,241988028449187 
809	 0,242049425039504 
810	 0,242346052348259 
811	 0,242856926035474 
812	 0,243420893489104 
813	 0,24374130860278 
814	 0,243741860604597 
815	 0,243862105168486 
816	 0,244173886474073 
817	 0,244695694089744 
818	 0,244888507239243 
819	 0,24486926875147 
820	 0,245395230986644 
821	 0,245894052378737 
822	 0,246132341594048 
823	 0,24646207257253 
824	 0,246879655323499 
825	 0,247333361534684 
826	 0,247363461551897 
827	 0,247089035114833 
828	 0,247174421019389 
829	 0,247661841731052 
830	 0,248428001695331 
831	 0,248442458362944 
832	 0,248226192590414 
833	 0,248638118299791 
834	 0,248727922763323 
835	 0,248537252800699 
836	 0,248928132594862 
837	 0,249524797421081 
838	 0,250037931363035 
839	 0,250051082127824 
840	 0,249805898591184 
841	 0,249714760221858 
842	 0,249562718685135 
843	 0,249482420446076 
844	 0,25004323320169 
845	 0,250552766620159 
846	 0,25062016097849 
847	 0,250466880325697 
848	 0,250378368578614 
849	 0,250709758825385 
850	 0,250687639153227 
851	 0,250413918501017 
852	 0,250933838547269 
853	 0,251256497795815 
854	 0,250936276021012 
855	 0,250862606028658 
856	 0,251105651631918 
857	 0,251614202286765 
858	 0,251561480157865 
859	 0,251154081568528 
860	 0,251831653778506 
861	 0,252249731014514 
862	 0,251818270811041 
863	 0,251578038206327 
864	 0,251633928063084 
865	 0,251967724495322 
866	 0,252681754166757 
867	 0,253517067058321 
868	 0,253745969444449 
869	 0,253728156766879 
870	 0,253658034508155 
871	 0,253608580962513 
872	 0,253558838246591 
873	 0,253479608047404 
874	 0,253922807209394 
875	 0,254508468853042 
876	 0,253626840983371 
877	 0,253798608203818 
878	 0,25562251031727 
879	 0,255996310926686 
880	 0,255473088549277 
881	 0,254967329790035 
882	 0,255088999728611 
883	 0,255635831432332 
884	 0,25563767269083 
885	 0,255607282164152 
886	 0,255800032997027 
887	 0,256649319705241 
888	 0,257246331305624 
889	 0,256818659118393 
890	 0,257056705552818 
891	 0,257623863794394 
892	 0,257047277334062 
893	 0,256964451775751 
894	 0,257577799759117 
895	 0,257293997535613 
896	 0,256857443723196 
897	 0,256919359816305 
898	 0,257499583314916 
899	 0,258135960386313 
900	 0,258007218318706 
901	 0,258123774669129 
902	 0,258356444522808 
903	 0,256884968456851 
904	 0,256559988661755 
905	 0,258658476238876 
906	 0,258483253384078 
907	 0,257287069238613 
908	 0,257669015497188 
909	 0,257807655569047 
910	 0,257551627340904 
911	 0,257713796329479 
912	 0,258161668915461 
913	 0,258584022317694 
914	 0,25748562513982 
915	 0,2564021887552 
916	 0,257100954788414 
917	 0,25794188211452 
918	 0,258303786528018 
919	 0,257475638853866 
920	 0,256971106757402 
921	 0,257201034334011 
922	 0,257272969425051 
923	 0,256938110394969 
924	 0,25610443410534 
925	 0,255743621066832 
926	 0,255478424406849 
927	 0,254344525985029 
928	 0,253108285134529 
929	 0,252087736172375 
930	 0,251388833937963 
931	 0,251483486140586 
932	 0,25240232788606 
933	 0,252734683489786 
934	 0,251785975778887 
935	 0,249039486385734 
936	 0,248185373152972 
937	 0,248927443373158 
938	 0,247799131269985 
939	 0,246857310945483 
940	 0,246563877000682 
941	 0,245336704112457 
942	 0,244146982622205 
943	 0,243828146706514 
944	 0,243218860371055 
945	 0,241767822530798 
946	 0,238805855269981 
947	 0,236774168803639 
948	 0,23626328026603 
949	 0,236569929680067 
950	 0,235938657049114 
951	 0,233509582619368 
952	 0,230967953112388 
953	 0,229244481265884 
954	 0,229108510508962 
955	 0,228844725664081 
956	 0,227573623374428 
957	 0,223869253628062 
958	 0,222223079755194 
959	 0,22321768832971 
960	 0,22139652600578 
961	 0,21948689275562 
962	 0,219504068020166 
963	 0,218772403236813 
964	 0,217851455930055 
965	 0,218109899643703 
966	 0,217654298078117 
967	 0,216700291530657 
968	 0,217578672720304 
969	 0,217488935114803 
970	 0,215859408767593 
971	 0,21651982101526 
972	 0,217485163481636 
973	 0,216800529967935 
974	 0,216010479256957 
975	 0,215198000637669 
976	 0,213993239403466 
977	 0,214841242685526 
978	 0,216990161463912 
979	 0,215486120766595 
980	 0,213939969929967 
981	 0,214216716784441 
982	 0,215735840076771 
983	 0,217249185174605 
984	 0,217546726331963 
985	 0,217726571413442 
986	 0,217451768725809 
987	 0,215630168990081 
988	 0,215361723518014 
989	 0,217001750228434 
990	 0,21840501465207 
991	 0,218533160701474 
992	 0,217352888552357 
993	 0,218138533963286 
994	 0,220546783357216 
995	 0,223515681066142 
996	 0,222979445706335 
997	 0,219958077673695 
998	 0,217782395773222 
999	 0,219586303589115 
1000	 0,224662537760209 
1001	 0,227548235184431 
1002	 0,226658979669142 
1003	 0,222355382666674 
1004	 0,221983227225183 
1005	 0,224033285671077 
1006	 0,226317801875107 
1007	 0,228893037151293 
1008	 0,23109064892271 
1009	 0,231896328841245 
1010	 0,233015012394936 
1011	 0,234852339772047 
1012	 0,237543566770827 
1013	 0,236561850890106 
1014	 0,2319221518593 
1015	 0,234432765311554 
1016	 0,239003538062732 
1017	 0,240674737067768 
1018	 0,240024009178892 
1019	 0,238704356945371 
1020	 0,239085596533357 
1021	 0,241016000436089 
1022	 0,243205277590136 
1023	 0,242026836362937 
1024	 0,243024540124317 
1025	 0,246514916939653 
1026	 0,244623255018994 
1027	 0,243627346248508 
1028	 0,2468179102877 
1029	 0,24532755072005 
1030	 0,243860878154416 
1031	 0,24833599345694 
1032	 0,249555641047641 
1033	 0,248421291118283 
1034	 0,250360436463715 
1035	 0,254818520179772 
1036	 0,259874739107142 
1037	 0,259878576072419 
1038	 0,258302758911282 
1039	 0,256781492829109 
1040	 0,254613215027349 
1041	 0,253797413927217 
1042	 0,25545433746115 
1043	 0,254270336339625 
1044	 0,254282132386258 
1045	 0,26153752546283 
1046	 0,26678960312086 
1047	 0,268353892091857 
1048	 0,267698002473814 
1049	 0,267152723110882 
1050	 0,266991573834494 
1051	 0,263814499886611 
1052	 0,264956973043825 
1053	 0,271137637798137 
1054	 0,265182891507486 
1055	 0,256836062020515 
1056	 0,256662819949527 
1057	 0,271043369091455 
1058	 0,283647667579115 
1059	 0,272643229797914 
1060	 0,265730549032082 
1061	 0,264563221960125 
1062	 0,257682468874943 
1063	 0,264709836921932 
1064	 0,282015573244132 
1065	 0,276140915711204 
1066	 0,26663539636468 
1067	 0,264295699694507 
1068	 0,271758368494813 
1069	 0,279476668492138 
1070	 0,279302968607968 
1071	 0,266867401772119 
1072	 0,256172754033457 
1073	 0,262808187954025 
1074	 0,271604233328859 
1075	 0,27614341109995 
