Wavelength	GRA-BER00360.asd
325	 0,119675809999556 
326	 0,205811972925814 
327	 0,122216485617698 
328	-5,24120006780044E-02 
329	-1,65520472385263E-02 
330	 4,27631211379661E-02 
331	-2,45386260972953E-02 
332	 6,90858780511908E-02 
333	 0,184216190794888 
334	-1,84916926671073E-02 
335	-0,153349996128779 
336	-6,73031668123445E-02 
337	 1,31294954980035E-02 
338	 4,02258425131574E-02 
339	-2,39820630427466E-03 
340	-8,3374218221608E-03 
341	 1,13086524600789E-02 
342	-2,68634690448961E-02 
343	-3,61428611388984E-02 
344	 7,4450738328152E-03 
345	 6,67097393986956E-02 
346	 0,108137271473783 
347	 9,99701436979938E-02 
348	 0,062160943896874 
349	 0,016700517603725 
350	 0,019038918829589 
351	 2,17142221770512E-02 
352	 8,92871283992461E-03 
353	 3,16023851033137E-03 
354	 1,49402212808983E-02 
355	 5,21845590442371E-02 
356	 0,048141094214203 
357	 1,55388876344898E-02 
358	 2,51559495848016E-02 
359	 4,15950318074208E-02 
360	 4,71051283875516E-02 
361	 4,67291115448731E-02 
362	 4,07757184441173E-02 
363	 0,028679609995241 
364	 3,25864067282832E-02 
365	 4,51207401420922E-02 
366	 0,021040018011156 
367	 4,5247477595125E-03 
368	 0,020247121637925 
369	 0,019034803563316 
370	 4,7952954892312E-03 
371	-9,07854056863999E-03 
372	 1,15949880336158E-02 
373	 5,79404703572043E-02 
374	 6,32251188704501E-02 
375	 4,52845520781787E-02 
376	 2,11731549312005E-02 
377	 3,53306341705515E-02 
378	 6,58957811507368E-02 
379	 5,68916848334892E-02 
380	 3,32914001919987E-02 
381	 8,5462215720263E-03 
382	 7,69611554248953E-03 
383	 1,75036946581967E-02 
384	 2,31902582697669E-02 
385	 1,09219036891347E-02 
386	-8,53934498560576E-03 
387	 2,02899024602855E-03 
388	 1,17259989843676E-02 
389	 1,01821469659814E-02 
390	 7,47056208830774E-03 
391	 8,96746036200276E-03 
392	 1,93969628495175E-02 
393	 2,75842856350175E-02 
394	 2,83498159012158E-02 
395	 1,33703428593768E-02 
396	 6,24490644843628E-04 
397	 7,73820809613876E-04 
398	 7,88775830497667E-03 
399	 1,31738793074722E-02 
400	 4,9268333464995E-03 
401	 6,26230130492663E-03 
402	 1,69626523889858E-02 
403	 0,01440352458114 
404	 1,14053200821235E-02 
405	 1,61651355050519E-02 
406	 1,55296483377914E-02 
407	 1,37772502775223E-02 
408	 2,42059255248569E-02 
409	 2,57921784424328E-02 
410	 1,50367748996032E-02 
411	 6,71679039025978E-03 
412	 3,02066083559552E-03 
413	 4,95776829991327E-03 
414	 0,00657242786555 
415	 7,79757522488456E-03 
416	 1,32176759688157E-02 
417	 1,25471098596182E-02 
418	 3,82476869632285E-03 
419	 2,65168141119666E-03 
420	 6,18826137821474E-03 
421	 8,97198530013112E-03 
422	 1,13214191786178E-02 
423	 1,25715704398865E-02 
424	 1,04705261819123E-02 
425	 1,11697385830114E-02 
426	 1,70590479240449E-02 
427	 1,57109559867383E-02 
428	 1,01359636730157E-02 
429	 8,37178729849178E-03 
430	 8,70119375570893E-03 
431	 9,83575320816106E-03 
432	 7,1080925166963E-03 
433	 6,54422261538288E-03 
434	 1,27840631663631E-02 
435	 1,10657044445143E-02 
436	 4,65872020548708E-03 
437	 8,79799408787006E-03 
438	 0,013778512970698 
439	 1,56217888472885E-02 
440	 1,51009645090242E-02 
441	 1,35317778787213E-02 
442	 1,24753557901097E-02 
443	 1,23271018561925E-02 
444	 0,012473188730532 
445	 9,85897297822793E-03 
446	 9,60027469148296E-03 
447	 1,38620686536289E-02 
448	 1,15325788740953E-02 
449	 7,16018481692816E-03 
450	 1,20295688255084E-02 
451	 1,55902437346911E-02 
452	 1,48484023296413E-02 
453	 1,19564852428436E-02 
454	 9,39363869574535E-03 
455	 9,44816381823715E-03 
456	 1,21034177226435E-02 
457	 1,50115549318173E-02 
458	 1,21607000595007E-02 
459	 9,89679718089829E-03 
460	 1,07477516505429E-02 
461	 0,011829634298498 
462	 1,31338428026025E-02 
463	 1,50531960885134E-02 
464	 1,43063912315939E-02 
465	 1,14197017353137E-02 
466	 1,08447848685616E-02 
467	 1,21783475030666E-02 
468	 1,45360049326733E-02 
469	 1,24296429368442E-02 
470	 8,92409489378171E-03 
471	 1,17348272311413E-02 
472	 1,40015276483473E-02 
473	 1,35288822236889E-02 
474	 1,06423482022755E-02 
475	 9,3165823158486E-03 
476	 1,31342123494627E-02 
477	 1,48859651130974E-02 
478	 1,37396714873254E-02 
479	 1,15840680263243E-02 
480	 9,78733916136448E-03 
481	 9,39004984323922E-03 
482	 1,17356279309133E-02 
483	 1,37427323059682E-02 
484	 1,07091215264378E-02 
485	 9,72467720508033E-03 
486	 1,12528866463396E-02 
487	 8,99303500308178E-03 
488	 7,70428690445618E-03 
489	 1,07007765296502E-02 
490	 1,26907269528723E-02 
491	 1,29621944285592E-02 
492	 1,17445088289687E-02 
493	 1,16725709652033E-02 
494	 1,31658991506316E-02 
495	 1,26574458878031E-02 
496	 1,13263680891282E-02 
497	 1,07961499105884E-02 
498	 8,64357861915964E-03 
499	 6,16783615552343E-03 
500	 8,94093140910121E-03 
501	 1,13498568075121E-02 
502	 0,010480799045548 
503	 1,07040808353755E-02 
504	 1,14610907352088E-02 
505	 1,07633885986001E-02 
506	 1,06303875061105E-02 
507	 1,13773924495116E-02 
508	 0,01166201707096 
509	 1,16726899460207E-02 
510	 1,15920196209019E-02 
511	 1,04417280896198E-02 
512	 9,12546780829179E-03 
513	 1,03479812765018E-02 
514	 0,011886315762762 
515	 1,26555256628392E-02 
516	 0,012615902725276 
517	 1,22895063587724E-02 
518	 1,24491428841671E-02 
519	 1,12961863410157E-02 
520	 9,48146290268103E-03 
521	 1,10628259297542E-02 
522	 1,23607037228442E-02 
523	 1,08459281854175E-02 
524	 9,93758034387996E-03 
525	 9,9283286835313E-03 
526	 1,01677733277168E-02 
527	 1,06810415606531E-02 
528	 1,13664950749638E-02 
529	 1,19912060363904E-02 
530	 1,23680741198616E-02 
531	 1,23279413282429E-02 
532	 1,19658709101138E-02 
533	 0,011382726396812 
534	 1,06451648099358E-02 
535	 1,03207991662934E-02 
536	 1,06950451888569E-02 
537	 1,11326242387986E-02 
538	 1,12498206972041E-02 
539	 1,04800425722117E-02 
540	 1,01473654096007E-02 
541	 1,06106923761278E-02 
542	 1,13295978077426E-02 
543	 1,19388060060158E-02 
544	 1,21191949370058E-02 
545	 1,21360386052188E-02 
546	 1,22150533089012E-02 
547	 1,30167914112904E-02 
548	 1,27959619238348E-02 
549	 1,09846104058992E-02 
550	 9,87084167742689E-03 
551	 1,01648442577142E-02 
552	 1,26079084848672E-02 
553	 1,31554992593095E-02 
554	 1,14662716262793E-02 
555	 1,13790193738073E-02 
556	 1,19881894924978E-02 
557	 1,24116358646872E-02 
558	 1,22609560824186E-02 
559	 1,19213514455734E-02 
560	 1,26956684361129E-02 
561	 0,01295369587439 
562	 1,23056852807606E-02 
563	 1,25245688243256E-02 
564	 1,35700550102883E-02 
565	 1,51769502718835E-02 
566	 1,55720064911069E-02 
567	 1,48780259900338E-02 
568	 1,53646970518034E-02 
569	 1,60207358931705E-02 
570	 1,62037091074452E-02 
571	 0,016865205082266 
572	 1,78792634228726E-02 
573	 0,018690882689996 
574	 1,94719997511016E-02 
575	 2,02642379488851E-02 
576	 2,11769606904983E-02 
577	 2,17891297942813E-02 
578	 2,16488845331445E-02 
579	 2,17184260301026E-02 
580	 2,20310750714126E-02 
581	 2,19276243609795E-02 
582	 2,16432402796053E-02 
583	 2,14280888786268E-02 
584	 2,22533627322853E-02 
585	 2,30088082190998E-02 
586	 2,15294405020837E-02 
587	 2,00510590047085E-02 
588	 1,95241337471897E-02 
589	 2,08063220787873E-02 
590	 2,15985040778227E-02 
591	 1,98726939055618E-02 
592	 1,89366819417298E-02 
593	 1,91726311549846E-02 
594	 1,98918076783583E-02 
595	 1,96722525467609E-02 
596	 1,80672945581778E-02 
597	 1,73237112217615E-02 
598	 1,73500913430588E-02 
599	 1,76211057259915E-02 
600	 1,77689833078478E-02 
601	 1,75489708504111E-02 
602	 1,65277715763244E-02 
603	 1,60934652147757E-02 
604	 1,71710612122125E-02 
605	 1,70553676782017E-02 
606	 1,60073959629546E-02 
607	 1,58407267062679E-02 
608	 1,57141355884267E-02 
609	 1,53895011034303E-02 
610	 1,51778682274076E-02 
611	 1,48373494101009E-02 
612	 1,40518550468838E-02 
613	 1,42334848021052E-02 
614	 0,015156205284698 
615	 1,49097726831915E-02 
616	 1,44081900566388E-02 
617	 1,42696440250868E-02 
618	 1,45409623162056E-02 
619	 1,47823692385575E-02 
620	 1,40199152582745E-02 
621	 0,013952040590845 
622	 0,014835403806449 
623	 1,48884205480997E-02 
624	 1,48945491177968E-02 
625	 1,57247263130476E-02 
626	 1,62645550680244E-02 
627	 1,63717719808871E-02 
628	 1,63576689119445E-02 
629	 1,63537344596962E-02 
630	 1,64578026453606E-02 
631	 1,65939788272394E-02 
632	 1,70021751938659E-02 
633	 1,81291226528657E-02 
634	 1,84652972931897E-02 
635	 1,79265820910863E-02 
636	 0,018160592803616 
637	 1,86591163960409E-02 
638	 1,89923007840155E-02 
639	 1,99926460738049E-02 
640	 0,021159208731826 
641	 2,08900275882773E-02 
642	 2,06576192821928E-02 
643	 2,09716812961979E-02 
644	 2,09403444335686E-02 
645	 2,10150405732554E-02 
646	 2,18658540906028E-02 
647	 2,25348660486761E-02 
648	 2,26981542312389E-02 
649	 0,022121935305017 
650	 0,021881085068958 
651	 2,25936340026753E-02 
652	 2,27831654235092E-02 
653	 2,24422930277288E-02 
654	 2,19161923140033E-02 
655	 2,22782861750304E-02 
656	 2,33938472734247E-02 
657	 2,26466913001439E-02 
658	 2,14025808723183E-02 
659	 2,12026775043629E-02 
660	 0,020787051288796 
661	 1,98857883649327E-02 
662	 1,82370840606556E-02 
663	 1,76405270629183E-02 
664	 1,86962076785535E-02 
665	 1,84641920021651E-02 
666	 0,017499744123051 
667	 1,72313375426167E-02 
668	 1,68671819154126E-02 
669	 0,016321265796214 
670	 1,59867521166634E-02 
671	 1,58778010628821E-02 
672	 1,59649362299622E-02 
673	 0,015860988185541 
674	 1,56302116939889E-02 
675	 1,56381524030842E-02 
676	 1,54952856305684E-02 
677	 1,51795472705328E-02 
678	 1,54052354291591E-02 
679	 1,56900402625449E-02 
680	 1,54073356470546E-02 
681	 1,51566549016894E-02 
682	 1,50970481113468E-02 
683	 0,015281962046246 
684	 1,53069298370838E-02 
685	 1,50273755793002E-02 
686	 0,015341090501849 
687	 1,60540047166546E-02 
688	 1,66171251391939E-02 
689	 0,017156237664123 
690	 1,77294043723412E-02 
691	 1,84245842121772E-02 
692	 1,94861533644359E-02 
693	 2,10693081956971E-02 
694	 2,21523098053171E-02 
695	 2,31136970619205E-02 
696	 2,54189998295661E-02 
697	 0,027942091218876 
698	 3,03636747661958E-02 
699	 0,03363964956035 
700	 3,74314509696813E-02 
701	 4,11995571247915E-02 
702	 4,57972460935775E-02 
703	 5,10449870800824E-02 
704	 5,57630776878801E-02 
705	 0,060531202599616 
706	 6,56742336830441E-02 
707	 7,08003253037947E-02 
708	 7,59381581513725E-02 
709	 8,12420216434822E-02 
710	 8,65667245588064E-02 
711	 0,091845890220473 
712	 9,70825259194835E-02 
713	 0,102136970082996 
714	 0,106926182057298 
715	 0,112099215026897 
716	 0,117394438418048 
717	 0,121885811539575 
718	 0,126005621781003 
719	 0,129943239848968 
720	 0,133828784366125 
721	 0,137475291643523 
722	 0,140625843577044 
723	 0,144396593979035 
724	 0,148458827839772 
725	 0,150775071559724 
726	 0,152948036792569 
727	 0,1558879791637 
728	 0,158326520450394 
729	 0,160388923212313 
730	 0,162580541631582 
731	 0,164787665573645 
732	 0,166844194599704 
733	 0,16814887914517 
734	 0,169274086759185 
735	 0,170726542983013 
736	 0,172116447863867 
737	 0,173317813888803 
738	 0,174190143798403 
739	 0,174893000371674 
740	 0,175645305055953 
741	 0,177248240985048 
742	 0,178687901162126 
743	 0,178765823177249 
744	 0,179221253245604 
745	 0,180167990530342 
746	 0,180624501579666 
747	 0,181105680313458 
748	 0,181859485117877 
749	 0,182664543028179 
750	 0,183305889325837 
751	 0,183495106173706 
752	 0,183897974248484 
753	 0,184511795291197 
754	 0,184515661952311 
755	 0,184635885308211 
756	 0,185329656629641 
757	 0,185517945251337 
758	 0,185465699955403 
759	 0,186076964463802 
760	 0,186486072169173 
761	 0,186513392829383 
762	 0,186686469048742 
763	 0,187042065493193 
764	 0,187553575842794 
765	 0,187574755310776 
766	 0,187397013992373 
767	 0,188189252114164 
768	 0,188602829005942 
769	 0,188219002417213 
770	 0,187930432509907 
771	 0,188034161573095 
772	 0,188756029789158 
773	 0,189021152269075 
774	 0,188815499768868 
775	 0,188914416664674 
776	 0,189204446772498 
777	 0,189562088997965 
778	 0,189412429645614 
779	 0,189279694472908 
780	 0,190029682697804 
781	 0,19008235458743 
782	 0,189448669286948 
783	 0,189748078912465 
784	 0,190195516594636 
785	 0,190278001633949 
786	 0,190298149796276 
787	 0,190384817690372 
788	 0,190706879943506 
789	 0,190973343128437 
790	 0,19103854192343 
791	 0,190720540010463 
792	 0,190468338706338 
793	 0,190619761263763 
794	 0,190664752252081 
795	 0,190664456924455 
796	 0,190967911353183 
797	 0,191027800531975 
798	 0,190786696430331 
799	 0,190931689665535 
800	 0,191082455896945 
801	 0,190890286023686 
802	 0,191069812791898 
803	 0,191468697772035 
804	 0,191380146763037 
805	 0,191137061202644 
806	 0,190978039660177 
807	 0,191461771366753 
808	 0,192148762528429 
809	 0,192517104808833 
810	 0,192524425149312 
811	 0,192394832695082 
812	 0,192763178019103 
813	 0,193276535371781 
814	 0,193720479748163 
815	 0,193763232082786 
816	 0,193773585525559 
817	 0,194214456591623 
818	 0,194669583119884 
819	 0,19503651204192 
820	 0,195347071525603 
821	 0,195455224612784 
822	 0,195384090048164 
823	 0,195739415469917 
824	 0,196158310556587 
825	 0,196107674343877 
826	 0,196243742929448 
827	 0,196584540430109 
828	 0,196642208612291 
829	 0,196856625233966 
830	 0,197363918671843 
831	 0,197504898994519 
832	 0,197387577546408 
833	 0,1972621943602 
834	 0,197117354654146 
835	 0,197113355877501 
836	 0,197723518738636 
837	 0,198298024397313 
838	 0,198458448643011 
839	 0,198372815416067 
840	 0,19824276568362 
841	 0,198322351817876 
842	 0,198144061944701 
843	 0,19783392777562 
844	 0,198146065882678 
845	 0,198688582358024 
846	 0,199173035087531 
847	 0,199284035396581 
848	 0,199186530094993 
849	 0,199175359625971 
850	 0,198996128468704 
851	 0,19877607945034 
852	 0,199127370580157 
853	 0,199298677522574 
854	 0,198984352082224 
855	 0,19915840912118 
856	 0,199424812690362 
857	 0,199110911123484 
858	 0,199340652368706 
859	 0,200103851390251 
860	 0,200540091306879 
861	 0,200534769186185 
862	 0,200118067912185 
863	 0,200017083662522 
864	 0,200139430941811 
865	 0,200249239176615 
866	 0,20058193175811 
867	 0,200960869927457 
868	 0,200705011930565 
869	 0,200545864839687 
870	 0,200846642201725 
871	 0,20156312993126 
872	 0,20188978805234 
873	 0,200945978401457 
874	 0,200860861779646 
875	 0,201636023031768 
876	 0,201868043999572 
877	 0,201806371888694 
878	 0,201620707731338 
879	 0,201858359241768 
880	 0,202190723467164 
881	 0,202226574578382 
882	 0,202279550315022 
883	 0,202369703333208 
884	 0,202386358508748 
885	 0,202407834759859 
886	 0,20247211965722 
887	 0,202645320156495 
888	 0,202665082731889 
889	 0,202348838242505 
890	 0,202623707023401 
891	 0,203239640487106 
892	 0,203287160847307 
893	 0,203305065981755 
894	 0,203392360256434 
895	 0,203146444134767 
896	 0,203291829506346 
897	 0,204283486508039 
898	 0,204847293549807 
899	 0,204790782877983 
900	 0,204142892886884 
901	 0,203933241984448 
902	 0,20430510310747 
903	 0,204427611295891 
904	 0,204632049840028 
905	 0,204945703505332 
906	 0,20390016293501 
907	 0,203024682979484 
908	 0,204671563388902 
909	 0,204670181269945 
910	 0,203117521717543 
911	 0,203697920807786 
912	 0,20442110997379 
913	 0,204327846332196 
914	 0,203550221675458 
915	 0,202862434448225 
916	 0,203069262478535 
917	 0,203072759606736 
918	 0,202844081338215 
919	 0,202961689630571 
920	 0,202620406058656 
921	 0,201820461293999 
922	 0,201926684198418 
923	 0,202203074113763 
924	 0,202016847757283 
925	 0,202054372492365 
926	 0,201880576533125 
927	 0,200511796873496 
928	 0,200127350113394 
929	 0,200687850994473 
930	 0,199668645914492 
931	 0,197981784484553 
932	 0,196495849290141 
933	 0,197216981039731 
934	 0,197910904497994 
935	 0,195585435088816 
936	 0,194888941277284 
937	 0,195825765723455 
938	 0,19534667696876 
939	 0,194901287015911 
940	 0,194784651492727 
941	 0,194021688450297 
942	 0,192706262363502 
943	 0,191048197357561 
944	 0,189813173911966 
945	 0,18869091389089 
946	 0,186809843620368 
947	 0,185553926229171 
948	 0,185010563570446 
949	 0,183977918755599 
950	 0,182811948674183 
951	 0,181639958338593 
952	 0,179949532331263 
953	 0,17838139256683 
954	 0,177753695711983 
955	 0,1786185344961 
956	 0,179232648973521 
957	 0,174667647320757 
958	 0,172096093510276 
959	 0,173146626447178 
960	 0,172667022057605 
961	 0,171570022804479 
962	 0,170705675162965 
963	 0,169983654067709 
964	 0,169926783930528 
965	 0,171253417894555 
966	 0,171258242288207 
967	 0,169949899864949 
968	 0,169952445532003 
969	 0,168230973362187 
970	 0,164677373814526 
971	 0,165582810537019 
972	 0,167864692196676 
973	 0,168312394871794 
974	 0,168009632859371 
975	 0,167540843530152 
976	 0,167743359638323 
977	 0,167227339777949 
978	 0,166220754710452 
979	 0,166798814460576 
980	 0,167423023885031 
981	 0,167316334521585 
982	 0,166721056394237 
983	 0,166662325028951 
984	 0,16799062759774 
985	 0,168347157567384 
986	 0,168046065548295 
987	 0,168565684191929 
988	 0,169043539733998 
989	 0,169069545264798 
990	 0,167908940626718 
991	 0,167583072623939 
992	 0,168907292133743 
993	 0,169871485895894 
994	 0,1700082215896 
995	 0,169178664129875 
996	 0,169458459243179 
997	 0,170256169547181 
998	 0,169565845647387 
999	 0,170347418908023 
1000	 0,172726258565771 
1001	 0,174436821171086 
1002	 0,174394887055307 
1003	 0,172505037722743 
1004	 0,171886350346327 
1005	 0,172096927599648 
1006	 0,172624459036488 
1007	 0,175949891500325 
1008	 0,179858859705408 
1009	 0,179877861722061 
1010	 0,177752548966921 
1011	 0,175624823625261 
1012	 0,179025761578689 
1013	 0,181038133960076 
1014	 0,179424564309745 
1015	 0,179803674741326 
1016	 0,180371255490108 
1017	 0,179668400187134 
1018	 0,181004818864516 
1019	 0,182362543072334 
1020	 0,180314256510595 
1021	 0,183292928191695 
1022	 0,189184816945069 
1023	 0,186185009607945 
1024	 0,187462062124472 
1025	 0,193614348497861 
1026	 0,185789155394523 
1027	 0,180251623268443 
1028	 0,186642017944471 
1029	 0,190683887554997 
1030	 0,189503425032166 
1031	 0,182565148184181 
1032	 0,183670857931528 
1033	 0,190759184231864 
1034	 0,19379326762991 
1035	 0,19240366078616 
1036	 0,190040801501644 
1037	 0,200400182237088 
1038	 0,205530978091279 
1039	 0,19933633634779 
1040	 0,196907380763595 
1041	 0,196121292671286 
1042	 0,194788782814401 
1043	 0,194782666573886 
1044	 0,195861103635255 
1045	 0,197335785195972 
1046	 0,198674935794785 
1047	 0,198581981907436 
1048	 0,194026089653255 
1049	 0,197395621833889 
1050	 0,207580867724463 
1051	 0,204929545313362 
1052	 0,203610464315742 
1053	 0,208220742084748 
1054	 0,202583708622105 
1055	 0,194724302297619 
1056	 0,192144822048714 
1057	 0,187773615915506 
1058	 0,185143289319624 
1059	 0,189798174922526 
1060	 0,197914562384164 
1061	 0,205116622658723 
1062	 0,204539515376925 
1063	 0,206748670014255 
1064	 0,213184253602738 
1065	 0,219567878927253 
1066	 0,207534525609947 
1067	 0,180383977195272 
1068	 0,199895478996636 
1069	 0,220215986672704 
1070	 0,208452655763745 
1071	 0,202783499936924 
1072	 0,200266162035755 
1073	 0,192934839959647 
1074	 0,194029467034418 
1075	 0,195658263227637 
