Wavelength	GRA-VIE00743.asd
325	 0,266753688587528 
326	 0,426980849707619 
327	 0,441658828121501 
328	 0,276174528729771 
329	 0,395326806113348 
330	 0,486133141318191 
331	 0,288685707687137 
332	 0,303917969544851 
333	 0,446844952993693 
334	 0,228359441588624 
335	 0,205010275671462 
336	 0,408403254144511 
337	 0,395191485673204 
338	 0,315276409789669 
339	 0,27132049568686 
340	 0,206640661048555 
341	 0,148516254067096 
342	 0,217487245427019 
343	 0,255578794172194 
344	 0,230678156057441 
345	 0,200029890898221 
346	 0,190940555805479 
347	 0,231727674340284 
348	 0,249674442435018 
349	 0,236846537057635 
350	 0,215155554825041 
351	 0,194729779658875 
352	 0,178711450004631 
353	 0,179590263115122 
354	 0,207716209871058 
355	 0,270557394751424 
356	 0,270166148088842 
357	 0,212604953056458 
358	 0,169722912186108 
359	 0,161397634771924 
360	 0,193165824195445 
361	 0,223948661263324 
362	 0,232847132544404 
363	 0,203396449769606 
364	 0,208551591438201 
365	 0,237391972603848 
366	 0,178793230607208 
367	 0,138643044607016 
368	 0,178051171122452 
369	 0,207747136803135 
370	 0,217527458913249 
371	 0,211660474641239 
372	 0,202808809509165 
373	 0,197555821713546 
374	 0,204101172828268 
375	 0,202416347493077 
376	 0,179346207815507 
377	 0,171990845236569 
378	 0,179158859662337 
379	 0,182201651991546 
380	 0,188509032555266 
381	 0,19673935852272 
382	 0,196545765981573 
383	 0,182702238028227 
384	 0,153726880909243 
385	 0,163790896333495 
386	 0,195510962771626 
387	 0,184688509364127 
388	 0,179362320643596 
389	 0,193079518178472 
390	 0,192726024267623 
391	 0,182642714718833 
392	 0,171177398375006 
393	 0,164739550661168 
394	 0,165345390736301 
395	 0,173868038653252 
396	 0,179798389447906 
397	 0,178715421072789 
398	 0,176880865647548 
399	 0,174368475232537 
400	 0,169185998438146 
401	 0,176095033555612 
402	 0,190408573697538 
403	 0,181438485334745 
404	 0,174544427201528 
405	 0,185378543641306 
406	 0,18328887073036 
407	 0,174129161786547 
408	 0,179167873908223 
409	 0,179909883810079 
410	 0,17339236838529 
411	 0,170087451221517 
412	 0,171514426245836 
413	 0,177766643335119 
414	 0,175968927000211 
415	 0,167825116757942 
416	 0,163919146602444 
417	 0,162642105426624 
418	 0,16254554176672 
419	 0,157144562129931 
420	 0,155225722441677 
421	 0,168447179520517 
422	 0,170116540043446 
423	 0,160757013400342 
424	 0,163550656859312 
425	 0,167122865446462 
426	 0,165025581136692 
427	 0,164095807482258 
428	 0,16451342085832 
429	 0,165308801552458 
430	 0,163055006899991 
431	 0,158743352884003 
432	 0,161103011249508 
433	 0,164586404650526 
434	 0,16427100731551 
435	 0,166551079311064 
436	 0,169369366968911 
437	 0,16414422907478 
438	 0,162177210226563 
439	 0,166761109788558 
440	 0,167433772102233 
441	 0,165580989786607 
442	 0,164106316975495 
443	 0,162849046507103 
444	 0,162376517240803 
445	 0,163871769415312 
446	 0,16686767866351 
447	 0,170392897953375 
448	 0,169160981099369 
449	 0,165873849559172 
450	 0,166804195503392 
451	 0,168253826504109 
452	 0,169018488876923 
453	 0,168836232854193 
454	 0,168745915734955 
455	 0,169679926001286 
456	 0,170694799672044 
457	 0,170999190198634 
458	 0,16864466858046 
459	 0,168336353490382 
460	 0,171256909806529 
461	 0,170826717981162 
462	 0,169143956750602 
463	 0,169837975317888 
464	 0,170045621227075 
465	 0,169745211514149 
466	 0,171509929707382 
467	 0,17217838663193 
468	 0,170064685335942 
469	 0,170176860195943 
470	 0,171101509288069 
471	 0,168122331156162 
472	 0,169050304950201 
473	 0,174324078390203 
474	 0,173394120376523 
475	 0,171308858878205 
476	 0,173355600075114 
477	 0,172684811007648 
478	 0,170216546766567 
479	 0,172597462937782 
480	 0,173128186885313 
481	 0,169481704648093 
482	 0,168369030920399 
483	 0,169360738460078 
484	 0,170769397806256 
485	 0,171231494789795 
486	 0,170627152233048 
487	 0,170371593349643 
488	 0,170270049273841 
489	 0,170272741163418 
490	 0,172073973157232 
491	 0,173623467767697 
492	 0,169279055830164 
493	 0,167022160358363 
494	 0,169013172662987 
495	 0,170045226101771 
496	 0,170119152511429 
497	 0,169708007792234 
498	 0,168836527725814 
499	 0,16774826217168 
500	 0,166641231094058 
501	 0,166868964246442 
502	 0,168949500502053 
503	 0,17027063717158 
504	 0,171060365917704 
505	 0,172564269552467 
506	 0,172491613549057 
507	 0,170993319523237 
508	 0,171551211665343 
509	 0,173087321744381 
510	 0,17440630832743 
511	 0,174682416227663 
512	 0,174334345739752 
513	 0,174805080886689 
514	 0,175979259533598 
515	 0,177417298413769 
516	 0,176502625709452 
517	 0,175160940509491 
518	 0,17635986388406 
519	 0,177314446789357 
520	 0,177509733711643 
521	 0,177948601642549 
522	 0,177961099996225 
523	 0,177193332858912 
524	 0,177239250228447 
525	 0,178004903824604 
526	 0,178865681802255 
527	 0,1787906411412 
528	 0,177706012195323 
529	 0,177597195753687 
530	 0,177715815866741 
531	 0,177045348627024 
532	 0,176652652884258 
533	 0,176687851125047 
534	 0,176855863200554 
535	 0,17693944691708 
536	 0,176829789736657 
537	 0,176911905469672 
538	 0,176960463058694 
539	 0,176390818976643 
540	 0,176472960440896 
541	 0,177372330421652 
542	 0,177957727986777 
543	 0,177971083100556 
544	 0,177275206028029 
545	 0,17686276833462 
546	 0,177040909416402 
547	 0,178128859835989 
548	 0,178505781107466 
549	 0,17765649178232 
550	 0,178228658195477 
551	 0,179393932793514 
552	 0,179425145246656 
553	 0,179160527746496 
554	 0,178817174744424 
555	 0,17829780043942 
556	 0,178017860201684 
557	 0,178253684946682 
558	 0,178007590500764 
559	 0,177247750500066 
560	 0,176151396432031 
561	 0,176112292949139 
562	 0,177339087213694 
563	 0,177159283442296 
564	 0,176340146095895 
565	 0,176210344512467 
566	 0,176548645764363 
567	 0,177162438746476 
568	 0,177449583185308 
569	 0,177825408701258 
570	 0,178573191380502 
571	 0,179421952397404 
572	 0,180378159222836 
573	 0,181568919258529 
574	 0,182703784977948 
575	 0,183766238812817 
576	 0,185320965686067 
577	 0,18673783208319 
578	 0,187318563811683 
579	 0,188643999522253 
580	 0,190689286252218 
581	 0,192323495033653 
582	 0,193368246872621 
583	 0,193843576871549 
584	 0,195064562900882 
585	 0,19645456806252 
586	 0,196619460520409 
587	 0,19740700699434 
588	 0,19907578150343 
589	 0,200118589087512 
590	 0,200905382704949 
591	 0,20180320091516 
592	 0,201979453492929 
593	 0,201781043580308 
594	 0,202514862396121 
595	 0,20340019759549 
596	 0,204023152585426 
597	 0,204297298176229 
598	 0,204108322962217 
599	 0,203271714910537 
600	 0,203367414483465 
601	 0,204419125288509 
602	 0,204771776008963 
603	 0,204180117588971 
604	 0,202622404037541 
605	 0,201897293315311 
606	 0,20186736019083 
607	 0,201389494452986 
608	 0,200688004381876 
609	 0,199794016291386 
610	 0,198533851912129 
611	 0,197676964674546 
612	 0,198145565635747 
613	 0,198227715237287 
614	 0,197638845878227 
615	 0,197020007827324 
616	 0,196439452425428 
617	 0,195944991336073 
618	 0,195290885158364 
619	 0,194862620341568 
620	 0,195492332295828 
621	 0,196180423392646 
622	 0,196451356370454 
623	 0,195928961998554 
624	 0,195264686795094 
625	 0,195165396886618 
626	 0,195722900835451 
627	 0,196617713605211 
628	 0,196895133774285 
629	 0,197104040553835 
630	 0,197461041607124 
631	 0,197375719775418 
632	 0,197374138963468 
633	 0,198417053843151 
634	 0,199007924325651 
635	 0,199076011028767 
636	 0,200217628473809 
637	 0,201649100988407 
638	 0,202671814583123 
639	 0,203726065040098 
640	 0,204826062893299 
641	 0,205912711893084 
642	 0,206614978231884 
643	 0,206893192778591 
644	 0,207563645169386 
645	 0,208299359202029 
646	 0,208576102721571 
647	 0,208853246466431 
648	 0,208974279817647 
649	 0,207963005322671 
650	 0,207133883311092 
651	 0,207220549189142 
652	 0,20630955674392 
653	 0,204644684670517 
654	 0,203255637232611 
655	 0,202105746443486 
656	 0,201075288619006 
657	 0,199431717641271 
658	 0,197609341598059 
659	 0,196094793511826 
660	 0,194397949411813 
661	 0,192488381785196 
662	 0,190529046936722 
663	 0,188657189906711 
664	 0,186954125856647 
665	 0,185225265951946 
666	 0,183891373632215 
667	 0,183649322950217 
668	 0,182949629303453 
669	 0,181700762556489 
670	 0,181432983383756 
671	 0,18160864307682 
672	 0,18170041225821 
673	 0,181124520579319 
674	 0,180288173306624 
675	 0,180468296956385 
676	 0,180553099326096 
677	 0,180206341303115 
678	 0,179914260321193 
679	 0,17991764578702 
680	 0,180442972853313 
681	 0,181135014278735 
682	 0,181892069157431 
683	 0,182691896087464 
684	 0,18366414474214 
685	 0,184938401192887 
686	 0,186749390779735 
687	 0,189129295957986 
688	 0,192018426547642 
689	 0,195642997764909 
690	 0,199969673180696 
691	 0,20447020409422 
692	 0,209688251627435 
693	 0,216100572436418 
694	 0,223110558980817 
695	 0,230762063084675 
696	 0,239553865678162 
697	 0,248741950263312 
698	 0,258107750378688 
699	 0,268566849285644 
700	 0,279542903922778 
701	 0,290191532147971 
702	 0,301066860308465 
703	 0,312083162622681 
704	 0,322636078648535 
705	 0,333044217088567 
706	 0,343394074559644 
707	 0,352816198710986 
708	 0,361449145782985 
709	 0,369736668292285 
710	 0,37774613508244 
711	 0,385480815779057 
712	 0,392736779487026 
713	 0,399357947298511 
714	 0,405248046668019 
715	 0,410639440150832 
716	 0,415747809484733 
717	 0,420975520075025 
718	 0,425840770020672 
719	 0,430102422316399 
720	 0,433616965330393 
721	 0,436735757253787 
722	 0,439932771404669 
723	 0,443058842400397 
724	 0,44600869460456 
725	 0,448551806567073 
726	 0,450905503827871 
727	 0,453170746865458 
728	 0,454996562161998 
729	 0,456574622639222 
730	 0,458315887498356 
731	 0,459947472521036 
732	 0,46136035594455 
733	 0,462448246947533 
734	 0,463391489617781 
735	 0,464374056485873 
736	 0,465648022063219 
737	 0,46700839188819 
738	 0,467817692910067 
739	 0,4686603212104 
740	 0,469660068977258 
741	 0,470246475655181 
742	 0,470585431952972 
743	 0,470927841790522 
744	 0,471674978197234 
745	 0,472652525855027 
746	 0,473002881634225 
747	 0,473326598039297 
748	 0,473961987731718 
749	 0,474906722305615 
750	 0,475762266789472 
751	 0,475921723401128 
752	 0,476175862638434 
753	 0,476720739798772 
754	 0,477404839468536 
755	 0,477888787021847 
756	 0,477976526728822 
757	 0,478326389365348 
758	 0,478783727846834 
759	 0,478755148766009 
760	 0,479201391510555 
761	 0,480219086658787 
762	 0,480736743420403 
763	 0,480921117740143 
764	 0,481015066628525 
765	 0,481540402159705 
766	 0,482188074512174 
767	 0,481821197713398 
768	 0,481607165758015 
769	 0,482023993484682 
770	 0,482904328048675 
771	 0,483555631815331 
772	 0,483220483645342 
773	 0,483287584761952 
774	 0,483843045131848 
775	 0,484097617417571 
776	 0,484308086143045 
777	 0,484588641450857 
778	 0,484869820128761 
779	 0,485097634387735 
780	 0,485204999593162 
781	 0,485295620460186 
782	 0,485431534106681 
783	 0,485651884082288 
784	 0,486164763344337 
785	 0,486957093864043 
786	 0,486723580608658 
787	 0,486093736469619 
788	 0,486495716911608 
789	 0,487089005496951 
790	 0,487582902779968 
791	 0,487873269189626 
792	 0,488019057959877 
793	 0,488099913417008 
794	 0,488395852523278 
795	 0,488735945401006 
796	 0,48860706983559 
797	 0,488797592063531 
798	 0,489401943446349 
799	 0,489500751627474 
800	 0,489533305529594 
801	 0,489923490600125 
802	 0,490067198763721 
803	 0,490050605159661 
804	 0,490370805394808 
805	 0,490700043219248 
806	 0,490960104225848 
807	 0,491419765015097 
808	 0,491753681140402 
809	 0,491643629977368 
810	 0,492123203846347 
811	 0,493035396635137 
812	 0,49335706015843 
813	 0,493477378965381 
814	 0,493580454432483 
815	 0,493802909559113 
816	 0,49411210960287 
817	 0,494449033295518 
818	 0,494963083996875 
819	 0,495568894470031 
820	 0,495905935226041 
821	 0,496414777508854 
822	 0,497155649034766 
823	 0,497144552595521 
824	 0,496831059232509 
825	 0,496915551137691 
826	 0,497486222676047 
827	 0,498174191482457 
828	 0,497704932634405 
829	 0,497329947080012 
830	 0,497679666210971 
831	 0,498193294855966 
832	 0,498583274515628 
833	 0,498553806817304 
834	 0,498583137198434 
835	 0,498725070250843 
836	 0,498697000473177 
837	 0,498779364701818 
838	 0,499083021719166 
839	 0,499210179639267 
840	 0,499379597600318 
841	 0,499954814081567 
842	 0,500109880444804 
843	 0,499975370578376 
844	 0,500769458572738 
845	 0,501291550650929 
846	 0,500969615339994 
847	 0,500790650708535 
848	 0,500836360808915 
849	 0,501045792473073 
850	 0,501632790169015 
851	 0,502445467118649 
852	 0,502949833894781 
853	 0,503029961570595 
854	 0,502705281839192 
855	 0,502572231325578 
856	 0,502737719500121 
857	 0,503224975234044 
858	 0,50352197555313 
859	 0,503592668960693 
860	 0,503773615619678 
861	 0,504097905436435 
862	 0,5045501846168 
863	 0,504818270577316 
864	 0,505187720113078 
865	 0,506051133751017 
866	 0,50640124661068 
867	 0,506269442750822 
868	 0,506527747947313 
869	 0,506787454651808 
870	 0,506901646142545 
871	 0,507110112701797 
872	 0,507251661251471 
873	 0,507121861090115 
874	 0,507062473594473 
875	 0,507157619817562 
876	 0,50736745729595 
877	 0,507759143852831 
878	 0,508324314547277 
879	 0,509023842886213 
880	 0,509156887104827 
881	 0,508115542263671 
882	 0,508373412753899 
883	 0,509655298481637 
884	 0,509889416409073 
885	 0,50986150158351 
886	 0,509907434932806 
887	 0,510520609410521 
888	 0,510947485409626 
889	 0,510527673684971 
890	 0,510475202297392 
891	 0,510831546221966 
892	 0,511187900205576 
893	 0,511461291306642 
894	 0,511685433208719 
895	 0,512293681824965 
896	 0,512642559909282 
897	 0,512330469271555 
898	 0,512579213404393 
899	 0,513322702871341 
900	 0,514111967935094 
901	 0,514465419305751 
902	 0,514337030299065 
903	 0,514167565732667 
904	 0,514320835871797 
905	 0,514935154306804 
906	 0,515217441216842 
907	 0,515182206630179 
908	 0,515010411552324 
909	 0,515071058053299 
910	 0,515404926242736 
911	 0,515775495941218 
912	 0,516208279170971 
913	 0,516603605466295 
914	 0,516407947115802 
915	 0,516180340552595 
916	 0,516565900567639 
917	 0,517002531803371 
918	 0,517197991545 
919	 0,516643308673978 
920	 0,51661611591973 
921	 0,51736409881587 
922	 0,51768393459767 
923	 0,517739494827704 
924	 0,517708883152788 
925	 0,517487483069045 
926	 0,517357707786312 
927	 0,517898758288569 
928	 0,516881862880223 
929	 0,514756841687769 
930	 0,515522576605429 
931	 0,516580747355982 
932	 0,516494191033678 
933	 0,516796096059278 
934	 0,517265749283038 
935	 0,517442491209305 
936	 0,517780738600879 
937	 0,517952087547244 
938	 0,516555843659024 
939	 0,516593154155111 
940	 0,518270448704007 
941	 0,516123299029815 
942	 0,514115321171497 
943	 0,515719292830038 
944	 0,516483280476429 
945	 0,515804257365823 
946	 0,513917855340355 
947	 0,51350402797381 
948	 0,514354786999034 
949	 0,512364683945715 
950	 0,510823071776642 
951	 0,511242850755031 
952	 0,510184631204782 
953	 0,508918672238845 
954	 0,509304539417236 
955	 0,509058790953849 
956	 0,508039668032348 
957	 0,506974096347218 
958	 0,507213474339788 
959	 0,508565582422925 
960	 0,507783896326403 
961	 0,506271638212153 
962	 0,50540262341878 
963	 0,506390626511282 
964	 0,508000742202286 
965	 0,508090266220465 
966	 0,507591710643668 
967	 0,506811367811615 
968	 0,505842294943567 
969	 0,505743303833789 
970	 0,506830906786098 
971	 0,50815315539374 
972	 0,508531421598845 
973	 0,507172981533107 
974	 0,506792127387482 
975	 0,507150649698618 
976	 0,506951393250017 
977	 0,506675925039781 
978	 0,50675891679544 
979	 0,508436574330718 
980	 0,509260451187578 
981	 0,508287717630478 
982	 0,5078928815541 
983	 0,507824470575153 
984	 0,507706124590783 
985	 0,508646828026725 
986	 0,509799314404308 
987	 0,509101981527867 
988	 0,510108644209332 
989	 0,512873743778591 
990	 0,513722447081195 
991	 0,514625116836762 
992	 0,515977720640363 
993	 0,513418813341978 
994	 0,51206806783969 
995	 0,51680408745722 
996	 0,517262365259122 
997	 0,514927117061798 
998	 0,516393161109006 
999	 0,518291679644928 
1000	 0,519793541950722 
1001	 0,521552458428781 
1002	 0,521815911523368 
1003	 0,520471927875026 
1004	 0,522298917570002 
1005	 0,524658533875406 
1006	 0,524752239281549 
1007	 0,524864433416083 
1008	 0,525421742624154 
1009	 0,526479710772548 
1010	 0,528117008130264 
1011	 0,530206887706542 
1012	 0,532880892655441 
1013	 0,532855324255534 
1014	 0,529770117787046 
1015	 0,529621709080742 
1016	 0,531463256783727 
1017	 0,53393246648783 
1018	 0,535793094194227 
1019	 0,536761952946418 
1020	 0,536795709262489 
1021	 0,534766947995369 
1022	 0,53289678939815 
1023	 0,538032178356301 
1024	 0,540906918470155 
1025	 0,539732486250884 
1026	 0,542462047123067 
1027	 0,544944504805257 
1028	 0,544550300423963 
1029	 0,543831167976018 
1030	 0,544162737965476 
1031	 0,546589659501888 
1032	 0,547994386144176 
1033	 0,547372161400875 
1034	 0,544026511537401 
1035	 0,542794735518471 
1036	 0,545171178942022 
1037	 0,551682528650516 
1038	 0,553002076702953 
1039	 0,547030890736677 
1040	 0,547962426095842 
1041	 0,55117604979041 
1042	 0,552132384213385 
1043	 0,551739458818528 
1044	 0,551173563339983 
1045	 0,551789045321439 
1046	 0,549333312216364 
1047	 0,547427684125758 
1048	 0,556670892772344 
1049	 0,559724548647565 
1050	 0,555023931385631 
1051	 0,559911273858298 
1052	 0,562462696599853 
1053	 0,55839028593669 
1054	 0,557747094597214 
1055	 0,560964161323995 
1056	 0,567093113561557 
1057	 0,572107181078092 
1058	 0,568574470214506 
1059	 0,54900154864224 
1060	 0,548374731314031 
1061	 0,559737293466296 
1062	 0,549800485754163 
1063	 0,552335985777209 
1064	 0,568486823993216 
1065	 0,56393016937251 
1066	 0,560099552128805 
1067	 0,564942636692793 
1068	 0,567521152138811 
1069	 0,569224002620007 
1070	 0,571058030771833 
1071	 0,570443608042823 
1072	 0,5676097911651 
1073	 0,563644900591633 
1074	 0,566180822273362 
1075	 0,574048004927767 
