Wavelength	GRA-BER00718.asd
325	-0,1354273281232 
326	 1,48189944465893E-02 
327	 6,57798889589442E-02 
328	 7,43341820743675E-04 
329	-3,38214922956773E-02 
330	-2,71781290150542E-02 
331	 3,02459122859482E-02 
332	 4,20030650422513E-02 
333	 2,12609704323817E-02 
334	 2,64385692068429E-02 
335	 5,23619203748065E-02 
336	 8,10085015512309E-02 
337	 1,89968325406431E-02 
338	-1,91011081393909E-03 
339	 0,13248982691371 
340	 0,107151755469442 
341	-1,79510382930082E-02 
342	-4,11373233723764E-02 
343	-2,49394618004672E-02 
344	 5,83983730900297E-03 
345	 4,7923407981717E-03 
346	-5,18892388650652E-03 
347	 2,23254325981022E-03 
348	 2,74672487707461E-02 
349	 5,23038716655797E-02 
350	 0,026000444620194 
351	 3,54756795322484E-02 
352	 9,18636336344487E-02 
353	 9,50661511777164E-02 
354	 5,98555872764225E-02 
355	 3,56941699769732E-03 
356	-2,34170629920962E-02 
357	-1,10737748845361E-02 
358	 1,96693551803758E-02 
359	 2,75176141369376E-02 
360	 6,90531737972608E-03 
361	 1,90414654520963E-02 
362	 4,26919137063002E-02 
363	 3,68349728738935E-02 
364	 2,17315679084759E-02 
365	 5,98715781592113E-03 
366	 4,79248917032924E-03 
367	 1,10244197542122E-02 
368	 1,90788026189865E-02 
369	 0,02884195918183 
370	 3,34893531254468E-02 
371	 2,28258632874292E-02 
372	 2,35968545441864E-02 
373	 3,67605421812268E-02 
374	 2,90001770415586E-02 
375	 1,55467574170731E-02 
376	 8,40358609043168E-03 
377	-7,40056731365566E-04 
378	-7,53023552463617E-03 
379	-2,48444189778073E-03 
380	 1,02957020423325E-02 
381	 2,56633954360421E-02 
382	 2,18655035131215E-02 
383	 1,29124321731571E-02 
384	 1,24631882450614E-02 
385	 3,53831638858838E-03 
386	-8,70568802599228E-03 
387	-1,02561333881307E-02 
388	 6,22627459333864E-03 
389	 3,22634583609542E-02 
390	 2,02910714800565E-02 
391	 3,14217309351179E-03 
392	 2,30502480765569E-02 
393	 2,40971481846206E-02 
394	 7,17984478873692E-03 
395	 1,46589609812319E-02 
396	 2,03754071701516E-02 
397	 1,24598932752356E-02 
398	 4,61250306407637E-03 
399	 4,14306500715785E-03 
400	 1,98353931161484E-02 
401	 1,97352214933043E-02 
402	 4,3957952426021E-03 
403	 7,19034801469851E-03 
404	 1,23296944683328E-02 
405	 8,86971575350612E-03 
406	 3,96880927069909E-03 
407	 2,34108368476518E-03 
408	 1,12464653704396E-02 
409	 1,89097478162844E-02 
410	 2,04431365041581E-02 
411	 1,50954071267708E-02 
412	 7,16618634218606E-03 
413	 6,85081340379305E-04 
414	-1,51511128563663E-03 
415	 4,08535151657653E-04 
416	 3,64998360165353E-03 
417	 0,01101396621942 
418	 2,05860014906118E-02 
419	 1,71595200851907E-02 
420	 1,04332083761852E-02 
421	 1,43883437809092E-02 
422	 1,18155114947512E-02 
423	 4,58779723747761E-03 
424	 0,012116143795632 
425	 1,68053235845788E-02 
426	 9,97566250320792E-03 
427	 1,28664651605624E-02 
428	 0,019850599663542 
429	 1,63026361130255E-02 
430	 1,01892370070158E-02 
431	 5,4735935045454E-03 
432	 8,35949491537623E-03 
433	 1,24235342337265E-02 
434	 1,21253839851316E-02 
435	 1,34616017530392E-02 
436	 0,016240542847061 
437	 1,78873715079046E-02 
438	 1,68192399731049E-02 
439	 1,31712503115227E-02 
440	 1,23007101036137E-02 
441	 1,29393792733232E-02 
442	 1,28024534237927E-02 
443	 1,26654745892834E-02 
444	 1,22803632241477E-02 
445	 9,80301768817473E-03 
446	 1,05155103128218E-02 
447	 1,64531791828038E-02 
448	 1,46625812484338E-02 
449	 9,98392695580989E-03 
450	 1,47206727267753E-02 
451	 1,89052073608441E-02 
452	 1,93108693957778E-02 
453	 1,59907203033102E-02 
454	 1,36360394502102E-02 
455	 1,62557570788039E-02 
456	 1,81763440700673E-02 
457	 1,86257297466376E-02 
458	 1,85557461235029E-02 
459	 1,91864304644648E-02 
460	 2,05593230794142E-02 
461	 1,94700378638434E-02 
462	 1,62577817687945E-02 
463	 1,17191769677433E-02 
464	 1,10687982040559E-02 
465	 1,37775659457141E-02 
466	 1,27364446119927E-02 
467	 1,16026035277962E-02 
468	 1,28492173881986E-02 
469	 1,59819938663512E-02 
470	 1,84558560902368E-02 
471	 1,53771979145928E-02 
472	 1,32591985374724E-02 
473	 1,38447801105508E-02 
474	 0,014180757590065 
475	 1,35117263269265E-02 
476	 1,14313937672091E-02 
477	 1,26175696664547E-02 
478	 1,53399331064448E-02 
479	 1,17661568698738E-02 
480	 1,00607995260771E-02 
481	 1,34474054688839E-02 
482	 1,57666159919881E-02 
483	 1,67964914595822E-02 
484	 1,73995644722913E-02 
485	 0,014547840426165 
486	 9,84690452169791E-03 
487	 1,18456473688779E-02 
488	 0,015499986552071 
489	 1,66522233904129E-02 
490	 1,46600352593591E-02 
491	 1,13903888626485E-02 
492	 1,13452552530213E-02 
493	 0,011841160894484 
494	 1,18728985451343E-02 
495	 1,09043935667569E-02 
496	 1,03703207796424E-02 
497	 1,18811056976137E-02 
498	 1,35239218877625E-02 
499	 0,014251479743995 
500	 1,21524653426308E-02 
501	 1,10688580841773E-02 
502	 1,28093686787555E-02 
503	 0,012745311558925 
504	 1,18440778797923E-02 
505	 1,29286037853615E-02 
506	 1,28909628780229E-02 
507	 1,18092321110266E-02 
508	 1,43179257051838E-02 
509	 1,61032679318449E-02 
510	 1,34776639784215E-02 
511	 1,35005252628066E-02 
512	 1,56806851832995E-02 
513	 1,53355972965337E-02 
514	 1,38489179915253E-02 
515	 0,012176583526287 
516	 1,26087514293307E-02 
517	 1,37940052605632E-02 
518	 1,35515060384199E-02 
519	 1,34856258652985E-02 
520	 1,38106836203743E-02 
521	 1,38701664186119E-02 
522	 1,37716776162382E-02 
523	 1,36903288202801E-02 
524	 1,47782494605668E-02 
525	 1,59119598947981E-02 
526	 1,40736439863221E-02 
527	 1,27607316663516E-02 
528	 1,29586874473979E-02 
529	 1,25485594400468E-02 
530	 1,25554300264835E-02 
531	 1,42662595010689E-02 
532	 1,42430060687807E-02 
533	 1,27057460555744E-02 
534	 1,29418301700331E-02 
535	 1,32679071177847E-02 
536	 1,28350254750167E-02 
537	 1,31416589334921E-02 
538	 1,39050936971483E-02 
539	 1,43186332029023E-02 
540	 1,43218759570973E-02 
541	 1,40374513331692E-02 
542	 1,43101077294311E-02 
543	 1,43919349047456E-02 
544	 0,01359394470905 
545	 1,38665760407816E-02 
546	 1,48352782505716E-02 
547	 1,44007369040364E-02 
548	 1,35021594034785E-02 
549	 1,27878757108042E-02 
550	 1,34333998800249E-02 
551	 1,45430354848841E-02 
552	 1,45072430756879E-02 
553	 1,50615768851219E-02 
554	 1,61867075163538E-02 
555	 1,59133244008397E-02 
556	 1,53383037929497E-02 
557	 1,53437683959863E-02 
558	 1,44547231605905E-02 
559	 1,32213570845469E-02 
560	 1,34734124521594E-02 
561	 1,45450063299517E-02 
562	 1,60276942795663E-02 
563	 0,017187177516675 
564	 0,017867748640491 
565	 1,79940867715112E-02 
566	 1,84978261357016E-02 
567	 1,92915229751211E-02 
568	 0,01897896952011 
569	 1,89960864970716E-02 
570	 0,020306880521481 
571	 2,19304111044808E-02 
572	 2,32032567960612E-02 
573	 0,023091287867697 
574	 2,28756692143513E-02 
575	 2,31324189070835E-02 
576	 2,40960185714194E-02 
577	 2,51234250768913E-02 
578	 2,54855522007247E-02 
579	 2,59969497213153E-02 
580	 0,026443576126283 
581	 2,55080429217706E-02 
582	 2,48830907476973E-02 
583	 2,53925897641521E-02 
584	 2,52151977355169E-02 
585	 2,45096015444761E-02 
586	 2,39183425711924E-02 
587	 2,39913206250429E-02 
588	 2,45727577638787E-02 
589	 2,41924786417891E-02 
590	 2,31839103106405E-02 
591	 2,19884095974061E-02 
592	 2,15794153008852E-02 
593	 2,17366475275499E-02 
594	 2,12217697491282E-02 
595	 2,08480163720387E-02 
596	 2,09665932728667E-02 
597	 2,13624711836678E-02 
598	 2,15917234230274E-02 
599	 0,021034963904599 
600	 2,07964583716409E-02 
601	 2,09415913188555E-02 
602	 2,04407390047416E-02 
603	 1,97337838021827E-02 
604	 1,91985097426432E-02 
605	 1,87979225876586E-02 
606	 1,84760201115202E-02 
607	 1,81215285731336E-02 
608	 1,76310962615196E-02 
609	 1,70027639667689E-02 
610	 1,63891148150966E-02 
611	 0,01624363239642 
612	 1,70782942859134E-02 
613	 1,72027218919289E-02 
614	 1,66454756949335E-02 
615	 1,70638941258343E-02 
616	 1,74745539923951E-02 
617	 1,72788599223866E-02 
618	 1,70494820745254E-02 
619	 1,69997853621243E-02 
620	 1,73748889943829E-02 
621	 1,78615693088164E-02 
622	 0,018197073260122 
623	 1,77165466011883E-02 
624	 0,017324017806933 
625	 1,79467515792028E-02 
626	 1,83978056789806E-02 
627	 1,86351935795992E-02 
628	 1,93685683151244E-02 
629	 1,99117975588318E-02 
630	 1,99975299928402E-02 
631	 2,04352011573988E-02 
632	 2,10791610623539E-02 
633	 2,15322466886326E-02 
634	 2,21194081245691E-02 
635	 0,022767612260034 
636	 0,022800950816084 
637	 2,29548711830197E-02 
638	 2,38316580389219E-02 
639	 2,46649982528587E-02 
640	 2,52695384902888E-02 
641	 2,55820404248015E-02 
642	 2,57832513262651E-02 
643	 2,59457525974002E-02 
644	 2,59027863561206E-02 
645	 2,60150448688665E-02 
646	 2,67523237795825E-02 
647	 2,71963974665559E-02 
648	 2,72846329441841E-02 
649	 2,76831949192815E-02 
650	 2,81994216177492E-02 
651	 2,86135227285106E-02 
652	 2,81534480426441E-02 
653	 0,027374923363643 
654	 2,76450717900903E-02 
655	 2,77476550580737E-02 
656	 0,027473697836721 
657	 2,79171897128699E-02 
658	 2,82493362505094E-02 
659	 2,75807568136039E-02 
660	 2,66361594091127E-02 
661	 2,57583080119684E-02 
662	 2,53973757578556E-02 
663	 2,51122236541136E-02 
664	 2,46316384907749E-02 
665	 2,37616784795546E-02 
666	 2,29240179068045E-02 
667	 2,28079590629083E-02 
668	 2,24790459582369E-02 
669	 2,19095351340354E-02 
670	 2,21999983654228E-02 
671	 2,21881069799776E-02 
672	 2,10250579808954E-02 
673	 0,020323206278633 
674	 2,02133019586187E-02 
675	 2,03769226281176E-02 
676	 2,01242453337784E-02 
677	 1,93769837177935E-02 
678	 1,94780841517839E-02 
679	 1,98035674970486E-02 
680	 1,94939579950377E-02 
681	 1,92521154863477E-02 
682	 1,91861262536813E-02 
683	 1,90314890314625E-02 
684	 1,92324060330381E-02 
685	 1,99470542580115E-02 
686	 2,01549133078378E-02 
687	 2,02439948604054E-02 
688	 2,11521698412511E-02 
689	 2,20689390343606E-02 
690	 0,022844032897768 
691	 2,39492256527653E-02 
692	 2,51279620634931E-02 
693	 2,62176160194084E-02 
694	 2,85261693630301E-02 
695	 3,16720331582502E-02 
696	 0,033973489644536 
697	 3,69071149360568E-02 
698	 4,09664297815791E-02 
699	 4,52523114949706E-02 
700	 4,95598274967381E-02 
701	 5,37452539495927E-02 
702	 5,89395531247341E-02 
703	 6,51277296383113E-02 
704	 7,12899249690891E-02 
705	 7,75177954757255E-02 
706	 8,38311103260142E-02 
707	 0,090006741966664 
708	 9,62774421421298E-02 
709	 0,103167807710277 
710	 0,109933495995708 
711	 0,116267090946565 
712	 0,122013638497006 
713	 0,12780503744958 
714	 0,134158302850145 
715	 0,139873967676317 
716	 0,1449778048665 
717	 0,150103276359582 
718	 0,155312461937927 
719	 0,160547544487544 
720	 0,165173742489925 
721	 0,169484661805926 
722	 0,17393059588816 
723	 0,177812004469541 
724	 0,181215325864801 
725	 0,184948325117268 
726	 0,188498484791234 
727	 0,191541866490599 
728	 0,194166881112802 
729	 0,196387699428593 
730	 0,198112613376666 
731	 0,200722335902578 
732	 0,204152680453801 
733	 0,206135932510754 
734	 0,207645458252103 
735	 0,209588820005117 
736	 0,211435127597097 
737	 0,213069178721419 
738	 0,214392056160943 
739	 0,215711572801767 
740	 0,217084643946603 
741	 0,218037091538338 
742	 0,218941808088522 
743	 0,220255515831542 
744	 0,221242853976813 
745	 0,221853944168362 
746	 0,222400721901787 
747	 0,223273823132673 
748	 0,224591492313951 
749	 0,225517138912675 
750	 0,226087050217439 
751	 0,226519326828606 
752	 0,227070459944896 
753	 0,227785009740815 
754	 0,22845765825025 
755	 0,229097792491969 
756	 0,229695309312382 
757	 0,230039437447685 
758	 0,230362698191999 
759	 0,231237860776626 
760	 0,231751922001278 
761	 0,23175222250733 
762	 0,232016070728651 
763	 0,232516884143471 
764	 0,233167112359908 
765	 0,233628711487485 
766	 0,233869479585878 
767	 0,233980603165894 
768	 0,234176440801504 
769	 0,234589066879421 
770	 0,235359021451742 
771	 0,235995561528039 
772	 0,235935944093515 
773	 0,236003414333461 
774	 0,236308614670583 
775	 0,236530483319921 
776	 0,236862428572227 
777	 0,237337369736558 
778	 0,237513691576532 
779	 0,237508524940585 
780	 0,237558032186087 
781	 0,237978914278691 
782	 0,238705687322065 
783	 0,23922776532771 
784	 0,239422510814638 
785	 0,239241688074231 
786	 0,23893683125398 
787	 0,238950973846165 
788	 0,240008455735103 
789	 0,240530545253631 
790	 0,240290586476483 
791	 0,24059277222003 
792	 0,240988986438626 
793	 0,241124372732104 
794	 0,241417495524724 
795	 0,241883622390158 
796	 0,242441914835059 
797	 0,242823955659598 
798	 0,242949154755566 
799	 0,242958654952153 
800	 0,243085723369062 
801	 0,243506367487741 
802	 0,24358299085821 
803	 0,243533813560375 
804	 0,244297159917846 
805	 0,244688725186438 
806	 0,244462168811708 
807	 0,244858768546156 
808	 0,245373832169226 
809	 0,245399980842994 
810	 0,245503418148212 
811	 0,245769509918629 
812	 0,24610479884001 
813	 0,246451232005113 
814	 0,246755152687717 
815	 0,246910236847256 
816	 0,247082584583151 
817	 0,247475467629852 
818	 0,248056010415956 
819	 0,248596306698259 
820	 0,248392122309866 
821	 0,248556253584329 
822	 0,249477648203804 
823	 0,249909883119338 
824	 0,250091778681629 
825	 0,250488379302657 
826	 0,250573448549516 
827	 0,250513133166749 
828	 0,251178342629927 
829	 0,251948259243914 
830	 0,25241173539705 
831	 0,252197717670603 
832	 0,251884409526053 
833	 0,25229740160749 
834	 0,253034915473952 
835	 0,25378404474627 
836	 0,25386931897112 
837	 0,253996732084217 
838	 0,254468762415693 
839	 0,254493831612715 
840	 0,254313152633426 
841	 0,25437642390496 
842	 0,254936639810355 
843	 0,255855042555594 
844	 0,25650499577418 
845	 0,256809031312616 
846	 0,256740549426882 
847	 0,256430938716829 
848	 0,256512439603964 
849	 0,257801389415299 
850	 0,258040703816156 
851	 0,257279089593867 
852	 0,25764504045594 
853	 0,258359212557463 
854	 0,258966948940932 
855	 0,259359232145201 
856	 0,259554411729594 
857	 0,259619247716353 
858	 0,259995752019486 
859	 0,260602949309143 
860	 0,260879690595977 
861	 0,260651943257463 
862	 0,2600595487557 
863	 0,260691804171005 
864	 0,261544893062338 
865	 0,261136711351219 
866	 0,261514887339117 
867	 0,262620807235034 
868	 0,26283972051478 
869	 0,262752955940342 
870	 0,262700656263519 
871	 0,263142723925927 
872	 0,263399853667841 
873	 0,262659996855887 
874	 0,262668932156932 
875	 0,263337035942237 
876	 0,263212067812609 
877	 0,263239268786118 
878	 0,263670796823726 
879	 0,263634128951372 
880	 0,263516182459859 
881	 0,263803005513075 
882	 0,264504387522788 
883	 0,26517483180148 
884	 0,264588511778989 
885	 0,264392899943405 
886	 0,265007355671201 
887	 0,265192660693436 
888	 0,265181933630557 
889	 0,265273901442478 
890	 0,265635361579956 
891	 0,265968308979846 
892	 0,265529043204161 
893	 0,265274129993883 
894	 0,265439745812286 
895	 0,265528617911631 
896	 0,265561612332632 
897	 0,265558475610603 
898	 0,265458201044589 
899	 0,265356405226236 
900	 0,265417875739122 
901	 0,265741552752422 
902	 0,266194006048655 
903	 0,26615019431743 
904	 0,266266372913152 
905	 0,266886553776479 
906	 0,267436137796733 
907	 0,267397587454483 
908	 0,266189792176437 
909	 0,265165071291986 
910	 0,264807478049833 
911	 0,265397043857406 
912	 0,265817819793996 
913	 0,265646937639393 
914	 0,266096449237796 
915	 0,266430191244959 
916	 0,265814238696559 
917	 0,266067822413714 
918	 0,266824657240426 
919	 0,266162254331236 
920	 0,265862202468652 
921	 0,266222427635071 
922	 0,265674575402902 
923	 0,264599961114888 
924	 0,263518228710245 
925	 0,263835772921758 
926	 0,264394351785085 
927	 0,26267608774849 
928	 0,261966542937511 
929	 0,262576622412882 
930	 0,262045017324381 
931	 0,261309364664163 
932	 0,260838193280433 
933	 0,259933990446702 
934	 0,258688701793072 
935	 0,257338174333471 
936	 0,257004419151683 
937	 0,257272596014899 
938	 0,256386428061149 
939	 0,254452210421001 
940	 0,252210231935992 
941	 0,253352605239342 
942	 0,254138845073569 
943	 0,251444188908932 
944	 0,250606798017315 
945	 0,250866091487567 
946	 0,249229460172063 
947	 0,246639144423678 
948	 0,244114300062532 
949	 0,244410089246679 
950	 0,244624671911124 
951	 0,243009541912041 
952	 0,240087167088627 
953	 0,237553019997322 
954	 0,237232276871091 
955	 0,235745646800208 
956	 0,233556935083858 
957	 0,233923743381189 
958	 0,233044989206708 
959	 0,230244714624661 
960	 0,228545456297351 
961	 0,228691190283083 
962	 0,230505058496402 
963	 0,22822471928933 
964	 0,225057426658773 
965	 0,227084663569479 
966	 0,226689969918939 
967	 0,22388482556638 
968	 0,224703359058019 
969	 0,225556401559996 
970	 0,224841378449015 
971	 0,222366736341678 
972	 0,221285411414814 
973	 0,224056861808687 
974	 0,225066826151667 
975	 0,224779378399971 
976	 0,225817563873294 
977	 0,225955682401561 
978	 0,225039089061849 
979	 0,224378526203173 
980	 0,224891296361166 
981	 0,226481236190175 
982	 0,225608250216085 
983	 0,224012425343242 
984	 0,22374108470795 
985	 0,223505676063436 
986	 0,224095142340919 
987	 0,227507830091433 
988	 0,228097150067885 
989	 0,225686183375834 
990	 0,226128556302798 
991	 0,2263320714618 
992	 0,225462773823477 
993	 0,228769465942573 
994	 0,231513665988204 
995	 0,228933661521861 
996	 0,228221296273699 
997	 0,22937567674122 
998	 0,229798570655894 
999	 0,228692037893451 
1000	 0,227578470176839 
1001	 0,233278892536802 
1002	 0,235978091570224 
1003	 0,23245094942887 
1004	 0,235126857911541 
1005	 0,23867897516303 
1006	 0,237352636546967 
1007	 0,236099090616061 
1008	 0,236143614295765 
1009	 0,238180235289278 
1010	 0,237113869823833 
1011	 0,234203060287211 
1012	 0,238241769730316 
1013	 0,243113085877097 
1014	 0,245712100070872 
1015	 0,244671339750031 
1016	 0,243690677585191 
1017	 0,245650143654906 
1018	 0,246318511893949 
1019	 0,24542827819232 
1020	 0,243544936140726 
1021	 0,243334988643589 
1022	 0,244938932586726 
1023	 0,24675424629831 
1024	 0,24783824799174 
1025	 0,247977311521721 
1026	 0,248339506743926 
1027	 0,249144378558831 
1028	 0,250029030460049 
1029	 0,247521894289174 
1030	 0,24509086338795 
1031	 0,246969210666663 
1032	 0,2482465438927 
1033	 0,249319614541443 
1034	 0,252959863638034 
1035	 0,253935854425276 
1036	 0,252072411358141 
1037	 0,252565036645094 
1038	 0,250767921569699 
1039	 0,247169436459144 
1040	 0,255726670200854 
1041	 0,261560933528017 
1042	 0,253880760395515 
1043	 0,254013830851566 
1044	 0,258100686338869 
1045	 0,256947367266429 
1046	 0,258216980680698 
1047	 0,260182196889886 
1048	 0,255327382030826 
1049	 0,251726466670854 
1050	 0,251418174772527 
1051	 0,252095858120773 
1052	 0,251515061637571 
1053	 0,250029766763598 
1054	 0,256263574757652 
1055	 0,264675835840097 
1056	 0,269447821445025 
1057	 0,27107212168036 
1058	 0,267481843591897 
1059	 0,256644177039164 
1060	 0,253251558442581 
1061	 0,257155112654965 
1062	 0,259216214229424 
1063	 0,264971744604491 
1064	 0,271521386801318 
1065	 0,262156068258373 
1066	 0,265235726061603 
1067	 0,284556090006763 
1068	 0,268897008217606 
1069	 0,255451507931828 
1070	 0,270616351297569 
1071	 0,270351682979977 
1072	 0,260512131411061 
1073	 0,254693077330738 
1074	 0,257449231302585 
1075	 0,25950804087319 
