Wavelength	GRA-BER00634.asd
325	 0,341791328041862 
326	 4,43183955493521E-02 
327	-0,120715829165723 
328	-0,058008398653109 
329	-0,050512766430473 
330	-6,11651838743303E-02 
331	-4,71918393731517E-02 
332	-8,1420535783084E-03 
333	 3,21081395288488E-02 
334	 4,35343071909946E-02 
335	 1,40340621472157E-02 
336	-4,07047020427898E-02 
337	-5,27691993795821E-02 
338	-1,67684933902698E-02 
339	 6,01755792235087E-02 
340	 3,02040758627149E-02 
341	-4,47656696513622E-02 
342	 2,65843830889981E-03 
343	 1,30850721763305E-02 
344	-4,08802352423876E-02 
345	-3,50174606734373E-02 
346	-2,85378164016546E-03 
347	 0,012426376915914 
348	 5,63120598651627E-02 
349	 0,100717586333052 
350	 5,57762261975727E-02 
351	 4,35288452706671E-02 
352	 8,91025182326558E-02 
353	 5,76428495844752E-02 
354	 7,69371748031684E-03 
355	 9,05860151577779E-03 
356	-1,63675781205662E-03 
357	-1,05772780299005E-02 
358	 7,57190406083843E-02 
359	 9,04843614617489E-02 
360	 8,80843575207603E-04 
361	 0,017928482770555 
362	 7,54945689343408E-02 
363	 3,87744434312452E-02 
364	 2,06913167170843E-02 
365	 2,98053251954122E-02 
366	 3,64263046126438E-03 
367	-1,00274567936381E-02 
368	 1,61193826024471E-02 
369	 4,21766884994503E-02 
370	 5,34591056849864E-02 
371	 3,81028573336889E-02 
372	 2,76431885309681E-02 
373	 2,97055381536481E-02 
374	 2,65600825167612E-02 
375	 2,38319615745975E-02 
376	 2,47990799802089E-02 
377	 9,84199646648969E-03 
378	-5,28736288059579E-03 
379	 2,09495838603165E-02 
380	 2,31113340964137E-02 
381	-3,65902065773694E-03 
382	 2,12441490839137E-02 
383	 4,40355347703131E-02 
384	 1,45444969235855E-02 
385	 1,18032270275567E-02 
386	 3,09787248368072E-02 
387	 2,05027176458015E-02 
388	 2,33237316686166E-02 
389	 4,59192053111179E-02 
390	 3,36721585612368E-02 
391	 1,32258913538966E-02 
392	 2,06674580589274E-02 
393	 2,21387876853276E-02 
394	 1,61378420719746E-02 
395	 2,17210738925512E-02 
396	 2,63015293165257E-02 
397	 2,33582520581571E-02 
398	 1,26057568670383E-02 
399	 7,35033883907596E-03 
400	 0,027136975635658 
401	 2,81425265601885E-02 
402	 1,06910324858389E-02 
403	 1,86641775757581E-02 
404	 2,83760703226947E-02 
405	 2,37568331981127E-02 
406	 1,88870631977532E-02 
407	 1,77676402630488E-02 
408	 2,44697946666876E-02 
409	 2,73621145327097E-02 
410	 2,48761314995607E-02 
411	 3,00695106440854E-02 
412	 3,09020111383112E-02 
413	 1,67157241079574E-02 
414	 0,010067342937516 
415	 1,28987826774683E-02 
416	 1,84317929184886E-02 
417	 2,19526551737607E-02 
418	 2,14379485549767E-02 
419	 2,05239493012507E-02 
420	 1,91538038108728E-02 
421	 1,68512467264268E-02 
422	 1,42084798573501E-02 
423	 1,35206603029578E-02 
424	 0,022190729063015 
425	 0,027387023165239 
426	 2,26437511165054E-02 
427	 2,25440189358731E-02 
428	 2,48897994644285E-02 
429	 2,23545830461751E-02 
430	 1,79253798185568E-02 
431	 1,45727638053993E-02 
432	 2,16675674545992E-02 
433	 2,64483863467079E-02 
434	 1,86074175500239E-02 
435	 1,84638558136011E-02 
436	 2,41936265750648E-02 
437	 2,16321293443188E-02 
438	 1,74794174723299E-02 
439	 1,49265094623659E-02 
440	 1,71380775993036E-02 
441	 2,05403300245578E-02 
442	 2,03673289272377E-02 
443	 1,85320188616192E-02 
444	 1,64844204160141E-02 
445	 1,71396969106487E-02 
446	 1,94522398860232E-02 
447	 2,21972029555727E-02 
448	 0,020910690549238 
449	 1,84827334846725E-02 
450	 2,16004927300891E-02 
451	 2,23347034926706E-02 
452	 1,95358084342932E-02 
453	 1,96623175006927E-02 
454	 2,10480868201198E-02 
455	 2,18690294512337E-02 
456	 2,20561460645886E-02 
457	 2,21414114687197E-02 
458	 2,38725065074138E-02 
459	 2,46728677138911E-02 
460	 2,38289525426931E-02 
461	 2,46821218307944E-02 
462	 2,50349055337763E-02 
463	 2,15773420106975E-02 
464	 1,96628624695361E-02 
465	 1,97498193045107E-02 
466	 1,77274068206892E-02 
467	 1,73422873982245E-02 
468	 0,020591469202455 
469	 2,18587913513277E-02 
470	 2,14569893421407E-02 
471	 2,16470931847966E-02 
472	 2,21230071597493E-02 
473	 2,26944889015205E-02 
474	 2,27672374438629E-02 
475	 2,18393693933675E-02 
476	 1,96111881009754E-02 
477	 1,97872890907919E-02 
478	 0,021516399204926 
479	 2,01185888021699E-02 
480	 1,93474396518105E-02 
481	 2,06300274817464E-02 
482	 0,020885908786337 
483	 2,10728218210324E-02 
484	 2,31543170886037E-02 
485	 2,28383817881069E-02 
486	 2,05228195136616E-02 
487	 2,24471961483071E-02 
488	 2,41162104314402E-02 
489	 2,22822975868141E-02 
490	 2,06353332529337E-02 
491	 1,98515304115114E-02 
492	 2,01082158093231E-02 
493	 2,02093073511236E-02 
494	 1,96887837759648E-02 
495	 1,86760668594438E-02 
496	 1,81686126846797E-02 
497	 1,92167828856601E-02 
498	 1,96653195585316E-02 
499	 1,92818908606958E-02 
500	 0,019048376172014 
501	 1,86207344847057E-02 
502	 1,79812137506422E-02 
503	 1,83238790798972E-02 
504	 1,93868178266715E-02 
505	 0,02069529965212 
506	 1,94623602274783E-02 
507	 1,64105294470475E-02 
508	 1,85659154458404E-02 
509	 2,11588215787848E-02 
510	 1,98848197303288E-02 
511	 2,06188668602827E-02 
512	 2,25147834821567E-02 
513	 2,02919788475784E-02 
514	 1,90912212777384E-02 
515	 2,06225089907261E-02 
516	 2,04893324333054E-02 
517	 1,91581099008404E-02 
518	 1,77970477497938E-02 
519	 1,86129774411597E-02 
520	 2,10269335520565E-02 
521	 0,020719818249972 
522	 2,00694179273848E-02 
523	 0,020719247652519 
524	 2,03738975391482E-02 
525	 1,95470550548545E-02 
526	 0,020217350250105 
527	 2,05614234651981E-02 
528	 2,00445923811175E-02 
529	 1,93204503885943E-02 
530	 1,90038530765595E-02 
531	 0,019703705248541 
532	 1,99521955433378E-02 
533	 1,96709675154859E-02 
534	 1,99269556929639E-02 
535	 0,019535151221952 
536	 1,81292905441015E-02 
537	 1,86978897902895E-02 
538	 2,03362050540055E-02 
539	 2,08300903706018E-02 
540	 0,019810832486352 
541	 1,78804206629034E-02 
542	 1,85482950237425E-02 
543	 1,96729799534786E-02 
544	 1,90763885016929E-02 
545	 1,91536278674596E-02 
546	 1,98668878933494E-02 
547	 1,97664841803554E-02 
548	 1,96733043002831E-02 
549	 2,00303647703152E-02 
550	 2,11366272830085E-02 
551	 2,20216293949979E-02 
552	 2,11504874843199E-02 
553	 2,06211808734267E-02 
554	 2,08134400835721E-02 
555	 2,04497842956947E-02 
556	 2,05296497785441E-02 
557	 2,17123632346066E-02 
558	 2,11333745549526E-02 
559	 1,94847442343149E-02 
560	 1,96345929711783E-02 
561	 2,07585252308482E-02 
562	 2,23040654043212E-02 
563	 2,28208625617043E-02 
564	 2,27319736308925E-02 
565	 2,27945614854894E-02 
566	 2,30405544190316E-02 
567	 2,34677543697098E-02 
568	 2,37878127289822E-02 
569	 2,46024257150874E-02 
570	 2,61610236622931E-02 
571	 2,66142252551176E-02 
572	 0,026369810925404 
573	 0,02688586850306 
574	 2,79048970393599E-02 
575	 2,91121630669139E-02 
576	 2,91912684151063E-02 
577	 2,89237130064732E-02 
578	 2,92905968925543E-02 
579	 2,98988371588454E-02 
580	 3,02971820829896E-02 
581	 2,92038974557977E-02 
582	 2,87357557342377E-02 
583	 2,99171039991839E-02 
584	 3,04644870324347E-02 
585	 3,02475941033929E-02 
586	 2,95430243523051E-02 
587	 2,94865525714564E-02 
588	 3,00675480510157E-02 
589	 2,94849973390886E-02 
590	 2,83486135471322E-02 
591	 2,73596583005192E-02 
592	 2,73052983744409E-02 
593	 2,77476164813743E-02 
594	 2,69809627865654E-02 
595	 2,63908680803721E-02 
596	 2,65650883963239E-02 
597	 2,68642034443992E-02 
598	 2,69556469832217E-02 
599	 2,64449414338058E-02 
600	 2,63246561570759E-02 
601	 2,65940338295645E-02 
602	 2,61277161758791E-02 
603	 2,52933671898148E-02 
604	 0,024506772863365 
605	 2,49027631528984E-02 
606	 2,57854438265584E-02 
607	 2,49804525494611E-02 
608	 2,41835046270903E-02 
609	 2,38826302396472E-02 
610	 2,29128580360706E-02 
611	 2,22543380126093E-02 
612	 2,31855350188839E-02 
613	 2,33455118945397E-02 
614	 2,26431727253285E-02 
615	 2,29404165559667E-02 
616	 2,30168885582221E-02 
617	 2,22534328908429E-02 
618	 2,23910632727898E-02 
619	 2,32212687510457E-02 
620	 2,39095528406968E-02 
621	 2,40848353364287E-02 
622	 2,37176320288335E-02 
623	 2,35086811536199E-02 
624	 2,35504244877534E-02 
625	 2,38737904312093E-02 
626	 2,40198276237643E-02 
627	 2,41512314533489E-02 
628	 2,50781639812953E-02 
629	 2,60077477661941E-02 
630	 2,64961847747673E-02 
631	 2,66773010348641E-02 
632	 0,026649580264948 
633	 2,64788950070974E-02 
634	 2,73260331056791E-02 
635	 2,89983892577845E-02 
636	 2,92447908495432E-02 
637	 0,029152664786363 
638	 0,029695803759764 
639	 3,03324005112787E-02 
640	 3,09914063061928E-02 
641	 0,031806773978642 
642	 3,21373771508413E-02 
643	 3,18824523668962E-02 
644	 3,21399028307813E-02 
645	 3,27720749973814E-02 
646	 3,34576115660161E-02 
647	 3,40191199157599E-02 
648	 3,43781009000226E-02 
649	 3,44640075318853E-02 
650	 3,48230559265884E-02 
651	 3,56893642523621E-02 
652	 3,56288901638695E-02 
653	 3,50155294493074E-02 
654	 3,50054786875651E-02 
655	 3,52639662736363E-02 
656	 3,56777658566974E-02 
657	 0,036198354765823 
658	 3,63692569208786E-02 
659	 3,57472708506232E-02 
660	 3,46009910586393E-02 
661	 3,35030669821367E-02 
662	 0,033859823039369 
663	 3,40503410884636E-02 
664	 3,32945567309238E-02 
665	 3,24481543403538E-02 
666	 3,17578596608397E-02 
667	 0,031437778880156 
668	 3,11394706863835E-02 
669	 0,030788580309604 
670	 3,05533239962278E-02 
671	 0,03031912125129 
672	 2,99767161776462E-02 
673	 2,93673302260627E-02 
674	 2,87174164913595E-02 
675	 2,86220432481425E-02 
676	 0,028569495495575 
677	 2,83596331078577E-02 
678	 2,80159409605796E-02 
679	 2,77240016245266E-02 
680	 2,76976702957657E-02 
681	 2,78099980777511E-02 
682	 2,78041770802089E-02 
683	 2,67893384288194E-02 
684	 2,67018530045487E-02 
685	 2,84076766167112E-02 
686	 2,88408029939406E-02 
687	 2,85635686817774E-02 
688	 2,93402233735193E-02 
689	 2,99749196982341E-02 
690	 3,04254157517921E-02 
691	 3,19695091382403E-02 
692	 0,033739665003004 
693	 3,49795468640293E-02 
694	 3,69420057472816E-02 
695	 3,95721755477263E-02 
696	 4,20400509512784E-02 
697	 4,51483571681562E-02 
698	 4,91937331326747E-02 
699	 5,38347658482248E-02 
700	 5,86190473140626E-02 
701	 6,30288468524699E-02 
702	 6,85472778053226E-02 
703	 7,51604853322261E-02 
704	 8,15740448818067E-02 
705	 8,80140561330228E-02 
706	 9,46042802301302E-02 
707	 0,101207575917465 
708	 0,108006265457116 
709	 0,115406684268735 
710	 0,122734326729442 
711	 0,12963525691007 
712	 0,135712329120256 
713	 0,141727737229106 
714	 0,148329012986721 
715	 0,154232875158605 
716	 0,159546544953844 
717	 0,16513292582265 
718	 0,170853631008523 
719	 0,176520621309311 
720	 0,181375546737423 
721	 0,185644227668843 
722	 0,189713527872347 
723	 0,193712424187055 
724	 0,197683410392221 
725	 0,201537341349617 
726	 0,205119168713395 
727	 0,208300213802046 
728	 0,210850540473261 
729	 0,213038450178159 
730	 0,215345253134929 
731	 0,217882977879739 
732	 0,220543884896002 
733	 0,222697883866962 
734	 0,224453615981561 
735	 0,225951692743722 
736	 0,227401985940484 
737	 0,228897106859543 
738	 0,230551329703528 
739	 0,232022058704041 
740	 0,233189187592559 
741	 0,234218285684698 
742	 0,235261763729685 
743	 0,236471105192156 
744	 0,237583133070243 
745	 0,238482865420548 
746	 0,238988587521432 
747	 0,239661314844875 
748	 0,240711670596746 
749	 0,241255566710589 
750	 0,241551087911649 
751	 0,242143273608194 
752	 0,242943613355194 
753	 0,243791961924704 
754	 0,244177013375855 
755	 0,244417536745695 
756	 0,244769688755626 
757	 0,245210339800956 
758	 0,245798887022913 
759	 0,246687855333141 
760	 0,247317620721348 
761	 0,247540702744603 
762	 0,247683856974876 
763	 0,247871959309323 
764	 0,248196100560898 
765	 0,248445550901715 
766	 0,248584208736597 
767	 0,248545890334975 
768	 0,248955560901735 
769	 0,249871341328277 
770	 0,250050682626397 
771	 0,249921824903396 
772	 0,250114069594836 
773	 0,250459793484044 
774	 0,250873993008056 
775	 0,251221498098664 
776	 0,251351946913035 
777	 0,251266464514423 
778	 0,251552590570774 
779	 0,252052419127826 
780	 0,252436405868207 
781	 0,252698440054812 
782	 0,252824553889497 
783	 0,252767955623809 
784	 0,252960244411963 
785	 0,253612191773799 
786	 0,253931134330319 
787	 0,254008438480185 
788	 0,254220828288528 
789	 0,254356264016868 
790	 0,254482362925382 
791	 0,255143088236216 
792	 0,255560972107851 
793	 0,255210019537354 
794	 0,255522305337981 
795	 0,256271000707206 
796	 0,256432471464211 
797	 0,256720637783712 
798	 0,257227466245665 
799	 0,257287811906612 
800	 0,257287744968033 
801	 0,257606728044104 
802	 0,257937109121063 
803	 0,258206004750509 
804	 0,258398740983981 
805	 0,258417925232845 
806	 0,258372865751845 
807	 0,259002334442963 
808	 0,259752343014597 
809	 0,259997973097802 
810	 0,260383565641002 
811	 0,26079483261644 
812	 0,260501351007407 
813	 0,260457586662588 
814	 0,260989276498947 
815	 0,261307081851442 
816	 0,261617581145276 
817	 0,262230222223874 
818	 0,262645711117553 
819	 0,262770652946239 
820	 0,262610810058806 
821	 0,262838490475647 
822	 0,263666551399746 
823	 0,264134510023027 
824	 0,26432256832044 
825	 0,264469614575141 
826	 0,264636832996603 
827	 0,264849512405931 
828	 0,265050299091101 
829	 0,265447479412375 
830	 0,26603124052489 
831	 0,265977766375191 
832	 0,265780236364493 
833	 0,266218871932626 
834	 0,266557915918577 
835	 0,266755482000485 
836	 0,267298385695634 
837	 0,267719925584907 
838	 0,267845951964463 
839	 0,268399913392887 
840	 0,268986837680689 
841	 0,268953140428343 
842	 0,269012157043265 
843	 0,269401515905476 
844	 0,270368334304717 
845	 0,270732173139426 
846	 0,270064822432564 
847	 0,270357165745692 
848	 0,271147688121721 
849	 0,271467629273082 
850	 0,271269448220655 
851	 0,27078979660896 
852	 0,270791950064083 
853	 0,27137833278521 
854	 0,272405431265318 
855	 0,272480001182482 
856	 0,272182192512368 
857	 0,272521579503043 
858	 0,272703264911229 
859	 0,272762999245498 
860	 0,273457170737064 
861	 0,273886677996456 
862	 0,273690566915444 
863	 0,273830904537427 
864	 0,274187656429399 
865	 0,274471114657051 
866	 0,274881050246057 
867	 0,275279137528816 
868	 0,275179362739145 
869	 0,274855373334879 
870	 0,274633001048876 
871	 0,27560301042816 
872	 0,276533510974533 
873	 0,275903283000148 
874	 0,276027199345354 
875	 0,276767153150128 
876	 0,276097465157992 
877	 0,276050075842313 
878	 0,27712656016543 
879	 0,276982011743672 
880	 0,276519449947843 
881	 0,276867075496154 
882	 0,277008023892508 
883	 0,276990620176103 
884	 0,277524359860823 
885	 0,277657480335357 
886	 0,277237086205625 
887	 0,277384613343397 
888	 0,277636231634313 
889	 0,277536903317872 
890	 0,277787347146834 
891	 0,278205936257489 
892	 0,278139277763438 
893	 0,2780340578224 
894	 0,278051413180435 
895	 0,278151532342671 
896	 0,278579698325814 
897	 0,279389572402099 
898	 0,279301028464112 
899	 0,278681802953858 
900	 0,278553144786081 
901	 0,27842433025283 
902	 0,278245296108219 
903	 0,278197112589749 
904	 0,278535957150668 
905	 0,279232940722978 
906	 0,278927593414648 
907	 0,278159924203541 
908	 0,277937101918384 
909	 0,277834070394245 
910	 0,277814128145281 
911	 0,277963492056201 
912	 0,278457787033552 
913	 0,279248898709005 
914	 0,279710264731209 
915	 0,279609955334814 
916	 0,278835045685501 
917	 0,27865835143343 
918	 0,278886086732448 
919	 0,278261462267434 
920	 0,277845829203797 
921	 0,277906581198569 
922	 0,277984846915495 
923	 0,277547658097182 
924	 0,276333233916081 
925	 0,276158645244155 
926	 0,276518915927313 
927	 0,275945914341682 
928	 0,275705409423285 
929	 0,275870285901536 
930	 0,275453780459326 
931	 0,274875807723146 
932	 0,27428028748731 
933	 0,272852491792566 
934	 0,27127061752643 
935	 0,270485088469719 
936	 0,270332302601458 
937	 0,270370674167061 
938	 0,269492827651207 
939	 0,2685967668241 
940	 0,267941089753907 
941	 0,267116903641482 
942	 0,265790286484086 
943	 0,263817815922135 
944	 0,262555415403646 
945	 0,262234723495513 
946	 0,262891786414632 
947	 0,261653307838288 
948	 0,258732330454683 
949	 0,258448642368361 
950	 0,257636331139015 
951	 0,254769921462977 
952	 0,252582367766804 
953	 0,250580969297308 
954	 0,247932483466882 
955	 0,247096140959205 
956	 0,247649964769795 
957	 0,247279282355258 
958	 0,246312883743479 
959	 0,244846141307301 
960	 0,243145700073753 
961	 0,241777009520167 
962	 0,241174190358637 
963	 0,241194481111635 
964	 0,241440856170446 
965	 0,241371093120136 
966	 0,240347263318365 
967	 0,238739997405919 
968	 0,238068813525604 
969	 0,238352872505431 
970	 0,239027849297818 
971	 0,236782301801689 
972	 0,235431868120756 
973	 0,238165698089101 
974	 0,238675169264208 
975	 0,237284381607962 
976	 0,23649631623855 
977	 0,236183651024028 
978	 0,236524686322754 
979	 0,238013341163151 
980	 0,238596071529267 
981	 0,237612887691152 
982	 0,2380672549128 
983	 0,238100805042062 
984	 0,236006349832622 
985	 0,23748789057652 
986	 0,240843423524253 
987	 0,240812055568823 
988	 0,240627083975671 
989	 0,240551317723316 
990	 0,237989277862054 
991	 0,237099291086572 
992	 0,239744283231495 
993	 0,242891258388104 
994	 0,244073843033165 
995	 0,241450549139712 
996	 0,239428484493396 
997	 0,239550883486751 
998	 0,242931816854449 
999	 0,245588413976806 
1000	 0,246290836721865 
1001	 0,245731545861043 
1002	 0,244303498297152 
1003	 0,2431944541235 
1004	 0,24742272911202 
1005	 0,25128808955457 
1006	 0,249416227595313 
1007	 0,249209502634921 
1008	 0,250214216021033 
1009	 0,249357066762879 
1010	 0,250172506359463 
1011	 0,252552560024251 
1012	 0,253023850567867 
1013	 0,253355330505137 
1014	 0,254021709236342 
1015	 0,253033065224951 
1016	 0,253941703624331 
1017	 0,258866864722943 
1018	 0,259022482650615 
1019	 0,257239356357887 
1020	 0,259522031112717 
1021	 0,259584729689875 
1022	 0,257992894228827 
1023	 0,260305501065802 
1024	 0,263160494319359 
1025	 0,264471057205497 
1026	 0,260053851159282 
1027	 0,258803450154033 
1028	 0,265167528333729 
1029	 0,266761606681676 
1030	 0,26439205665592 
1031	 0,261066202842571 
1032	 0,261843569054554 
1033	 0,265696394233028 
1034	 0,268229547391931 
1035	 0,269282420236022 
1036	 0,269872564257688 
1037	 0,275446127232536 
1038	 0,2733285945928 
1039	 0,261907813611834 
1040	 0,264888412472956 
1041	 0,271656675022107 
1042	 0,272190419099379 
1043	 0,269495280741784 
1044	 0,266094271605426 
1045	 0,265420185710101 
1046	 0,270522868300189 
1047	 0,277332189905439 
1048	 0,275162353334495 
1049	 0,27060619975602 
1050	 0,267664207079567 
1051	 0,274104017301185 
1052	 0,275423979534577 
1053	 0,267566840193601 
1054	 0,272944762307437 
1055	 0,277364567233825 
1056	 0,269392750500838 
1057	 0,270988270381672 
1058	 0,277150352122411 
1059	 0,276938746966923 
1060	 0,276134582561563 
1061	 0,276888402072713 
1062	 0,281568308593899 
1063	 0,281981281331369 
1064	 0,276952952165577 
1065	 0,270344949347258 
1066	 0,272002500496619 
1067	 0,282452057379607 
1068	 0,278909543625 
1069	 0,277232136926787 
1070	 0,28825887758401 
1071	 0,293506542331686 
1072	 0,287548852162556 
1073	 0,268481295739912 
1074	 0,259467445364481 
1075	 0,259708399650073 
