Wavelength	GRA-BER00501.asd
325	 7,21974066818949E-02 
326	 0,179474488297581 
327	 0,166971713301053 
328	 5,05389228200392E-02 
329	 3,53378443857919E-02 
330	 7,01346634020993E-02 
331	 9,81625298668189E-02 
332	 4,15007862375608E-02 
333	-2,06381664651204E-02 
334	 8,48121713693253E-02 
335	 0,114013517262998 
336	 5,02336919295701E-02 
337	 8,44933154524079E-02 
338	 0,125526901709864 
339	 7,97240130859832E-02 
340	 2,06726428080443E-02 
341	-1,90972883723884E-02 
342	-2,20177040678869E-02 
343	-1,88002765834545E-02 
344	-1,44869187644278E-02 
345	 2,60468394579182E-02 
346	 4,38161739592425E-02 
347	-0,010765108799351 
348	 1,90338794233978E-02 
349	 9,51830849253185E-02 
350	 7,37764583443997E-02 
351	 6,80186336152869E-02 
352	 0,105400254808922 
353	 0,101640628953773 
354	 6,55765184792261E-02 
355	 8,26308903728891E-03 
356	-1,12159150671767E-02 
357	 1,57355392448548E-02 
358	 5,55095113012901E-02 
359	 6,25371638266424E-02 
360	 3,38181901642029E-02 
361	 5,61794815293428E-02 
362	 8,79050582724177E-02 
363	 5,53840025053653E-02 
364	 2,92204758361132E-02 
365	 2,50433934223513E-02 
366	 4,36415692269134E-02 
367	 5,45677362101618E-02 
368	 4,29964005735671E-02 
369	 6,42234888726708E-02 
370	 8,65536511413065E-02 
371	 5,10269379368127E-02 
372	 3,02376899687027E-02 
373	 0,040233133809256 
374	 4,29806870751965E-02 
375	 3,97280149108963E-02 
376	 3,17765971875973E-02 
377	 1,26335548923578E-02 
378	 5,05267575534742E-04 
379	 3,57418087534534E-02 
380	 5,02145533206601E-02 
381	 3,17222100231407E-02 
382	 2,44426841688356E-02 
383	 2,43914820477461E-02 
384	 2,47819737664407E-02 
385	 3,12095876960207E-02 
386	 3,73670187949331E-02 
387	 2,45702799474504E-02 
388	 2,78248465107351E-02 
389	 5,18173693080442E-02 
390	 0,043328837732295 
391	 3,33072887811689E-02 
392	 6,17242897233952E-02 
393	 5,59569034091509E-02 
394	 0,022798848321242 
395	 3,44596282115615E-02 
396	 4,73045569532599E-02 
397	 4,09638036145423E-02 
398	 3,79891904742106E-02 
399	 3,94627003078621E-02 
400	 4,33698279084174E-02 
401	 4,61239295514788E-02 
402	 4,71155232138104E-02 
403	 4,87265256781283E-02 
404	 4,94346890398265E-02 
405	 4,82754499093428E-02 
406	 4,59722444791025E-02 
407	 0,044972504833871 
408	 5,01311834763752E-02 
409	 0,051689667172315 
410	 4,80296255292955E-02 
411	 4,78118482994214E-02 
412	 4,52549839778218E-02 
413	 3,53267144515245E-02 
414	 3,44879966349493E-02 
415	 4,07167133360409E-02 
416	 4,01879193870674E-02 
417	 4,40943069621458E-02 
418	 5,35871866026536E-02 
419	 4,96259344167924E-02 
420	 4,22287968641273E-02 
421	 4,61653561868237E-02 
422	 4,62428323551969E-02 
423	 4,30191130816912E-02 
424	 5,01476883682116E-02 
425	 5,54611423724359E-02 
426	 5,24430716869826E-02 
427	 5,11501241568421E-02 
428	 5,17242701796121E-02 
429	 5,20706409372846E-02 
430	 5,08503874190637E-02 
431	 4,90252231388482E-02 
432	 0,053367125925957 
433	 5,58162851096197E-02 
434	 4,98960507040314E-02 
435	 0,049023712410957 
436	 5,31157074887987E-02 
437	 5,59520022554024E-02 
438	 5,58815453774177E-02 
439	 0,052971674126404 
440	 5,33303887931084E-02 
441	 5,58875713751873E-02 
442	 5,85472360220549E-02 
443	 5,77503572778868E-02 
444	 5,43433537107505E-02 
445	 5,37976620109798E-02 
446	 5,61563963281401E-02 
447	 6,06050530354616E-02 
448	 5,96625006048271E-02 
449	 5,65336232473503E-02 
450	 5,92131003438168E-02 
451	 6,06788364787767E-02 
452	 5,94027043708315E-02 
453	 5,83426769970449E-02 
454	 0,059121934304557 
455	 0,062658418819823 
456	 6,09814587788426E-02 
457	 5,67215749998371E-02 
458	 6,10481310258883E-02 
459	 6,53875995478226E-02 
460	 6,58698683015878E-02 
461	 6,28665246852341E-02 
462	 5,93173981362777E-02 
463	 5,89843225678048E-02 
464	 5,91245973869127E-02 
465	 5,91880633071414E-02 
466	 5,96982053157569E-02 
467	 6,04178907210095E-02 
468	 6,11902264003112E-02 
469	 0,062475031445601 
470	 6,34319012615695E-02 
471	 6,22042920182637E-02 
472	 6,18315859554844E-02 
473	 6,30119842273653E-02 
474	 6,37745655056561E-02 
475	 6,41751635065884E-02 
476	 6,44267264460597E-02 
477	 6,58080496657365E-02 
478	 6,71825388217222E-02 
479	 0,064654375209581 
480	 6,24002565779859E-02 
481	 6,26030854195655E-02 
482	 0,065072942338182 
483	 6,80083442507156E-02 
484	 6,89890320903208E-02 
485	 6,80945878408496E-02 
486	 6,62963566539089E-02 
487	 6,70798229076008E-02 
488	 6,83958600704006E-02 
489	 6,86670388621033E-02 
490	 6,87711768162682E-02 
491	 6,90515828024286E-02 
492	 7,00683116852563E-02 
493	 7,08382821911522E-02 
494	 7,09326602248838E-02 
495	 0,070020030852992 
496	 6,95290478121796E-02 
497	 7,10207834767789E-02 
498	 7,22369833472672E-02 
499	 7,26967012182223E-02 
500	 7,27577979444655E-02 
501	 7,22481351555291E-02 
502	 0,071430981278907 
503	 7,31171424281698E-02 
504	 7,51972421484592E-02 
505	 7,33176952290624E-02 
506	 7,26062659299745E-02 
507	 7,40996935372251E-02 
508	 7,52847533718195E-02 
509	 7,57572679163297E-02 
510	 7,53493660398126E-02 
511	 7,56148865526188E-02 
512	 7,65770029330774E-02 
513	 7,76805188341926E-02 
514	 0,077570177738777 
515	 7,60698760136268E-02 
516	 7,62181936456024E-02 
517	 7,73931017566709E-02 
518	 7,83012215971448E-02 
519	 7,91609149767896E-02 
520	 7,98718089624119E-02 
521	 8,01911138451326E-02 
522	 8,01383691118362E-02 
523	 7,98380096033892E-02 
524	 8,04012948247721E-02 
525	 0,081347603713823 
526	 8,11175898227798E-02 
527	 8,13330512662858E-02 
528	 8,22716058649529E-02 
529	 8,21618216399803E-02 
530	 8,21803306276596E-02 
531	 8,37721021062543E-02 
532	 8,46668065222779E-02 
533	 8,48156726893056E-02 
534	 0,085955298446539 
535	 8,64471216447292E-02 
536	 8,55601318831645E-02 
537	 8,56343154371697E-02 
538	 8,64890466703632E-02 
539	 8,72536678226579E-02 
540	 8,75016946213025E-02 
541	 8,72394367957275E-02 
542	 0,087370915165801 
543	 8,76367584894598E-02 
544	 8,77778781817098E-02 
545	 8,88892268479184E-02 
546	 9,04141447197122E-02 
547	 9,02535028171788E-02 
548	 8,99725611815593E-02 
549	 9,03451658761563E-02 
550	 9,11007874673784E-02 
551	 9,17208340574848E-02 
552	 0,091410161570756 
553	 9,20423680929497E-02 
554	 9,34890053871759E-02 
555	 9,29321565680097E-02 
556	 9,24025039671305E-02 
557	 0,093493385125154 
558	 9,33706201616805E-02 
559	 9,25203092180115E-02 
560	 9,33723832991987E-02 
561	 9,45995789746421E-02 
562	 9,55463983361195E-02 
563	 9,56409056363711E-02 
564	 9,54668697347132E-02 
565	 9,58598977689995E-02 
566	 9,63473665959332E-02 
567	 9,66052178705764E-02 
568	 9,58077736740499E-02 
569	 9,54485304214404E-02 
570	 9,64327786688793E-02 
571	 0,096660330580776 
572	 9,62571241596268E-02 
573	 9,61661742654986E-02 
574	 9,64785612934766E-02 
575	 9,71820793495998E-02 
576	 0,097781790962849 
577	 9,82691947326281E-02 
578	 9,86772056888361E-02 
579	 9,86299799586711E-02 
580	 9,84063336450823E-02 
581	 9,90773866738723E-02 
582	 9,99018278964863E-02 
583	 0,100421652776873 
584	 0,100735404687841 
585	 0,10074210239175 
586	 0,100194193184618 
587	 0,100247289823639 
588	 0,101031162261914 
589	 0,101392921862252 
590	 0,101331861733982 
591	 0,100941422946157 
592	 0,101060188296563 
593	 0,101481396468023 
594	 0,101025137965135 
595	 0,101143997194979 
596	 0,102231057013395 
597	 0,102040423244664 
598	 0,101487879037247 
599	 0,102298256071997 
600	 0,102598542373656 
601	 0,102322043570694 
602	 0,103414915447414 
603	 0,104105330699331 
604	 0,103103114862921 
605	 0,102756768688175 
606	 0,103039591790008 
607	 0,10285499916539 
608	 0,102617316202105 
609	 0,102464624988686 
610	 0,102291179540954 
611	 0,102561829510126 
612	 0,103829671653028 
613	 0,104299942525195 
614	 0,103887832600452 
615	 0,103964726745652 
616	 0,10402150638051 
617	 0,103788259155052 
618	 0,103835515503493 
619	 0,103959280070573 
620	 0,103485444873693 
621	 0,103969182874651 
622	 0,105421224120552 
623	 0,105262614390001 
624	 0,104842096005827 
625	 0,105642284322543 
626	 0,105864426333544 
627	 0,10553185795502 
628	 0,105826853843608 
629	 0,106143370168327 
630	 0,106196561366004 
631	 0,106301895236616 
632	 0,106240141811298 
633	 0,105548378319317 
634	 0,105762952586364 
635	 0,106874168595872 
636	 0,106889585296024 
637	 0,106489763440396 
638	 0,106337510192622 
639	 0,106577872812297 
640	 0,107117485433867 
641	 0,107735611264619 
642	 0,107765871226544 
643	 0,107081793193176 
644	 0,106823814200187 
645	 0,106936355625257 
646	 0,10718937592422 
647	 0,107668959439034 
648	 0,108089515471581 
649	 0,10740803440479 
650	 0,107153625728908 
651	 0,108148137197385 
652	 0,107818874554383 
653	 0,106792171489126 
654	 0,107158171865181 
655	 0,107288157023496 
656	 0,106897016698452 
657	 0,107312150159536 
658	 0,107738431540379 
659	 0,107293038988152 
660	 0,106247350982109 
661	 0,105272078857663 
662	 0,106193746690339 
663	 0,106488062142792 
664	 0,105178945253932 
665	 0,105286117212939 
666	 0,105874379306978 
667	 0,10489685767833 
668	 0,104916015351026 
669	 0,10613388338869 
670	 0,106495532683706 
671	 0,106246597845628 
672	 0,105683633607874 
673	 0,105380951117092 
674	 0,105483676875171 
675	 0,106003966309401 
676	 0,106720155501264 
677	 0,107425692849289 
678	 0,1076577945035 
679	 0,107793992750148 
680	 0,108323019297816 
681	 0,10887103275238 
682	 0,109312018495891 
683	 0,109509260951917 
684	 0,109813349293752 
685	 0,110412366263145 
686	 0,110949665145401 
687	 0,111515010157685 
688	 0,112380478652836 
689	 0,113023647067246 
690	 0,113318811201689 
691	 0,11347627788259 
692	 0,113797520090241 
693	 0,114508427260173 
694	 0,114974364201738 
695	 0,115169175331203 
696	 0,115302260635199 
697	 0,115724165409228 
698	 0,116502371986607 
699	 0,117044111843336 
700	 0,117225842184911 
701	 0,116974858647793 
702	 0,117190752355873 
703	 0,1179594620432 
704	 0,118756893487451 
705	 0,119279995488066 
706	 0,119377516275973 
707	 0,119608038979902 
708	 0,120029574092281 
709	 0,120599581861706 
710	 0,12102799688245 
711	 0,121225064138484 
712	 0,121285048983449 
713	 0,121430988542327 
714	 0,121841302299601 
715	 0,122103680499444 
716	 0,122173016221562 
717	 0,12208354403258 
718	 0,122335733529755 
719	 0,123028618859451 
720	 0,123298491158421 
721	 0,123403518250678 
722	 0,123779024863751 
723	 0,123935872449572 
724	 0,123930211926228 
725	 0,124273403093114 
726	 0,124925569620253 
727	 0,125724880307414 
728	 0,125552477544355 
729	 0,125049412258591 
730	 0,125631681906641 
731	 0,126192684087383 
732	 0,12647927646184 
733	 0,126909660754002 
734	 0,127374141183658 
735	 0,127744909011903 
736	 0,127750509092559 
737	 0,127580246733551 
738	 0,12779200508227 
739	 0,128163744256048 
740	 0,128526058881889 
741	 0,128355075807983 
742	 0,128248433705428 
743	 0,128921253217185 
744	 0,129272505858536 
745	 0,129223824267993 
746	 0,129363550967196 
747	 0,129500502983607 
748	 0,129569409506704 
749	 0,129769318064924 
750	 0,130070862577001 
751	 0,130395481498612 
752	 0,130673366350371 
753	 0,130911253352911 
754	 0,131268267197463 
755	 0,131478491876289 
756	 0,131408027044286 
757	 0,131736302984126 
758	 0,132275726494901 
759	 0,132414029099266 
760	 0,132684183062376 
761	 0,133148284319348 
762	 0,133299542793305 
763	 0,133317547720284 
764	 0,133399782651286 
765	 0,133555412102949 
766	 0,133732819249561 
767	 0,133708307766345 
768	 0,134058974878562 
769	 0,134856023863702 
770	 0,135112187582589 
771	 0,135064778829158 
772	 0,135096971984954 
773	 0,135062899257635 
774	 0,135094889872305 
775	 0,135683197369493 
776	 0,136045973512375 
777	 0,135867007681509 
778	 0,136096527885729 
779	 0,136387980567012 
780	 0,136070329953223 
781	 0,136346645005558 
782	 0,137174313144018 
783	 0,137216609139833 
784	 0,137175390361276 
785	 0,137461651505744 
786	 0,137345005125803 
787	 0,137207804906774 
788	 0,137910539874121 
789	 0,138340624286075 
790	 0,13830764250084 
791	 0,138546280244767 
792	 0,138834195695593 
793	 0,138995746789156 
794	 0,139293141276632 
795	 0,139581305824534 
796	 0,139414132207192 
797	 0,139679577889987 
798	 0,140395538539783 
799	 0,140074432212052 
800	 0,139787402083713 
801	 0,140526971184253 
802	 0,140775284479855 
803	 0,140577530770202 
804	 0,140819443140591 
805	 0,14087926348492 
806	 0,140684180210957 
807	 0,141016616292942 
808	 0,141499441356792 
809	 0,141674398127567 
810	 0,141676467239103 
811	 0,141596593939746 
812	 0,141572882414794 
813	 0,141813456142986 
814	 0,142267453151265 
815	 0,142019080144199 
816	 0,141702253101254 
817	 0,142142303007848 
818	 0,142663532455632 
819	 0,14301855367833 
820	 0,142969135829632 
821	 0,142871411804412 
822	 0,14292528591978 
823	 0,143148947844864 
824	 0,143391185602538 
825	 0,143455466767673 
826	 0,143264598654916 
827	 0,143069624304871 
828	 0,143773064263687 
829	 0,144127926356715 
830	 0,143613914835422 
831	 0,143443024226272 
832	 0,143732389857623 
833	 0,144437744608532 
834	 0,144828313970185 
835	 0,144731619933746 
836	 0,144270331141911 
837	 0,143968305950573 
838	 0,144151318289637 
839	 0,144774610971073 
840	 0,145266012105322 
841	 0,144859877281023 
842	 0,144901929170011 
843	 0,145466582008435 
844	 0,145688560040144 
845	 0,145341343363535 
846	 0,144515292893878 
847	 0,144811377364059 
848	 0,145543779097444 
849	 0,145495694758444 
850	 0,145293444203823 
851	 0,145128748775748 
852	 0,145097975585709 
853	 0,145271212945388 
854	 0,145666207692644 
855	 0,146224980759031 
856	 0,146399894053149 
857	 0,14550019301711 
858	 0,14542198591611 
859	 0,146194912952426 
860	 0,146353748635719 
861	 0,146013983835552 
862	 0,145396831075111 
863	 0,14569388084723 
864	 0,146242645722118 
865	 0,146032458674816 
866	 0,146230742334906 
867	 0,146742209872721 
868	 0,146434105135934 
869	 0,146169321636789 
870	 0,146406427458798 
871	 0,147289306568614 
872	 0,147910259025744 
873	 0,147227120705091 
874	 0,146719931169867 
875	 0,146663781663474 
876	 0,146750684787625 
877	 0,147125060790108 
878	 0,147668837081154 
879	 0,147611980421846 
880	 0,147009957844222 
881	 0,146090517676343 
882	 0,14655694217835 
883	 0,147853575309243 
884	 0,147571600344857 
885	 0,1472947244857 
886	 0,147490413912948 
887	 0,147602029233224 
888	 0,147619424186681 
889	 0,14759814389199 
890	 0,148180059510344 
891	 0,148746930027426 
892	 0,147666029023985 
893	 0,146913268386652 
894	 0,147150210077728 
895	 0,148105775685484 
896	 0,148816467041519 
897	 0,148574157622869 
898	 0,148232165080733 
899	 0,148085523533857 
900	 0,148413050842989 
901	 0,148388799179378 
902	 0,148045458492512 
903	 0,148487815610961 
904	 0,148857394930388 
905	 0,148700899926195 
906	 0,148961851799163 
907	 0,149342686821064 
908	 0,14927311966344 
909	 0,14887370959581 
910	 0,148436399261485 
911	 0,148799067868712 
912	 0,14893488642868 
913	 0,14852196812535 
914	 0,148817024080689 
915	 0,149206032826558 
916	 0,14894207690264 
917	 0,149085836021656 
918	 0,149531864443363 
919	 0,149428831641058 
920	 0,149622846763038 
921	 0,150254571544705 
922	 0,150684485234631 
923	 0,150411175098048 
924	 0,149242168427395 
925	 0,149249301008697 
926	 0,149962436869031 
927	 0,14988012248766 
928	 0,150244497220943 
929	 0,150896746085089 
930	 0,14993729965108 
931	 0,149625182410031 
932	 0,150962553153183 
933	 0,151008658648535 
934	 0,150379816745667 
935	 0,150280138369019 
936	 0,150343591989553 
937	 0,150515321618136 
938	 0,150831215648904 
939	 0,150896600200015 
940	 0,150733059910955 
941	 0,15151197889481 
942	 0,151477166542712 
943	 0,149395462212772 
944	 0,149587567040587 
945	 0,151494257248643 
946	 0,15276836764624 
947	 0,15276262998113 
948	 0,151768563118914 
949	 0,151941702740161 
950	 0,152077287243178 
951	 0,151549296900607 
952	 0,15098243543249 
953	 0,15068308953964 
954	 0,150912536179591 
955	 0,151012751042781 
956	 0,151157679306982 
957	 0,152351203008574 
958	 0,152466128564217 
959	 0,151162536773172 
960	 0,150414967636473 
961	 0,150824664389088 
962	 0,152503450266105 
963	 0,152961536721237 
964	 0,152615291495203 
965	 0,152699419450192 
966	 0,151704386627702 
967	 0,150252225156131 
968	 0,151398159573217 
969	 0,151883003862331 
970	 0,15059805517662 
971	 0,149556853026421 
972	 0,149810006401042 
973	 0,151906402535461 
974	 0,152578007642052 
975	 0,152282934516443 
976	 0,152914866344329 
977	 0,153088845207305 
978	 0,152613710912602 
979	 0,151955723069783 
980	 0,152010218466717 
981	 0,15293497375058 
982	 0,152808632618306 
983	 0,151901350679447 
984	 0,150848737551519 
985	 0,151692153714866 
986	 0,153779744373735 
987	 0,155144671638772 
988	 0,155313147891857 
989	 0,154311021643825 
990	 0,152953217459533 
991	 0,151998858435621 
992	 0,152017147826501 
993	 0,153694111545837 
994	 0,154152870315684 
995	 0,150895231314443 
996	 0,150259474912041 
997	 0,152508585035025 
998	 0,15578543006382 
999	 0,157038771288726 
1000	 0,156218738092239 
1001	 0,157493673532254 
1002	 0,156289350515504 
1003	 0,151723176700676 
1004	 0,152274119305556 
1005	 0,154842833934825 
1006	 0,155697205287635 
1007	 0,155496277947122 
1008	 0,154990404414013 
1009	 0,15544609414503 
1010	 0,155402836672028 
1011	 0,154868490372746 
1012	 0,155119185763443 
1013	 0,155624565829833 
1014	 0,155958656720867 
1015	 0,155046853796579 
1016	 0,154498895420277 
1017	 0,15576379688175 
1018	 0,159005843594947 
1019	 0,161381897471118 
1020	 0,158818205895232 
1021	 0,156377166788027 
1022	 0,155239891523577 
1023	 0,154478306140489 
1024	 0,156624461919934 
1025	 0,160508092303012 
1026	 0,157189210212908 
1027	 0,15438719923604 
1028	 0,156734647402483 
1029	 0,15762323987229 
1030	 0,156997429864776 
1031	 0,155960880924531 
1032	 0,160357762273395 
1033	 0,16573636029335 
1034	 0,160778896883573 
1035	 0,158578533727437 
1036	 0,160620390885942 
1037	 0,158215515062717 
1038	 0,155801218295457 
1039	 0,155329995818109 
1040	 0,155847706379554 
1041	 0,155717828648694 
1042	 0,154382124035257 
1043	 0,159018177620886 
1044	 0,162967691759136 
1045	 0,156305364581876 
1046	 0,157943021359384 
1047	 0,165477366891854 
1048	 0,163780943541798 
1049	 0,160239705702037 
1050	 0,155866158884577 
1051	 0,145545827657572 
1052	 0,142173822256714 
1053	 0,15010059324853 
1054	 0,153670924613672 
1055	 0,156039323237284 
1056	 0,160544779748667 
1057	 0,166774768239109 
1058	 0,164939585468816 
1059	 0,143447862404856 
1060	 0,142347689861211 
1061	 0,157854251322255 
1062	 0,16002094005647 
1063	 0,158242857529475 
1064	 0,154409264194248 
1065	 0,14534484400506 
1066	 0,151188827483674 
1067	 0,173317446305293 
1068	 0,170507707685218 
1069	 0,164271080247698 
1070	 0,170369253160332 
1071	 0,164826038279928 
1072	 0,156639373084845 
1073	 0,158626374646092 
1074	 0,151971678867155 
1075	 0,141279322397061 
