Wavelength	GRA-VAN00725.asd
325	 0,408853592619993 
326	 0,443821066050106 
327	 0,455437671985719 
328	 0,45207674885798 
329	 0,411278778138731 
330	 0,309035693485315 
331	 0,261989698043281 
332	 0,316787505725425 
333	 0,37769194370165 
334	 0,239494373740848 
335	 0,201879150436136 
336	 0,326636997825271 
337	 0,320069296917323 
338	 0,271252730385501 
339	 0,2468486939379 
340	 0,201075870502234 
341	 0,190923242074558 
342	 0,329976092295871 
343	 0,390067085990456 
344	 0,31073419198546 
345	 0,279623193427452 
346	 0,28939268484783 
347	 0,330412786163961 
348	 0,321952101513829 
349	 0,279321933544317 
350	 0,282410225197809 
351	 0,301532272879288 
352	 0,316950139794967 
353	 0,311326786810687 
354	 0,304871810161661 
355	 0,321185306241255 
356	 0,325064347049977 
357	 0,323602075241992 
358	 0,361197505903208 
359	 0,383876749800145 
360	 0,365661054381556 
361	 0,352704738599298 
362	 0,342509507005087 
363	 0,326137822951475 
364	 0,320632827213135 
365	 0,3294785239621 
366	 0,350665318204296 
367	 0,356749487906824 
368	 0,336367535042206 
369	 0,333457386678267 
370	 0,343282389730792 
371	 0,348639120084344 
372	 0,348547478062718 
373	 0,342400869853956 
374	 0,32765313278036 
375	 0,329641185350085 
376	 0,363896608694302 
377	 0,373586348071115 
378	 0,363578171783174 
379	 0,36224132668899 
380	 0,363619348684465 
381	 0,366797434156612 
382	 0,372675159565135 
383	 0,374389964330025 
384	 0,366589253127083 
385	 0,361913945437113 
386	 0,361658183989979 
387	 0,361472686230885 
388	 0,362709600161902 
389	 0,364580409013063 
390	 0,360022633120101 
391	 0,35811703698089 
392	 0,369373077896132 
393	 0,37740794017464 
394	 0,376169532118821 
395	 0,357635538146533 
396	 0,34894784821666 
397	 0,361917879400652 
398	 0,37516087185261 
399	 0,380388691288449 
400	 0,369413826948199 
401	 0,368781998461601 
402	 0,380185541525448 
403	 0,383611125624815 
404	 0,382231593854669 
405	 0,378879865333692 
406	 0,378522298936613 
407	 0,380964847986351 
408	 0,384827406565799 
409	 0,385301906784039 
410	 0,381866562711832 
411	 0,380569558743792 
412	 0,378393678048953 
413	 0,372888832296108 
414	 0,375540878426192 
415	 0,381541487357831 
416	 0,372938726804572 
417	 0,36851892401098 
418	 0,374717916216994 
419	 0,379275229298608 
420	 0,381488050900584 
421	 0,382138018845184 
422	 0,383219994237584 
423	 0,384442510552037 
424	 0,382520056972689 
425	 0,38254528794918 
426	 0,386686283960698 
427	 0,385418952692627 
428	 0,381658467854499 
429	 0,383017525112402 
430	 0,381978026317514 
431	 0,377726908944534 
432	 0,376242123182105 
433	 0,377000198147365 
434	 0,379064580489405 
435	 0,380013080076203 
436	 0,379325522385126 
437	 0,376454750776227 
438	 0,37669805114181 
439	 0,381065671933215 
440	 0,381497193516046 
441	 0,380118671069814 
442	 0,380542352603509 
443	 0,37962458974184 
444	 0,378133188527724 
445	 0,381194522814689 
446	 0,382799037449696 
447	 0,379649718258508 
448	 0,37774765935424 
449	 0,377686458274462 
450	 0,378853559930428 
451	 0,380877814274036 
452	 0,38318487881259 
453	 0,38483815633569 
454	 0,384759501134877 
455	 0,38228515906023 
456	 0,382518954381426 
457	 0,384517004829265 
458	 0,382668093729558 
459	 0,382457651585844 
460	 0,385611004379178 
461	 0,387375076792723 
462	 0,387947730911611 
463	 0,388243918833029 
464	 0,386950244743171 
465	 0,385108590967459 
466	 0,387040409589773 
467	 0,389332266594569 
468	 0,389711077957504 
469	 0,389563785812311 
470	 0,389000308804485 
471	 0,387634602432805 
472	 0,387766858286297 
473	 0,38961632791824 
474	 0,39028412714453 
475	 0,390416362764469 
476	 0,390820399895189 
477	 0,391653231523834 
478	 0,392916988666983 
479	 0,395086357558062 
480	 0,394466316178603 
481	 0,390323359857996 
482	 0,39058361974022 
483	 0,393400619327001 
484	 0,394905041332096 
485	 0,394119718945221 
486	 0,391933065554953 
487	 0,392894311866986 
488	 0,395099353994182 
489	 0,396811515127983 
490	 0,396236648718876 
491	 0,394219061424839 
492	 0,392956140020609 
493	 0,39377716054289 
494	 0,396457463424113 
495	 0,396895344489516 
496	 0,395336386742987 
497	 0,392516513861259 
498	 0,391584721425312 
499	 0,392877714621908 
500	 0,394927243645596 
501	 0,396428608701279 
502	 0,396600246848838 
503	 0,396029384002118 
504	 0,395908598658563 
505	 0,398172380896291 
506	 0,399706733160878 
507	 0,399929621789279 
508	 0,400924721661933 
509	 0,401739493349023 
510	 0,401501759373479 
511	 0,401594462494441 
512	 0,401753704573622 
513	 0,40020759695281 
514	 0,400363099381767 
515	 0,403139771357162 
516	 0,404291241395356 
517	 0,40403258936021 
518	 0,403255385312202 
519	 0,403681964714824 
520	 0,405429664549817 
521	 0,407398478351439 
522	 0,407414347561488 
523	 0,404402585955731 
524	 0,404514799122765 
525	 0,40693483966577 
526	 0,407826524783876 
527	 0,40720566726386 
528	 0,405448500882857 
529	 0,405278541235607 
530	 0,405815112169388 
531	 0,405795717278838 
532	 0,405070006806959 
533	 0,40408096801869 
534	 0,404278610892231 
535	 0,405054281376256 
536	 0,405877351726223 
537	 0,405626012928075 
538	 0,404927907523537 
539	 0,405171327502605 
540	 0,405939336800968 
541	 0,406786251629875 
542	 0,406343020541964 
543	 0,405481164488878 
544	 0,405135485808552 
545	 0,405314195052986 
546	 0,405763673909554 
547	 0,405594827043708 
548	 0,406157634136724 
549	 0,407757319241628 
550	 0,407691891880259 
551	 0,406910278294125 
552	 0,407367875722898 
553	 0,407622050470432 
554	 0,407265255516919 
555	 0,406179037334059 
556	 0,405650315662072 
557	 0,406606989638049 
558	 0,406719311040377 
559	 0,405984306464441 
560	 0,4054223593511 
561	 0,405317773500409 
562	 0,405670165587592 
563	 0,405435666415744 
564	 0,404812784958042 
565	 0,404188446979924 
566	 0,404001993997641 
567	 0,404354153093094 
568	 0,404960492962345 
569	 0,406072156250458 
570	 0,407716178504972 
571	 0,408395853718306 
572	 0,408598760420613 
573	 0,409925406892939 
574	 0,411342396927535 
575	 0,412416289491434 
576	 0,412929433137455 
577	 0,413196877742577 
578	 0,413603867442531 
579	 0,414502882104583 
580	 0,415794471003406 
581	 0,416913828593359 
582	 0,417770830223116 
583	 0,418418680547288 
584	 0,419721392815563 
585	 0,421524037085385 
586	 0,423426167239031 
587	 0,42462128353183 
588	 0,425136898213964 
589	 0,426533467457409 
590	 0,427598165296058 
591	 0,427256457367025 
592	 0,42789431805714 
593	 0,429319416339887 
594	 0,429684179155387 
595	 0,429836462521201 
596	 0,430187777987519 
597	 0,430893975912388 
598	 0,431567308924398 
599	 0,431616706557415 
600	 0,431423988442547 
601	 0,431187181297217 
602	 0,431316278404271 
603	 0,430980726540208 
604	 0,429628223941357 
605	 0,428756807329502 
606	 0,4285252830098 
607	 0,428649902985555 
608	 0,428847538953944 
609	 0,4288060534364 
610	 0,427806327765462 
611	 0,426478310122771 
612	 0,425660023610618 
613	 0,425681917179569 
614	 0,426090748288495 
615	 0,425033556453781 
616	 0,424123694707991 
617	 0,424332209856046 
618	 0,424478525465202 
619	 0,424353369060367 
620	 0,423803296752354 
621	 0,424053741314325 
622	 0,425103021559903 
623	 0,424819163901942 
624	 0,4240487573552 
625	 0,423810442753916 
626	 0,42441984949498 
627	 0,425446399540094 
628	 0,425433067297004 
629	 0,425279941808741 
630	 0,425434483806978 
631	 0,425556808028239 
632	 0,425817108796778 
633	 0,426536945473374 
634	 0,427248442665292 
635	 0,427865720891624 
636	 0,428704268279795 
637	 0,429509897175343 
638	 0,430069170039 
639	 0,430586981074064 
640	 0,431060223207333 
641	 0,43128185575461 
642	 0,432023784221315 
643	 0,433358421017173 
644	 0,433674456091962 
645	 0,433619271351504 
646	 0,434224051165685 
647	 0,434563306657769 
648	 0,434413170061464 
649	 0,433860167896165 
650	 0,433093739010126 
651	 0,432256217477107 
652	 0,431197004701559 
653	 0,430293393677291 
654	 0,430442386264751 
655	 0,429846281855333 
656	 0,428093413237983 
657	 0,426476060569095 
658	 0,425110258984604 
659	 0,424014105925725 
660	 0,42266216323374 
661	 0,421046348776822 
662	 0,419534477720726 
663	 0,417895631064646 
664	 0,416198548314761 
665	 0,415679858272611 
666	 0,415526608555921 
667	 0,414257226235523 
668	 0,413250121667293 
669	 0,412966022997015 
670	 0,41356713062664 
671	 0,414323224815267 
672	 0,414585987860171 
673	 0,414099031791389 
674	 0,413317545476099 
675	 0,413396852715328 
676	 0,413643900881419 
677	 0,413820341639133 
678	 0,414045545138857 
679	 0,414215525239266 
680	 0,414208343313974 
681	 0,414126321329143 
682	 0,414221179924846 
683	 0,415096495229422 
684	 0,416338008702013 
685	 0,417640038915911 
686	 0,418678745620515 
687	 0,419765279787695 
688	 0,421483943538163 
689	 0,423799352050415 
690	 0,42667982760868 
691	 0,429771080728043 
692	 0,433642044630147 
693	 0,438767124772732 
694	 0,444065968749778 
695	 0,449548834518569 
696	 0,455823807466405 
697	 0,462536649309046 
698	 0,469543488572759 
699	 0,476897171541912 
700	 0,484644443767882 
701	 0,492832928596815 
702	 0,500542598285751 
703	 0,507688789204741 
704	 0,514919523572472 
705	 0,522252331990559 
706	 0,529565855990237 
707	 0,53587755542636 
708	 0,541649238627176 
709	 0,548005320067395 
710	 0,553754381029683 
711	 0,558684893682716 
712	 0,563558413005353 
713	 0,568232344501045 
714	 0,572527090112311 
715	 0,57628545128054 
716	 0,579598616371237 
717	 0,582686566011738 
718	 0,585881699705427 
719	 0,58923371574018 
720	 0,591962972400277 
721	 0,594310300925107 
722	 0,596688776892876 
723	 0,59862610823302 
724	 0,600212449159652 
725	 0,602126213281014 
726	 0,603669617070987 
727	 0,604510771144923 
728	 0,605630114930343 
729	 0,606997606266911 
730	 0,608320330296328 
731	 0,609426184997963 
732	 0,610246957147665 
733	 0,610841601602884 
734	 0,611357054518892 
735	 0,611915983502168 
736	 0,612359132812356 
737	 0,61276381755589 
738	 0,613415219379085 
739	 0,613907037904133 
740	 0,614092957362315 
741	 0,614133857109396 
742	 0,614161632305249 
743	 0,614314041927831 
744	 0,614795586611441 
745	 0,615459036915623 
746	 0,615718792222261 
747	 0,615984564476686 
748	 0,616404635205011 
749	 0,616376817950266 
750	 0,61627746969063 
751	 0,616784316688427 
752	 0,617092851088941 
753	 0,617141372751117 
754	 0,617609519770085 
755	 0,618018165083638 
756	 0,61803300956929 
757	 0,618042378065736 
758	 0,618082893725196 
759	 0,618063971056377 
760	 0,618315743967002 
761	 0,618827933547857 
762	 0,619036034383284 
763	 0,619089923726167 
764	 0,619152234289747 
765	 0,619052996726653 
766	 0,618840845517929 
767	 0,618688314609101 
768	 0,618547527540708 
769	 0,618485361185346 
770	 0,618934489641869 
771	 0,619419316380559 
772	 0,619351549852178 
773	 0,619026860771986 
774	 0,618662465648059 
775	 0,618669342767196 
776	 0,61876438721185 
777	 0,618783403449171 
778	 0,61871370987425 
779	 0,618563280137371 
780	 0,618345796465784 
781	 0,618344553294948 
782	 0,618607977739818 
783	 0,619069721073399 
784	 0,619171098713299 
785	 0,618663753902316 
786	 0,618788143105303 
787	 0,61929296471199 
788	 0,619413469873986 
789	 0,619398327836475 
790	 0,619372810474059 
791	 0,619673127680062 
792	 0,619686197995115 
793	 0,619002240451221 
794	 0,618728626585126 
795	 0,618893803634964 
796	 0,619181292687582 
797	 0,619095488196768 
798	 0,618644084906777 
799	 0,618870812376475 
800	 0,619145503093623 
801	 0,618872684312625 
802	 0,618958810155898 
803	 0,619230146215862 
804	 0,618774342665804 
805	 0,618505826861265 
806	 0,618727029494009 
807	 0,619141872186144 
808	 0,61926464917596 
809	 0,618665834628359 
810	 0,618742389168729 
811	 0,619439313594171 
812	 0,619749175113689 
813	 0,620020819597869 
814	 0,620285516677405 
815	 0,620000498975337 
816	 0,619693681385909 
817	 0,620019914315723 
818	 0,620230156674652 
819	 0,620242703156211 
820	 0,620333581030872 
821	 0,620512942331491 
822	 0,620734713084454 
823	 0,620625636837167 
824	 0,620482281340114 
825	 0,620723484432314 
826	 0,621092514170594 
827	 0,621372631738222 
828	 0,621051617259148 
829	 0,621046350300977 
830	 0,621617063831429 
831	 0,621000184065148 
832	 0,620082026643449 
833	 0,620298644081234 
834	 0,620867763565925 
835	 0,621292167771785 
836	 0,620580149824027 
837	 0,620102006143256 
838	 0,620512267865162 
839	 0,620678939338456 
840	 0,620526895325698 
841	 0,620143849022227 
842	 0,619779123613886 
843	 0,619617769637612 
844	 0,619964614701202 
845	 0,620315559754951 
846	 0,620418327096843 
847	 0,620760568646896 
848	 0,621028695326105 
849	 0,62073067733557 
850	 0,620184662936371 
851	 0,619736234123197 
852	 0,620222806590271 
853	 0,620388991274164 
854	 0,619799639729298 
855	 0,620637460433714 
856	 0,621654323649235 
857	 0,620863202533704 
858	 0,619927234195321 
859	 0,619536367466722 
860	 0,620522639331531 
861	 0,621234867581669 
862	 0,620877458234318 
863	 0,620630672735793 
864	 0,620390609125282 
865	 0,619880043567879 
866	 0,620256851793309 
867	 0,621297945666382 
868	 0,621541264894524 
869	 0,621397097844182 
870	 0,621107688001241 
871	 0,621056358498092 
872	 0,620934289366492 
873	 0,620362879052405 
874	 0,620830742280784 
875	 0,621975077414529 
876	 0,621900933450307 
877	 0,621307988034089 
878	 0,620619521142152 
879	 0,620449191941708 
880	 0,620713538386252 
881	 0,621229085776009 
882	 0,62172114779943 
883	 0,621822760824313 
884	 0,620663537906137 
885	 0,620224050725422 
886	 0,621056466474111 
887	 0,621736040788184 
888	 0,622133826272252 
889	 0,622206798448676 
890	 0,621963523879938 
891	 0,621791422777991 
892	 0,622543429995402 
893	 0,622823410522656 
894	 0,622349341223535 
895	 0,622138225074569 
896	 0,62192298353578 
897	 0,621555693180991 
898	 0,621763620544822 
899	 0,622597337444689 
900	 0,624039092885849 
901	 0,623758356923163 
902	 0,621920816529753 
903	 0,621745767547518 
904	 0,622577065502093 
905	 0,623718112885706 
906	 0,623418248208624 
907	 0,622409793159998 
908	 0,622065502818276 
909	 0,622626682052342 
910	 0,623568964498001 
911	 0,622953539844303 
912	 0,622533388238127 
913	 0,622954268081963 
914	 0,622685743064546 
915	 0,622356499890777 
916	 0,622769930880637 
917	 0,62324595526766 
918	 0,623551120407769 
919	 0,623471642247091 
920	 0,62342060063838 
921	 0,623483410838904 
922	 0,623253959783346 
923	 0,623119212529359 
924	 0,623357394213716 
925	 0,623341900229076 
926	 0,622930995660887 
927	 0,622041619189198 
928	 0,621644773795674 
929	 0,621805024092302 
930	 0,621537127320743 
931	 0,621404888322382 
932	 0,621639074787021 
933	 0,621387285283832 
934	 0,621256180750741 
935	 0,622077613061963 
936	 0,621983406756181 
937	 0,621190261052424 
938	 0,621605980428587 
939	 0,621698628875645 
940	 0,620974480992715 
941	 0,619982554890694 
942	 0,619357751484236 
943	 0,619544576614541 
944	 0,619291038084223 
945	 0,618993230584901 
946	 0,619854083571958 
947	 0,619187663618171 
948	 0,617100028050657 
949	 0,61686606571243 
950	 0,61733815457108 
951	 0,61766540334705 
952	 0,617010510962761 
953	 0,615720620499318 
954	 0,614419772315518 
955	 0,61481953714043 
956	 0,615794319114191 
957	 0,613304903884369 
958	 0,612171261328912 
959	 0,613243051856428 
960	 0,612194358054473 
961	 0,611164482439645 
962	 0,61182797358796 
963	 0,613147680863542 
964	 0,613764947388743 
965	 0,611942194858752 
966	 0,610331901923811 
967	 0,609601844909246 
968	 0,609283658355853 
969	 0,609852557252408 
970	 0,611200060850154 
971	 0,612052809972315 
972	 0,611708642841522 
973	 0,609929118585817 
974	 0,610207535209256 
975	 0,61124154579048 
976	 0,609525740895116 
977	 0,610688063926154 
978	 0,614051489601912 
979	 0,611672752274455 
980	 0,610255301669209 
981	 0,61245974640323 
982	 0,612958928629299 
983	 0,612595625562503 
984	 0,612579327388183 
985	 0,611483863315086 
986	 0,610531206666707 
987	 0,612426894259976 
988	 0,61470247217521 
989	 0,61609091309297 
990	 0,614995187508854 
991	 0,614004500633338 
992	 0,614460945974697 
993	 0,615367069930135 
994	 0,61530096327876 
995	 0,613343279961313 
996	 0,615833727727279 
997	 0,620222096961729 
998	 0,619347363982891 
999	 0,618512490607087 
1000	 0,618771522543609 
1001	 0,618404150221768 
1002	 0,617585922958709 
1003	 0,617111889787123 
1004	 0,621285303753913 
1005	 0,624271009028124 
1006	 0,620791301063928 
1007	 0,620032803225596 
1008	 0,621108648136595 
1009	 0,619583505251249 
1010	 0,619518571524763 
1011	 0,621415579128412 
1012	 0,623083073351997 
1013	 0,626658281913132 
1014	 0,631270898226302 
1015	 0,62771178236855 
1016	 0,624682336482945 
1017	 0,629158074335527 
1018	 0,632461092849208 
1019	 0,63179005618838 
1020	 0,625368015990837 
1021	 0,623597981480065 
1022	 0,626471644393336 
1023	 0,625809607694279 
1024	 0,629639819478885 
1025	 0,63750109402634 
1026	 0,636380503784377 
1027	 0,63299886801553 
1028	 0,632308569383966 
1029	 0,633719369772423 
1030	 0,634557631434845 
1031	 0,632220368974088 
1032	 0,635150431667749 
1033	 0,640814227466824 
1034	 0,640988381918599 
1035	 0,637947033949022 
1036	 0,633818225110807 
1037	 0,633533772206312 
1038	 0,63493760243058 
1039	 0,636412385726662 
1040	 0,634267639545816 
1041	 0,635508383301928 
1042	 0,644156242105334 
1043	 0,643083431268986 
1044	 0,637086418859804 
1045	 0,63632200246008 
1046	 0,640931797166452 
1047	 0,646149407076987 
1048	 0,640097021192344 
1049	 0,640315555696982 
1050	 0,647073121257904 
1051	 0,639302479841388 
1052	 0,638268598799606 
1053	 0,650502058431551 
1054	 0,64683809701268 
1055	 0,64149275653985 
1056	 0,646553050650678 
1057	 0,641573394398014 
1058	 0,637789869309024 
1059	 0,653355184483134 
1060	 0,655641401464858 
1061	 0,646413673523331 
1062	 0,645503587308406 
1063	 0,651464673734142 
1064	 0,65979520861278 
1065	 0,653781553432546 
1066	 0,643463776782856 
1067	 0,635295653741223 
1068	 0,630781702891158 
1069	 0,634796586768001 
1070	 0,64791055493814 
1071	 0,645976652460492 
1072	 0,640544478635972 
1073	 0,647538973118014 
1074	 0,634245992141317 
1075	 0,617341612724874 
