Wavelength	GRA-BER00168.asd
325	 0,53110360260417 
326	 0,429539637762367 
327	 0,347349386024767 
328	 0,322867958641731 
329	 0,272728679018457 
330	 0,198768618774653 
331	 0,130024343358516 
332	 0,248815100306354 
333	 0,384181823114978 
334	 0,175295482839709 
335	 0,069554928660339 
336	 0,212816662557804 
337	 0,255373634685078 
338	 0,23998907213646 
339	 0,213794807842704 
340	 0,187894564966732 
341	 0,177179597492429 
342	 0,194202926745215 
343	 0,173946343822054 
344	 0,127182978437482 
345	 0,2000322481711 
346	 0,270848681811562 
347	 0,225148506021667 
348	 0,206303179006752 
349	 0,209474487408937 
350	 0,155936062578613 
351	 0,12912478576349 
352	 0,151407212657787 
353	 0,144865177444859 
354	 0,126727472777983 
355	 0,126224379634518 
356	 0,160472129861587 
357	 0,20326409495549 
358	 0,163150833689501 
359	 0,133925137585229 
360	 0,152638043591382 
361	 0,144919527447063 
362	 0,125262546517401 
363	 0,123855471746898 
364	 0,142446586382513 
365	 0,165732296785842 
366	 0,143483791011676 
367	 0,128489183440142 
368	 0,149568989862446 
369	 0,143700989590535 
370	 0,124684472175599 
371	 0,126978189117193 
372	 0,144653851353392 
373	 0,166839457638149 
374	 0,16704229516005 
375	 0,157657262872519 
376	 0,148872200236008 
377	 0,150403348341952 
378	 0,155901508018884 
379	 0,148593130374134 
380	 0,140149523261272 
381	 0,13598526125147 
382	 0,142234569636803 
383	 0,148595953252468 
384	 0,145780934503275 
385	 0,137823498247421 
386	 0,129815008161833 
387	 0,134013883956228 
388	 0,135536684027103 
389	 0,130317895735791 
390	 0,128488999222857 
391	 0,134271015879162 
392	 0,150545958940999 
393	 0,169677307161412 
394	 0,180151129996502 
395	 0,154064958997885 
396	 0,132949919776563 
397	 0,138260609078162 
398	 0,139144271351352 
399	 0,134051106530649 
400	 0,125133091521134 
401	 0,133033373618827 
402	 0,15241312827168 
403	 0,146828529372189 
404	 0,136602728556019 
405	 0,136000808996711 
406	 0,136602006211714 
407	 0,137385777841534 
408	 0,139242668970335 
409	 0,136962579419944 
410	 0,130666943414888 
411	 0,128242430283247 
412	 0,126860458107777 
413	 0,124026965330489 
414	 0,131171628794078 
415	 0,142162065000966 
416	 0,13829253285292 
417	 0,131020342268662 
418	 0,126166440306389 
419	 0,127575515250341 
420	 0,12971434177809 
421	 0,1252165012096 
422	 0,127564799730375 
423	 0,135485827865806 
424	 0,134362907090364 
425	 0,134330778899566 
426	 0,140182486538027 
427	 0,138151857800415 
428	 0,132407502077693 
429	 0,133389572889567 
430	 0,134755159193119 
431	 0,135118032432394 
432	 0,137099550222036 
433	 0,136818745299834 
434	 0,13127388685571 
435	 0,127940967341629 
436	 0,127816537764976 
437	 0,12956927581895 
438	 0,132313735082518 
439	 0,134809231119046 
440	 0,133589757718502 
441	 0,13074718331254 
442	 0,129189752336087 
443	 0,131000352346315 
444	 0,134145544862787 
445	 0,129545500402362 
446	 0,127585368929899 
447	 0,133530939873645 
448	 0,132719277724385 
449	 0,128715159127619 
450	 0,131841370940865 
451	 0,134729698463029 
452	 0,134926899762419 
453	 0,131577463842913 
454	 0,129383640943881 
455	 0,132614252127733 
456	 0,137546454603635 
457	 0,141381485764993 
458	 0,139389953167011 
459	 0,135908989173934 
460	 0,133497200681553 
461	 0,135241537643533 
462	 0,136927819167974 
463	 0,132645859797619 
464	 0,131161566195917 
465	 0,133527247842758 
466	 0,135336292992264 
467	 0,136634254114498 
468	 0,137325933291255 
469	 0,136760986110325 
470	 0,136051054169606 
471	 0,137602013426545 
472	 0,138144044333013 
473	 0,13706283993216 
474	 0,136752947403724 
475	 0,13695524936957 
476	 0,137218168344359 
477	 0,13635040593627 
478	 0,134711291775263 
479	 0,133576911529044 
480	 0,134569303433 
481	 0,137686451749174 
482	 0,137549841422727 
483	 0,135376791002701 
484	 0,133811418120084 
485	 0,133268710985406 
486	 0,133200910585235 
487	 0,130219731771665 
488	 0,129197826827958 
489	 0,133329932481799 
490	 0,135561241950477 
491	 0,135203020420592 
492	 0,133269075789617 
493	 0,132317522889622 
494	 0,133004499271516 
495	 0,132556209148865 
496	 0,132032634542498 
497	 0,132824359995671 
498	 0,131739471729231 
499	 0,129778691043238 
500	 0,132405559584295 
501	 0,134162395517385 
502	 0,132523034779591 
503	 0,133956454567691 
504	 0,136429639173712 
505	 0,134923715156072 
506	 0,134421959328829 
507	 0,135902731293566 
508	 0,136866226994766 
509	 0,137169902758166 
510	 0,136789604322833 
511	 0,135604880996942 
512	 0,13451117097132 
513	 0,13583305424439 
514	 0,136805730107676 
515	 0,136438611108998 
516	 0,136848623453742 
517	 0,137611597838575 
518	 0,137898851055118 
519	 0,137143318511185 
520	 0,135940498708591 
521	 0,13705289999805 
522	 0,13793435255893 
523	 0,136826096352808 
524	 0,135936502210057 
525	 0,135715487082735 
526	 0,136457803889229 
527	 0,136525955865314 
528	 0,135791063902302 
529	 0,137253160757502 
530	 0,138427658383792 
531	 0,136348931986172 
532	 0,136085762336163 
533	 0,13757242659155 
534	 0,136718552992806 
535	 0,13594117743465 
536	 0,136509223156623 
537	 0,136420519016826 
538	 0,136001296591211 
539	 0,136359093510584 
540	 0,136449883368729 
541	 0,136169497484824 
542	 0,136496165280078 
543	 0,137198310685375 
544	 0,137959810582234 
545	 0,137938685127343 
546	 0,137529272175371 
547	 0,138485266777426 
548	 0,13876999585792 
549	 0,137648397918707 
550	 0,137402412229666 
551	 0,137834579342077 
552	 0,13823161023739 
553	 0,13839713987757 
554	 0,138192310882132 
555	 0,137369583254392 
556	 0,137050995374449 
557	 0,138027979265214 
558	 0,13803447638593 
559	 0,137240509108192 
560	 0,137063515574025 
561	 0,137333028861009 
562	 0,137844910488615 
563	 0,137474206219503 
564	 0,137051028699243 
565	 0,137780019769494 
566	 0,138796390120032 
567	 0,139577096619608 
568	 0,139082807652579 
569	 0,138887058273046 
570	 0,140027805233108 
571	 0,141076016484715 
572	 0,141892751196661 
573	 0,142698804132093 
574	 0,14349269340562 
575	 0,144393226737762 
576	 0,145884453832201 
577	 0,147610863853698 
578	 0,1491287960666 
579	 0,150187842451057 
580	 0,150876029198242 
581	 0,151706213963911 
582	 0,152478014437856 
583	 0,153131602062015 
584	 0,154072175032874 
585	 0,155037712777203 
586	 0,155514536539476 
587	 0,155554571370794 
588	 0,155492027393917 
589	 0,156792198056754 
590	 0,157675820814012 
591	 0,156572234684433 
592	 0,156635027024902 
593	 0,157682607458601 
594	 0,157469703843229 
595	 0,157073788086945 
596	 0,156876580860333 
597	 0,155958838466042 
598	 0,155362663207764 
599	 0,156774214770057 
600	 0,157534397399464 
601	 0,1569377883836 
602	 0,155369908315227 
603	 0,154469525834562 
604	 0,155327428721758 
605	 0,15473015070999 
606	 0,153066226915269 
607	 0,152665660839377 
608	 0,15239459668688 
609	 0,151863980412948 
610	 0,151162397295394 
611	 0,150366337641193 
612	 0,149568169261397 
613	 0,149332692939083 
614	 0,149515415253591 
615	 0,14922298248217 
616	 0,148579346175098 
617	 0,147759480048996 
618	 0,147594397537894 
619	 0,147784450918034 
620	 0,147448272552669 
621	 0,147420671470072 
622	 0,147885452862481 
623	 0,148406295228563 
624	 0,148741432228504 
625	 0,148704215306424 
626	 0,14918167135784 
627	 0,150019643963518 
628	 0,150168275809092 
629	 0,150405943466132 
630	 0,151080851740593 
631	 0,151656725395699 
632	 0,152102640726366 
633	 0,15246536014874 
634	 0,152936579002909 
635	 0,153624891679577 
636	 0,154724103687584 
637	 0,15560218153961 
638	 0,155812023100926 
639	 0,156892259936628 
640	 0,158488776445634 
641	 0,159050877020188 
642	 0,159228811714833 
643	 0,159419572295416 
644	 0,160525851889304 
645	 0,161548662502787 
646	 0,161102655573278 
647	 0,16066606688462 
648	 0,16047344533287 
649	 0,159858216644116 
650	 0,159530864929673 
651	 0,159739061525121 
652	 0,158096962679711 
653	 0,155632313697799 
654	 0,155085749901424 
655	 0,154922099309803 
656	 0,154427024539921 
657	 0,152691318196308 
658	 0,150702222834762 
659	 0,149540017374112 
660	 0,1488678402708 
661	 0,148093026521904 
662	 0,145601987085459 
663	 0,143650288273369 
664	 0,143242795507942 
665	 0,142494116751559 
666	 0,141552095327346 
667	 0,141003242035021 
668	 0,140439907661988 
669	 0,139860328190893 
670	 0,139685892943316 
671	 0,139644133611578 
672	 0,139511157318928 
673	 0,13946711970768 
674	 0,139472753705665 
675	 0,139364558877279 
676	 0,139300423706276 
677	 0,139376299533479 
678	 0,139786498622812 
679	 0,140141016169211 
680	 0,139976152560493 
681	 0,140115112228656 
682	 0,140650849244549 
683	 0,141187246425729 
684	 0,141742838349145 
685	 0,142449665613528 
686	 0,144251182321329 
687	 0,146637586213695 
688	 0,148440630159092 
689	 0,151013534700758 
690	 0,15463610226041 
691	 0,158445710849882 
692	 0,163110786179007 
693	 0,169197975686821 
694	 0,175604162947837 
695	 0,182420338338867 
696	 0,190370707168778 
697	 0,199418995996122 
698	 0,209450390798186 
699	 0,219774894740073 
700	 0,230509415575423 
701	 0,241915148893858 
702	 0,253972041814327 
703	 0,266365723831228 
704	 0,278382823747395 
705	 0,290186457625748 
706	 0,30182424101406 
707	 0,313219809082574 
708	 0,32438643001791 
709	 0,33539798113509 
710	 0,345818702071426 
711	 0,355573299638432 
712	 0,36513445761123 
713	 0,374125422559574 
714	 0,38224535444422 
715	 0,39036710733794 
716	 0,398429284132515 
717	 0,405921635233207 
718	 0,41262384497426 
719	 0,418550443041527 
720	 0,424590320282853 
721	 0,430438844114432 
722	 0,435601662859069 
723	 0,440458171954753 
724	 0,445006880028472 
725	 0,448892808499006 
726	 0,45267637106679 
727	 0,456620255280881 
728	 0,4598725050671 
729	 0,462559695567384 
730	 0,465099577995287 
731	 0,467449349648062 
732	 0,469628598033321 
733	 0,471587663209591 
734	 0,473547958439855 
735	 0,475673127560901 
736	 0,47750280147505 
737	 0,478949094582665 
738	 0,479981460138896 
739	 0,481020026797227 
740	 0,48229107633201 
741	 0,483952755927086 
742	 0,485338405551817 
743	 0,485704572891541 
744	 0,486431847256177 
745	 0,487628769106591 
746	 0,488561373581362 
747	 0,489484387919744 
748	 0,490471857553356 
749	 0,491168183269701 
750	 0,49166599106132 
751	 0,492159189998521 
752	 0,492908132151953 
753	 0,493778819666031 
754	 0,49392076569172 
755	 0,494153587094639 
756	 0,495014695472656 
757	 0,495484490137422 
758	 0,495753253065484 
759	 0,496588196996203 
760	 0,496946835925975 
761	 0,4967169724082 
762	 0,497025761173469 
763	 0,49761296825763 
764	 0,498149847562191 
765	 0,49825525270409 
766	 0,49810319806694 
767	 0,498390565061727 
768	 0,498502182338414 
769	 0,498304015058321 
770	 0,498416578846236 
771	 0,498815634094347 
772	 0,499393080587771 
773	 0,499567111876658 
774	 0,499338089658805 
775	 0,499075342405086 
776	 0,499334317485338 
777	 0,500234128611838 
778	 0,500285255055505 
779	 0,50006012250727 
780	 0,500649920025313 
781	 0,500963667878025 
782	 0,500907508601589 
783	 0,501202991585083 
784	 0,501548551299162 
785	 0,501722290271983 
786	 0,501598257659656 
787	 0,501479844715356 
788	 0,501945236065626 
789	 0,50221530887088 
790	 0,50216952664894 
791	 0,502377264677774 
792	 0,502612388009239 
793	 0,502686550800932 
794	 0,502737334040034 
795	 0,502759792701188 
796	 0,502674672193372 
797	 0,502740396257255 
798	 0,502994826260308 
799	 0,503201437647867 
800	 0,50315708166107 
801	 0,502736743346439 
802	 0,502731814897334 
803	 0,503053431351637 
804	 0,503035534493328 
805	 0,503199099180536 
806	 0,503610967612446 
807	 0,503559154918358 
808	 0,503659082811434 
809	 0,504555512882436 
810	 0,504794425694899 
811	 0,504486849429424 
812	 0,504800878814046 
813	 0,505214967117252 
814	 0,505568878291217 
815	 0,506157426002479 
816	 0,506782774968706 
817	 0,50719098467628 
818	 0,507467696409121 
819	 0,50766410265023 
820	 0,507843358438253 
821	 0,508183420698361 
822	 0,508701228505542 
823	 0,508883550966932 
824	 0,508943332846502 
825	 0,509218865078669 
826	 0,50948532835908 
827	 0,509667326530666 
828	 0,509634092227873 
829	 0,509917315720534 
830	 0,510621945514781 
831	 0,51050300741387 
832	 0,50989419306341 
833	 0,509438844765515 
834	 0,509572967791781 
835	 0,510189923039058 
836	 0,510567427093688 
837	 0,510540502748771 
838	 0,510105161195412 
839	 0,509997264259659 
840	 0,510174831751463 
841	 0,51044363248832 
842	 0,510445609051962 
843	 0,510211200162021 
844	 0,510116929305533 
845	 0,510475640303586 
846	 0,511327672436874 
847	 0,511694362694918 
848	 0,511600543755767 
849	 0,511264835879499 
850	 0,511239706338778 
851	 0,511550321041668 
852	 0,511690192846276 
853	 0,511909441396643 
854	 0,512257784574266 
855	 0,512149647308739 
856	 0,511973337560027 
857	 0,512331697463322 
858	 0,512539468298037 
859	 0,512534273711955 
860	 0,512667131424051 
861	 0,512907406285527 
862	 0,513200907312187 
863	 0,513240961197631 
864	 0,513333332729893 
865	 0,513899773713165 
866	 0,514026360265026 
867	 0,513853114398985 
868	 0,514563553873127 
869	 0,514903451929215 
870	 0,514465808395751 
871	 0,514731505265353 
872	 0,515095521700041 
873	 0,514698031135006 
874	 0,514502815880751 
875	 0,514542561560666 
876	 0,51419743087142 
877	 0,514342601239927 
878	 0,515048897307001 
879	 0,51453181925212 
880	 0,513706892765849 
881	 0,513693499397455 
882	 0,514042651128702 
883	 0,514417453946413 
884	 0,514110935449568 
885	 0,514079562288434 
886	 0,514556720936697 
887	 0,51474737961964 
888	 0,515071736875807 
889	 0,51588209747244 
890	 0,516029590695347 
891	 0,515722318412109 
892	 0,515896457780031 
893	 0,515914611194757 
894	 0,515670701192959 
895	 0,515550456437373 
896	 0,515530850937082 
897	 0,515611461867596 
898	 0,516009340191832 
899	 0,516615952321207 
900	 0,517234787231089 
901	 0,517164403549995 
902	 0,516400587983829 
903	 0,515659999849159 
904	 0,515591533708661 
905	 0,516409318464938 
906	 0,516510234794015 
907	 0,515994343576751 
908	 0,515322895436576 
909	 0,515564124846229 
910	 0,516476759612392 
911	 0,516358692249515 
912	 0,516296746485936 
913	 0,516680199248525 
914	 0,516720311894621 
915	 0,516379390884243 
916	 0,515729891442269 
917	 0,515385562489789 
918	 0,515289638088497 
919	 0,514804725148241 
920	 0,515237278076507 
921	 0,516451088316325 
922	 0,515598048395841 
923	 0,514454023513397 
924	 0,51454367116788 
925	 0,514765639379054 
926	 0,51449697794478 
927	 0,512883078748369 
928	 0,512557981895655 
929	 0,513468155710945 
930	 0,512401849191663 
931	 0,511165490369572 
932	 0,510740021893377 
933	 0,510079267039281 
934	 0,50914091461569 
935	 0,508039189211578 
936	 0,508223827385381 
937	 0,509393402927583 
938	 0,509917606611787 
939	 0,509546778661454 
940	 0,508314970517323 
941	 0,507395580493702 
942	 0,506167074177659 
943	 0,504204259263393 
944	 0,503693671498663 
945	 0,503653245563764 
946	 0,501580612497695 
947	 0,50004505042915 
948	 0,499633841690953 
949	 0,499722318448758 
950	 0,499293973629513 
951	 0,497665412832735 
952	 0,494674551530133 
953	 0,49201512038909 
954	 0,491630940760059 
955	 0,492043720174747 
956	 0,491944122949408 
957	 0,488698575799545 
958	 0,487139664357681 
959	 0,488115424201707 
960	 0,486831735454888 
961	 0,485963732111236 
962	 0,48725871870274 
963	 0,486495091134322 
964	 0,484890227922064 
965	 0,485158584537104 
966	 0,48430161857535 
967	 0,482452520286723 
968	 0,482304814410802 
969	 0,482233183650747 
970	 0,481669717020123 
971	 0,481438547927798 
972	 0,481368598835473 
973	 0,481263186574179 
974	 0,481157128132297 
975	 0,481271556379702 
976	 0,48200692790276 
977	 0,482131792107231 
978	 0,481726576884057 
979	 0,482418656181803 
980	 0,482763088706876 
981	 0,482213633347592 
982	 0,482102778651263 
983	 0,482097732508969 
984	 0,481765661176522 
985	 0,481430555488694 
986	 0,480807460420322 
987	 0,479130455217423 
988	 0,479794635772175 
989	 0,482516486687578 
990	 0,482593796200334 
991	 0,48185947399499 
992	 0,481702130544092 
993	 0,484434899017941 
994	 0,486535565955515 
995	 0,484498015993142 
996	 0,483661134450497 
997	 0,484827317471622 
998	 0,48759500107911 
999	 0,488769097186331 
1000	 0,488559284766235 
1001	 0,492014468734355 
1002	 0,492727463395982 
1003	 0,488676855926996 
1004	 0,488194713260911 
1005	 0,490225540782825 
1006	 0,492774836221764 
1007	 0,493153311295825 
1008	 0,492830302265398 
1009	 0,4953086854572 
1010	 0,497808713556473 
1011	 0,499140803059381 
1012	 0,49775729417402 
1013	 0,497356126201379 
1014	 0,49917125778796 
1015	 0,500197399282615 
1016	 0,500166962730051 
1017	 0,499359764372168 
1018	 0,501102107929747 
1019	 0,503288206692726 
1020	 0,502269025770038 
1021	 0,502896690029924 
1022	 0,505235106496936 
1023	 0,506250810040379 
1024	 0,507275988855492 
1025	 0,508024175651834 
1026	 0,505289910355068 
1027	 0,504537612870008 
1028	 0,508464766654016 
1029	 0,508810592060617 
1030	 0,507236686297178 
1031	 0,506882138175447 
1032	 0,509960043213481 
1033	 0,514166667139065 
1034	 0,513965932337703 
1035	 0,514526405841099 
1036	 0,516299389856146 
1037	 0,515785482329363 
1038	 0,514679429859321 
1039	 0,513653435712624 
1040	 0,511467717957136 
1041	 0,511860937478652 
1042	 0,516845380785489 
1043	 0,516379500739723 
1044	 0,515209869207394 
1045	 0,521251620826755 
1046	 0,522040790519712 
1047	 0,517975340201294 
1048	 0,516450670495307 
1049	 0,514590342354033 
1050	 0,512566782568291 
1051	 0,512155538441158 
1052	 0,518555937350721 
1053	 0,530416125348779 
1054	 0,528360319784244 
1055	 0,519275000162937 
1056	 0,511467559303941 
1057	 0,511778691874937 
1058	 0,516442448971867 
1059	 0,518355938587299 
1060	 0,517194181245136 
1061	 0,513923933442244 
1062	 0,510435355220035 
1063	 0,51777209345326 
1064	 0,531926794329867 
1065	 0,527491485703648 
1066	 0,51543969271374 
1067	 0,5050617450417 
1068	 0,511259506288649 
1069	 0,524023303132044 
1070	 0,533449811276608 
1071	 0,529745533253613 
1072	 0,519823686882673 
1073	 0,513899851841847 
1074	 0,516397005018337 
1075	 0,523509143461575 
