Wavelength	GRA-VAN00867.asd
325	 0,295173101022149 
326	 0,245820503548508 
327	 0,340089335131469 
328	 0,51123146216939 
329	 0,410919946098847 
330	 0,238052250603212 
331	 0,337529217448565 
332	 0,366664059968943 
333	 0,32320711322395 
334	 0,131946833079456 
335	 4,30422772533706E-02 
336	 0,142630332422825 
337	 0,170855358400772 
338	 0,142037236554696 
339	 6,39862000985707E-02 
340	 0,130550753449025 
341	 0,227799175334313 
342	 0,10940613387381 
343	 0,054552803682605 
344	 0,13010392419788 
345	 0,132723786356849 
346	 9,94871624294507E-02 
347	 7,76195638621383E-02 
348	 6,04871518004341E-02 
349	 5,12771599764832E-02 
350	 0,07387388308945 
351	 8,90875604689612E-02 
352	 8,23991479163893E-02 
353	 7,00093487711171E-02 
354	 6,17332383430259E-02 
355	 6,89814091903455E-02 
356	 7,73172983607683E-02 
357	 7,51201797699574E-02 
358	 3,30869229639827E-02 
359	 1,96911369799329E-02 
360	 0,064283294046525 
361	 0,108373569507202 
362	 0,122834214377616 
363	 7,21492027251711E-02 
364	 3,84742627540614E-02 
365	 3,99387857462063E-02 
366	 5,17288372014582E-02 
367	 7,37051583468823E-02 
368	 0,100267029421056 
369	 9,85021805784345E-02 
370	 7,31524768037595E-02 
371	 3,45516103378692E-02 
372	 2,57417560360447E-02 
373	 5,07963424675676E-02 
374	 6,05728829298772E-02 
375	 6,43278086118566E-02 
376	 6,80503257235282E-02 
377	 6,49602958988976E-02 
378	 5,74297621451213E-02 
379	 5,31376434610291E-02 
380	 4,46473484893093E-02 
381	 0,036599323063234 
382	 6,35340001758688E-02 
383	 0,085109120016466 
384	 6,68404831668278E-02 
385	 6,30329627039567E-02 
386	 6,91729328603741E-02 
387	 0,046064752582419 
388	 2,43528185941685E-02 
389	 1,89412001746197E-02 
390	 2,26729352295261E-02 
391	 3,06970794471926E-02 
392	 3,83316578280477E-02 
393	 4,52536320523919E-02 
394	 4,88204032568953E-02 
395	 4,24307500564956E-02 
396	 3,62930113993661E-02 
397	 0,035772263613442 
398	 0,038954429046608 
399	 3,98921619400102E-02 
400	 2,97258238496092E-02 
401	 3,13694355840603E-02 
402	 4,27490238596163E-02 
403	 3,64202444654125E-02 
404	 2,28931860958249E-02 
405	 1,21193016222808E-02 
406	 2,24676734099755E-02 
407	 3,82219829090087E-02 
408	 2,51242847521759E-02 
409	 1,95013168790817E-02 
410	 2,75858041677156E-02 
411	 2,37116309299073E-02 
412	 1,87057468205347E-02 
413	 2,31463848233886E-02 
414	 2,40244239413933E-02 
415	 1,99615661594543E-02 
416	 1,22419184358507E-02 
417	 9,10417938198674E-03 
418	 1,36335323066542E-02 
419	 1,93512597855069E-02 
420	 2,61138325181763E-02 
421	 3,50361441533147E-02 
422	 3,63779597982623E-02 
423	 2,97492217894771E-02 
424	 2,05298004943406E-02 
425	 1,71733020980663E-02 
426	 2,38358559236672E-02 
427	 2,98450151437078E-02 
428	 3,19231989811437E-02 
429	 2,75281146480575E-02 
430	 2,22049774205372E-02 
431	 1,86889983259754E-02 
432	 1,94978897401497E-02 
433	 2,25720865010806E-02 
434	 2,55248766968157E-02 
435	 2,15684881661877E-02 
436	 1,41228183044208E-02 
437	 1,48807180192524E-02 
438	 1,76369045453882E-02 
439	 1,97035240505288E-02 
440	 2,04748388663972E-02 
441	 2,07255710663615E-02 
442	 2,15518373502787E-02 
443	 2,31862290240081E-02 
444	 2,44642399462239E-02 
445	 2,15298413323681E-02 
446	 1,74172907934378E-02 
447	 1,46150042018226E-02 
448	 1,62300510112127E-02 
449	 1,97030461968319E-02 
450	 1,95252622103423E-02 
451	 1,94382068094567E-02 
452	 2,00639841743668E-02 
453	 0,019193769358974 
454	 1,79969099060432E-02 
455	 1,76723376165931E-02 
456	 1,88708329274482E-02 
457	 1,99826712198888E-02 
458	 1,60263567372009E-02 
459	 1,43691789529507E-02 
460	 1,76540322436241E-02 
461	 2,05408203811174E-02 
462	 2,12682199415619E-02 
463	 1,82973370969324E-02 
464	 1,54875799270234E-02 
465	 1,44654969676125E-02 
466	 1,61507074534552E-02 
467	 1,92881292186038E-02 
468	 2,26245364304737E-02 
469	 0,023713685397636 
470	 2,24114989520588E-02 
471	 1,89038390023375E-02 
472	 1,75297425011013E-02 
473	 1,90592405009499E-02 
474	 1,86771046084119E-02 
475	 1,85940180617661E-02 
476	 2,10610122346966E-02 
477	 2,16241311580408E-02 
478	 2,03734136690679E-02 
479	 0,020190702022627 
480	 1,94578657719772E-02 
481	 1,78324012426703E-02 
482	 0,017969568329584 
483	 1,86910776121381E-02 
484	 1,77968999027374E-02 
485	 1,90489934242014E-02 
486	 2,18673454148372E-02 
487	 2,04733179572487E-02 
488	 1,82069275741148E-02 
489	 1,77243688485635E-02 
490	 1,83732510420665E-02 
491	 1,94781000796083E-02 
492	 1,98630877424198E-02 
493	 1,95607675410338E-02 
494	 1,89220179439398E-02 
495	 2,02338284477193E-02 
496	 2,08315234982917E-02 
497	 1,76481704159161E-02 
498	 1,52336705060232E-02 
499	 1,45969970939968E-02 
500	 1,51601829853127E-02 
501	 1,62003585932624E-02 
502	 1,71455141515873E-02 
503	 0,017429090344576 
504	 1,76251289462833E-02 
505	 0,01899481595774 
506	 1,89889120039543E-02 
507	 1,77794599112894E-02 
508	 1,98655796449177E-02 
509	 2,10218426517348E-02 
510	 1,76197000203232E-02 
511	 1,67072670772517E-02 
512	 1,80988539022441E-02 
513	 1,75286587125693E-02 
514	 0,01764693755428 
515	 1,91012532256496E-02 
516	 1,87498420649278E-02 
517	 1,78515428163705E-02 
518	 1,85539252525879E-02 
519	 1,91369314119372E-02 
520	 0,019185926650644 
521	 1,89821942819587E-02 
522	 1,82363303629543E-02 
523	 1,69656471185104E-02 
524	 1,75241966385771E-02 
525	 1,92345270669479E-02 
526	 2,00145961488576E-02 
527	 1,94843399961631E-02 
528	 1,78405420250792E-02 
529	 1,71707347914861E-02 
530	 0,017472826616597 
531	 1,85002800204548E-02 
532	 1,87664286952241E-02 
533	 1,81723285867246E-02 
534	 1,77272018696656E-02 
535	 1,71062400791157E-02 
536	 1,62715696720488E-02 
537	 1,62516034199792E-02 
538	 1,68825424133166E-02 
539	 1,76400473127812E-02 
540	 0,018395380036845 
541	 0,018816992611785 
542	 1,78585629437125E-02 
543	 1,69302679759482E-02 
544	 1,73822064091171E-02 
545	 1,72611479673736E-02 
546	 1,66047987321362E-02 
547	 1,65561702136779E-02 
548	 1,70366920576811E-02 
549	 1,78956440279357E-02 
550	 1,83923115008344E-02 
551	 1,82051358146654E-02 
552	 1,69561356011461E-02 
553	 1,63749039504966E-02 
554	 1,67464774970971E-02 
555	 1,68029182608971E-02 
556	 1,69663630124821E-02 
557	 1,75403461032695E-02 
558	 1,74831234944482E-02 
559	 0,017056269607676 
560	 1,74599129643645E-02 
561	 1,74338284160355E-02 
562	 1,67575124181779E-02 
563	 0,017341306304212 
564	 1,81198729627984E-02 
565	 1,74983060191144E-02 
566	 1,69655127129054E-02 
567	 1,68449588452398E-02 
568	 1,68321188648447E-02 
569	 0,016857406662599 
570	 1,68472023293807E-02 
571	 1,66132995105278E-02 
572	 1,63808790825544E-02 
573	 1,66565526169215E-02 
574	 1,72127879269632E-02 
575	 0,01789376085471 
576	 1,84248283610546E-02 
577	 1,86791286487387E-02 
578	 0,018557670235518 
579	 1,85438946333842E-02 
580	 1,87469233794208E-02 
581	 1,90823426479379E-02 
582	 1,93874300686748E-02 
583	 0,019582845791408 
584	 1,98662644886019E-02 
585	 2,02972080444346E-02 
586	 2,10042084628506E-02 
587	 2,09470366561274E-02 
588	 2,01953617516183E-02 
589	 2,05927576991504E-02 
590	 2,11699965944046E-02 
591	 2,09895904154002E-02 
592	 2,10872257803589E-02 
593	 2,14877344365155E-02 
594	 2,18404848590046E-02 
595	 2,15132811846962E-02 
596	 2,04776730609459E-02 
597	 2,08161450311456E-02 
598	 2,15172023053608E-02 
599	 2,07372250438556E-02 
600	 2,02393441380146E-02 
601	 0,020382553721879 
602	 2,05333335460944E-02 
603	 2,07343671986553E-02 
604	 2,09345129515547E-02 
605	 2,00503607897821E-02 
606	 1,87294328716122E-02 
607	 1,89598781231059E-02 
608	 1,93422975214114E-02 
609	 1,93576610370973E-02 
610	 1,92171947362717E-02 
611	 0,019029520218387 
612	 1,89159805677563E-02 
613	 1,88055992063904E-02 
614	 1,86734960046417E-02 
615	 1,85029351483687E-02 
616	 1,82073085030913E-02 
617	 1,78494940226829E-02 
618	 1,85345481787973E-02 
619	 1,94991469348528E-02 
620	 1,89610673836828E-02 
621	 1,83624889861023E-02 
622	 1,81575131113886E-02 
623	 1,80290489800118E-02 
624	 0,018104328439236 
625	 1,84906381282324E-02 
626	 1,82122320893685E-02 
627	 0,017686311491527 
628	 1,88646958838015E-02 
629	 1,95851699965455E-02 
630	 0,018890755594983 
631	 1,86072590846626E-02 
632	 1,87503044440203E-02 
633	 1,89860986541575E-02 
634	 1,89806947661706E-02 
635	 1,89414382784581E-02 
636	 2,03680636190955E-02 
637	 2,12297282283782E-02 
638	 1,99499490702457E-02 
639	 1,97129235171137E-02 
640	 2,04124988667614E-02 
641	 2,01282391159089E-02 
642	 2,03355337555024E-02 
643	 2,13564561485437E-02 
644	 2,15043730890144E-02 
645	 2,14369627071814E-02 
646	 2,22073665044102E-02 
647	 2,21162426825945E-02 
648	 2,11371938789081E-02 
649	 2,05564032820774E-02 
650	 2,07221871169373E-02 
651	 2,16775088689896E-02 
652	 2,15173992498112E-02 
653	 2,06089979299724E-02 
654	 0,020301383461723 
655	 2,01608589552418E-02 
656	 0,019964805972776 
657	 1,91168170191673E-02 
658	 1,84227417634847E-02 
659	 1,87065373629287E-02 
660	 1,86580181112477E-02 
661	 1,81597729628075E-02 
662	 1,77130163086283E-02 
663	 1,74016876857639E-02 
664	 1,72999350403314E-02 
665	 1,74701058558503E-02 
666	 1,76091679121647E-02 
667	 1,72501255216721E-02 
668	 1,69304940401062E-02 
669	 1,67964887448833E-02 
670	 1,67398175049951E-02 
671	 1,67150813024909E-02 
672	 0,016700858647885 
673	 1,69234267969751E-02 
674	 1,72173072890272E-02 
675	 1,71027817292446E-02 
676	 1,69827154229422E-02 
677	 1,70108414121771E-02 
678	 1,71116695025424E-02 
679	 1,73485637817109E-02 
680	 1,77898310484899E-02 
681	 1,73012415641683E-02 
682	 1,62765489274608E-02 
683	 0,016795375523813 
684	 1,76364733169072E-02 
685	 1,80366768071992E-02 
686	 1,80771851467182E-02 
687	 1,80276595930563E-02 
688	 0,018366711575012 
689	 1,86022198597791E-02 
690	 1,87625888694537E-02 
691	 1,95342017609308E-02 
692	 2,06472625648134E-02 
693	 2,18370807584897E-02 
694	 2,31615138554943E-02 
695	 0,024733083940061 
696	 2,68083871963874E-02 
697	 2,91325698463074E-02 
698	 3,16697115829252E-02 
699	 3,47354515703418E-02 
700	 3,85391972690262E-02 
701	 4,32879307795219E-02 
702	 0,048194192717574 
703	 5,30525444663116E-02 
704	 5,79636760333556E-02 
705	 6,34102755567074E-02 
706	 6,95719162710673E-02 
707	 7,53312777056016E-02 
708	 8,08019536277654E-02 
709	 8,64637440743162E-02 
710	 9,23916598120494E-02 
711	 9,84817876333051E-02 
712	 0,104131370490228 
713	 0,109442176207516 
714	 0,114527929941086 
715	 0,119233028026062 
716	 0,123808955303159 
717	 0,129021837799722 
718	 0,133670475743784 
719	 0,137356696114381 
720	 0,140967750408477 
721	 0,144638508897189 
722	 0,148433701338055 
723	 0,151523146400036 
724	 0,15401130193419 
725	 0,156960118971118 
726	 0,159748321070735 
727	 0,162023887402286 
728	 0,164187415283596 
729	 0,166281509893904 
730	 0,168321259560199 
731	 0,169811954068182 
732	 0,170802669156415 
733	 0,172179794455721 
734	 0,173592422321433 
735	 0,174713936926265 
736	 0,175763569435977 
737	 0,176758381536978 
738	 0,177636799064816 
739	 0,17853746417686 
740	 0,179442532012015 
741	 0,17992207789542 
742	 0,180384158780455 
743	 0,181316914117111 
744	 0,18169733800056 
745	 0,181688737331443 
746	 0,18257256178953 
747	 0,18319903219174 
748	 0,183101545661831 
749	 0,183669681543131 
750	 0,184460939590476 
751	 0,184551895054484 
752	 0,184630625864954 
753	 0,184909863104765 
754	 0,185459183502718 
755	 0,185919915180581 
756	 0,186048037402012 
757	 0,186177770980479 
758	 0,186406525680967 
759	 0,186828004447604 
760	 0,187184274397444 
761	 0,187335362590921 
762	 0,187073308088261 
763	 0,186980764434313 
764	 0,187563089662181 
765	 0,187823308591691 
766	 0,187779768099676 
767	 0,188039008955692 
768	 0,188113172865853 
769	 0,1879490549184 
770	 0,188318998301196 
771	 0,188920563528018 
772	 0,189315451433524 
773	 0,189324667817345 
774	 0,189065754920014 
775	 0,189027600468594 
776	 0,189101750395858 
777	 0,189219431896316 
778	 0,189257088677253 
779	 0,189210412284029 
780	 0,189096295156689 
781	 0,189126484966938 
782	 0,189329130782048 
783	 0,189630048576877 
784	 0,189640893964419 
785	 0,189183654525827 
786	 0,18900035218836 
787	 0,189243367274913 
788	 0,190020033373727 
789	 0,190149990532934 
790	 0,189603109773986 
791	 0,190045885779998 
792	 0,190232790942333 
793	 0,189261788358468 
794	 0,188886492503708 
795	 0,189093009632717 
796	 0,189232080658306 
797	 0,189120695736124 
798	 0,18879883292314 
799	 0,188943839954225 
800	 0,189176359337155 
801	 0,189110982639892 
802	 0,188858532017724 
803	 0,188717439551739 
804	 0,18946851878196 
805	 0,189818270768673 
806	 0,189449377800283 
807	 0,189613616512851 
808	 0,189716500072614 
809	 0,18909442455879 
810	 0,189105721192638 
811	 0,189824109525644 
812	 0,190703362958369 
813	 0,191245666422674 
814	 0,191231388352162 
815	 0,191065787808256 
816	 0,190917515212784 
817	 0,190934992621212 
818	 0,190978231182253 
819	 0,191026049491412 
820	 0,191102107680875 
821	 0,191234847227711 
822	 0,191437640128688 
823	 0,191666854132391 
824	 0,192010845435592 
825	 0,192581280851648 
826	 0,192963778508884 
827	 0,193045976451646 
828	 0,192797835849087 
829	 0,192772379076289 
830	 0,193182215180062 
831	 0,193246267806067 
832	 0,193140236203892 
833	 0,193218108139283 
834	 0,193596824925343 
835	 0,194093938474127 
836	 0,19398829517355 
837	 0,194020315552915 
838	 0,194446475791768 
839	 0,194005452996916 
840	 0,19344902703233 
841	 0,193999378098106 
842	 0,19446990300171 
843	 0,194591815164035 
844	 0,194556055496518 
845	 0,194446235689808 
846	 0,194321430105514 
847	 0,19411112980216 
848	 0,194044384691158 
849	 0,194434904222594 
850	 0,194662010440178 
851	 0,194650215256836 
852	 0,194725228871735 
853	 0,194883576745463 
854	 0,195062451673694 
855	 0,194840387228655 
856	 0,194443033265373 
857	 0,194241960271119 
858	 0,19401509731807 
859	 0,193938592236577 
860	 0,194781867960851 
861	 0,195247909243751 
862	 0,194810868797944 
863	 0,194925992090873 
864	 0,195317991508073 
865	 0,195431532047547 
866	 0,195529328204229 
867	 0,195546004326787 
868	 0,195034323626475 
869	 0,195000815463767 
870	 0,195788464738034 
871	 0,196303399836228 
872	 0,196380806435565 
873	 0,195987218250379 
874	 0,195938429363932 
875	 0,196265142373002 
876	 0,196427915329493 
877	 0,196677309719932 
878	 0,197110056180892 
879	 0,197819506376863 
880	 0,198162485904758 
881	 0,197520009499544 
882	 0,197444625897894 
883	 0,197735950952599 
884	 0,196766529138731 
885	 0,197045407598438 
886	 0,19885659816182 
887	 0,198682944929003 
888	 0,198080409330106 
889	 0,198634566608962 
890	 0,198914691105827 
891	 0,198913774756849 
892	 0,19915970374901 
893	 0,199268446109443 
894	 0,199268971064704 
895	 0,199870854995446 
896	 0,20021638369268 
897	 0,199721239783258 
898	 0,199760870242502 
899	 0,199868124099459 
900	 0,19877929185622 
901	 0,198755572956823 
902	 0,199913314094369 
903	 0,200151718171414 
904	 0,199984749566836 
905	 0,199824205041249 
906	 0,200258549882704 
907	 0,20064461768848 
908	 0,199984915027044 
909	 0,199592242429465 
910	 0,199772626001237 
911	 0,200414306520222 
912	 0,200895189240543 
913	 0,200832044104622 
914	 0,200133389321471 
915	 0,199301981097607 
916	 0,19891967660194 
917	 0,199129248851676 
918	 0,199755894526136 
919	 0,200384331740076 
920	 0,200463959345867 
921	 0,199844078592568 
922	 0,198934450910278 
923	 0,198481512134074 
924	 0,198931833382018 
925	 0,198451034236315 
926	 0,197464320135997 
927	 0,197262371847825 
928	 0,197177719984767 
929	 0,197003503442674 
930	 0,196634313058802 
931	 0,19638077048731 
932	 0,19630973861833 
933	 0,195534298717392 
934	 0,194690817650482 
935	 0,194654069198857 
936	 0,193309559425532 
937	 0,191400979973385 
938	 0,192425880944908 
939	 0,192936700595995 
940	 0,191970009566159 
941	 0,191989777340278 
942	 0,191872590393596 
943	 0,190566217393165 
944	 0,188771418756999 
945	 0,187586010618358 
946	 0,188825759318924 
947	 0,188135235913934 
948	 0,185307710343407 
949	 0,184687933717458 
950	 0,183971826557576 
951	 0,1820756525109 
952	 0,181103026417353 
953	 0,18014988293427 
954	 0,177981806130627 
955	 0,177268401270462 
956	 0,177539359905523 
957	 0,175985266411311 
958	 0,175375827632042 
959	 0,176104458810192 
960	 0,175729981653283 
961	 0,174130063550775 
962	 0,171651385327111 
963	 0,171308699301469 
964	 0,171891037533686 
965	 0,170886705204947 
966	 0,170225615609262 
967	 0,17004987758702 
968	 0,169181668959849 
969	 0,169317784775872 
970	 0,170882640506626 
971	 0,172137707919607 
972	 0,172504950713068 
973	 0,171626331668321 
974	 0,169952646725144 
975	 0,168950379118879 
976	 0,170918673319351 
977	 0,172688073739191 
978	 0,173240679547566 
979	 0,172552474324128 
980	 0,171994382825293 
981	 0,171989649837278 
982	 0,170100396876837 
983	 0,169363275666327 
984	 0,172583398462062 
985	 0,173310800805348 
986	 0,172523583970835 
987	 0,174539734678894 
988	 0,174957256843049 
989	 0,173932099634418 
990	 0,176760943182833 
991	 0,17857661325016 
992	 0,177393492209711 
993	 0,177883564948608 
994	 0,178699893827409 
995	 0,178154454516388 
996	 0,177687900114163 
997	 0,177847406074154 
998	 0,179104955572494 
999	 0,181191401543026 
1000	 0,183049218352133 
1001	 0,181619888075343 
1002	 0,17998389814496 
1003	 0,179640770165171 
1004	 0,178933793444722 
1005	 0,179552285555541 
1006	 0,182802032121814 
1007	 0,184193108347871 
1008	 0,18325038984516 
1009	 0,180644882107905 
1010	 0,179878272440774 
1011	 0,181782468147059 
1012	 0,185605038950324 
1013	 0,187123026291498 
1014	 0,185496182198237 
1015	 0,187550613210971 
1016	 0,190731092470888 
1017	 0,192418103466077 
1018	 0,19172933484624 
1019	 0,190980590222134 
1020	 0,193715156666557 
1021	 0,195488922527681 
1022	 0,195373697915318 
1023	 0,193152489151264 
1024	 0,195801472731092 
1025	 0,202681251581903 
1026	 0,199220870875089 
1027	 0,196858680771903 
1028	 0,201958220438447 
1029	 0,200566468023523 
1030	 0,19920919994774 
1031	 0,206087720653489 
1032	 0,204819176426905 
1033	 0,199161895409877 
1034	 0,203214191837119 
1035	 0,200909220568364 
1036	 0,19388648865132 
1037	 0,204537240673336 
1038	 0,210090452611736 
1039	 0,203636446330773 
1040	 0,207568251550509 
1041	 0,210674651364376 
1042	 0,204134571697256 
1043	 0,201098695608561 
1044	 0,20412486885504 
1045	 0,213303815485427 
1046	 0,215280272513737 
1047	 0,211450564027969 
1048	 0,211862554904523 
1049	 0,220280088147124 
1050	 0,232032255469755 
1051	 0,226485575839583 
1052	 0,217544552386625 
1053	 0,21372116632159 
1054	 0,215088552741256 
1055	 0,216789990052905 
1056	 0,214614704812074 
1057	 0,210395498891025 
1058	 0,209389696285643 
1059	 0,21796786957158 
1060	 0,223415031495437 
1061	 0,222918072924143 
1062	 0,216330422709122 
1063	 0,215934654069702 
1064	 0,220535083024428 
1065	 0,210166308736245 
1066	 0,200536384691139 
1067	 0,200200015043705 
1068	 0,2092400658921 
1069	 0,217454535425715 
1070	 0,218826864775197 
1071	 0,230682425814649 
1072	 0,240054142422507 
1073	 0,230542523361922 
1074	 0,224021328717695 
1075	 0,225066231425475 
