Wavelength	GRA-VAN00633.asd
325	 0,406262739117962 
326	 0,297709449661586 
327	 0,257547883162744 
328	 0,372944684009162 
329	 0,286260168498364 
330	 0,212284715866545 
331	 0,383030886822693 
332	 0,367233809614246 
333	 0,269882143210855 
334	 0,230008353397867 
335	 0,227127359529752 
336	 0,256993225659379 
337	 0,295667463544238 
338	 0,335300563787709 
339	 0,37009955643174 
340	 0,396749147688166 
341	 0,389323130951536 
342	 0,307259884676826 
343	 0,235151372398491 
344	 0,233043741319142 
345	 0,284152367887293 
346	 0,338636733520475 
347	 0,327749002005499 
348	 0,291358586510127 
349	 0,249248422834603 
350	 0,253533963798544 
351	 0,259460477910871 
352	 0,252881606976435 
353	 0,266509874192705 
354	 0,273200964130697 
355	 0,239731696852918 
356	 0,254153504634632 
357	 0,299718890718683 
358	 0,289638372129048 
359	 0,267717940579559 
360	 0,262085873568794 
361	 0,291551189672673 
362	 0,312150423215065 
363	 0,260477550692664 
364	 0,247349714713624 
365	 0,283505905233953 
366	 0,295152227003013 
367	 0,307733579124045 
368	 0,331297079260783 
369	 0,316865833813084 
370	 0,282227458217308 
371	 0,265226908301536 
372	 0,266198098555788 
373	 0,280538937096814 
374	 0,286671233374032 
375	 0,290548190107343 
376	 0,29630749250877 
377	 0,308995655022898 
378	 0,314832453143829 
379	 0,276974673297097 
380	 0,26290593660466 
381	 0,28402938629968 
382	 0,288297124385802 
383	 0,291971548500836 
384	 0,311706408359903 
385	 0,317705946618933 
386	 0,308738324948084 
387	 0,295531827666089 
388	 0,281923730410142 
389	 0,273926928372343 
390	 0,281153719412756 
391	 0,291518735695656 
392	 0,290940926152989 
393	 0,290754438913772 
394	 0,292817644951943 
395	 0,295939299728136 
396	 0,295635975741001 
397	 0,291093636738439 
398	 0,294658234374346 
399	 0,2980795500163 
400	 0,286755610756771 
401	 0,287380072945856 
402	 0,299678155161093 
403	 0,298669281182351 
404	 0,29198381826106 
405	 0,285941382853086 
406	 0,284537677049909 
407	 0,287602132831906 
408	 0,294269791736285 
409	 0,296474606163798 
410	 0,293291835573544 
411	 0,294175173067117 
412	 0,296657508787227 
413	 0,297851765818762 
414	 0,296476320773155 
415	 0,293319324850921 
416	 0,290629673432088 
417	 0,288563521011355 
418	 0,288273814526979 
419	 0,295043722736604 
420	 0,3029228428775 
421	 0,304778213394544 
422	 0,300759344375038 
423	 0,293458816062142 
424	 0,289930566102214 
425	 0,291295119639549 
426	 0,297051059986809 
427	 0,297194405836006 
428	 0,294055189903656 
429	 0,294520220577506 
430	 0,293045040955298 
431	 0,289670158480758 
432	 0,291211390735093 
433	 0,294150812610195 
434	 0,295051770764183 
435	 0,29270027442983 
436	 0,289164877208765 
437	 0,290583113574971 
438	 0,290929158232918 
439	 0,288518156989461 
440	 0,288606739294369 
441	 0,289420806091907 
442	 0,288156761415498 
443	 0,290564977105159 
444	 0,295597511428115 
445	 0,295534158630743 
446	 0,293957439204462 
447	 0,293362285118481 
448	 0,294694501973335 
449	 0,296642930835482 
450	 0,296535107768987 
451	 0,295471856222538 
452	 0,294492322135584 
453	 0,296493163251326 
454	 0,298895281878056 
455	 0,299273644189337 
456	 0,300097570538586 
457	 0,300931120749455 
458	 0,299263079308798 
459	 0,298528127277765 
460	 0,299633244280915 
461	 0,297675775489078 
462	 0,295990619229461 
463	 0,299539069397308 
464	 0,299733689997211 
465	 0,296558183953237 
466	 0,297632919129051 
467	 0,300740917216878 
468	 0,30384470315853 
469	 0,302539554384221 
470	 0,299154587093913 
471	 0,299331357836182 
472	 0,30075718393514 
473	 0,302340222735809 
474	 0,302297226901516 
475	 0,302262103896843 
476	 0,303798349222986 
477	 0,30283840780602 
478	 0,3004989492809 
479	 0,301975768212056 
480	 0,303450025701632 
481	 0,303218066615352 
482	 0,303019523667296 
483	 0,302644168187156 
484	 0,301498069045252 
485	 0,300729783756329 
486	 0,300948817636798 
487	 0,303331106994776 
488	 0,304454112741421 
489	 0,302062713391233 
490	 0,301342528215973 
491	 0,302046592896207 
492	 0,301368839792718 
493	 0,301725388842848 
494	 0,303471857738313 
495	 0,304438093917695 
496	 0,303634262470427 
497	 0,300263596602675 
498	 0,299358794689567 
499	 0,301155731993037 
500	 0,302616990319459 
501	 0,303159503034545 
502	 0,302617873872623 
503	 0,302995116396989 
504	 0,304200025822193 
505	 0,305670432896523 
506	 0,306190426504056 
507	 0,305994815864567 
508	 0,308216560548557 
509	 0,309612921184164 
510	 0,307402513694519 
511	 0,306844469597821 
512	 0,307820982594011 
513	 0,307004036582672 
514	 0,307490462751008 
515	 0,310012834670341 
516	 0,3103553400194 
517	 0,309988895478784 
518	 0,311563234527893 
519	 0,311922056250995 
520	 0,311024664137205 
521	 0,311825666214784 
522	 0,312151872147469 
523	 0,31063439368915 
524	 0,310548708566755 
525	 0,311779014157742 
526	 0,313134889849922 
527	 0,313290998015548 
528	 0,31202767802665 
529	 0,311361967444257 
530	 0,311090126949889 
531	 0,310784505689095 
532	 0,311436334214135 
533	 0,312290869371044 
534	 0,310182146717304 
535	 0,308902149457711 
536	 0,310428968920063 
537	 0,31110280873844 
538	 0,31096578079584 
539	 0,311034433371788 
540	 0,311170747173464 
541	 0,311332276320882 
542	 0,311383020312801 
543	 0,311205748301246 
544	 0,310754057466909 
545	 0,311385357897746 
546	 0,312654142586941 
547	 0,312559207864928 
548	 0,312327043231985 
549	 0,312507942660752 
550	 0,312529852408049 
551	 0,312660222272131 
552	 0,313461058015574 
553	 0,3131169937873 
554	 0,311704820767387 
555	 0,311730475499495 
556	 0,312048772789028 
557	 0,311660415790612 
558	 0,311030011125081 
559	 0,310381902805265 
560	 0,310029410465654 
561	 0,309891575421457 
562	 0,309966813541311 
563	 0,310504324657046 
564	 0,310710890290602 
565	 0,309550765191005 
566	 0,309086079342519 
567	 0,309529954579482 
568	 0,309466149520877 
569	 0,309701474309782 
570	 0,31073135238474 
571	 0,311490314457794 
572	 0,312305592299387 
573	 0,314324133140116 
574	 0,316171159162303 
575	 0,317471465911706 
576	 0,319239357859829 
577	 0,320852609342867 
578	 0,321558573820635 
579	 0,322347767758368 
580	 0,323503501392711 
581	 0,325064053286373 
582	 0,326779981252274 
583	 0,328413571966269 
584	 0,329526861757803 
585	 0,330208101637037 
586	 0,330668614515888 
587	 0,331607368480894 
588	 0,333175923556296 
589	 0,334885496801172 
590	 0,336340324276124 
591	 0,337241265751885 
592	 0,338641393103928 
593	 0,340038373440265 
594	 0,33947981316049 
595	 0,338744388089402 
596	 0,338715856801866 
597	 0,339072191511742 
598	 0,339608029028506 
599	 0,340083782322349 
600	 0,340094908004316 
601	 0,339593709243131 
602	 0,338873499169966 
603	 0,338515842763379 
604	 0,338821211573053 
605	 0,337654460323672 
606	 0,335767705252853 
607	 0,335993536856867 
608	 0,335785236857948 
609	 0,334426804614042 
610	 0,333597643766188 
611	 0,3331196731237 
612	 0,332598690256381 
613	 0,332124903588603 
614	 0,331576337085907 
615	 0,330433107855908 
616	 0,329738504908814 
617	 0,330097990750908 
618	 0,330524290422749 
619	 0,330653515726313 
620	 0,330084758303523 
621	 0,329650418049996 
622	 0,329576938016998 
623	 0,329381079189927 
624	 0,329185186568376 
625	 0,329151643645125 
626	 0,329659696287711 
627	 0,330336910250258 
628	 0,329898847546454 
629	 0,329352183857943 
630	 0,329354817417698 
631	 0,330449598108275 
632	 0,332074317130878 
633	 0,333297321198094 
634	 0,333491002191909 
635	 0,333012476993051 
636	 0,334243077556932 
637	 0,335611320810569 
638	 0,335793987624467 
639	 0,336266673579944 
640	 0,337218672053521 
641	 0,338473804013566 
642	 0,339667427099194 
643	 0,340601255337862 
644	 0,341340384437129 
645	 0,341940239355083 
646	 0,342469759909234 
647	 0,342729194437868 
648	 0,34242226301428 
649	 0,340626641987699 
650	 0,339198699812005 
651	 0,33920469346238 
652	 0,338012447562263 
653	 0,336184622046112 
654	 0,335762972047594 
655	 0,334756675770831 
656	 0,332670293309623 
657	 0,330493023830559 
658	 0,328493249321146 
659	 0,326872417892321 
660	 0,325162597457401 
661	 0,323267399340804 
662	 0,321200778782138 
663	 0,319356191402408 
664	 0,317922249513863 
665	 0,316571241313885 
666	 0,315337697990544 
667	 0,31433813744694 
668	 0,313456738394466 
669	 0,312767291760866 
670	 0,312724313564818 
671	 0,312677246836904 
672	 0,312146067592455 
673	 0,312072533662502 
674	 0,312261433591992 
675	 0,311847555551419 
676	 0,311485126838398 
677	 0,311425543103656 
678	 0,311594448568108 
679	 0,311958042740097 
680	 0,312472386894754 
681	 0,312436028835834 
682	 0,31215295547729 
683	 0,313003003274099 
684	 0,314518173557029 
685	 0,316372552266097 
686	 0,318226038097477 
687	 0,320231968971692 
688	 0,322745856274761 
689	 0,325665954277952 
690	 0,329081885004178 
691	 0,333176899600469 
692	 0,338404762646258 
693	 0,345107587835203 
694	 0,352063287727585 
695	 0,359353764533243 
696	 0,367904529547357 
697	 0,37684744214481 
698	 0,385903965060557 
699	 0,395789293120236 
700	 0,406146844149244 
701	 0,416429868702833 
702	 0,426812663884132 
703	 0,437205218170973 
704	 0,447393231782459 
705	 0,457258327280717 
706	 0,466689225022749 
707	 0,475760560074094 
708	 0,484508000134026 
709	 0,492975384262927 
710	 0,500567052014662 
711	 0,507325771690944 
712	 0,514240454246742 
713	 0,521031389697617 
714	 0,527364484232382 
715	 0,532921177960958 
716	 0,537930279381566 
717	 0,543154407935163 
718	 0,547953093359121 
719	 0,552122897974794 
720	 0,55604837561468 
721	 0,559704194436178 
722	 0,563025069822166 
723	 0,565763264812941 
724	 0,568152968209661 
725	 0,571221703840647 
726	 0,573592887152284 
727	 0,574586825120767 
728	 0,576046223920126 
729	 0,577897385208118 
730	 0,579532651935818 
731	 0,5810067715843 
732	 0,582256571813185 
733	 0,583074427530935 
734	 0,583801516664346 
735	 0,584715041443718 
736	 0,585208598902622 
737	 0,585635438659981 
738	 0,58723645515262 
739	 0,588316754417165 
740	 0,58834810992702 
741	 0,588384587682581 
742	 0,588652595263289 
743	 0,589293968402511 
744	 0,589619332594768 
745	 0,589693352633488 
746	 0,590269525880338 
747	 0,590771768262108 
748	 0,590892346380966 
749	 0,590757227663094 
750	 0,590745888413389 
751	 0,591417995986175 
752	 0,59166785687582 
753	 0,591460821036225 
754	 0,591933197664703 
755	 0,592460242290258 
756	 0,592564412751556 
757	 0,592332017129192 
758	 0,592097053032963 
759	 0,592517008842133 
760	 0,59277790150199 
761	 0,592738856878908 
762	 0,593157674688192 
763	 0,593424679493034 
764	 0,592979084718807 
765	 0,592691622004805 
766	 0,592631058882942 
767	 0,592474057668536 
768	 0,59245493233303 
769	 0,592633819802129 
770	 0,592817790214626 
771	 0,593008445579553 
772	 0,593219777200291 
773	 0,592904026939217 
774	 0,592265335592188 
775	 0,592305934291661 
776	 0,592320119750804 
777	 0,592023512209569 
778	 0,592120585932605 
779	 0,592360244330489 
780	 0,592273531472931 
781	 0,592081213524305 
782	 0,591925600230467 
783	 0,592122336496929 
784	 0,592232534431337 
785	 0,591998098758721 
786	 0,591845506706041 
787	 0,591872464058508 
788	 0,592142268933765 
789	 0,592365212360275 
790	 0,59244082167983 
791	 0,592501830004688 
792	 0,59217429891599 
793	 0,591267019527753 
794	 0,590975840468796 
795	 0,591239304646304 
796	 0,591520539811778 
797	 0,591353779724378 
798	 0,590785392085592 
799	 0,591094002292081 
800	 0,591203996278101 
801	 0,590172288814163 
802	 0,590112883260037 
803	 0,590867749631245 
804	 0,591050801619607 
805	 0,590940297976649 
806	 0,59068200677597 
807	 0,590815555740561 
808	 0,590787457370785 
809	 0,590049246414195 
810	 0,590590693886233 
811	 0,591927167750261 
812	 0,591536067808419 
813	 0,591142502654315 
814	 0,591396562217597 
815	 0,591639955593807 
816	 0,591676266477775 
817	 0,591347617931786 
818	 0,59098757189147 
819	 0,590840869286072 
820	 0,59139012362359 
821	 0,591728851869463 
822	 0,591460980056205 
823	 0,591191907994859 
824	 0,59109173165793 
825	 0,591288597099892 
826	 0,59168626027372 
827	 0,59214364198777 
828	 0,592405805397486 
829	 0,592370623759962 
830	 0,592014539134333 
831	 0,591545288859499 
832	 0,591324635488824 
833	 0,591779586766835 
834	 0,59179609108777 
835	 0,591351838479971 
836	 0,591314742022262 
837	 0,591631194107101 
838	 0,592115599134356 
839	 0,591692474636019 
840	 0,590857039440536 
841	 0,590474457353636 
842	 0,590716578623039 
843	 0,591222811475172 
844	 0,590558766473451 
845	 0,590162774227798 
846	 0,590708317833283 
847	 0,590880754262048 
848	 0,59086370841431 
849	 0,591122488742997 
850	 0,591344127275173 
851	 0,591389209177204 
852	 0,591039279010603 
853	 0,590838057703883 
854	 0,590994148910532 
855	 0,590690444925575 
856	 0,590212766835338 
857	 0,590070450203384 
858	 0,59004370642288 
859	 0,59009042348806 
860	 0,590293062166191 
861	 0,590153696752849 
862	 0,589627307603113 
863	 0,59030547960762 
864	 0,591107630155792 
865	 0,590459980182679 
866	 0,58998570764307 
867	 0,590056360028961 
868	 0,590620079808578 
869	 0,590842803483303 
870	 0,590415301732052 
871	 0,590231081190108 
872	 0,590354921803617 
873	 0,590736843837763 
874	 0,590773569037927 
875	 0,590567167317312 
876	 0,590941293064075 
877	 0,5907643562697 
878	 0,589847164129881 
879	 0,589965063202649 
880	 0,590405185486074 
881	 0,590284201412547 
882	 0,590526034388085 
883	 0,590954305896072 
884	 0,590574832387829 
885	 0,59072802711172 
886	 0,591543543373657 
887	 0,590987022891976 
888	 0,590511032297955 
889	 0,591409369674034 
890	 0,590832253079508 
891	 0,589593430337241 
892	 0,590587642072047 
893	 0,59149175169642 
894	 0,591628156414892 
895	 0,591659339609978 
896	 0,591379364949094 
897	 0,590710787019499 
898	 0,590404981583879 
899	 0,590675825777586 
900	 0,591702770350533 
901	 0,591828095339085 
902	 0,591010036139041 
903	 0,591084509695824 
904	 0,591481244749913 
905	 0,59178863487313 
906	 0,591851812637408 
907	 0,591651462396837 
908	 0,591215218692452 
909	 0,59099886320872 
910	 0,591036302925478 
911	 0,591047786316419 
912	 0,59083143915466 
913	 0,590394106144124 
914	 0,59044013532078 
915	 0,59061150952522 
916	 0,59046015221119 
917	 0,590482973169482 
918	 0,590581499933222 
919	 0,590178934484289 
920	 0,590394874203282 
921	 0,591274170864039 
922	 0,591097529168702 
923	 0,59057525797296 
924	 0,590346902951247 
925	 0,589973803769284 
926	 0,589434971826308 
927	 0,588757083889857 
928	 0,58871244954375 
929	 0,589081842866708 
930	 0,588112911098071 
931	 0,587575594736041 
932	 0,588259266055275 
933	 0,587913312788023 
934	 0,587188900524209 
935	 0,5871986164793 
936	 0,586375614956643 
937	 0,585104404540899 
938	 0,585484076360248 
939	 0,585407947163999 
940	 0,584415391601745 
941	 0,584454231883223 
942	 0,585085682762547 
943	 0,585631808878371 
944	 0,584168354183701 
945	 0,582084116902677 
946	 0,582555376470123 
947	 0,581880779310121 
948	 0,579928100082969 
949	 0,580366460585159 
950	 0,580120873778285 
951	 0,577960826369566 
952	 0,578379308908799 
953	 0,578690598058128 
954	 0,575371041672789 
955	 0,574499683028 
956	 0,575581358663494 
957	 0,573840823839151 
958	 0,572747582367979 
959	 0,573101835362644 
960	 0,573226114870808 
961	 0,572408957048613 
962	 0,570492486546991 
963	 0,570557276819105 
964	 0,571509687667644 
965	 0,571026323856016 
966	 0,569793628964978 
967	 0,56840201054401 
968	 0,568001287832907 
969	 0,568665450406927 
970	 0,569971277800823 
971	 0,569523842913182 
972	 0,568909184129493 
973	 0,569550389429856 
974	 0,569049211276429 
975	 0,5678323180995 
976	 0,567286376038996 
977	 0,568281361541378 
978	 0,57028301374795 
979	 0,570745527570863 
980	 0,569869582187781 
981	 0,568181999253081 
982	 0,568020931231163 
983	 0,568759852999135 
984	 0,569458017591395 
985	 0,569545926538111 
986	 0,569159059838263 
987	 0,568760314689492 
988	 0,569812659778747 
989	 0,572017936091668 
990	 0,572670292992705 
991	 0,572960222812577 
992	 0,573512095029076 
993	 0,574135502457013 
994	 0,574527260534872 
995	 0,574526692837523 
996	 0,576089746600384 
997	 0,578103516313189 
998	 0,577742581131128 
999	 0,578119693821848 
1000	 0,578764388347081 
1001	 0,574393350577066 
1002	 0,572560490772908 
1003	 0,576327977275687 
1004	 0,579234804098457 
1005	 0,580689006325778 
1006	 0,580735971397602 
1007	 0,580379987648209 
1008	 0,579962136964003 
1009	 0,579630956870477 
1010	 0,580521342190222 
1011	 0,582306751911153 
1012	 0,582971667202735 
1013	 0,583224054462071 
1014	 0,583523211707854 
1015	 0,584347569686408 
1016	 0,586683654719008 
1017	 0,590728688742879 
1018	 0,591662523950063 
1019	 0,588706237936236 
1020	 0,582264630530232 
1021	 0,580313947095383 
1022	 0,583810213856816 
1023	 0,589519359896482 
1024	 0,594892128743409 
1025	 0,597897103964436 
1026	 0,596743728235591 
1027	 0,594511396047145 
1028	 0,593664004648257 
1029	 0,594856527984517 
1030	 0,596000748145445 
1031	 0,594788927368268 
1032	 0,595548475376865 
1033	 0,597358168494071 
1034	 0,596747050853881 
1035	 0,595142173587945 
1036	 0,593919832225698 
1037	 0,596133003644072 
1038	 0,599373845074868 
1039	 0,601687046636723 
1040	 0,598824227660644 
1041	 0,598468439491926 
1042	 0,605405739007983 
1043	 0,603536085934046 
1044	 0,596810457762788 
1045	 0,594029563774937 
1046	 0,594426435107932 
1047	 0,597228538452572 
1048	 0,600433442697087 
1049	 0,605178973235646 
1050	 0,609016236733628 
1051	 0,602692775738419 
1052	 0,598403166963285 
1053	 0,601528227054542 
1054	 0,601130190379531 
1055	 0,601695384052543 
1056	 0,60652861771994 
1057	 0,6058558826038 
1058	 0,603444279405096 
1059	 0,606138640964242 
1060	 0,600343625450591 
1061	 0,592665229423714 
1062	 0,604696945142292 
1063	 0,613874231295802 
1064	 0,614053473061937 
1065	 0,608654819479085 
1066	 0,601074740867097 
1067	 0,595792209537047 
1068	 0,602314241556674 
1069	 0,604741322313439 
1070	 0,594730855819047 
1071	 0,609483548190698 
1072	 0,619358715016941 
1073	 0,588243589532542 
1074	 0,580741340442906 
1075	 0,597197165343464 
