Wavelength	GRA-VAN00187.asd
325	 0,370627934715323 
326	 0,389415473177075 
327	 0,364831892486027 
328	 0,302139447991708 
329	 0,293975057355866 
330	 0,317122888759464 
331	 0,33307755310841 
332	 0,40021225967178 
333	 0,449356794647475 
334	 0,246223772787578 
335	 0,211691308021372 
336	 0,418542487905845 
337	 0,425157295497364 
338	 0,368345607769054 
339	 0,352155741744702 
340	 0,357879794980344 
341	 0,358241900928391 
342	 0,29561557282828 
343	 0,258861195683466 
344	 0,277436912597793 
345	 0,275474691189972 
346	 0,259507452597866 
347	 0,243137665126089 
348	 0,226892591550469 
349	 0,210049660383023 
350	 0,191877944117391 
351	 0,224359040786815 
352	 0,294241778724537 
353	 0,291009691109295 
354	 0,254009365123702 
355	 0,233184815054569 
356	 0,245105941097508 
357	 0,27554699209031 
358	 0,282457539335635 
359	 0,27972569508008 
360	 0,274986531978324 
361	 0,273479416219754 
362	 0,274048229685819 
363	 0,274468956060462 
364	 0,273388732724946 
365	 0,273541572635019 
366	 0,286810112162111 
367	 0,295378181730281 
368	 0,289752612426814 
369	 0,285093543871482 
370	 0,278260018583955 
371	 0,256953608073837 
372	 0,265768020942376 
373	 0,298805006458646 
374	 0,286686997112847 
375	 0,262625506983411 
376	 0,256222447296536 
377	 0,26172078783623 
378	 0,272836413317555 
379	 0,276848157168682 
380	 0,277495091664325 
381	 0,277734271308913 
382	 0,286595335020135 
383	 0,292724577031055 
384	 0,286671515298827 
385	 0,289487058595259 
386	 0,292666255591682 
387	 0,259163450770862 
388	 0,254267501764254 
389	 0,293152892978273 
390	 0,288256349865567 
391	 0,267601919283955 
392	 0,270565790934556 
393	 0,277999618916783 
394	 0,283483026231799 
395	 0,279353553061378 
396	 0,276992251300946 
397	 0,281528002751615 
398	 0,285861417513287 
399	 0,285558709252816 
400	 0,27503131676649 
401	 0,271005459244126 
402	 0,276101291722911 
403	 0,283380306508935 
404	 0,281854658921004 
405	 0,266516880700729 
406	 0,272672127874665 
407	 0,288143944071371 
408	 0,280761011689022 
409	 0,275209129259481 
410	 0,277038265742963 
411	 0,275167232067239 
412	 0,274770789574868 
413	 0,28043160948885 
414	 0,279402880461521 
415	 0,273663879305334 
416	 0,273722968777127 
417	 0,274568816629451 
418	 0,274482342492064 
419	 0,275048650931982 
420	 0,277775855990751 
421	 0,284502926555181 
422	 0,284665519492466 
423	 0,278103195552282 
424	 0,271848843984952 
425	 0,271270399221069 
426	 0,27825093923114 
427	 0,279171656288165 
428	 0,276706438544324 
429	 0,27941348520123 
430	 0,279376572212386 
431	 0,275605279281662 
432	 0,273453305328998 
433	 0,27456469573652 
434	 0,279436611109405 
435	 0,277305408389712 
436	 0,271291706173176 
437	 0,274878775629483 
438	 0,277454303094807 
439	 0,275729451397213 
440	 0,276554764810544 
441	 0,278745936829732 
442	 0,28005328251672 
443	 0,281785013532639 
444	 0,283632651318131 
445	 0,284325651036606 
446	 0,282175903429379 
447	 0,277024035357176 
448	 0,276194141319828 
449	 0,278922759842258 
450	 0,281849094347484 
451	 0,28443531737686 
452	 0,285955123943353 
453	 0,28551923872825 
454	 0,283857103418519 
455	 0,281956910356472 
456	 0,284259839963886 
457	 0,288744292308956 
458	 0,287972758960377 
459	 0,28710649372818 
460	 0,287839797193384 
461	 0,286410846701999 
462	 0,284349449437444 
463	 0,28404330344627 
464	 0,284189771047901 
465	 0,284732563272387 
466	 0,286496965961997 
467	 0,288527572587089 
468	 0,290219119647919 
469	 0,292868090321668 
470	 0,294195715216516 
471	 0,289146044121579 
472	 0,286557389588467 
473	 0,288109132901449 
474	 0,285945605228695 
475	 0,284053229888036 
476	 0,286535535041219 
477	 0,286872147148032 
478	 0,28534464063208 
479	 0,28628872344366 
480	 0,288301652770813 
481	 0,290093650772258 
482	 0,287524334327532 
483	 0,284199197445358 
484	 0,285904917174728 
485	 0,287681717915089 
486	 0,288001658734551 
487	 0,286408446108258 
488	 0,285595676540409 
489	 0,287274765590732 
490	 0,286627883390061 
491	 0,284415527883048 
492	 0,283856568218833 
493	 0,284704051923336 
494	 0,286705532577549 
495	 0,288958691392236 
496	 0,289075229252089 
497	 0,284673998302322 
498	 0,283478122418193 
499	 0,285792236454424 
500	 0,286685962578399 
501	 0,28697020698081 
502	 0,287118291914259 
503	 0,287658533947663 
504	 0,28849275463515 
505	 0,289270385600194 
506	 0,290433022225624 
507	 0,291755649894679 
508	 0,291704202962979 
509	 0,291917679952182 
510	 0,293774399638909 
511	 0,294192450005248 
512	 0,293238305253159 
513	 0,292424370305574 
514	 0,292480598812924 
515	 0,293767370476856 
516	 0,296040314781769 
517	 0,297695367440767 
518	 0,296646865685234 
519	 0,296040340948745 
520	 0,296447947470475 
521	 0,296598620071836 
522	 0,296709433060893 
523	 0,296931291479746 
524	 0,297049270079084 
525	 0,297171994901335 
526	 0,297806802280336 
527	 0,297383707112258 
528	 0,295811873563691 
529	 0,295642629005777 
530	 0,296346373742033 
531	 0,297071203069844 
532	 0,297077513299943 
533	 0,296403436430474 
534	 0,295682585043986 
535	 0,295770847316207 
536	 0,296929965158955 
537	 0,296607535548131 
538	 0,295851582009995 
539	 0,297307628204951 
540	 0,298175956729469 
541	 0,297796788954038 
542	 0,297343065283216 
543	 0,297382123238974 
544	 0,29834579167564 
545	 0,298811522528334 
546	 0,298754690497945 
547	 0,29902252105311 
548	 0,299231487706171 
549	 0,299253810946046 
550	 0,299416661951046 
551	 0,299761268342959 
552	 0,300331302635551 
553	 0,300311285339792 
554	 0,299631256782958 
555	 0,299026052812422 
556	 0,298653290393226 
557	 0,298599325731814 
558	 0,298409305563061 
559	 0,298066825851703 
560	 0,297818788632582 
561	 0,297251601141319 
562	 0,2963872878747 
563	 0,296382658119922 
564	 0,296595073334844 
565	 0,296047929680658 
566	 0,295895450195063 
567	 0,296274544441354 
568	 0,296499499883657 
569	 0,29710735996453 
570	 0,298366821810454 
571	 0,298870965958138 
572	 0,299391930461269 
573	 0,302166391010755 
574	 0,304658978740357 
575	 0,306149269370354 
576	 0,308155309814355 
577	 0,310247753542778 
578	 0,311842578095446 
579	 0,31392422876513 
580	 0,316270173757255 
581	 0,317421090799172 
582	 0,318804019915138 
583	 0,321091031934521 
584	 0,322726779215008 
585	 0,323755625662044 
586	 0,324607121526788 
587	 0,3255692066329 
588	 0,326827276560185 
589	 0,328608993536028 
590	 0,330163772571432 
591	 0,330837380306911 
592	 0,331759909725032 
593	 0,33286652811762 
594	 0,333384717372993 
595	 0,333517606231951 
596	 0,333498858531501 
597	 0,334261233920906 
598	 0,335141336349637 
599	 0,33502497809623 
600	 0,334560912338361 
601	 0,333970547818175 
602	 0,333285914205154 
603	 0,332972908668397 
604	 0,33323526192199 
605	 0,33198065732196 
606	 0,329886910964083 
607	 0,32947424185514 
608	 0,32929538496276 
609	 0,328652463707298 
610	 0,326648950742881 
611	 0,324756579605569 
612	 0,324841026449214 
613	 0,324390741056518 
614	 0,323159218799422 
615	 0,322478663764333 
616	 0,322078547692248 
617	 0,321759952644713 
618	 0,32124441637283 
619	 0,320796675134334 
620	 0,32111697582278 
621	 0,320745155610182 
622	 0,319562185863777 
623	 0,319480884827825 
624	 0,319876996925361 
625	 0,319992200419086 
626	 0,320007704016645 
627	 0,320060889805383 
628	 0,32051790692533 
629	 0,320893592266354 
630	 0,321006310681507 
631	 0,321494022570159 
632	 0,322202086007781 
633	 0,322765283961358 
634	 0,323263051557222 
635	 0,323819116331592 
636	 0,324810673221685 
637	 0,326058124605506 
638	 0,327371201946877 
639	 0,328467181873685 
640	 0,329367501737633 
641	 0,330331480326576 
642	 0,331095250561345 
643	 0,331638307278135 
644	 0,332490513705524 
645	 0,333414060277322 
646	 0,334049930461516 
647	 0,333713391525162 
648	 0,332541064213605 
649	 0,331693729439113 
650	 0,330648306673015 
651	 0,329089286519847 
652	 0,327389110936361 
653	 0,325765569665705 
654	 0,324633814440559 
655	 0,322824292594048 
656	 0,320063550771706 
657	 0,31712649905835 
658	 0,314525782075453 
659	 0,312690913500259 
660	 0,310221572925543 
661	 0,307268361927918 
662	 0,305153084388507 
663	 0,303306435695631 
664	 0,301513420260204 
665	 0,300303175894934 
666	 0,29927308127687 
667	 0,297739283352598 
668	 0,296117542586869 
669	 0,294756013768367 
670	 0,294502244898829 
671	 0,294348233311042 
672	 0,293504924812774 
673	 0,292859798897194 
674	 0,292543680507919 
675	 0,292515953624774 
676	 0,292489124524198 
677	 0,292400162522199 
678	 0,292634492925569 
679	 0,293020652137277 
680	 0,293320396108958 
681	 0,293562512034749 
682	 0,293868714355487 
683	 0,294479108435195 
684	 0,295686961465551 
685	 0,29757541980471 
686	 0,299143595557941 
687	 0,300965066499914 
688	 0,304304199393642 
689	 0,307708201877752 
690	 0,311118079267654 
691	 0,316010952817997 
692	 0,322272657537266 
693	 0,329702781187763 
694	 0,337403522210638 
695	 0,34550090303646 
696	 0,354846215745584 
697	 0,364847258309833 
698	 0,375292376436508 
699	 0,386480236879323 
700	 0,398252725885856 
701	 0,41036430922729 
702	 0,422341556421141 
703	 0,434092180591478 
704	 0,446048115631066 
705	 0,457491266367395 
706	 0,46798797020177 
707	 0,478407802993988 
708	 0,488586472833864 
709	 0,497945745581564 
710	 0,506676954096924 
711	 0,514846267103121 
712	 0,522405237931237 
713	 0,529628861687169 
714	 0,536722757175721 
715	 0,542968362384432 
716	 0,548470101051201 
717	 0,553804835013309 
718	 0,558877229704434 
719	 0,56366664777319 
720	 0,568081645908941 
721	 0,572044196521104 
722	 0,575486327358605 
723	 0,578623449984141 
724	 0,581573495974299 
725	 0,584505653614655 
726	 0,586942003271723 
727	 0,588656608671332 
728	 0,590316145999966 
729	 0,592063674643695 
730	 0,593983468736438 
731	 0,595590064156599 
732	 0,596723032662753 
733	 0,597421290053905 
734	 0,59819199276746 
735	 0,59942306908583 
736	 0,600151201296902 
737	 0,600614610147397 
738	 0,601897379221243 
739	 0,602906865682458 
740	 0,6033241077029 
741	 0,603885020906264 
742	 0,604506082543422 
743	 0,605020936658516 
744	 0,605409034831746 
745	 0,605636814532365 
746	 0,605565660124907 
747	 0,605747583781929 
748	 0,606396744736702 
749	 0,606676809966073 
750	 0,606797541847673 
751	 0,607248258454216 
752	 0,607466596164497 
753	 0,607369270776596 
754	 0,607201440696439 
755	 0,607256450599263 
756	 0,607696016238121 
757	 0,607905845058673 
758	 0,607899224926781 
759	 0,607872100968688 
760	 0,608239988131353 
761	 0,608899295736075 
762	 0,608682208981521 
763	 0,608201094838755 
764	 0,608080212979412 
765	 0,607869483761458 
766	 0,607714629186558 
767	 0,608184288222217 
768	 0,608694165274963 
769	 0,608936922148418 
770	 0,608747853282283 
771	 0,608370934223004 
772	 0,608116106249756 
773	 0,607998999877802 
774	 0,60802346785063 
775	 0,608154912797084 
776	 0,608318106469218 
777	 0,608398348390718 
778	 0,607963787793186 
779	 0,607472442642098 
780	 0,607651867248129 
781	 0,60767212118051 
782	 0,607386591212126 
783	 0,607137600879272 
784	 0,606779077152973 
785	 0,606309642739397 
786	 0,606509076081193 
787	 0,606982121470174 
788	 0,606838073461034 
789	 0,606677731443404 
790	 0,606650118788074 
791	 0,606659427468313 
792	 0,606509503042549 
793	 0,606078917327269 
794	 0,605794041111192 
795	 0,605650296605388 
796	 0,605449431710812 
797	 0,605401424774991 
798	 0,605513698260014 
799	 0,605529329739241 
800	 0,605391145443894 
801	 0,605083090072063 
802	 0,604957611132112 
803	 0,604986765838215 
804	 0,604902262217796 
805	 0,604842338974804 
806	 0,60489249874401 
807	 0,605307209294086 
808	 0,605497478553937 
809	 0,604885598718312 
810	 0,604971781957736 
811	 0,605641446328928 
812	 0,605664786266891 
813	 0,605642385490118 
814	 0,605778037323327 
815	 0,605850956066789 
816	 0,605775029720384 
817	 0,605473615386134 
818	 0,604915392435752 
819	 0,604483139407352 
820	 0,605308518543539 
821	 0,606004642296629 
822	 0,60590232454572 
823	 0,605506054636851 
824	 0,605184490018394 
825	 0,605334327126398 
826	 0,605763805580136 
827	 0,606082392148378 
828	 0,605159324074946 
829	 0,604771545386311 
830	 0,605603127340429 
831	 0,605450674095539 
832	 0,604730900098731 
833	 0,604337681714392 
834	 0,604630122481267 
835	 0,60531037252244 
836	 0,60500346053295 
837	 0,604884389008843 
838	 0,605408342166805 
839	 0,605039205108592 
840	 0,604272630298084 
841	 0,604031572609641 
842	 0,60424476286758 
843	 0,604706721611727 
844	 0,604777536063243 
845	 0,604759722257375 
846	 0,604772556523515 
847	 0,604415002239666 
848	 0,604130752990632 
849	 0,604579210168702 
850	 0,604709830807993 
851	 0,604329153817697 
852	 0,603680326992472 
853	 0,603439998946701 
854	 0,603846443014163 
855	 0,603697530476203 
856	 0,603209167340164 
857	 0,602871116298148 
858	 0,602835049978138 
859	 0,603073117778352 
860	 0,60334904913416 
861	 0,603470411089625 
862	 0,603348895433647 
863	 0,603249945734361 
864	 0,60306913370784 
865	 0,602643772316224 
866	 0,602534622508267 
867	 0,602763955815597 
868	 0,603053963105465 
869	 0,602775709978003 
870	 0,601940240033635 
871	 0,602685576365541 
872	 0,603664370764252 
873	 0,603083680585824 
874	 0,60300564986778 
875	 0,603466291354061 
876	 0,603281372054496 
877	 0,602822576282483 
878	 0,602366737084322 
879	 0,602585201650762 
880	 0,602876982476911 
881	 0,602571079142693 
882	 0,602522578205092 
883	 0,602693713324588 
884	 0,602487570912842 
885	 0,602597461462595 
886	 0,603005716943714 
887	 0,602267580209675 
888	 0,601644907868358 
889	 0,602278513627763 
890	 0,602152361120037 
891	 0,601644813790737 
892	 0,602393391757021 
893	 0,603081069408312 
894	 0,603298346770061 
895	 0,603355529210182 
896	 0,603131551545627 
897	 0,602582545867977 
898	 0,60211093059107 
899	 0,602003402469138 
900	 0,602651092215637 
901	 0,602614989631351 
902	 0,601846339052634 
903	 0,601808097799997 
904	 0,602273482067705 
905	 0,602959433990259 
906	 0,603014308772886 
907	 0,602607330997264 
908	 0,602157272911673 
909	 0,601677431726064 
910	 0,601454189256277 
911	 0,602408058396244 
912	 0,602563032423076 
913	 0,601264652686946 
914	 0,600788536231005 
915	 0,600805475267603 
916	 0,600734884447048 
917	 0,601019973625669 
918	 0,601409123011506 
919	 0,601085958215938 
920	 0,601026660304921 
921	 0,601293248619863 
922	 0,600445720804616 
923	 0,599681539707135 
924	 0,599943466130044 
925	 0,599789125174648 
926	 0,599181312645133 
927	 0,598466457418093 
928	 0,597946583363013 
929	 0,597568764781682 
930	 0,596562460583393 
931	 0,596303104056551 
932	 0,597302108573924 
933	 0,59731875678107 
934	 0,596289479670754 
935	 0,594545335760596 
936	 0,59370389399803 
937	 0,593756592025497 
938	 0,593484903428803 
939	 0,593071594790062 
940	 0,592536898405494 
941	 0,591910917994399 
942	 0,591276780073252 
943	 0,590673753010517 
944	 0,58973839602565 
945	 0,588692442476464 
946	 0,588052914240937 
947	 0,587052518149598 
948	 0,585767425846508 
949	 0,585295500320104 
950	 0,584831856166764 
951	 0,583903387641908 
952	 0,582772548499285 
953	 0,581527296263695 
954	 0,580237811382318 
955	 0,578759245687089 
956	 0,577247166711684 
957	 0,576092334908489 
958	 0,575217997707696 
959	 0,574629308017117 
960	 0,574509522444377 
961	 0,574002210048373 
962	 0,572649533348748 
963	 0,57225391920176 
964	 0,57279774708435 
965	 0,573831459406611 
966	 0,572866420666252 
967	 0,570468526470564 
968	 0,570387761699228 
969	 0,570910510919234 
970	 0,571153540712252 
971	 0,57040809108682 
972	 0,569565338152344 
973	 0,569628825214372 
974	 0,572201022755408 
975	 0,574187095678363 
976	 0,569675331594992 
977	 0,568498189326683 
978	 0,571599325009894 
979	 0,57232885718819 
980	 0,571377549962509 
981	 0,569515356298127 
982	 0,569651942833069 
983	 0,570383465490974 
984	 0,57006920079703 
985	 0,569936011650138 
986	 0,570171524895519 
987	 0,570707640605021 
988	 0,571788160179232 
989	 0,573219851609754 
990	 0,57452037031645 
991	 0,57364496819692 
992	 0,570494484853309 
993	 0,571173492150664 
994	 0,572874816912309 
995	 0,572486295234858 
996	 0,575608796731167 
997	 0,580069983558412 
998	 0,579977774109667 
999	 0,578167191671172 
1000	 0,576077899419957 
1001	 0,57529889081825 
1002	 0,577114050756003 
1003	 0,581036849297228 
1004	 0,580416451911317 
1005	 0,578074388089916 
1006	 0,577430957745734 
1007	 0,578601040967066 
1008	 0,580223184544379 
1009	 0,579745935269095 
1010	 0,581362381184554 
1011	 0,58423505441797 
1012	 0,581756377655884 
1013	 0,580775716259646 
1014	 0,583611986829343 
1015	 0,585205032074888 
1016	 0,586312762506481 
1017	 0,58760327616777 
1018	 0,586973621222185 
1019	 0,585873798029287 
1020	 0,586830409331903 
1021	 0,587714561540471 
1022	 0,588632012666377 
1023	 0,591337186269893 
1024	 0,593377228236677 
1025	 0,593856105770861 
1026	 0,593569282595847 
1027	 0,592358448341969 
1028	 0,590703758140148 
1029	 0,592239028707597 
1030	 0,593598180259828 
1031	 0,590836540250482 
1032	 0,590645770421152 
1033	 0,593357204093472 
1034	 0,597109249467063 
1035	 0,596033731966411 
1036	 0,591889918335066 
1037	 0,59802302111522 
1038	 0,599585311187182 
1039	 0,593013976262872 
1040	 0,597273376975943 
1041	 0,602958780843359 
1042	 0,601489504356655 
1043	 0,596103543887763 
1044	 0,590057670661694 
1045	 0,587468095957396 
1046	 0,588165341651875 
1047	 0,591752571959878 
1048	 0,597421111572965 
1049	 0,600911228208685 
1050	 0,601323081621995 
1051	 0,601584811038074 
1052	 0,602972310692305 
1053	 0,604782425308685 
1054	 0,598760814020693 
1055	 0,595915310889982 
1056	 0,60417265937722 
1057	 0,602842955303087 
1058	 0,59809562121488 
1059	 0,602419881694084 
1060	 0,602842701971766 
1061	 0,599512097018529 
1062	 0,598381271403327 
1063	 0,606254129185424 
1064	 0,618127936249926 
1065	 0,605287118561177 
1066	 0,59906969386596 
1067	 0,609651813925456 
1068	 0,608480223007597 
1069	 0,600554934611239 
1070	 0,59239145978721 
1071	 0,597527066733727 
1072	 0,606499210309778 
1073	 0,605601099642781 
1074	 0,599643497742199 
1075	 0,59780423327947 
