Wavelength	GRA-BER00508.asd
325	-0,107213301430866 
326	 0,102185397466483 
327	 0,194725855915966 
328	 0,114613323570038 
329	 0,117810866429903 
330	 0,124715158420402 
331	 5,84981860910489E-02 
332	 4,27878756745804E-02 
333	 6,37517710987819E-02 
334	 4,99449196474857E-02 
335	 5,55156660037235E-02 
336	 7,40863854305169E-02 
337	 2,40461470501425E-02 
338	-4,00612335935827E-02 
339	-5,81716442238731E-02 
340	-1,51382623246872E-02 
341	 2,58636565695053E-02 
342	-5,97612764076252E-02 
343	-0,10405456547658 
344	-5,63262614048587E-02 
345	 0,051209965932998 
346	 0,113345477084994 
347	 4,15476986180854E-02 
348	 0,022651030494316 
349	 4,80041198084846E-02 
350	 2,38402987218153E-02 
351	 2,42068142028897E-02 
352	 6,19667662707999E-02 
353	 6,80313526064039E-02 
354	 4,12616296049063E-02 
355	-1,90603899346893E-02 
356	-0,049133002652259 
357	-2,80471452188869E-02 
358	 4,68746690109518E-02 
359	 6,37100238576598E-02 
360	 4,23859447140391E-03 
361	 1,75294772342754E-02 
362	 5,56288205400959E-02 
363	 2,25091418202585E-02 
364	-8,75319590159044E-03 
365	-2,25226042860222E-02 
366	-0,021164286980348 
367	-5,34234251265804E-03 
368	 2,24928927314563E-02 
369	 6,03049815083405E-02 
370	 8,06193356201921E-02 
371	 4,47377687544292E-02 
372	 1,63599515824975E-02 
373	 1,66285317306038E-02 
374	 0,036462382517531 
375	 4,08500389453069E-02 
376	 6,49181323751067E-03 
377	-1,09933011125962E-02 
378	-3,25340779510986E-03 
379	 2,66245311331084E-02 
380	 2,81226206263646E-02 
381	 1,22882286370623E-04 
382	 2,34637423230837E-02 
383	 4,58658352569676E-02 
384	 0,018290613862741 
385	 1,88629502879422E-02 
386	 3,99643444058151E-02 
387	 2,44722177231127E-02 
388	 2,20652749069716E-02 
389	 0,043173940431314 
390	 3,26636916679748E-02 
391	 1,70014518700168E-02 
392	 3,17859143456817E-02 
393	 2,94016314948497E-02 
394	 1,10009240323988E-02 
395	 1,29525056652713E-02 
396	 1,97120639975027E-02 
397	 2,20093283304773E-02 
398	 1,33031291712569E-02 
399	 5,55286645359848E-03 
400	 1,66882891296755E-02 
401	 2,71347387168817E-02 
402	 0,031063007273393 
403	 0,028356331712811 
404	 2,30138570782781E-02 
405	 1,84422382320174E-02 
406	 1,89730186423629E-02 
407	 0,021253413332328 
408	 1,66345356523468E-02 
409	 1,87617818528227E-02 
410	 2,86571449664949E-02 
411	 3,41933738822301E-02 
412	 3,03917497416088E-02 
413	 1,41760586656637E-02 
414	 7,76043857454887E-03 
415	 0,011778049718915 
416	 1,49383272862822E-02 
417	 2,14813379130917E-02 
418	 2,99753897722845E-02 
419	 2,59618205276047E-02 
420	 1,77604096967466E-02 
421	 1,75041953142244E-02 
422	 1,73469422117977E-02 
423	 1,63201897900246E-02 
424	 1,68395252050767E-02 
425	 0,018230648841738 
426	 1,98919946979688E-02 
427	 2,04008434222726E-02 
428	 2,07399272650456E-02 
429	 2,34686423156444E-02 
430	 2,17376185168436E-02 
431	 1,61985648044427E-02 
432	 1,90634861025556E-02 
433	 2,22562376596608E-02 
434	 1,87814501321256E-02 
435	 0,017856981579465 
436	 1,99351316250802E-02 
437	 0,022192737719357 
438	 2,24315838327026E-02 
439	 0,020233775251343 
440	 1,98655468878913E-02 
441	 0,020329065986623 
442	 1,98254938289235E-02 
443	 2,21106443748333E-02 
444	 2,51485534910079E-02 
445	 1,86838760136842E-02 
446	 1,54722109765393E-02 
447	 2,21178793060265E-02 
448	 0,021839731125036 
449	 1,82831446338058E-02 
450	 2,29672303004745E-02 
451	 2,28528865369792E-02 
452	 1,67957465933213E-02 
453	 1,85408877287508E-02 
454	 2,18729509731484E-02 
455	 2,07294653561192E-02 
456	 1,96792518968725E-02 
457	 2,00989016407088E-02 
458	 2,37277821609625E-02 
459	 2,57321932741966E-02 
460	 2,44942998799062E-02 
461	 2,52587218989761E-02 
462	 2,45773503773224E-02 
463	 1,71837113450757E-02 
464	 1,59524396068593E-02 
465	 2,07324237009227E-02 
466	 1,86643812879906E-02 
467	 1,63700876050682E-02 
468	 1,80836776707711E-02 
469	 2,02218802495305E-02 
470	 2,11578020204514E-02 
471	 1,84820086592967E-02 
472	 1,78143626543662E-02 
473	 2,01523443436132E-02 
474	 2,04039802937266E-02 
475	 1,98767484022439E-02 
476	 2,01407344419874E-02 
477	 2,12904750206288E-02 
478	 2,25656281534615E-02 
479	 2,18409051621445E-02 
480	 2,09756215744338E-02 
481	 2,09172399769383E-02 
482	 2,16053590273799E-02 
483	 2,22168806124675E-02 
484	 0,021619488803919 
485	 2,00869152215174E-02 
486	 1,85614062156724E-02 
487	 2,01518952403635E-02 
488	 0,021863266189182 
489	 2,14405447119321E-02 
490	 2,04102000715074E-02 
491	 1,95073146688162E-02 
492	 2,00267424731809E-02 
493	 1,94644118996834E-02 
494	 1,74538483545166E-02 
495	 1,68809138793655E-02 
496	 1,76343562026454E-02 
497	 1,92728398866182E-02 
498	 2,04537955332667E-02 
499	 0,020762264439392 
500	 2,02247946008877E-02 
501	 1,92196328835052E-02 
502	 1,82020915954592E-02 
503	 1,85515750090171E-02 
504	 1,96065457730662E-02 
505	 1,99481032722591E-02 
506	 1,99796346400238E-02 
507	 1,99714521508378E-02 
508	 0,020743551150084 
509	 2,13780353300779E-02 
510	 2,10712762965718E-02 
511	 2,09298785141911E-02 
512	 2,08939045246979E-02 
513	 2,01741484303522E-02 
514	 1,96380951181544E-02 
515	 1,96237078276911E-02 
516	 0,019537813106983 
517	 1,96002113791079E-02 
518	 2,02204313456673E-02 
519	 2,01021561202052E-02 
520	 1,94065560710249E-02 
521	 2,01070361600874E-02 
522	 2,04199313061964E-02 
523	 1,92289731362768E-02 
524	 1,92576501437872E-02 
525	 2,01982955998125E-02 
526	 2,03800699261343E-02 
527	 2,07299305769137E-02 
528	 2,12084073699727E-02 
529	 0,019969571227696 
530	 1,90368260225495E-02 
531	 2,07839935706546E-02 
532	 2,07229961787603E-02 
533	 1,89719518629353E-02 
534	 1,93031104375237E-02 
535	 1,95306703606913E-02 
536	 1,86627530913908E-02 
537	 1,96994420534132E-02 
538	 2,14316263685082E-02 
539	 0,021013398801132 
540	 2,01560790224095E-02 
541	 1,95215116746786E-02 
542	 1,95828648445831E-02 
543	 1,97142976085369E-02 
544	 1,93357373513705E-02 
545	 1,99919796091759E-02 
546	 2,12873605968465E-02 
547	 0,02141106445141 
548	 2,08437123321505E-02 
549	 2,00228472786353E-02 
550	 2,04287468970528E-02 
551	 2,11660562305994E-02 
552	 2,05404308976608E-02 
553	 2,07530248450941E-02 
554	 2,18257775520442E-02 
555	 2,13697482930684E-02 
556	 2,03488946982515E-02 
557	 0,019668943452083 
558	 1,95599843896022E-02 
559	 1,98372041126706E-02 
560	 1,98074228215201E-02 
561	 2,02119171580201E-02 
562	 2,11316462762785E-02 
563	 2,12543827380822E-02 
564	 2,11970104582824E-02 
565	 2,19275605143906E-02 
566	 2,19761948699464E-02 
567	 2,13260002107247E-02 
568	 2,11747039537412E-02 
569	 2,14983551944214E-02 
570	 2,22156878976781E-02 
571	 2,26326520234887E-02 
572	 2,29111017376254E-02 
573	 2,37892578941893E-02 
574	 2,39518523376298E-02 
575	 2,32471905729904E-02 
576	 2,33750560972771E-02 
577	 2,43050642910235E-02 
578	 2,57986455305752E-02 
579	 2,56550587478876E-02 
580	 2,42785094774817E-02 
581	 2,46492771875277E-02 
582	 2,51590181698452E-02 
583	 2,49776020576353E-02 
584	 2,51404208658222E-02 
585	 2,53551261767662E-02 
586	 2,47928289308564E-02 
587	 2,53766797421773E-02 
588	 2,70367594608714E-02 
589	 2,68353196554545E-02 
590	 2,59282213621248E-02 
591	 2,55183284935292E-02 
592	 2,51786811659287E-02 
593	 2,48741015371172E-02 
594	 0,024578295248542 
595	 2,45769243754183E-02 
596	 2,49576418047456E-02 
597	 2,53881319361513E-02 
598	 2,55540730119412E-02 
599	 2,50315382422032E-02 
600	 2,53420068828426E-02 
601	 2,62665193934782E-02 
602	 2,51757374268194E-02 
603	 2,39991120939994E-02 
604	 2,42180427756501E-02 
605	 2,39953393651481E-02 
606	 2,33160849204622E-02 
607	 0,02288630669216 
608	 2,25205538614519E-02 
609	 2,22648392105029E-02 
610	 2,25597339565709E-02 
611	 2,30996525992098E-02 
612	 2,34681639715838E-02 
613	 2,36844047575644E-02 
614	 2,37564485757059E-02 
615	 2,38307145837571E-02 
616	 2,35297704446151E-02 
617	 2,27236489589299E-02 
618	 2,24224953209982E-02 
619	 2,26322104179872E-02 
620	 2,30579744948315E-02 
621	 2,35101454344188E-02 
622	 0,023780211631839 
623	 2,33936329879159E-02 
624	 2,30213073776888E-02 
625	 2,33579810291321E-02 
626	 2,36844852438535E-02 
627	 2,40391878525289E-02 
628	 2,50885874728672E-02 
629	 0,02577660860497 
630	 2,56467864547406E-02 
631	 2,57667384948982E-02 
632	 2,60922357021538E-02 
633	 2,63053389644661E-02 
634	 2,70032927257409E-02 
635	 2,79837002161004E-02 
636	 2,77517985645922E-02 
637	 2,74053934989747E-02 
638	 2,79100049225637E-02 
639	 2,87144660065595E-02 
640	 2,95821282744599E-02 
641	 3,02730165697978E-02 
642	 0,030475226820021 
643	 3,02300175040141E-02 
644	 3,05976756091165E-02 
645	 3,14270928923219E-02 
646	 3,23877710983012E-02 
647	 3,26246207302193E-02 
648	 3,22959952715384E-02 
649	 3,28090356781627E-02 
650	 3,34277597736928E-02 
651	 3,36206426231237E-02 
652	 3,32943354778199E-02 
653	 0,032883485962478 
654	 3,33022534080159E-02 
655	 3,36044310347522E-02 
656	 3,36527790825043E-02 
657	 3,45393659003706E-02 
658	 3,51070763169555E-02 
659	 3,41562464851125E-02 
660	 3,30412692126997E-02 
661	 3,22738414111831E-02 
662	 3,24160106804558E-02 
663	 3,22344286447732E-02 
664	 3,12259091953448E-02 
665	 3,07753988413775E-02 
666	 3,05472827833037E-02 
667	 2,97360533580502E-02 
668	 2,94672242700447E-02 
669	 2,98267961836836E-02 
670	 2,99648866120451E-02 
671	 2,95823849292766E-02 
672	 2,85398319233836E-02 
673	 2,78496973745152E-02 
674	 2,77562863732045E-02 
675	 2,84438575134742E-02 
676	 2,87983679509149E-02 
677	 2,84221766161685E-02 
678	 2,78857220993555E-02 
679	 2,75459545772393E-02 
680	 2,77510488079563E-02 
681	 2,79190397509862E-02 
682	 2,79073153890101E-02 
683	 2,76574503572595E-02 
684	 2,79148575532679E-02 
685	 2,89978038483746E-02 
686	 2,95808795018537E-02 
687	 2,98757567449274E-02 
688	 3,05748792827469E-02 
689	 3,14922383269787E-02 
690	 3,25595201558362E-02 
691	 3,35459912933021E-02 
692	 3,49837314874571E-02 
693	 3,73197168477781E-02 
694	 3,97527048939967E-02 
695	 0,042358216360307 
696	 4,57478673451145E-02 
697	 0,049484889591642 
698	 5,35090272758553E-02 
699	 5,86050064633738E-02 
700	 6,39723033521153E-02 
701	 6,85229343133476E-02 
702	 7,39511339832809E-02 
703	 8,03307793261657E-02 
704	 8,65121588732525E-02 
705	 9,25987950244645E-02 
706	 9,86503189052953E-02 
707	 0,104734861534721 
708	 0,110845887200513 
709	 0,116988836304591 
710	 0,12289598231375 
711	 0,128430716041858 
712	 0,133489045086383 
713	 0,138373565207732 
714	 0,143331894109508 
715	 0,147816527959115 
716	 0,151871182108139 
717	 0,155851128618578 
718	 0,159715095632059 
719	 0,163421324351933 
720	 0,166801275391872 
721	 0,169847546390247 
722	 0,17257741060804 
723	 0,174794351032369 
724	 0,176755060118257 
725	 0,179338843652773 
726	 0,181972340827508 
727	 0,184248191307688 
728	 0,185955459082627 
729	 0,187306840951637 
730	 0,188712084791798 
731	 0,190292783241769 
732	 0,191992633290196 
733	 0,193333271021512 
734	 0,19446129445041 
735	 0,195542479051316 
736	 0,196837456908993 
737	 0,198139961502566 
738	 0,198819023838847 
739	 0,199345487158201 
740	 0,199975703821769 
741	 0,201049771913212 
742	 0,202043869395147 
743	 0,202340861583937 
744	 0,20291865192044 
745	 0,20373313483542 
746	 0,203907083884557 
747	 0,204129152472622 
748	 0,204723241748116 
749	 0,205183216589 
750	 0,205508523967536 
751	 0,205777026727996 
752	 0,206358922953637 
753	 0,207155312145435 
754	 0,207447926354244 
755	 0,207348220653221 
756	 0,20704965444813 
757	 0,207488448638552 
758	 0,208300799745292 
759	 0,208451831438317 
760	 0,208473311840997 
761	 0,208556573488637 
762	 0,208783378409131 
763	 0,20913472417323 
764	 0,209554747707485 
765	 0,209578534815743 
766	 0,209361991920797 
767	 0,209521868117421 
768	 0,209835542128612 
769	 0,210164191218797 
770	 0,210189243016782 
771	 0,210164309890098 
772	 0,210417125455135 
773	 0,210821198638819 
774	 0,211199980737893 
775	 0,211121517519412 
776	 0,211004652929446 
777	 0,211110981760739 
778	 0,211600581467208 
779	 0,212043702871224 
780	 0,211791184130245 
781	 0,211950285317838 
782	 0,212519398445138 
783	 0,21236433643962 
784	 0,212191529916143 
785	 0,212442754939878 
786	 0,212650568692906 
787	 0,212768525738304 
788	 0,212807996487839 
789	 0,213134520759351 
790	 0,21371147243229 
791	 0,213911390496773 
792	 0,213964744576604 
793	 0,214072348211228 
794	 0,214153716401673 
795	 0,214256867079451 
796	 0,214486340997132 
797	 0,214805361796018 
798	 0,215142522017797 
799	 0,215251619793504 
800	 0,215316279689762 
801	 0,215513430262816 
802	 0,215644546991452 
803	 0,215756881125774 
804	 0,216094551453396 
805	 0,216242043593353 
806	 0,216125854304374 
807	 0,216218640206519 
808	 0,216536115475806 
809	 0,217029162876755 
810	 0,217144677037354 
811	 0,216946824411931 
812	 0,216905267514892 
813	 0,217185373738512 
814	 0,217793791293075 
815	 0,218204134696771 
816	 0,218458892371029 
817	 0,218669589521885 
818	 0,218728665718502 
819	 0,218680309699693 
820	 0,218672262865882 
821	 0,21880606422546 
822	 0,219086189948825 
823	 0,219123457848562 
824	 0,21924426662279 
825	 0,219899829586797 
826	 0,220111403674283 
827	 0,219907717965995 
828	 0,220155837917023 
829	 0,220522530515383 
830	 0,220805625558128 
831	 0,220824367619456 
832	 0,22079578308038 
833	 0,221039724927242 
834	 0,221211132466919 
835	 0,221309825486772 
836	 0,221652690181591 
837	 0,221810664631445 
838	 0,221637264429161 
839	 0,221868633914966 
840	 0,222229559223395 
841	 0,222220341483684 
842	 0,222394681610491 
843	 0,222767797048637 
844	 0,223001941029448 
845	 0,222807062700513 
846	 0,222226406048211 
847	 0,222707948006314 
848	 0,223681586613344 
849	 0,224119511553119 
850	 0,223948269170252 
851	 0,223407841879715 
852	 0,223315694115206 
853	 0,223727775764848 
854	 0,224514830660088 
855	 0,224496765774177 
856	 0,22426840332702 
857	 0,22481766213286 
858	 0,225130708430303 
859	 0,225118920652754 
860	 0,225431604831415 
861	 0,225111020241187 
862	 0,224012266679243 
863	 0,224610127744574 
864	 0,225678191815134 
865	 0,225325830295322 
866	 0,225721354759624 
867	 0,226699054216589 
868	 0,226211945332296 
869	 0,225751599039004 
870	 0,226000059154883 
871	 0,226452754027949 
872	 0,226816505767019 
873	 0,226795573066146 
874	 0,226325554605191 
875	 0,225756128051568 
876	 0,226019815458833 
877	 0,226655077834394 
878	 0,22727103501466 
879	 0,22688707016234 
880	 0,226466442564229 
881	 0,227074417547897 
882	 0,227441047209585 
883	 0,227374979845382 
884	 0,227063436207788 
885	 0,226697939857081 
886	 0,226527354300566 
887	 0,227267897789017 
888	 0,227849599579631 
889	 0,22734439262218 
890	 0,227572451075568 
891	 0,228307372928651 
892	 0,228359385497601 
893	 0,228082012827591 
894	 0,227765912245607 
895	 0,228242309489845 
896	 0,228665782434945 
897	 0,228366400898275 
898	 0,227732321507244 
899	 0,22740826454862 
900	 0,228443225838363 
901	 0,228735557463669 
902	 0,227952289232854 
903	 0,2271996275662 
904	 0,227301245165047 
905	 0,228560099950958 
906	 0,229191516272245 
907	 0,22903668833308 
908	 0,228246687611728 
909	 0,228210063768051 
910	 0,22885479536112 
911	 0,228711838937554 
912	 0,22845451021662 
913	 0,228444108386841 
914	 0,228898912980994 
915	 0,229296279685747 
916	 0,229071799126489 
917	 0,229046696032402 
918	 0,229110271284161 
919	 0,228456918990559 
920	 0,228385223157371 
921	 0,2291146505681 
922	 0,229463588366865 
923	 0,229113165209252 
924	 0,228007379016989 
925	 0,227830851676822 
926	 0,228252910779019 
927	 0,228153550321339 
928	 0,22799706378292 
929	 0,227730803062086 
930	 0,226621700062655 
931	 0,226389553312438 
932	 0,227667455068932 
933	 0,227450094132657 
934	 0,226161752776555 
935	 0,224842829945199 
936	 0,224978176014243 
937	 0,22601649825554 
938	 0,225359655039664 
939	 0,224548078085899 
940	 0,22417240368389 
941	 0,224311768220558 
942	 0,223882394346053 
943	 0,222131002587728 
944	 0,22156850870131 
945	 0,222030321509159 
946	 0,222472421884851 
947	 0,221399319293079 
948	 0,219052420648417 
949	 0,218067521737097 
950	 0,217747147098784 
951	 0,217589617368904 
952	 0,217196302716511 
953	 0,216148576829501 
954	 0,214141534482248 
955	 0,21375200876138 
956	 0,214672168576732 
957	 0,214846111032982 
958	 0,213351408524917 
959	 0,210557529153331 
960	 0,20976982421832 
961	 0,210522456966949 
962	 0,212068405853778 
963	 0,212381229845131 
964	 0,211811603032675 
965	 0,211432946173748 
966	 0,210632881105922 
967	 0,209766873590727 
968	 0,210352496408019 
969	 0,210386927387714 
970	 0,209101851833093 
971	 0,207186931598922 
972	 0,20678645307797 
973	 0,209435971544287 
974	 0,210760578989398 
975	 0,210539142309208 
976	 0,209775831459959 
977	 0,210423666739918 
978	 0,211851670483533 
979	 0,209452841586159 
980	 0,208938253462403 
981	 0,212024500248275 
982	 0,210854789721602 
983	 0,208421647063149 
984	 0,208426422542008 
985	 0,209844197631708 
986	 0,212077413836858 
987	 0,214356101775044 
988	 0,214562812330722 
989	 0,212651643385632 
990	 0,211008370259776 
991	 0,209367016521172 
992	 0,208189385330459 
993	 0,210364591066212 
994	 0,213356852269049 
995	 0,214187815319616 
996	 0,211237791107113 
997	 0,207651095322206 
998	 0,209983071838308 
999	 0,21183653225273 
1000	 0,212505786872344 
1001	 0,216876383311865 
1002	 0,218036484345033 
1003	 0,21394120109585 
1004	 0,214002885377504 
1005	 0,216517914333559 
1006	 0,218900993529635 
1007	 0,219973526005301 
1008	 0,220199537379512 
1009	 0,220971022822872 
1010	 0,220635522134502 
1011	 0,219451568811494 
1012	 0,219617049858898 
1013	 0,219602741934423 
1014	 0,219369859496511 
1015	 0,222355227129755 
1016	 0,224474905696487 
1017	 0,222684907850262 
1018	 0,223225482235026 
1019	 0,224920698798482 
1020	 0,224687233001501 
1021	 0,221700887963498 
1022	 0,219148252741194 
1023	 0,226788810435207 
1024	 0,230199964044937 
1025	 0,226151643469102 
1026	 0,224541991310916 
1027	 0,226283590266145 
1028	 0,230305977823309 
1029	 0,225521213482034 
1030	 0,220571442158795 
1031	 0,226243944819782 
1032	 0,229937816910604 
1033	 0,229377544803085 
1034	 0,224827616971922 
1035	 0,225563287689786 
1036	 0,23106681476784 
1037	 0,229706439363645 
1038	 0,226064025200755 
1039	 0,223699073059761 
1040	 0,229854538132128 
1041	 0,233847450372617 
1042	 0,227963723647389 
1043	 0,22681778243045 
1044	 0,229289111660191 
1045	 0,23114746440922 
1046	 0,238728387404562 
1047	 0,245746678888802 
1048	 0,235268383888371 
1049	 0,224159685626874 
1050	 0,219673674063264 
1051	 0,227544532590987 
1052	 0,234363763538155 
1053	 0,234339920482848 
1054	 0,238797531629205 
1055	 0,242429996937534 
1056	 0,24037019653672 
1057	 0,236883505100413 
1058	 0,233224725644228 
1059	 0,230484505540214 
1060	 0,234318763127599 
1061	 0,239496068661507 
1062	 0,23146947563934 
1063	 0,231086802052618 
1064	 0,238889333557067 
1065	 0,232632863900409 
1066	 0,235923412347845 
1067	 0,251723821992105 
1068	 0,23794445485866 
1069	 0,22714866914153 
1070	 0,242192334034242 
1071	 0,244196027289377 
1072	 0,23557467222585 
1073	 0,225248379706481 
1074	 0,216884142032348 
1075	 0,21232396117822 
