Wavelength	GRA-VIE00999.asd
325	 1,52504931898456E-02 
326	 0,201701632347643 
327	 0,207542280152804 
328	 3,57795173663294E-02 
329	 0,113876977188324 
330	 0,216275845810474 
331	 0,132751008860652 
332	 0,154868565411023 
333	 0,260573237708882 
334	 0,235183410714002 
335	 0,141166465877684 
336	 7,18285331029377E-02 
337	 0,138468284574581 
338	 0,211208186317902 
339	 0,201768103311332 
340	 0,157365239287331 
341	 9,95046393904367E-02 
342	 8,23178066282301E-02 
343	 0,106096290897015 
344	 0,150026383153157 
345	 0,172048807566667 
346	 0,152537630196282 
347	 7,36982150732937E-02 
348	 2,28261344702688E-02 
349	 1,92817586514812E-02 
350	 0,065626895071538 
351	 8,68935950305119E-02 
352	 6,83781583740477E-02 
353	 6,22795039688304E-02 
354	 7,42513850739139E-02 
355	 0,102654125403163 
356	 0,106468604866984 
357	 8,32730135835225E-02 
358	 5,02945809226668E-02 
359	 2,96728613116265E-02 
360	 3,30478577013773E-02 
361	 6,41285359566855E-02 
362	 9,13444511259783E-02 
363	 0,076798486533132 
364	 6,47531620278675E-02 
365	 6,39171643903952E-02 
366	 6,29841488886171E-02 
367	 7,00116545158229E-02 
368	 8,44796701253929E-02 
369	 6,06063474900782E-02 
370	 2,81484589760453E-02 
371	 4,45474658075602E-02 
372	 6,94297615020298E-02 
373	 8,42791524099236E-02 
374	 0,065326242091451 
375	 3,94986292017318E-02 
376	 2,80863956288546E-02 
377	 3,03873869355135E-02 
378	 4,31888713267637E-02 
379	 5,87434669224337E-02 
380	 7,23396120999609E-02 
381	 7,73736662385064E-02 
382	 4,92246662132021E-02 
383	 2,48363627085578E-02 
384	 4,13921387361873E-02 
385	 6,36638484092665E-02 
386	 0,076330354588362 
387	 6,30252159086183E-02 
388	 5,41756662509588E-02 
389	 6,02315791656514E-02 
390	 6,06576972643702E-02 
391	 5,85760112933094E-02 
392	 5,94784014813046E-02 
393	 5,60814116285117E-02 
394	 5,00683368660018E-02 
395	 5,18992838114163E-02 
396	 5,30553947456102E-02 
397	 4,98786372396274E-02 
398	 4,97697125265013E-02 
399	 4,70628161624777E-02 
400	 3,10735449492397E-02 
401	 3,36244247800223E-02 
402	 5,21036319254225E-02 
403	 4,60377756455855E-02 
404	 3,75659262232838E-02 
405	 4,13915510648853E-02 
406	 3,87321426084211E-02 
407	 3,25886284773504E-02 
408	 3,42503124004774E-02 
409	 3,65361740388901E-02 
410	 3,72520921619825E-02 
411	 3,54218539780718E-02 
412	 3,65860374915411E-02 
413	 4,49005334093936E-02 
414	 4,01196715601441E-02 
415	 0,028096093036217 
416	 3,46652478388057E-02 
417	 0,035452713700453 
418	 2,47360062731136E-02 
419	 2,94030607092464E-02 
420	 3,83816814222879E-02 
421	 3,51531359379758E-02 
422	 3,00610169660063E-02 
423	 2,67161967636528E-02 
424	 2,89302804268123E-02 
425	 2,80945873067908E-02 
426	 2,05229303377452E-02 
427	 0,022513203306442 
428	 2,93972899831082E-02 
429	 2,94911846254065E-02 
430	 2,85894696557913E-02 
431	 2,83268430470803E-02 
432	 2,90193533468586E-02 
433	 2,87820555479439E-02 
434	 2,63272327211209E-02 
435	 2,87574356760511E-02 
436	 3,32623241683105E-02 
437	 2,93496909449016E-02 
438	 2,66029029392578E-02 
439	 2,83276527033177E-02 
440	 2,88852145032729E-02 
441	 2,93828812981673E-02 
442	 0,031836158837569 
443	 2,94743627164818E-02 
444	 2,37878406676501E-02 
445	 2,49908829637577E-02 
446	 2,86503389613423E-02 
447	 3,15191616144847E-02 
448	 3,09577329667031E-02 
449	 0,028478989158028 
450	 2,74221767921742E-02 
451	 2,86230648170668E-02 
452	 3,15289386167084E-02 
453	 3,22753500069104E-02 
454	 3,14508226000871E-02 
455	 2,99148546752949E-02 
456	 2,96680580498877E-02 
457	 3,06247339082791E-02 
458	 3,13842057130854E-02 
459	 3,21075495925788E-02 
460	 3,23764679175195E-02 
461	 2,98934450903827E-02 
462	 2,65490588618686E-02 
463	 2,50826447435708E-02 
464	 2,53159185392801E-02 
465	 0,026838912298294 
466	 2,85230753633967E-02 
467	 2,91651386728837E-02 
468	 2,81577925533725E-02 
469	 2,76918206016429E-02 
470	 2,78300862708008E-02 
471	 0,027957252849261 
472	 0,0282642869052 
473	 0,028596270316827 
474	 2,79829525069898E-02 
475	 2,78195574335941E-02 
476	 2,94032571148698E-02 
477	 3,02809839127797E-02 
478	 2,97670359100074E-02 
479	 2,71132186748567E-02 
480	 0,026308983189342 
481	 2,83126391959548E-02 
482	 2,51726032463457E-02 
483	 2,11959382989657E-02 
484	 2,39340125143017E-02 
485	 2,72120463528566E-02 
486	 2,86312540252215E-02 
487	 2,55127340600632E-02 
488	 2,43647757818114E-02 
489	 2,94151565340734E-02 
490	 3,03446220063324E-02 
491	 2,75784875270552E-02 
492	 2,57390587222247E-02 
493	 2,50992760721635E-02 
494	 2,56773119155421E-02 
495	 2,55389842503992E-02 
496	 2,52564062640247E-02 
497	 2,56364273986578E-02 
498	 2,59606081078286E-02 
499	 2,59415219810526E-02 
500	 2,51130642655676E-02 
501	 2,48392703600401E-02 
502	 2,57438603808974E-02 
503	 2,60421450893141E-02 
504	 2,58292586198992E-02 
505	 2,56443985349414E-02 
506	 2,61538489166368E-02 
507	 2,69631849692421E-02 
508	 2,54767753826286E-02 
509	 0,023494201834032 
510	 0,022807180893261 
511	 2,37681556616481E-02 
512	 2,57125812284565E-02 
513	 2,70693827391134E-02 
514	 2,71098961336273E-02 
515	 2,59434283354486E-02 
516	 2,68761878877205E-02 
517	 2,82456798024958E-02 
518	 0,027325407123428 
519	 0,026424858403763 
520	 2,60358681304227E-02 
521	 0,025494292595077 
522	 2,55102204522291E-02 
523	 2,64914114890792E-02 
524	 2,69441013245163E-02 
525	 2,72283187367845E-02 
526	 2,90574767493468E-02 
527	 2,91972088739841E-02 
528	 0,027214018461812 
529	 2,72701834441407E-02 
530	 2,80765040193118E-02 
531	 2,78098921432789E-02 
532	 0,027376532236272 
533	 0,027182429859222 
534	 2,80099232352917E-02 
535	 2,82873438254335E-02 
536	 2,73232731395792E-02 
537	 2,77730828957377E-02 
538	 2,87496276198079E-02 
539	 2,79350445544081E-02 
540	 2,74514567694894E-02 
541	 2,79522626415294E-02 
542	 0,029298499997554 
543	 3,01002817869135E-02 
544	 2,91367157042135E-02 
545	 2,92436292047142E-02 
546	 3,04868897132519E-02 
547	 3,14665136657216E-02 
548	 3,17534008566599E-02 
549	 3,12880189488905E-02 
550	 3,16348277791097E-02 
551	 3,23547016935326E-02 
552	 3,24713962842677E-02 
553	 3,26129807140098E-02 
554	 3,29469378020717E-02 
555	 3,35072465850293E-02 
556	 3,37571583141192E-02 
557	 3,34036729330681E-02 
558	 3,47851813405535E-02 
559	 3,69458723497584E-02 
560	 3,64455007561161E-02 
561	 3,60991683479421E-02 
562	 3,68864466693037E-02 
563	 3,75296158282608E-02 
564	 0,03775957935941 
565	 3,73705642708854E-02 
566	 3,76510081641401E-02 
567	 0,038557640647876 
568	 0,038665600102563 
569	 3,86189173345819E-02 
570	 3,88191745122697E-02 
571	 0,038512147980524 
572	 3,80376208451504E-02 
573	 3,85011787718293E-02 
574	 3,79356874534488E-02 
575	 3,62219552093494E-02 
576	 0,036669953396759 
577	 3,74516949826394E-02 
578	 3,63091512794543E-02 
579	 3,57512506951909E-02 
580	 3,60254047634137E-02 
581	 3,61627956627989E-02 
582	 3,57154362860309E-02 
583	 3,45994159496196E-02 
584	 3,44999775527966E-02 
585	 3,49637385947259E-02 
586	 3,47908636524476E-02 
587	 3,46152988536997E-02 
588	 0,034569161851872 
589	 3,44834433636003E-02 
590	 3,42976897533476E-02 
591	 3,39884554350803E-02 
592	 3,40985690005308E-02 
593	 3,43729270876227E-02 
594	 3,36891606425002E-02 
595	 3,36355733611023E-02 
596	 3,47376543778372E-02 
597	 3,51794962050997E-02 
598	 3,50140111129497E-02 
599	 3,46090640914587E-02 
600	 3,47320683298006E-02 
601	 3,53736347746713E-02 
602	 3,56034887445394E-02 
603	 3,52233253348242E-02 
604	 3,41878988131663E-02 
605	 3,37834930597188E-02 
606	 3,36551285449245E-02 
607	 3,22109861273849E-02 
608	 3,13973923698513E-02 
609	 3,16390376616237E-02 
610	 3,07837972397306E-02 
611	 2,95865012934181E-02 
612	 2,91886957060779E-02 
613	 0,029345964974868 
614	 2,97323014685307E-02 
615	 2,94928734473418E-02 
616	 2,90886505137971E-02 
617	 2,88046811252271E-02 
618	 2,83645840854462E-02 
619	 2,78961191102124E-02 
620	 0,027662755366804 
621	 2,78635323797323E-02 
622	 2,82977518716303E-02 
623	 2,77013063193849E-02 
624	 2,69192310821766E-02 
625	 2,68930870423849E-02 
626	 2,72564128974478E-02 
627	 2,77064686451378E-02 
628	 2,76546435099419E-02 
629	 2,73425121132314E-02 
630	 2,69749453583431E-02 
631	 2,70609699160811E-02 
632	 0,027361197198972 
633	 2,73820681401423E-02 
634	 2,74637327631635E-02 
635	 2,75913643106708E-02 
636	 2,72627138456045E-02 
637	 0,027203463394254 
638	 2,79571507598546E-02 
639	 2,81346766016005E-02 
640	 2,78225341079693E-02 
641	 2,78595622488781E-02 
642	 2,82204045290513E-02 
643	 2,87557143760497E-02 
644	 2,84914370325763E-02 
645	 2,79853511512483E-02 
646	 2,80744852334971E-02 
647	 2,82643873306832E-02 
648	 2,82871524957991E-02 
649	 2,76326763164958E-02 
650	 2,70904890148211E-02 
651	 2,71228153738055E-02 
652	 2,67450623057954E-02 
653	 2,60709856983691E-02 
654	 2,55975636701112E-02 
655	 2,53470356511229E-02 
656	 2,52756368443041E-02 
657	 2,50514660867884E-02 
658	 2,47294882655505E-02 
659	 2,43845609206362E-02 
660	 0,023720736739903 
661	 0,023052814386695 
662	 2,34430840361428E-02 
663	 2,38116258090584E-02 
664	 2,36262730928645E-02 
665	 0,023375326611946 
666	 2,32268817303433E-02 
667	 2,33451635471886E-02 
668	 2,35401432571516E-02 
669	 2,37604750068097E-02 
670	 0,024043741136439 
671	 2,44132316090455E-02 
672	 0,024828544797335 
673	 2,45283968646387E-02 
674	 2,40031994959817E-02 
675	 2,47195633082083E-02 
676	 2,56501055196176E-02 
677	 0,026193125732636 
678	 2,52651620772143E-02 
679	 2,43873062917457E-02 
680	 2,54277732162186E-02 
681	 2,62881980419612E-02 
682	 2,64489267737293E-02 
683	 2,59116399003761E-02 
684	 0,025657819368903 
685	 2,62128845114806E-02 
686	 2,65368027109167E-02 
687	 2,67318975115973E-02 
688	 2,71964857502902E-02 
689	 2,81410619305744E-02 
690	 2,93755078397992E-02 
691	 2,96818540052911E-02 
692	 3,02583833670942E-02 
693	 3,21763226123028E-02 
694	 3,43491682557626E-02 
695	 3,65013072184262E-02 
696	 3,83570904911394E-02 
697	 4,10806802032333E-02 
698	 0,045031154352167 
699	 4,89790935288803E-02 
700	 5,31911751752582E-02 
701	 5,81492121889252E-02 
702	 6,34378286683978E-02 
703	 6,91499214006497E-02 
704	 7,59296165849812E-02 
705	 8,31350857120138E-02 
706	 9,03567907324794E-02 
707	 9,79169377560965E-02 
708	 0,105980724401178 
709	 0,114767109890453 
710	 0,123629702590794 
711	 0,132589363201145 
712	 0,142654018439136 
713	 0,153317894248725 
714	 0,164070762797807 
715	 0,174532164889964 
716	 0,185050158068784 
717	 0,196769336312713 
718	 0,20875923803446 
719	 0,220595303809125 
720	 0,232135672698017 
721	 0,243715910623882 
722	 0,25585318569656 
723	 0,268360903449775 
724	 0,280832782062566 
725	 0,292254820194868 
726	 0,303660910516921 
727	 0,315543100200671 
728	 0,326515307550055 
729	 0,336677843764102 
730	 0,346534706252421 
731	 0,356223800033256 
732	 0,365745941504254 
733	 0,374808156788268 
734	 0,38330564609018 
735	 0,391179921073741 
736	 0,398929700037938 
737	 0,406382942140188 
738	 0,412858358752383 
739	 0,418954420530293 
740	 0,424866980581084 
741	 0,430374409581928 
742	 0,435348189408652 
743	 0,439672808249609 
744	 0,44414577163503 
745	 0,448635151559976 
746	 0,452082376681665 
747	 0,455367153318954 
748	 0,458889624615091 
749	 0,461929998131443 
750	 0,464511584046785 
751	 0,466790351697662 
752	 0,468856741240958 
753	 0,470810806304184 
754	 0,472811943553968 
755	 0,474719733667664 
756	 0,476415240434498 
757	 0,47784320399212 
758	 0,478923161591278 
759	 0,479478197932457 
760	 0,480143625365985 
761	 0,481099979114703 
762	 0,482032024817956 
763	 0,482735959882014 
764	 0,483062854478975 
765	 0,483513282758258 
766	 0,484069816095915 
767	 0,484396733731788 
768	 0,484732173766356 
769	 0,485154922641734 
770	 0,48551461027242 
771	 0,485966895334573 
772	 0,486688917022035 
773	 0,486803150926583 
774	 0,486512074163028 
775	 0,487126812661666 
776	 0,487462197580645 
777	 0,487025335079639 
778	 0,486937571027098 
779	 0,487149510275439 
780	 0,487398547965737 
781	 0,487480100332449 
782	 0,487445009057132 
783	 0,487701031886214 
784	 0,488143369656481 
785	 0,488624587616429 
786	 0,488575721302282 
787	 0,488254124275058 
788	 0,488264766080491 
789	 0,488228098742676 
790	 0,488146467761834 
791	 0,488456181283537 
792	 0,488792783547929 
793	 0,488832683149312 
794	 0,488485385974529 
795	 0,488038102595177 
796	 0,48807672596701 
797	 0,488510027625258 
798	 0,489093063756754 
799	 0,4888865242407 
800	 0,488350035713147 
801	 0,487990916189878 
802	 0,487982027255098 
803	 0,488227218161519 
804	 0,488371167293447 
805	 0,488484785304587 
806	 0,488595148219848 
807	 0,488823331388331 
808	 0,488967357822736 
809	 0,488834623747469 
810	 0,489160386026039 
811	 0,489754768935107 
812	 0,489645368241597 
813	 0,489568983802298 
814	 0,489778016141902 
815	 0,489780370806229 
816	 0,489797906379025 
817	 0,490126373419832 
818	 0,49037950354496 
819	 0,490493455945412 
820	 0,490518198495564 
821	 0,490810796856251 
822	 0,491366682221198 
823	 0,490981779075238 
824	 0,490334521947741 
825	 0,490437894187203 
826	 0,49054042939688 
827	 0,490427770071453 
828	 0,489952456065492 
829	 0,489708325974528 
830	 0,489907541402477 
831	 0,489598308471061 
832	 0,48927911893398 
833	 0,48974849642564 
834	 0,489925160754566 
835	 0,489608017869557 
836	 0,489055784652877 
837	 0,488700704452729 
838	 0,488745578993415 
839	 0,48862155879206 
840	 0,488561751556184 
841	 0,488977095539614 
842	 0,489006643233494 
843	 0,488678983895331 
844	 0,488936406188775 
845	 0,488810950736707 
846	 0,488006186504789 
847	 0,488400842845415 
848	 0,489116473437624 
849	 0,488643381813054 
850	 0,488633484090192 
851	 0,489146877022913 
852	 0,488998265899625 
853	 0,488819707740142 
854	 0,488911840542242 
855	 0,488887631071716 
856	 0,488708164408155 
857	 0,488380515543055 
858	 0,48840331322888 
859	 0,488734555114327 
860	 0,488856036508514 
861	 0,488673142344775 
862	 0,488277299014948 
863	 0,48856356770763 
864	 0,489368104037829 
865	 0,490321251471634 
866	 0,490313431796866 
867	 0,489661769965255 
868	 0,490247988256857 
869	 0,490737074212566 
870	 0,490538624555989 
871	 0,490189803533354 
872	 0,489856077633469 
873	 0,489678243938415 
874	 0,489493891112617 
875	 0,489381716381271 
876	 0,489648298606479 
877	 0,490049675947681 
878	 0,49038127729994 
879	 0,490301800664499 
880	 0,489782330257568 
881	 0,488914669819063 
882	 0,489298915247401 
883	 0,490397143674665 
884	 0,489892977612601 
885	 0,489468882518318 
886	 0,489667789362399 
887	 0,490098795606686 
888	 0,490250320113862 
889	 0,489719382312329 
890	 0,489378185605127 
891	 0,489422979536657 
892	 0,489963418648415 
893	 0,489900408090628 
894	 0,489208026447894 
895	 0,489651807449772 
896	 0,489878773126054 
897	 0,488950716046277 
898	 0,488980272249902 
899	 0,489318618329791 
900	 0,488193229887078 
901	 0,487932057429963 
902	 0,488843702483752 
903	 0,489586334842231 
904	 0,489486874393917 
905	 0,488349136868394 
906	 0,488115507385592 
907	 0,488376504881831 
908	 0,488186337580573 
909	 0,487696687354118 
910	 0,487159527652505 
911	 0,487271523757459 
912	 0,487513010415529 
913	 0,487528864749295 
914	 0,48683996357451 
915	 0,486212752437947 
916	 0,486470068511725 
917	 0,486009196069731 
918	 0,484978555400797 
919	 0,484636472418989 
920	 0,48386435600267 
921	 0,482609226319247 
922	 0,482432303799362 
923	 0,482335395012221 
924	 0,481467742139579 
925	 0,480551773529435 
926	 0,479769641829553 
927	 0,479291733537438 
928	 0,477805470761374 
929	 0,475618650273057 
930	 0,475276636813716 
931	 0,475036915667301 
932	 0,473840942364388 
933	 0,472020747030308 
934	 0,47047250698182 
935	 0,470221546139151 
936	 0,469080232697386 
937	 0,466970565441326 
938	 0,464991328586696 
939	 0,463890381533486 
940	 0,463547245031536 
941	 0,461511497476164 
942	 0,459328639403685 
943	 0,458380971157951 
944	 0,45698303754973 
945	 0,454877876603409 
946	 0,452158552593405 
947	 0,449251314733975 
948	 0,44644402320484 
949	 0,444206628700676 
950	 0,441799463470184 
951	 0,438792917208854 
952	 0,435318025427945 
953	 0,432248025539392 
954	 0,430559485033044 
955	 0,428812294790327 
956	 0,42651382749472 
957	 0,423117423821897 
958	 0,420944745002222 
959	 0,420301127676045 
960	 0,418613810149786 
961	 0,415942924310091 
962	 0,412747088631224 
963	 0,411698331882503 
964	 0,412118852953054 
965	 0,412329933425263 
966	 0,411758084415759 
967	 0,4103045267081 
968	 0,408028578173859 
969	 0,407747134629522 
970	 0,410027002253798 
971	 0,410684036702384 
972	 0,410349504901999 
973	 0,409844729785224 
974	 0,408730025762086 
975	 0,407584292716597 
976	 0,407475237267691 
977	 0,407098807548622 
978	 0,406622194554162 
979	 0,407893351699732 
980	 0,409218227751088 
981	 0,409677380570205 
982	 0,409571371367288 
983	 0,408842357139321 
984	 0,407713977561385 
985	 0,409826661782144 
986	 0,413346611833597 
987	 0,413469675342588 
988	 0,412993142504999 
989	 0,413079340308137 
990	 0,414816162377501 
991	 0,41735478618609 
992	 0,419563823552221 
993	 0,417830439284104 
994	 0,416428629108187 
995	 0,419611281512513 
996	 0,420414204097805 
997	 0,419501570076801 
998	 0,420603897167991 
999	 0,422572645167966 
1000	 0,424635908888105 
1001	 0,425228191659675 
1002	 0,425656932488898 
1003	 0,42678498799901 
1004	 0,429374941360294 
1005	 0,431971951593466 
1006	 0,433055526172943 
1007	 0,432368457547134 
1008	 0,432048324708565 
1009	 0,435798750120934 
1010	 0,439340227373314 
1011	 0,441327621926719 
1012	 0,44217893317752 
1013	 0,440323518704478 
1014	 0,436762063298542 
1015	 0,439448922379826 
1016	 0,44406502011964 
1017	 0,446378347335041 
1018	 0,447790897962872 
1019	 0,448403440430434 
1020	 0,448223445610201 
1021	 0,449656163746434 
1022	 0,452738464224517 
1023	 0,456197534747177 
1024	 0,456795872267874 
1025	 0,454647208093674 
1026	 0,455757260423371 
1027	 0,458807167569319 
1028	 0,462147810913684 
1029	 0,461680980541547 
1030	 0,461399642750786 
1031	 0,465863133360703 
1032	 0,464628098111729 
1033	 0,459856709913627 
1034	 0,459953883075723 
1035	 0,462881448327366 
1036	 0,467191658543531 
1037	 0,469625930432251 
1038	 0,472223221011884 
1039	 0,474397329902502 
1040	 0,469014102409512 
1041	 0,464126107401527 
1042	 0,46642748368015 
1043	 0,469368220515288 
1044	 0,471642938540837 
1045	 0,473042914161256 
1046	 0,475826393813945 
1047	 0,478685382424126 
1048	 0,477580302587663 
1049	 0,478675963847192 
1050	 0,482186189861493 
1051	 0,480795537228676 
1052	 0,480022083770493 
1053	 0,481997586974719 
1054	 0,481968655205928 
1055	 0,482546085926008 
1056	 0,485536937339799 
1057	 0,484327555740332 
1058	 0,482031535411642 
1059	 0,484144839366039 
1060	 0,487305698867905 
1061	 0,484513982318998 
1062	 0,461121278074637 
1063	 0,460759103601517 
1064	 0,484141880210111 
1065	 0,478892150336704 
1066	 0,4742044333579 
1067	 0,480600494972786 
1068	 0,483517585328982 
1069	 0,481392358046337 
1070	 0,476131679275554 
1071	 0,487363695074876 
1072	 0,496878772119703 
1073	 0,482608896548728 
1074	 0,475463981768529 
1075	 0,477344762891721 
