Wavelength	GRA-VAN00704.asd
325	 0,35944921715761 
326	 0,395789273751995 
327	 0,304760642651679 
328	 0,158974293355171 
329	 0,101698344410046 
330	 0,14334803228222 
331	 0,24253135348555 
332	 0,222946387675533 
333	 0,152745039780793 
334	 0,105304407645816 
335	 0,123481149182078 
336	 0,185685120255642 
337	 0,160122471392835 
338	 9,87938337564201E-02 
339	 4,08930507639231E-02 
340	 8,60499748820529E-02 
341	 0,159845031698748 
342	 0,126018643964977 
343	 0,102356297272069 
344	 0,115064506951289 
345	 6,47508129060847E-02 
346	 2,10302606241246E-02 
347	 6,90470605390121E-02 
348	 5,26239338031016E-02 
349	-2,85932893853537E-03 
350	 5,30603476935509E-02 
351	 0,102786164795878 
352	 9,79064039408867E-02 
353	 6,69378366292319E-02 
354	 3,71505732372132E-02 
355	 0,040986800115823 
356	 8,10897983732837E-02 
357	 0,124643061204025 
358	 9,28450295194055E-02 
359	 6,48405573020449E-02 
360	 7,77269392122975E-02 
361	 7,09400967764666E-02 
362	 5,18350730748493E-02 
363	 3,65751968550362E-02 
364	 4,59772106201416E-02 
365	 7,11389745440871E-02 
366	 5,42705328149116E-02 
367	 5,40559145842245E-02 
368	 9,59291367303573E-02 
369	 8,77444607520825E-02 
370	 4,94966304723929E-02 
371	 0,032348712688162 
372	 3,89734185442717E-02 
373	 5,86350087426848E-02 
374	 4,33225757758148E-02 
375	 3,43771918455721E-02 
376	 6,14897342063132E-02 
377	 0,066403958315658 
378	 0,055757055021426 
379	 6,38715152632362E-02 
380	 6,36683058629165E-02 
381	 0,053396219705922 
382	 6,51757076630656E-02 
383	 7,02566786641788E-02 
384	 4,36802257462368E-02 
385	 3,94520560026782E-02 
386	 5,02766304575574E-02 
387	 2,84544154267033E-02 
388	 1,97816624565752E-02 
389	 3,94811780113503E-02 
390	 0,055135860223651 
391	 5,94760025295609E-02 
392	 4,79302706674133E-02 
393	 0,044439713575972 
394	 4,86566929609128E-02 
395	 4,16498092844572E-02 
396	 3,49240112600921E-02 
397	 3,49247500230109E-02 
398	 0,045537659008224 
399	 5,18937073328608E-02 
400	 3,13542494318558E-02 
401	 2,83126865776373E-02 
402	 4,31953980236399E-02 
403	 3,47183504782863E-02 
404	 1,87464798609365E-02 
405	 9,07336194783405E-03 
406	 2,04742073619295E-02 
407	 3,83783255718476E-02 
408	 3,31684771711916E-02 
409	 2,81733264492903E-02 
410	 0,028815269997167 
411	 2,56242474804545E-02 
412	 2,22607782751672E-02 
413	 2,24824803773347E-02 
414	 2,48324897728115E-02 
415	 2,71382635650267E-02 
416	 2,47425490943112E-02 
417	 2,24422310410366E-02 
418	 2,25925924612389E-02 
419	 2,52088399193333E-02 
420	 2,98000128175363E-02 
421	 3,60621602168229E-02 
422	 3,57320872464981E-02 
423	 2,91981187930695E-02 
424	 2,37520879973672E-02 
425	 2,20087112189293E-02 
426	 2,51198936528443E-02 
427	 2,89699500854745E-02 
428	 3,04586624316168E-02 
429	 2,54619029906648E-02 
430	 0,020770583797375 
431	 1,88087115959421E-02 
432	 1,93058194272538E-02 
433	 2,21551919079384E-02 
434	 2,66737500680414E-02 
435	 2,40111114707832E-02 
436	 1,74401413816976E-02 
437	 1,96879139608827E-02 
438	 2,15121086523598E-02 
439	 2,00756474898538E-02 
440	 2,11237050881085E-02 
441	 2,39719723519384E-02 
442	 2,71479675741395E-02 
443	 2,47083074035388E-02 
444	 1,88843268893642E-02 
445	 2,18273225569947E-02 
446	 2,60638892633475E-02 
447	 2,66977841840886E-02 
448	 2,46478080538617E-02 
449	 2,19958976629019E-02 
450	 2,22577135306389E-02 
451	 0,023996558577039 
452	 2,59980987232417E-02 
453	 2,51222866382362E-02 
454	 2,35001134969629E-02 
455	 2,33468621688804E-02 
456	 2,65731653169389E-02 
457	 2,95915665318418E-02 
458	 2,13760373900587E-02 
459	 1,68776313142026E-02 
460	 2,15723939953475E-02 
461	 2,48183159332453E-02 
462	 2,50338619894754E-02 
463	 2,15898478017714E-02 
464	 1,83676745719676E-02 
465	 1,72425267335132E-02 
466	 0,020184831513076 
467	 2,27012694235908E-02 
468	 2,20849120970035E-02 
469	 2,30896970787585E-02 
470	 2,44459438557878E-02 
471	 2,20509353514166E-02 
472	 2,18241276313445E-02 
473	 2,47505932007698E-02 
474	 2,59183442849931E-02 
475	 2,55912609242784E-02 
476	 2,43548565900067E-02 
477	 2,34546827867903E-02 
478	 2,29268765860634E-02 
479	 2,17155847121113E-02 
480	 0,021269375507084 
481	 2,22606604836002E-02 
482	 2,42801660888982E-02 
483	 2,55931463928065E-02 
484	 2,37677200254975E-02 
485	 2,41042044412858E-02 
486	 2,64307575571297E-02 
487	 2,43774525595488E-02 
488	 2,18066391651913E-02 
489	 2,16011652261284E-02 
490	 2,08068124694375E-02 
491	 2,01536356734603E-02 
492	 2,26129916365691E-02 
493	 2,36096724862416E-02 
494	 2,21841211557452E-02 
495	 0,023003121449853 
496	 2,36593765374122E-02 
497	 2,11646071371393E-02 
498	 2,13603766081494E-02 
499	 2,39759862692161E-02 
500	 2,42425433768412E-02 
501	 2,32363076721843E-02 
502	 2,17241939051866E-02 
503	 2,06244912214697E-02 
504	 2,07903237918573E-02 
505	 2,35930845216299E-02 
506	 2,44179059121635E-02 
507	 2,29423989662152E-02 
508	 2,47719042352944E-02 
509	 2,61639736806999E-02 
510	 2,37613195419248E-02 
511	 0,022437114786571 
512	 2,23458473103086E-02 
513	 2,10111744259795E-02 
514	 2,11741162323792E-02 
515	 2,35422010657333E-02 
516	 2,48857703462052E-02 
517	 0,025026299641022 
518	 2,42004337101987E-02 
519	 2,43243397985213E-02 
520	 2,53041937343535E-02 
521	 0,024701672188428 
522	 2,39234677039375E-02 
523	 2,40107818619139E-02 
524	 2,43209003036145E-02 
525	 2,44908421566396E-02 
526	 2,39411115551497E-02 
527	 2,32853580750918E-02 
528	 2,29051695732731E-02 
529	 2,33961083692747E-02 
530	 2,43341465316173E-02 
531	 2,51747325244137E-02 
532	 2,46884317181668E-02 
533	 2,31515086941434E-02 
534	 2,21691166890694E-02 
535	 2,20735759603491E-02 
536	 0,022969216410197 
537	 2,38382623253667E-02 
538	 2,42628702812272E-02 
539	 2,36992438213989E-02 
540	 2,40715072415651E-02 
541	 2,54469782846761E-02 
542	 2,52588752049163E-02 
543	 0,024156675762288 
544	 2,29553618521426E-02 
545	 2,23143090364258E-02 
546	 2,24523823323616E-02 
547	 2,35743174750152E-02 
548	 2,41798612691115E-02 
549	 2,36686665159369E-02 
550	 2,37862847989038E-02 
551	 2,41318351547502E-02 
552	 2,37467037459265E-02 
553	 2,38434743623517E-02 
554	 2,43653290035293E-02 
555	 2,36408379887616E-02 
556	 2,28903711646527E-02 
557	 2,31602857497041E-02 
558	 0,024021964752483 
559	 2,49202616915902E-02 
560	 2,48558443111379E-02 
561	 2,39375650583843E-02 
562	 2,25577880607198E-02 
563	 2,27727551870627E-02 
564	 2,34866207692285E-02 
565	 2,30118880361984E-02 
566	 2,30739300726704E-02 
567	 2,37569796942469E-02 
568	 2,39273485127053E-02 
569	 0,023560513136754 
570	 2,27581852776142E-02 
571	 2,26384524087398E-02 
572	 2,31833673149958E-02 
573	 2,39600314267544E-02 
574	 2,46547447947134E-02 
575	 2,50423866546972E-02 
576	 2,49479550191216E-02 
577	 0,02472339735253 
578	 2,47757379385653E-02 
579	 2,49603423531396E-02 
580	 0,025154423584918 
581	 2,50282016105425E-02 
582	 2,50549863301217E-02 
583	 2,54956761242775E-02 
584	 2,60526559223308E-02 
585	 2,66657178513412E-02 
586	 2,74049914484668E-02 
587	 2,70930689667647E-02 
588	 2,60229151118299E-02 
589	 2,71662106470282E-02 
590	 2,85621046447387E-02 
591	 2,83120096746371E-02 
592	 2,78940620151204E-02 
593	 2,76262284504889E-02 
594	 2,76039155179295E-02 
595	 2,72800602918059E-02 
596	 2,66490107649037E-02 
597	 2,75413226061193E-02 
598	 2,87169796520243E-02 
599	 2,80831466269689E-02 
600	 2,71967997044435E-02 
601	 2,66727693431453E-02 
602	 2,70331981768502E-02 
603	 2,75672252259378E-02 
604	 2,76506436048635E-02 
605	 0,027011728700429 
606	 2,61746911887371E-02 
607	 0,026535004380687 
608	 2,69440204543913E-02 
609	 2,68951871771689E-02 
610	 2,61287296686216E-02 
611	 0,025515306377141 
612	 2,61287859550862E-02 
613	 2,62072431560869E-02 
614	 2,55737987958008E-02 
615	 2,50996280242208E-02 
616	 2,50799106282728E-02 
617	 2,56519124788486E-02 
618	 2,61985507656724E-02 
619	 0,026362514996762 
620	 2,56515544647922E-02 
621	 2,49922195401775E-02 
622	 2,47355334831853E-02 
623	 2,47770395733199E-02 
624	 2,48151486717508E-02 
625	 2,45767125663006E-02 
626	 2,50257404166504E-02 
627	 2,59495105035299E-02 
628	 2,62738665808788E-02 
629	 2,59549486686199E-02 
630	 2,51127754416701E-02 
631	 2,48779907931382E-02 
632	 2,51708866793492E-02 
633	 0,025619704101234 
634	 2,59704476188787E-02 
635	 2,61525938689642E-02 
636	 2,63384362175018E-02 
637	 2,66417322384705E-02 
638	 2,71186684311719E-02 
639	 2,72036724236797E-02 
640	 2,70876696661653E-02 
641	 2,75444726725192E-02 
642	 2,79134264045476E-02 
643	 2,79309213471117E-02 
644	 2,76720408297957E-02 
645	 2,76290184414553E-02 
646	 2,84132415913333E-02 
647	 2,90831903057508E-02 
648	 2,91782525360324E-02 
649	 2,79230990811135E-02 
650	 2,73857704380898E-02 
651	 2,86732933357261E-02 
652	 2,81891482178394E-02 
653	 2,67667348561269E-02 
654	 2,72444653600837E-02 
655	 2,75459761754173E-02 
656	 2,70718936878955E-02 
657	 2,63511504083008E-02 
658	 2,57086118217683E-02 
659	 2,54451666309114E-02 
660	 2,53151201450455E-02 
661	 2,52087757643645E-02 
662	 2,50112430057596E-02 
663	 2,47282220821404E-02 
664	 2,43633867620596E-02 
665	 2,39685360910041E-02 
666	 2,35012075301669E-02 
667	 0,022842462250473 
668	 2,29015822925725E-02 
669	 2,35780092748113E-02 
670	 2,33616908925043E-02 
671	 2,31768261675431E-02 
672	 2,37318449011519E-02 
673	 0,023913882491148 
674	 2,38183969106063E-02 
675	 2,42149745916904E-02 
676	 2,42097891928121E-02 
677	 2,36732263688811E-02 
678	 2,37455350774998E-02 
679	 2,42623995378777E-02 
680	 2,49000971641866E-02 
681	 0,024606526036868 
682	 0,023828459538618 
683	 2,48481787250396E-02 
684	 2,60001534390314E-02 
685	 2,62719948989171E-02 
686	 2,59969226107666E-02 
687	 0,025787179840662 
688	 0,026670544847227 
689	 2,71500527528352E-02 
690	 0,027117457661539 
691	 2,81084593004226E-02 
692	 2,96752632898534E-02 
693	 3,13742786134658E-02 
694	 3,35315906689079E-02 
695	 3,60188350124168E-02 
696	 3,83519133072978E-02 
697	 4,11012660134667E-02 
698	 4,44953900577938E-02 
699	 4,82672835565654E-02 
700	 5,24713741871302E-02 
701	 5,71994063500784E-02 
702	 6,18800425756507E-02 
703	 6,64539246928105E-02 
704	 7,12907204075117E-02 
705	 7,64502149612153E-02 
706	 8,18573427449047E-02 
707	 8,66644857831127E-02 
708	 9,12218448505709E-02 
709	 0,096415250455882 
710	 0,101373685367306 
711	 0,105816171856563 
712	 0,109766132359189 
713	 0,113694090943855 
714	 0,117969448996735 
715	 0,121457492778151 
716	 0,124338050993625 
717	 0,127666490798261 
718	 0,130735868431674 
719	 0,133309719571259 
720	 0,135732306960024 
721	 0,138005319856672 
722	 0,140096405118178 
723	 0,142152637858901 
724	 0,144102203693606 
725	 0,145542163116137 
726	 0,1469190162689 
727	 0,148480426425988 
728	 0,149773691249884 
729	 0,150861931299825 
730	 0,151975173264832 
731	 0,152912194815056 
732	 0,153660391270613 
733	 0,154381852810726 
734	 0,155166096563835 
735	 0,156069705471275 
736	 0,156876339392932 
737	 0,1575074558669 
738	 0,157880296256449 
739	 0,158207609790172 
740	 0,158572691592826 
741	 0,158860054381603 
742	 0,159194946375886 
743	 0,159721094407465 
744	 0,160098716535377 
745	 0,160322782410832 
746	 0,160629707916378 
747	 0,160985119422973 
748	 0,161327988805046 
749	 0,16131942171948 
750	 0,161278744179218 
751	 0,16175452463364 
752	 0,162071004221623 
753	 0,16215260145638 
754	 0,162475382078399 
755	 0,162806651393526 
756	 0,162977246701075 
757	 0,163119598465046 
758	 0,163240741563746 
759	 0,163291102416358 
760	 0,163518051917342 
761	 0,163916214346902 
762	 0,164071300269688 
763	 0,164072599130023 
764	 0,164035334858514 
765	 0,164074257335942 
766	 0,16417458170627 
767	 0,164209971116552 
768	 0,164276723419894 
769	 0,164436378067115 
770	 0,164791403203134 
771	 0,165215088439017 
772	 0,165544306326012 
773	 0,165539724584113 
774	 0,165335727644133 
775	 0,165524481948219 
776	 0,165648787415616 
777	 0,165527723711112 
778	 0,165667054472981 
779	 0,165827998977408 
780	 0,165584583414602 
781	 0,165461284696611 
782	 0,165547786298573 
783	 0,165604089675264 
784	 0,165733672489096 
785	 0,16597717085891 
786	 0,166062114457247 
787	 0,166179904414075 
788	 0,166755621394364 
789	 0,1671044468391 
790	 0,16711739022889 
791	 0,167332496842232 
792	 0,167418305348677 
793	 0,167153452477538 
794	 0,167184794582939 
795	 0,167469871611812 
796	 0,167704613877048 
797	 0,167699812920273 
798	 0,167525671878576 
799	 0,167926653162969 
800	 0,168336710840801 
801	 0,168208667425054 
802	 0,167986579309565 
803	 0,167835474785332 
804	 0,167925884795002 
805	 0,168160515540532 
806	 0,168424650672464 
807	 0,168348579779968 
808	 0,168188590143575 
809	 0,168257255026244 
810	 0,168678257973904 
811	 0,169309473987608 
812	 0,169721731752936 
813	 0,169972133798743 
814	 0,170051520368039 
815	 0,169827725499299 
816	 0,169714672475846 
817	 0,170183468283266 
818	 0,170378001806692 
819	 0,170286993105736 
820	 0,170544349118422 
821	 0,170534668639096 
822	 0,170155098600139 
823	 0,170702999226169 
824	 0,171434452591234 
825	 0,171256394759366 
826	 0,171557923059068 
827	 0,172186771331075 
828	 0,171569658266943 
829	 0,171126394945596 
830	 0,171489293255126 
831	 0,171500117762111 
832	 0,171350487732773 
833	 0,171462432026875 
834	 0,171857574007072 
835	 0,172311867589473 
836	 0,172006069394299 
837	 0,172125995961307 
838	 0,173042306033772 
839	 0,172503487016158 
840	 0,171473204740479 
841	 0,171634541884479 
842	 0,172227377217505 
843	 0,172796782759544 
844	 0,172426784996858 
845	 0,17231153461167 
846	 0,172970547068687 
847	 0,17306035002683 
848	 0,17274229785153 
849	 0,172458433299264 
850	 0,172617638852212 
851	 0,173043167280126 
852	 0,17268253468177 
853	 0,17265984143805 
854	 0,173386650246188 
855	 0,173231637673595 
856	 0,172682823907717 
857	 0,172650607662821 
858	 0,172766912986145 
859	 0,172922957011486 
860	 0,173009276849456 
861	 0,173146946268249 
862	 0,173368728765463 
863	 0,17355486516606 
864	 0,173385972232358 
865	 0,172506180052463 
866	 0,172750809874256 
867	 0,173900401066744 
868	 0,173806466517416 
869	 0,174001621043124 
870	 0,174931640851884 
871	 0,174823317716419 
872	 0,174043750061711 
873	 0,173271489265116 
874	 0,173714401877141 
875	 0,174799237206612 
876	 0,17389892126423 
877	 0,17377085226326 
878	 0,175196058252395 
879	 0,175633899008455 
880	 0,175275690113281 
881	 0,17460023932708 
882	 0,17454522649819 
883	 0,174885956152462 
884	 0,174373904074265 
885	 0,174148088383176 
886	 0,174574385221643 
887	 0,175300484316912 
888	 0,175867732635365 
889	 0,175879007474804 
890	 0,175630433860662 
891	 0,175492177503939 
892	 0,176179821963154 
893	 0,176294117105824 
894	 0,175739144836058 
895	 0,176368035054561 
896	 0,176776798755248 
897	 0,176004433457822 
898	 0,176306480143821 
899	 0,17709621134736 
900	 0,176720257815738 
901	 0,176443176232517 
902	 0,17655537685632 
903	 0,176699382034175 
904	 0,177068387636611 
905	 0,177619188287396 
906	 0,177198761043751 
907	 0,176469395136368 
908	 0,176551841222276 
909	 0,177163229520339 
910	 0,177944467857758 
911	 0,177975029320164 
912	 0,178152320522942 
913	 0,178660609284197 
914	 0,177968217283195 
915	 0,17693872089431 
916	 0,176666914991393 
917	 0,176734668971802 
918	 0,177054774384389 
919	 0,177599141541312 
920	 0,178220947468643 
921	 0,178653807561838 
922	 0,178159804267356 
923	 0,177244475005063 
924	 0,176515318113622 
925	 0,177318320642358 
926	 0,178399484826435 
927	 0,177123602253706 
928	 0,17659848353765 
929	 0,177205693075473 
930	 0,176862448000546 
931	 0,176556056250378 
932	 0,176802454686097 
933	 0,177071139735912 
934	 0,176854650323399 
935	 0,175634958760688 
936	 0,174486201256351 
937	 0,173808280898323 
938	 0,173913631028269 
939	 0,173919381571017 
940	 0,173668089126691 
941	 0,174428190695024 
942	 0,174987987590689 
943	 0,174311086301919 
944	 0,17380357513546 
945	 0,173563555255624 
946	 0,173369489400783 
947	 0,172061633488902 
948	 0,170134329732605 
949	 0,170611632156192 
950	 0,171319433343546 
951	 0,171027924380039 
952	 0,170706877499295 
953	 0,170080544906289 
954	 0,168789609085775 
955	 0,168472830511693 
956	 0,1685713935327 
957	 0,166475969831213 
958	 0,166078162994889 
959	 0,167877423957319 
960	 0,167803929528502 
961	 0,16646166242397 
962	 0,164803329663535 
963	 0,165798049648694 
964	 0,167600690006547 
965	 0,166793408837368 
966	 0,165541217849874 
967	 0,164555564263598 
968	 0,164104603469207 
969	 0,164937338665197 
970	 0,166715831120831 
971	 0,165959543825218 
972	 0,164791622147366 
973	 0,165288542305268 
974	 0,166043710407666 
975	 0,166197363234909 
976	 0,164615601745459 
977	 0,164303707573655 
978	 0,165843135865481 
979	 0,168207236290617 
980	 0,169518883536441 
981	 0,16874151268873 
982	 0,16605140533058 
983	 0,164464386555215 
984	 0,166668332490228 
985	 0,167585676892729 
986	 0,16722721031974 
987	 0,167502436012028 
988	 0,167755142959274 
989	 0,168366941332623 
990	 0,171547724633902 
991	 0,172237050297933 
992	 0,169094198141051 
993	 0,171794797727251 
994	 0,173461254312065 
995	 0,167167899399496 
996	 0,167077152487753 
997	 0,171748169443453 
998	 0,17320206122119 
999	 0,174401437032736 
1000	 0,175222296346939 
1001	 0,172860078544647 
1002	 0,171565584182293 
1003	 0,173142551251421 
1004	 0,174367736361244 
1005	 0,174256435278882 
1006	 0,172547817001567 
1007	 0,174356898088316 
1008	 0,177268068022941 
1009	 0,175507929301591 
1010	 0,174468017049785 
1011	 0,175537585043916 
1012	 0,178442450973746 
1013	 0,180017181126711 
1014	 0,179259667041739 
1015	 0,179417384816468 
1016	 0,180427149622397 
1017	 0,181758794619228 
1018	 0,180587137920374 
1019	 0,178320564576656 
1020	 0,177716183860672 
1021	 0,177881924953426 
1022	 0,178428749633249 
1023	 0,178435666002755 
1024	 0,180889864699216 
1025	 0,185095615930916 
1026	 0,183867058290104 
1027	 0,181556281699429 
1028	 0,181292682784205 
1029	 0,182096579247712 
1030	 0,182745820075289 
1031	 0,18212678175664 
1032	 0,184101204339138 
1033	 0,187937948495434 
1034	 0,19076247559666 
1035	 0,190240292283092 
1036	 0,187484047802636 
1037	 0,188808581314442 
1038	 0,191743695753965 
1039	 0,194629804860354 
1040	 0,195056226450846 
1041	 0,193891346539478 
1042	 0,191809046819032 
1043	 0,186024448206384 
1044	 0,181751500491969 
1045	 0,186125651427585 
1046	 0,190834281037763 
1047	 0,192890834196627 
1048	 0,189148295787236 
1049	 0,196298210654656 
1050	 0,210988939249809 
1051	 0,201647597226147 
1052	 0,192373702677712 
1053	 0,1953933472647 
1054	 0,199877812799645 
1055	 0,20440533104549 
1056	 0,207245836871199 
1057	 0,202876676192728 
1058	 0,196959715984437 
1059	 0,198450251940072 
1060	 0,194414784521931 
1061	 0,187879286891825 
1062	 0,192077287301233 
1063	 0,197634251505016 
1064	 0,199044321543182 
1065	 0,185288406514845 
1066	 0,180297919520234 
1067	 0,191391405503063 
1068	 0,192955969347018 
1069	 0,192648938603833 
1070	 0,196476579992482 
1071	 0,199024538740503 
1072	 0,199897334836263 
1073	 0,199263338107232 
1074	 0,192305748843182 
1075	 0,191672932668496 
