Wavelength	GRA-VAN00716.asd
325	 0,318028777195658 
326	 9,46646358167414E-02 
327	 5,32619795604961E-02 
328	 0,328588245831787 
329	 0,230454151572181 
330	 4,70130626508029E-02 
331	 0,197339885660797 
332	 0,24240054517221 
333	 0,22494470304711 
334	 0,173156110264852 
335	 0,127061751468918 
336	 0,125714654605462 
337	 0,154671902762447 
338	 0,148734060452211 
339	 4,87826515524889E-02 
340	 0,052107672862427 
341	 0,122621838995424 
342	 0,133203399031559 
343	 0,143409026802409 
344	 0,15359821178832 
345	 0,112020167377923 
346	 9,31565823658479E-02 
347	 0,172720145224314 
348	 0,116670408153937 
349	-2,91290878083968E-02 
350	-1,66450999145854E-02 
351	 0,058764289987235 
352	 0,122520303554786 
353	 8,93415272095308E-02 
354	 3,52965360968399E-02 
355	 5,31671687180785E-02 
356	 7,64869907750753E-02 
357	 8,75470001662293E-02 
358	 7,91952510328088E-02 
359	 8,03989458725854E-02 
360	 9,94482377002226E-02 
361	 9,28892183748332E-02 
362	 7,36773637709646E-02 
363	 0,063555693564807 
364	 5,52092006951934E-02 
365	 4,84737443183498E-02 
366	 4,43768520729889E-02 
367	 5,57532577954297E-02 
368	 8,33560139614316E-02 
369	 7,70186688643731E-02 
370	 4,69861489122994E-02 
371	 1,78563194719677E-02 
372	 1,65127302462182E-02 
373	 4,13804421053844E-02 
374	 4,88088345724587E-02 
375	 4,55093849109539E-02 
376	 3,83055070245409E-02 
377	 4,31514712810913E-02 
378	 5,17502537354108E-02 
379	 0,037593984962406 
380	 3,44412068028607E-02 
381	 5,00491618504041E-02 
382	 7,42146482802855E-02 
383	 7,48819864900307E-02 
384	 2,84757761451096E-02 
385	 2,15667417675923E-02 
386	 4,55078319644724E-02 
387	 3,50178065015076E-02 
388	 2,78558103980345E-02 
389	 3,53964202961819E-02 
390	 3,03313589777288E-02 
391	 2,35190276162522E-02 
392	 2,93279150910142E-02 
393	 3,67336581166021E-02 
394	 4,06556725475201E-02 
395	 0,033214498490026 
396	 2,93981569406988E-02 
397	 3,59025522550516E-02 
398	 4,35067015963923E-02 
399	 4,30949155490894E-02 
400	 2,23666729446738E-02 
401	 1,44880368663266E-02 
402	 2,40972467337936E-02 
403	 3,46425377194088E-02 
404	 3,29182608388134E-02 
405	 1,26500439248521E-02 
406	 1,24194765031909E-02 
407	 2,62731636670958E-02 
408	 0,033842639480823 
409	 3,23346676539747E-02 
410	 2,29637070841064E-02 
411	 1,77691736609818E-02 
412	 0,017583422596314 
413	 2,21767108946734E-02 
414	 2,62243309363185E-02 
415	 2,72353516268962E-02 
416	 2,16410371704723E-02 
417	 1,66357741315587E-02 
418	 1,63854192785535E-02 
419	 2,42158436387966E-02 
420	 3,30829070128949E-02 
421	 3,47974088081374E-02 
422	 3,10743721324474E-02 
423	 2,45953200886338E-02 
424	 2,20992397438023E-02 
425	 2,15027509013707E-02 
426	 2,14720967101783E-02 
427	 2,24206727220061E-02 
428	 2,30759989611443E-02 
429	 0,021210540327249 
430	 2,02047905926344E-02 
431	 2,06246761000179E-02 
432	 1,97906633080828E-02 
433	 2,01461222156467E-02 
434	 2,34868276407134E-02 
435	 2,29940636116117E-02 
436	 1,98101981857845E-02 
437	 2,00341755605369E-02 
438	 2,08691054579658E-02 
439	 2,10691036678284E-02 
440	 1,97320935347936E-02 
441	 1,84420567988941E-02 
442	 1,92886131119052E-02 
443	 1,86732719900183E-02 
444	 0,017176028942171 
445	 0,019948105467502 
446	 0,021619500552283 
447	 1,92750603805727E-02 
448	 1,86816200758768E-02 
449	 1,93886535886937E-02 
450	 1,89413736253483E-02 
451	 1,96259539307409E-02 
452	 2,12263596076902E-02 
453	 1,99919055456653E-02 
454	 0,017705095715362 
455	 1,63774447070739E-02 
456	 1,96615641276071E-02 
457	 2,38756833507577E-02 
458	 0,016720211611596 
459	 1,42240732670434E-02 
460	 2,16008540873613E-02 
461	 2,42857572279095E-02 
462	 0,023350232566976 
463	 2,21456229586509E-02 
464	 1,77370465804347E-02 
465	 1,24764576024522E-02 
466	 1,57584328052589E-02 
467	 2,00700585479415E-02 
468	 0,020616214177412 
469	 2,26284622097518E-02 
470	 2,41769120952735E-02 
471	 1,98338564480638E-02 
472	 1,79251155767033E-02 
473	 2,00449312932844E-02 
474	 1,92381048328737E-02 
475	 1,81232524241675E-02 
476	 1,95862979461028E-02 
477	 2,21007315171458E-02 
478	 2,38671677791022E-02 
479	 2,08103676043936E-02 
480	 1,86334207408115E-02 
481	 1,99748793091895E-02 
482	 0,022335463714388 
483	 2,34532478417476E-02 
484	 2,04834771157701E-02 
485	 1,90146467707982E-02 
486	 1,99785195283695E-02 
487	 2,05113300266883E-02 
488	 2,04811649635957E-02 
489	 1,98925517865563E-02 
490	 1,98048977082802E-02 
491	 1,99778349233826E-02 
492	 1,92548213303764E-02 
493	 0,019558378313202 
494	 2,09404778792804E-02 
495	 1,99444768859187E-02 
496	 1,82563272212077E-02 
497	 1,80383841057508E-02 
498	 1,85984025263739E-02 
499	 1,95277934095265E-02 
500	 0,020239881334393 
501	 2,00320674494863E-02 
502	 1,87295155157735E-02 
503	 1,82433708010802E-02 
504	 1,87012622573076E-02 
505	 1,99647591924482E-02 
506	 1,99891685418303E-02 
507	 1,88341667666221E-02 
508	 1,99684217487628E-02 
509	 2,07278802868567E-02 
510	 1,87981494085008E-02 
511	 1,88544015735293E-02 
512	 2,01047836762802E-02 
513	 1,78348931684079E-02 
514	 1,70286279996222E-02 
515	 1,92490102552204E-02 
516	 1,96695615575601E-02 
517	 1,94037302642233E-02 
518	 2,07010184110241E-02 
519	 2,09956059123396E-02 
520	 2,01624820649214E-02 
521	 2,02632054897246E-02 
522	 1,99789000942911E-02 
523	 1,85632348710653E-02 
524	 1,88872636444519E-02 
525	 2,03215365441221E-02 
526	 2,06381228547036E-02 
527	 1,99664322234241E-02 
528	 1,86657851965656E-02 
529	 1,86570084602285E-02 
530	 1,93676544156342E-02 
531	 1,99512679034164E-02 
532	 1,94933180030242E-02 
533	 1,83520583758025E-02 
534	 1,83629774640809E-02 
535	 1,86190354171114E-02 
536	 1,85615569913024E-02 
537	 1,81294431752762E-02 
538	 1,79182878203809E-02 
539	 1,90729737814122E-02 
540	 2,00618280200948E-02 
541	 2,03550174429121E-02 
542	 2,01367690977626E-02 
543	 1,96362867693648E-02 
544	 1,90984737640029E-02 
545	 1,89555518171163E-02 
546	 1,91166639741434E-02 
547	 1,89814074883747E-02 
548	 1,91138140467663E-02 
549	 1,97033808557506E-02 
550	 2,02402016690384E-02 
551	 2,01982078243673E-02 
552	 1,88361175321414E-02 
553	 1,81519481207281E-02 
554	 1,83765194118426E-02 
555	 1,76424707231452E-02 
556	 1,73186137156703E-02 
557	 1,84806208663398E-02 
558	 1,95145720675715E-02 
559	 2,00026326432249E-02 
560	 1,97687859334403E-02 
561	 0,019222132771395 
562	 1,86566705138552E-02 
563	 1,85616402783974E-02 
564	 1,85035306099022E-02 
565	 1,78477115879562E-02 
566	 1,77130716283608E-02 
567	 1,80666532797796E-02 
568	 1,76851044482476E-02 
569	 1,74684215215405E-02 
570	 1,79883812739008E-02 
571	 1,83049151529157E-02 
572	 1,84061101615427E-02 
573	 1,85667275062971E-02 
574	 1,89726218065519E-02 
575	 1,96625296840709E-02 
576	 0,020511065653466 
577	 2,08728248848702E-02 
578	 2,00856786261016E-02 
579	 1,98869570055239E-02 
580	 2,03991328483599E-02 
581	 2,06549725075051E-02 
582	 2,05760552497634E-02 
583	 2,02511530392997E-02 
584	 2,08788397549608E-02 
585	 2,19973698292224E-02 
586	 2,26145916756028E-02 
587	 2,22232673933643E-02 
588	 2,11851814508475E-02 
589	 2,19097493645981E-02 
590	 2,28910641229997E-02 
591	 0,022663120460224 
592	 2,23358119653557E-02 
593	 2,22255401339597E-02 
594	 2,25739113148629E-02 
595	 2,30379547164317E-02 
596	 2,33963304975952E-02 
597	 2,35105854239342E-02 
598	 2,33129018919976E-02 
599	 2,27100865874577E-02 
600	 2,26157413710168E-02 
601	 2,30425184826684E-02 
602	 2,29439698985608E-02 
603	 2,25530794944201E-02 
604	 2,20979112638459E-02 
605	 0,021799829968388 
606	 2,16399891692877E-02 
607	 2,14333074586085E-02 
608	 2,13250719653304E-02 
609	 2,13224419283877E-02 
610	 2,11517947279924E-02 
611	 2,10288691916891E-02 
612	 2,12412917025161E-02 
613	 2,14002758908423E-02 
614	 2,12598775823729E-02 
615	 2,03152681153546E-02 
616	 1,95599211694705E-02 
617	 1,96754883966768E-02 
618	 2,05782680283112E-02 
619	 0,021485882259109 
620	 2,09535477419744E-02 
621	 2,02113031917778E-02 
622	 1,98449551053015E-02 
623	 2,04926772947133E-02 
624	 2,11746397797666E-02 
625	 2,08732807022356E-02 
626	 2,04403318261069E-02 
627	 2,02808452808669E-02 
628	 2,11002884416075E-02 
629	 2,14004711994431E-02 
630	 2,06310100509725E-02 
631	 2,10259010084226E-02 
632	 2,18241939791255E-02 
633	 2,13591660383447E-02 
634	 2,11173605322766E-02 
635	 2,14354452396231E-02 
636	 2,18378184437475E-02 
637	 2,21733289517835E-02 
638	 2,23184981822822E-02 
639	 0,022280573463814 
640	 2,21849422222635E-02 
641	 2,22776398850912E-02 
642	 2,26348477925363E-02 
643	 2,32005047377422E-02 
644	 2,34267727471092E-02 
645	 2,34945243538165E-02 
646	 2,37117423965158E-02 
647	 0,023659021726016 
648	 2,33119184141039E-02 
649	 2,28805906133835E-02 
650	 2,27337297406426E-02 
651	 2,30377965412944E-02 
652	 2,28289933408495E-02 
653	 2,24197910175176E-02 
654	 2,28198475576016E-02 
655	 2,27614002375539E-02 
656	 2,19360244491831E-02 
657	 2,10185455580487E-02 
658	 2,04104226597331E-02 
659	 2,04499354094424E-02 
660	 2,03103237304402E-02 
661	 0,019919275789673 
662	 1,96684640301976E-02 
663	 1,93303863514053E-02 
664	 1,88741462640553E-02 
665	 1,89077523791214E-02 
666	 1,90099755119664E-02 
667	 1,84162694108065E-02 
668	 1,79526112425471E-02 
669	 1,79299245179897E-02 
670	 1,86050377944062E-02 
671	 1,90620749563138E-02 
672	 1,86304003575078E-02 
673	 1,86215485939361E-02 
674	 1,88982869059246E-02 
675	 1,85283027242808E-02 
676	 1,83235070722207E-02 
677	 1,84855253273972E-02 
678	 1,83297733210618E-02 
679	 1,82595532890565E-02 
680	 1,87975478675373E-02 
681	 1,84656586757211E-02 
682	 1,76545342824463E-02 
683	 0,018798304226227 
684	 1,98433275198329E-02 
685	 0,01964290209424 
686	 1,94066629543741E-02 
687	 0,019589493947937 
688	 2,07654853991981E-02 
689	 2,11591878037492E-02 
690	 2,06576565056688E-02 
691	 2,12720884069526E-02 
692	 2,25870711812226E-02 
693	 2,41356110399634E-02 
694	 2,57140969990992E-02 
695	 2,74036026216277E-02 
696	 2,95015574389941E-02 
697	 3,21349782518898E-02 
698	 3,53192520515401E-02 
699	 3,86389763478503E-02 
700	 4,23959575317777E-02 
701	 4,70147247324659E-02 
702	 5,16455098627988E-02 
703	 5,61542648486847E-02 
704	 6,08203472760041E-02 
705	 6,62171098941885E-02 
706	 7,25133304646789E-02 
707	 7,79835126257737E-02 
708	 8,29445123789187E-02 
709	 8,84739350058845E-02 
710	 9,37683790840988E-02 
711	 0,098704200243469 
712	 0,103765115291379 
713	 0,108923194159305 
714	 0,114090036405875 
715	 0,118713930108624 
716	 0,122894061976667 
717	 0,127239107533328 
718	 0,131123595985844 
719	 0,13438822048675 
720	 0,137638330628152 
721	 0,140864890825814 
722	 0,143986599121074 
723	 0,146617136643055 
724	 0,148886913853972 
725	 0,151586646067215 
726	 0,153937609876633 
727	 0,155553427169514 
728	 0,157458347571053 
729	 0,159464037610519 
730	 0,160987711160823 
731	 0,162301984846619 
732	 0,163489803406499 
733	 0,164553338711227 
734	 0,165530157315405 
735	 0,166462821062615 
736	 0,167442879510059 
737	 0,168472328491449 
738	 0,169539862262705 
739	 0,170458152082059 
740	 0,17111460103197 
741	 0,171392509096101 
742	 0,17164501908327 
743	 0,172276417270387 
744	 0,172887415007984 
745	 0,173354081113189 
746	 0,173556787428458 
747	 0,173939417479148 
748	 0,174666396138471 
749	 0,175028113357556 
750	 0,175223927813326 
751	 0,17569936194233 
752	 0,175939505959478 
753	 0,175987371896394 
754	 0,176535235728522 
755	 0,177113549044166 
756	 0,177367145307463 
757	 0,177420221344753 
758	 0,177440963997316 
759	 0,177729520270374 
760	 0,177982993524508 
761	 0,17813823100451 
762	 0,178440125817684 
763	 0,178559191844316 
764	 0,178240648012304 
765	 0,178606469733427 
766	 0,179419310596126 
767	 0,179509854466546 
768	 0,179480631505345 
769	 0,1795678934794 
770	 0,179740749120892 
771	 0,180015526051684 
772	 0,180397878089587 
773	 0,180504461769191 
774	 0,180392667302923 
775	 0,180520771597919 
776	 0,180698754320804 
777	 0,18080034181332 
778	 0,180617149104319 
779	 0,180472929431665 
780	 0,180870142082948 
781	 0,181032577100533 
782	 0,18084498394556 
783	 0,180677329680503 
784	 0,180641247806254 
785	 0,180806734120633 
786	 0,181045489011553 
787	 0,18128307254785 
788	 0,181439604632118 
789	 0,181466794093834 
790	 0,181434747093575 
791	 0,181738703617752 
792	 0,181849878112646 
793	 0,181407999226011 
794	 0,181318824175919 
795	 0,181603024890994 
796	 0,182028155948239 
797	 0,181949069825605 
798	 0,181358729816386 
799	 0,181431404232595 
800	 0,1817677631018 
801	 0,181923724213172 
802	 0,181838929201313 
803	 0,18173600146729 
804	 0,182296910540751 
805	 0,182519942289467 
806	 0,182175283621007 
807	 0,182232107558917 
808	 0,182399862034083 
809	 0,18232224023042 
810	 0,182686302545401 
811	 0,18330849245765 
812	 0,183277912777389 
813	 0,18336963587223 
814	 0,183798045604718 
815	 0,183754068379737 
816	 0,18368647613344 
817	 0,184179967713747 
818	 0,184223062267707 
819	 0,18395856856117 
820	 0,184559717624806 
821	 0,184894246925476 
822	 0,184566192706288 
823	 0,184741001955762 
824	 0,185193336374746 
825	 0,185486150164569 
826	 0,18586147380387 
827	 0,186185871712815 
828	 0,185845405685449 
829	 0,185855646609109 
830	 0,186564729207167 
831	 0,186451654236955 
832	 0,185914949705742 
833	 0,185718130636166 
834	 0,186305464626613 
835	 0,187305259506307 
836	 0,187101139686066 
837	 0,186897487298955 
838	 0,187221895922342 
839	 0,186812266751088 
840	 0,186396824149721 
841	 0,187155114977927 
842	 0,187644030040834 
843	 0,187559255153567 
844	 0,187140444066674 
845	 0,187041724427612 
846	 0,187582373140703 
847	 0,188145941445292 
848	 0,188410794262165 
849	 0,188057710820098 
850	 0,18768215503482 
851	 0,187514139673226 
852	 0,187680319942905 
853	 0,187954256119682 
854	 0,188120732095592 
855	 0,187693006272533 
856	 0,187234501342612 
857	 0,187570295934758 
858	 0,187899023211866 
859	 0,188030129964298 
860	 0,188045933400022 
861	 0,188020206321112 
862	 0,187991782989662 
863	 0,187926488387872 
864	 0,187741001822437 
865	 0,187342744512338 
866	 0,187304875597466 
867	 0,187716997734216 
868	 0,188422583730814 
869	 0,188948642940541 
870	 0,189119513187685 
871	 0,189577583181085 
872	 0,189966659919597 
873	 0,189814541476956 
874	 0,189895796081683 
875	 0,190161568430137 
876	 0,189870868114844 
877	 0,190022983447629 
878	 0,190805708763138 
879	 0,190727952232984 
880	 0,190411029488239 
881	 0,190637158852592 
882	 0,191099448878378 
883	 0,191394600208322 
884	 0,19042810727179 
885	 0,190586944121218 
886	 0,192284758169195 
887	 0,192752990665645 
888	 0,192664054503525 
889	 0,192786827166955 
890	 0,192602346612071 
891	 0,192394455765176 
892	 0,192976100819611 
893	 0,193035659174766 
894	 0,192430968466946 
895	 0,192551389993703 
896	 0,192939184061873 
897	 0,193194331898497 
898	 0,193499129388252 
899	 0,193601795804427 
900	 0,193019569205728 
901	 0,192801815642557 
902	 0,193204087737098 
903	 0,193974608343216 
904	 0,194261995787469 
905	 0,193639467788615 
906	 0,193187994549811 
907	 0,193346289476911 
908	 0,194490968500853 
909	 0,194644497913825 
910	 0,193954756578876 
911	 0,194605231058545 
912	 0,195170755828286 
913	 0,19500418811516 
914	 0,19449306784233 
915	 0,194143949144351 
916	 0,194422524767872 
917	 0,19405579297992 
918	 0,193249075438666 
919	 0,193090258760086 
920	 0,193575524953239 
921	 0,194386724301851 
922	 0,194001128791825 
923	 0,193293402345908 
924	 0,19303504667611 
925	 0,192694664486178 
926	 0,192190222337988 
927	 0,191465422864261 
928	 0,19136581019817 
929	 0,191902034955918 
930	 0,192330248098406 
931	 0,191660730501486 
932	 0,189786256262574 
933	 0,190330560524362 
934	 0,191323818697819 
935	 0,189807712737362 
936	 0,188543914653844 
937	 0,187942610359953 
938	 0,187299979323286 
939	 0,187039861380834 
940	 0,187066380076671 
941	 0,186045459319371 
942	 0,185707789119089 
943	 0,187239863828984 
944	 0,185664207410671 
945	 0,182894267058262 
946	 0,184008183729021 
947	 0,183799157396398 
948	 0,181657334322225 
949	 0,181105339894296 
950	 0,180253189661684 
951	 0,178423025579637 
952	 0,178770673513207 
953	 0,178875906406987 
954	 0,175661902125696 
955	 0,174043824597027 
956	 0,173995497799582 
957	 0,172492763367762 
958	 0,172062283276372 
959	 0,172879940239609 
960	 0,171913251168554 
961	 0,170614794489054 
962	 0,17025085132323 
963	 0,171054252851841 
964	 0,1715759475791 
965	 0,169636319195414 
966	 0,168645133007447 
967	 0,168839345976631 
968	 0,16798084538217 
969	 0,167767041588607 
970	 0,168645830527201 
971	 0,169221497439655 
972	 0,16874721936826 
973	 0,166927970969861 
974	 0,167093443567838 
975	 0,168278806626923 
976	 0,167653405339548 
977	 0,16883971661294 
978	 0,171199345790163 
979	 0,169046707947171 
980	 0,167564486689927 
981	 0,169028791947502 
982	 0,170410149468285 
983	 0,17118802904723 
984	 0,171075206563365 
985	 0,17018958969636 
986	 0,169462945587565 
987	 0,170550125623098 
988	 0,17167687767514 
989	 0,172378849382981 
990	 0,17327642641616 
991	 0,172870221772794 
992	 0,171007274947524 
993	 0,17162979396988 
994	 0,172877844449324 
995	 0,172629988453825 
996	 0,173163177936097 
997	 0,175290851650384 
998	 0,179902831985116 
999	 0,181240795514079 
1000	 0,179272146400797 
1001	 0,180692263870146 
1002	 0,180416624293801 
1003	 0,177133767231215 
1004	 0,178537781464541 
1005	 0,181368382681213 
1006	 0,181942489989741 
1007	 0,182703161212094 
1008	 0,182812767632238 
1009	 0,180201117803842 
1010	 0,179825135279563 
1011	 0,182038710790691 
1012	 0,183323681691497 
1013	 0,183635502083502 
1014	 0,183261777777135 
1015	 0,183958046641067 
1016	 0,187086350710937 
1017	 0,192648512717938 
1018	 0,191396030589788 
1019	 0,186713541513209 
1020	 0,185836889073293 
1021	 0,187634761603098 
1022	 0,190868972806972 
1023	 0,192387156580857 
1024	 0,194566666568333 
1025	 0,196961721299648 
1026	 0,194596820551536 
1027	 0,192182576081539 
1028	 0,193080616588923 
1029	 0,196095261210004 
1030	 0,199120884633073 
1031	 0,199929297314313 
1032	 0,20142733876863 
1033	 0,202965188230877 
1034	 0,202453937241963 
1035	 0,194485856267191 
1036	 0,18462941691456 
1037	 0,197643103838973 
1038	 0,205842835587304 
1039	 0,199975373201384 
1040	 0,203550547324233 
1041	 0,206688258799133 
1042	 0,201383865920113 
1043	 0,19893238786729 
1044	 0,19923231472956 
1045	 0,199899998430178 
1046	 0,200313805307853 
1047	 0,200922206114695 
1048	 0,202773673277802 
1049	 0,212240117491276 
1050	 0,223793086564826 
1051	 0,21114906789293 
1052	 0,199494603969404 
1053	 0,201963167947807 
1054	 0,206480868469024 
1055	 0,213460716781336 
1056	 0,22144015664801 
1057	 0,212755961165915 
1058	 0,204370036746906 
1059	 0,222001068830933 
1060	 0,22001550239677 
1061	 0,203282172235228 
1062	 0,205366483399592 
1063	 0,21169214938917 
1064	 0,216022316050068 
1065	 0,2088994390068 
1066	 0,20598542791078 
1067	 0,213125301288034 
1068	 0,219707950695194 
1069	 0,220540952898768 
1070	 0,212662616242012 
1071	 0,201962569817614 
1072	 0,198241050630393 
1073	 0,209477559934373 
1074	 0,200175319826076 
1075	 0,187389240041619 
