Wavelength	GRA-BER00489.asd
325	 0,320091098262762 
326	 0,260584642492996 
327	 0,137209772102618 
328	 0,070359522264197 
329	 0,145589752652191 
330	 0,264132990715377 
331	 0,295390768245568 
332	 0,179633165241165 
333	 4,27606823855468E-02 
334	 0,111174368658817 
335	 0,180886056377704 
336	 0,182781336879004 
337	 2,28972249569649E-02 
338	-0,113712512601426 
339	-0,043946582188182 
340	 9,18208853948547E-02 
341	 0,193921064329714 
342	 0,171055471456023 
343	 0,114907336006215 
344	 6,43687479388809E-02 
345	 4,70864169843762E-02 
346	 6,59810506875134E-02 
347	 0,112680594354659 
348	 0,115873780852094 
349	 0,086621359377734 
350	 6,15631744307976E-02 
351	 9,02446288260655E-02 
352	 0,160130710890573 
353	 0,140796114509705 
354	 9,76037500819511E-02 
355	 0,105682200185669 
356	 9,32573599240266E-02 
357	 7,12749660221809E-02 
358	 0,128315186307115 
359	 0,153906176051569 
360	 0,123236219295313 
361	 0,13700144538355 
362	 0,15209709828257 
363	 9,13836617019905E-02 
364	 6,70365337569392E-02 
365	 8,61861436010301E-02 
366	 8,01463374431703E-02 
367	 7,96775244625686E-02 
368	 0,102837271459182 
369	 0,132157113925662 
370	 0,147044139887824 
371	 0,121646263454603 
372	 0,100898157532983 
373	 9,95490974840748E-02 
374	 0,10689461408789 
375	 0,118235480576533 
376	 0,127829452477425 
377	 0,10497434675306 
378	 7,58554805886137E-02 
379	 0,107311246130521 
380	 0,117805152305125 
381	 9,52831782173201E-02 
382	 0,103196683366424 
383	 0,121724375693258 
384	 0,129456445075449 
385	 0,132630947874493 
386	 0,131819580644252 
387	 0,125929525213561 
388	 0,123703052729945 
389	 0,128568366132059 
390	 0,136536422377201 
391	 0,14016689044239 
392	 0,1305917200354 
393	 0,122018790253472 
394	 0,118148222412754 
395	 0,12009601746897 
396	 0,120625136364561 
397	 0,117394586468081 
398	 0,122336294147251 
399	 0,131233339015913 
400	 0,136736266519295 
401	 0,136702576244152 
402	 0,132481923694664 
403	 0,131442925269106 
404	 0,130306316609521 
405	 0,126866148444183 
406	 0,122274911467773 
407	 0,120860958659406 
408	 0,13165641700389 
409	 0,134505427546056 
410	 0,126933133221879 
411	 0,129315467803081 
412	 0,132169261545201 
413	 0,126429502857087 
414	 0,125485368038447 
415	 0,128267212448966 
416	 0,125455716999036 
417	 0,123591795989465 
418	 0,124746638556906 
419	 0,124190647233924 
420	 0,124994002708585 
421	 0,131590441693419 
422	 0,129719322143487 
423	 0,121858213609155 
424	 0,12710501470959 
425	 0,131877901628377 
426	 0,128949550853781 
427	 0,130233662173531 
428	 0,133402931351439 
429	 0,131860871812543 
430	 0,127771990532663 
431	 0,12341723052661 
432	 0,12556873501455 
433	 0,128555337923315 
434	 0,127446104114701 
435	 0,127538114288907 
436	 0,129181261299449 
437	 0,131276826101832 
438	 0,131283241708985 
439	 0,12869264201472 
440	 0,127389202783515 
441	 0,127979690063394 
442	 0,130660750440574 
443	 0,130579178243423 
444	 0,127552169396054 
445	 0,124513522856776 
446	 0,125573632431599 
447	 0,132176270105488 
448	 0,132993830305133 
449	 0,130248265523492 
450	 0,131240421933044 
451	 0,130694532828648 
452	 0,128251058054285 
453	 0,128885077626136 
454	 0,131319564981073 
455	 0,134024234634362 
456	 0,13507636020577 
457	 0,134944832439069 
458	 0,136010221659907 
459	 0,137229265057939 
460	 0,13823176761553 
461	 0,139856997916244 
462	 0,139618803970332 
463	 0,134177523756355 
464	 0,131704055476056 
465	 0,132826416982864 
466	 0,131235599718504 
467	 0,130414500591555 
468	 0,132489042575773 
469	 0,135144761293371 
470	 0,136306998822653 
471	 0,132438342438211 
472	 0,130250509900362 
473	 0,13146995133906 
474	 0,13231240286447 
475	 0,132480981377195 
476	 0,131966429251411 
477	 0,13261825729189 
478	 0,133756479660374 
479	 0,132359606104089 
480	 0,13115937611613 
481	 0,131548567589631 
482	 0,133291974503647 
483	 0,135516083925495 
484	 0,137177711433091 
485	 0,13572613345181 
486	 0,132096454288704 
487	 0,132361743946115 
488	 0,133905803346423 
489	 0,134498962948036 
490	 0,133306713383684 
491	 0,13118884565683 
492	 0,130341970970475 
493	 0,130561679608663 
494	 0,131245218487017 
495	 0,129065921947282 
496	 0,127326366643339 
497	 0,129897818168349 
498	 0,131302323400915 
499	 0,131184549215079 
500	 0,132807808922769 
501	 0,133219317380253 
502	 0,131153609312674 
503	 0,130306752701236 
504	 0,131044948095918 
505	 0,133255218001551 
506	 0,133998168472167 
507	 0,132830897678944 
508	 0,132271638439172 
509	 0,132323189225458 
510	 0,132831668677559 
511	 0,133097425410365 
512	 0,132854018311351 
513	 0,131682451092644 
514	 0,131222257129993 
515	 0,132056036258756 
516	 0,132601315507999 
517	 0,133120506302486 
518	 0,134278215858066 
519	 0,133862081602736 
520	 0,132021294993475 
521	 0,131162861829099 
522	 0,131458435293295 
523	 0,132863989495816 
524	 0,133929493395413 
525	 0,134212721278863 
526	 0,13335764078535 
527	 0,132337631973093 
528	 0,131750922842714 
529	 0,132386244654049 
530	 0,1332872073818 
531	 0,133309607003966 
532	 0,132576498072019 
533	 0,131791986282855 
534	 0,133211371475222 
535	 0,133835460312916 
536	 0,13218945996301 
537	 0,131809231143014 
538	 0,132407452332708 
539	 0,132605173234737 
540	 0,132296813019922 
541	 0,131763520579822 
542	 0,132708872301528 
543	 0,133642770537841 
544	 0,133133027488918 
545	 0,133819201359388 
546	 0,135124629403144 
547	 0,133905910263813 
548	 0,132728720369718 
549	 0,132892137915673 
550	 0,134173908528441 
551	 0,135087263692394 
552	 0,133330299932308 
553	 0,133175393483451 
554	 0,134914936448204 
555	 0,134433189866035 
556	 0,133567021036118 
557	 0,133848496611438 
558	 0,133493493232605 
559	 0,132833989715608 
560	 0,133470476265889 
561	 0,134023257659217 
562	 0,134142231209976 
563	 0,135432009285092 
564	 0,136475148885942 
565	 0,135273389202351 
566	 0,134770818262451 
567	 0,135219106684178 
568	 0,134505268137244 
569	 0,134074475960763 
570	 0,134913124662507 
571	 0,136246914671119 
572	 0,137358408702421 
573	 0,136960456508372 
574	 0,136933030870307 
575	 0,137856345415707 
576	 0,138842098397748 
577	 0,139669487683195 
578	 0,140168320025187 
579	 0,140515921715801 
580	 0,140830853927569 
581	 0,141255305257256 
582	 0,141927452748819 
583	 0,142839482908611 
584	 0,143361419267335 
585	 0,143392259985879 
586	 0,142848588875218 
587	 0,143024307864024 
588	 0,143948101409472 
589	 0,143800530366729 
590	 0,143175312721915 
591	 0,142724177045408 
592	 0,142578871455921 
593	 0,142695893184656 
594	 0,142836405268109 
595	 0,142902559272954 
596	 0,142921182258441 
597	 0,143604373630267 
598	 0,144125353776828 
599	 0,143137990791073 
600	 0,14283980635341 
601	 0,143381427211344 
602	 0,142727622583543 
603	 0,142048562417836 
604	 0,142233283240619 
605	 0,142076700235673 
606	 0,14153209013456 
607	 0,141040400064369 
608	 0,140212425170756 
609	 0,139160532247505 
610	 0,139172396171824 
611	 0,139702550639247 
612	 0,139941043592572 
613	 0,139954122303367 
614	 0,139794441053889 
615	 0,139698041515645 
616	 0,139550463507417 
617	 0,139290137706281 
618	 0,138946085213843 
619	 0,138808166457219 
620	 0,139445043735126 
621	 0,140060095878272 
622	 0,140223685633284 
623	 0,13927019027501 
624	 0,138707275623478 
625	 0,140029067755793 
626	 0,140737944024093 
627	 0,140719206514298 
628	 0,141346768815257 
629	 0,141933069319803 
630	 0,142139311313127 
631	 0,142146359722152 
632	 0,142088764983096 
633	 0,142082081867 
634	 0,143018113067811 
635	 0,144687621004446 
636	 0,145192046826008 
637	 0,145265867653844 
638	 0,145610341689942 
639	 0,146365380913845 
640	 0,147239561107916 
641	 0,14739277782315 
642	 0,147514725306882 
643	 0,147880952022832 
644	 0,148295175823276 
645	 0,14885526434924 
646	 0,149709362180175 
647	 0,149808010348687 
648	 0,149323406533248 
649	 0,149841132946618 
650	 0,150409461406123 
651	 0,15033980607853 
652	 0,14953751351523 
653	 0,148562697191767 
654	 0,148523079680308 
655	 0,148814980036791 
656	 0,149145749965053 
657	 0,149197545577101 
658	 0,148942816557792 
659	 0,148382340105217 
660	 0,147393940947508 
661	 0,146358302944176 
662	 0,146412207062196 
663	 0,146230645890403 
664	 0,145244966435118 
665	 0,14460331030324 
666	 0,144210407346974 
667	 0,143684949206764 
668	 0,143574086821648 
669	 0,143712456929966 
670	 0,14288378664497 
671	 0,14198426116147 
672	 0,141750300801902 
673	 0,14175333061697 
674	 0,141785552381851 
675	 0,141529676450262 
676	 0,141283838356684 
677	 0,141191790575385 
678	 0,14138986984059 
679	 0,141586999248097 
680	 0,141437203367842 
681	 0,142006889019254 
682	 0,143040278423481 
683	 0,142791600136231 
684	 0,143073966961934 
685	 0,144729196123376 
686	 0,145196615889003 
687	 0,145267802523695 
688	 0,146884498468866 
689	 0,149187776717556 
690	 0,151885128484258 
691	 0,154674677732301 
692	 0,158098941401426 
693	 0,162638667052604 
694	 0,167746002523514 
695	 0,173384388492407 
696	 0,179665623684649 
697	 0,187089171591382 
698	 0,195788110985705 
699	 0,20511912935896 
700	 0,21481806653383 
701	 0,224656557905102 
702	 0,23547065975027 
703	 0,247141874645864 
704	 0,258721975545989 
705	 0,27016952934977 
706	 0,28143583876045 
707	 0,292510128154173 
708	 0,30353997563068 
709	 0,314882994322454 
710	 0,325582390178274 
711	 0,335353866135344 
712	 0,34447219353592 
713	 0,353533525091025 
714	 0,362985902561872 
715	 0,371513045679613 
716	 0,379080232650886 
717	 0,386277300361463 
718	 0,393048342984952 
719	 0,399427996959511 
720	 0,405605145277855 
721	 0,411368960201213 
722	 0,416433899296106 
723	 0,420829479717817 
724	 0,424895207702078 
725	 0,42961379888411 
726	 0,433995994709994 
727	 0,437471409088415 
728	 0,440702258545301 
729	 0,443728238136067 
730	 0,446439925643632 
731	 0,449050945789429 
732	 0,451620858392745 
733	 0,454040530439108 
734	 0,45636951975886 
735	 0,458634424621437 
736	 0,460436678148246 
737	 0,46189769015399 
738	 0,463501553594502 
739	 0,464924398280796 
740	 0,466139988845187 
741	 0,467654370472027 
742	 0,469067945458374 
743	 0,469890805642907 
744	 0,470843524567591 
745	 0,472002183989285 
746	 0,473079021956357 
747	 0,473975599579323 
748	 0,474670925948853 
749	 0,475508182166044 
750	 0,476340134911029 
751	 0,476871988995329 
752	 0,477428182278968 
753	 0,478120682520894 
754	 0,479038207505431 
755	 0,479730414193262 
756	 0,479918315915381 
757	 0,480238716142581 
758	 0,480752708319464 
759	 0,481399819866062 
760	 0,481743087885092 
761	 0,481747872219831 
762	 0,482013610523861 
763	 0,48243299281032 
764	 0,482868913719705 
765	 0,483297894836097 
766	 0,483653435056403 
767	 0,483772319171547 
768	 0,484001279661066 
769	 0,484438992980155 
770	 0,484743302812245 
771	 0,484995622863707 
772	 0,485320051951031 
773	 0,485342904060332 
774	 0,485202884896745 
775	 0,485546889387677 
776	 0,486017807369838 
777	 0,486411364106757 
778	 0,486697832878312 
779	 0,486888812749547 
780	 0,487018785840428 
781	 0,487041539735527 
782	 0,48703135177891 
783	 0,48724172031447 
784	 0,487566064199058 
785	 0,487907450971457 
786	 0,488102995810834 
787	 0,488246721748517 
788	 0,488561915920744 
789	 0,488730170244217 
790	 0,488752394806753 
791	 0,489054764447209 
792	 0,489327902847951 
793	 0,489353931611776 
794	 0,489673605765928 
795	 0,490101473106243 
796	 0,490027788546621 
797	 0,490144094657767 
798	 0,490561712672872 
799	 0,49060419658458 
800	 0,490709717236236 
801	 0,491260966329806 
802	 0,491262013015719 
803	 0,490923963629846 
804	 0,491296618676791 
805	 0,491486079024919 
806	 0,491309691639358 
807	 0,491582120637383 
808	 0,492051510812816 
809	 0,492382183782407 
810	 0,492489344975236 
811	 0,49247151895599 
812	 0,492638520036301 
813	 0,492984848057831 
814	 0,493441430740148 
815	 0,493589720929898 
816	 0,4936093689976 
817	 0,493763630384707 
818	 0,494192933421242 
819	 0,494695398654413 
820	 0,494494505743726 
821	 0,49469825822541 
822	 0,495606397012457 
823	 0,495495225910698 
824	 0,495021036946457 
825	 0,495236483803596 
826	 0,495703702761471 
827	 0,4961649316301 
828	 0,496123649542428 
829	 0,496070184115443 
830	 0,496227945548054 
831	 0,496205059837034 
832	 0,49619351456617 
833	 0,496498969257602 
834	 0,496552391394043 
835	 0,496442143132414 
836	 0,496962757683721 
837	 0,497345086514286 
838	 0,497248541702034 
839	 0,497471473180151 
840	 0,49781046585663 
841	 0,497858739810355 
842	 0,498091509005672 
843	 0,498501176092311 
844	 0,498685964379563 
845	 0,498759672709161 
846	 0,49880017067846 
847	 0,498865235314984 
848	 0,499076626869702 
849	 0,499585263340641 
850	 0,499403356952046 
851	 0,49882148411517 
852	 0,499685190996311 
853	 0,500361693854178 
854	 0,500082865194562 
855	 0,500144478149367 
856	 0,50043873985771 
857	 0,500623859645666 
858	 0,501088338519707 
859	 0,501673712650485 
860	 0,501635729754935 
861	 0,501496340506267 
862	 0,501487959661051 
863	 0,501197919962265 
864	 0,500871263220479 
865	 0,500868343677109 
866	 0,501627882853227 
867	 0,502735550541445 
868	 0,502680787735679 
869	 0,502469943760794 
870	 0,502615918766119 
871	 0,503146708460171 
872	 0,503550090609146 
873	 0,503228732683741 
874	 0,502812102295155 
875	 0,502438835594005 
876	 0,501917054590384 
877	 0,502121632409513 
878	 0,50311909645449 
879	 0,503099529770048 
880	 0,502440310664489 
881	 0,501769376582031 
882	 0,502037381018845 
883	 0,502744704122039 
884	 0,501907584103168 
885	 0,501722139226312 
886	 0,502583834907021 
887	 0,502174938125172 
888	 0,501631721493499 
889	 0,502104072306278 
890	 0,502811563216221 
891	 0,503267145701821 
892	 0,502698829585467 
893	 0,502439474259934 
894	 0,502752232791514 
895	 0,502652386890487 
896	 0,502325753451271 
897	 0,50199331985709 
898	 0,502035669379131 
899	 0,502330562708378 
900	 0,502543806006488 
901	 0,50272880946064 
902	 0,502820252915369 
903	 0,502592467554993 
904	 0,502339985979401 
905	 0,50227940877746 
906	 0,50253431677048 
907	 0,502684970568953 
908	 0,502136221302813 
909	 0,502090023753043 
910	 0,502362826538868 
911	 0,501374260141365 
912	 0,500485374484489 
913	 0,50038419768944 
914	 0,500929616315572 
915	 0,501371729314543 
916	 0,500959579206748 
917	 0,501205565119855 
918	 0,501616929048081 
919	 0,500057326692536 
920	 0,499207135893942 
921	 0,499772190748855 
922	 0,500379456974814 
923	 0,500012041248728 
924	 0,498117642891231 
925	 0,49754042322418 
926	 0,497551196583901 
927	 0,495931713320423 
928	 0,495183675687184 
929	 0,495371859759233 
930	 0,493993602736059 
931	 0,492946303159249 
932	 0,493149894672458 
933	 0,492823940813119 
934	 0,491688185007273 
935	 0,489709117728439 
936	 0,488590318431774 
937	 0,488195061611093 
938	 0,486909695465214 
939	 0,485656997076546 
940	 0,484678841675688 
941	 0,483584402552368 
942	 0,481943249739151 
943	 0,479514971557038 
944	 0,47764192730223 
945	 0,476453079993625 
946	 0,475688509890997 
947	 0,475175233487328 
948	 0,474484530851792 
949	 0,472562290543226 
950	 0,470287982789269 
951	 0,468159282355669 
952	 0,465676390757932 
953	 0,463271271950252 
954	 0,461462354911462 
955	 0,459422453058224 
956	 0,457289360876997 
957	 0,455765004783807 
958	 0,4549901971617 
959	 0,454456222783972 
960	 0,451569287022101 
961	 0,449254295093917 
962	 0,449493935957658 
963	 0,448746944682769 
964	 0,447250584200086 
965	 0,446157300428895 
966	 0,445673120418775 
967	 0,445521390756609 
968	 0,444653487422234 
969	 0,443533067528414 
970	 0,442641242330208 
971	 0,443299156617076 
972	 0,444105418333701 
973	 0,443814355621988 
974	 0,444064540124548 
975	 0,445334002960328 
976	 0,448073379125482 
977	 0,448018469330775 
978	 0,445339386205254 
979	 0,444835434146562 
980	 0,445904223234196 
981	 0,44744707471485 
982	 0,444346086468175 
983	 0,441755808599505 
984	 0,444877990607691 
985	 0,44688154887015 
986	 0,447157075768679 
987	 0,447080438996871 
988	 0,446223015050603 
989	 0,445150826874521 
990	 0,445863420252652 
991	 0,44701045112909 
992	 0,447908754484534 
993	 0,449325668591217 
994	 0,450193189846202 
995	 0,449501301077444 
996	 0,448406086445519 
997	 0,448462878632557 
998	 0,452197486876276 
999	 0,453513192803591 
1000	 0,452031442264695 
1001	 0,453409765785155 
1002	 0,454008909441024 
1003	 0,452895289751387 
1004	 0,455593901509205 
1005	 0,458402171799375 
1006	 0,45764656161637 
1007	 0,457807903746926 
1008	 0,458776494969476 
1009	 0,459032834557755 
1010	 0,458522015070727 
1011	 0,458222530276911 
1012	 0,46132571798381 
1013	 0,464678053714429 
1014	 0,466670689477769 
1015	 0,467054295021526 
1016	 0,465774065601981 
1017	 0,463835815130042 
1018	 0,469687806806849 
1019	 0,476708120338301 
1020	 0,473470559821335 
1021	 0,469725798702266 
1022	 0,468074801425236 
1023	 0,468538454734191 
1024	 0,470692304767516 
1025	 0,473630145189848 
1026	 0,474704126495148 
1027	 0,47516725468325 
1028	 0,475734648047605 
1029	 0,475114992761976 
1030	 0,473557159713969 
1031	 0,471855128062349 
1032	 0,474864722502405 
1033	 0,479477779244487 
1034	 0,477528353137607 
1035	 0,475560466014499 
1036	 0,476000315136472 
1037	 0,481215690210593 
1038	 0,479620829508412 
1039	 0,470359190131663 
1040	 0,479390540879883 
1041	 0,488651163975373 
1042	 0,48357495875077 
1043	 0,48242327827193 
1044	 0,484356010955771 
1045	 0,484985448916905 
1046	 0,488278805526755 
1047	 0,491349522219743 
1048	 0,485845180262257 
1049	 0,482349000605463 
1050	 0,48265057519755 
1051	 0,47985391579342 
1052	 0,477973572549696 
1053	 0,479899302414361 
1054	 0,49069091659422 
1055	 0,495127554482445 
1056	 0,48266172015342 
1057	 0,482465856639213 
1058	 0,485682750148842 
1059	 0,475392287626358 
1060	 0,481304499568333 
1061	 0,495861658247385 
1062	 0,487318522581647 
1063	 0,488559068661391 
1064	 0,500451394630638 
1065	 0,490435981860916 
1066	 0,485079483931045 
1067	 0,493410957894638 
1068	 0,494314402093551 
1069	 0,490827865725352 
1070	 0,486157437220968 
1071	 0,479185820382858 
1072	 0,477840206962375 
1073	 0,489549544998072 
1074	 0,486128778484473 
1075	 0,472939609555987 
