Wavelength	GRA-BER00467.asd
325	 8,29678783729742E-02 
326	 5,94079661581815E-02 
327	 0,086880138097366 
328	 0,14417502926215 
329	 3,67458856123269E-02 
330	-9,30068361979104E-02 
331	-7,13088236626764E-02 
332	-2,35300496856477E-02 
333	 0,021782568754963 
334	 7,75938680293268E-02 
335	 7,35040888555652E-02 
336	 2,10322736613079E-03 
337	-0,126912311492588 
338	-0,171837263274975 
339	-9,4386297303413E-03 
340	 6,58241402891237E-02 
341	 3,32364894900616E-02 
342	-3,28866382960988E-02 
343	-6,21829036140807E-02 
344	-3,89510278113664E-02 
345	-0,041065955424556 
346	-3,63578864812215E-02 
347	 6,86901232240484E-03 
348	 5,67855969139244E-02 
349	 8,52285380247188E-02 
350	 0,022889086935052 
351	 6,39707117124389E-03 
352	 6,53340604188309E-02 
353	 5,17538841867477E-02 
354	 1,29773278580071E-02 
355	 6,5852404236104E-03 
356	 1,72733567155878E-02 
357	 3,86304873325081E-02 
358	 5,32951945686021E-02 
359	 5,72468551818206E-02 
360	 5,17030366151787E-02 
361	 3,57866260315943E-02 
362	 2,67800513817399E-02 
363	 4,73094955188962E-02 
364	 3,75987760161306E-02 
365	 2,85262118960373E-03 
366	 1,58287619346528E-02 
367	 3,52250978891964E-02 
368	 3,60419532063725E-02 
369	 5,26373325203778E-02 
370	 6,98955980164941E-02 
371	 6,09095672868909E-02 
372	 4,88770433862968E-02 
373	 3,97168781288502E-02 
374	 0,024243147337064 
375	 1,27899334341777E-02 
376	 1,20198598956572E-02 
377	 5,48788547977423E-03 
378	-1,80156881440666E-03 
379	 6,35847219826297E-03 
380	 1,37640199207674E-02 
381	 1,67660422613719E-02 
382	 2,08293641404426E-02 
383	 2,21494738735498E-02 
384	 1,80240854195814E-02 
385	 2,79595017072847E-02 
386	 3,88973112300851E-02 
387	 4,3386106970094E-03 
388	 7,76161325093956E-03 
389	 6,15046188652861E-02 
390	 4,40951188023975E-02 
391	 1,13870041600378E-02 
392	 3,85380755756025E-02 
393	 3,76905271959515E-02 
394	 1,12790857493736E-02 
395	 2,95439027016871E-02 
396	 3,92095169685602E-02 
397	 0,017067256137311 
398	-1,31618181776442E-03 
399	-4,73129756765225E-03 
400	 1,66127360386832E-02 
401	 2,89677194870285E-02 
402	 2,58231371021348E-02 
403	 2,02966424248657E-02 
404	 1,43077083569307E-02 
405	 1,01424348409701E-02 
406	 1,80485744186064E-02 
407	 2,86041288529588E-02 
408	 2,08664125831504E-02 
409	 2,01331122633384E-02 
410	 2,96619635574285E-02 
411	 2,88656642169056E-02 
412	 2,13419089259731E-02 
413	 1,16809843165307E-02 
414	 9,99090262454391E-03 
415	 1,45485539619092E-02 
416	 1,52845718075097E-02 
417	 1,77974490277737E-02 
418	 2,24166354546177E-02 
419	 1,96505701908054E-02 
420	 1,31299950976707E-02 
421	 8,46453075243304E-03 
422	 1,08607024902278E-02 
423	 1,84061277375829E-02 
424	 2,13275966279279E-02 
425	 2,14931364467223E-02 
426	 2,04990393875255E-02 
427	 2,19448156258918E-02 
428	 2,37982197049146E-02 
429	 2,14558924879394E-02 
430	 1,91546278182435E-02 
431	 1,85131185921525E-02 
432	 2,09808814014915E-02 
433	 2,13368750024631E-02 
434	 1,57350638032672E-02 
435	 1,75532000388816E-02 
436	 2,41701023005313E-02 
437	 2,25052429925611E-02 
438	 2,16377151250216E-02 
439	 2,40492616372623E-02 
440	 0,022406813125537 
441	 1,94510063981121E-02 
442	 1,93369777938895E-02 
443	 1,90158202012326E-02 
444	 1,81015374193329E-02 
445	 1,72055894009447E-02 
446	 0,018677957147437 
447	 0,023076703919917 
448	 2,17556781950309E-02 
449	 1,82021002518355E-02 
450	 0,021271567264677 
451	 2,19395183067483E-02 
452	 1,89887423701835E-02 
453	 1,98675274244874E-02 
454	 2,23355021719645E-02 
455	 2,38543856451132E-02 
456	 2,16149798674647E-02 
457	 1,81823580611206E-02 
458	 2,18395988489842E-02 
459	 2,55316102032989E-02 
460	 2,60733627817049E-02 
461	 2,41498111595874E-02 
462	 2,14564934762105E-02 
463	 2,00893394908962E-02 
464	 2,05873181705563E-02 
465	 2,20222918234477E-02 
466	 2,07723140498253E-02 
467	 1,87933429768773E-02 
468	 1,78037657506262E-02 
469	 0,020826200124511 
470	 2,43025760535495E-02 
471	 2,02402309437496E-02 
472	 1,81661695070367E-02 
473	 2,04623828835578E-02 
474	 2,26024622067925E-02 
475	 2,29022299593177E-02 
476	 2,02257469531847E-02 
477	 2,07455267618922E-02 
478	 2,33413395101007E-02 
479	 2,10511221654864E-02 
480	 1,95398926795948E-02 
481	 2,09906670614856E-02 
482	 2,06921814747583E-02 
483	 2,06509083779141E-02 
484	 2,46562067680807E-02 
485	 2,46066308633002E-02 
486	 2,04442274782327E-02 
487	 2,05340818284412E-02 
488	 2,23763900975233E-02 
489	 0,023781761549474 
490	 2,37554924953475E-02 
491	 2,24345391672676E-02 
492	 2,03778192383771E-02 
493	 1,96785138302921E-02 
494	 2,06501893318418E-02 
495	 1,98586646066339E-02 
496	 1,97986281993696E-02 
497	 2,34346903480766E-02 
498	 2,43061336293605E-02 
499	 2,21734949097044E-02 
500	 2,09123945922681E-02 
501	 2,04904058979371E-02 
502	 2,08079932968406E-02 
503	 2,04679898594719E-02 
504	 2,02151742379294E-02 
505	 2,18869659229356E-02 
506	 2,14390804693515E-02 
507	 1,88959435766186E-02 
508	 1,98020728602065E-02 
509	 2,16397311733221E-02 
510	 2,19926882149629E-02 
511	 2,29221113010682E-02 
512	 2,38573950769042E-02 
513	 0,022280173809317 
514	 2,13002497617301E-02 
515	 0,022084762711629 
516	 2,24484428569531E-02 
517	 2,24894524724509E-02 
518	 2,26603757677423E-02 
519	 2,27893405407607E-02 
520	 2,28185043577752E-02 
521	 2,26428987481741E-02 
522	 2,25964563647218E-02 
523	 2,28292545145062E-02 
524	 2,20896976583232E-02 
525	 2,11300415188854E-02 
526	 0,022142717528469 
527	 0,022758556899564 
528	 2,23555492860776E-02 
529	 2,23405454948413E-02 
530	 2,26854703169193E-02 
531	 2,32293600640307E-02 
532	 2,39784141100423E-02 
533	 2,45098790506379E-02 
534	 2,35719056751911E-02 
535	 2,27322553470906E-02 
536	 2,29021689593803E-02 
537	 2,32267558552415E-02 
538	 2,35541443639135E-02 
539	 2,38825347217249E-02 
540	 2,37711813294007E-02 
541	 0,02333155303363 
542	 2,37303016313198E-02 
543	 0,024315440001804 
544	 2,44113048906999E-02 
545	 2,45942735768904E-02 
546	 2,47856347892033E-02 
547	 2,44496718961006E-02 
548	 2,40828340419199E-02 
549	 2,40260344330599E-02 
550	 2,48004427810335E-02 
551	 2,56087900730821E-02 
552	 2,51344627927988E-02 
553	 2,50471688255287E-02 
554	 2,56074008994295E-02 
555	 2,58072984911552E-02 
556	 2,59805583697003E-02 
557	 2,63135597067562E-02 
558	 2,52083222933021E-02 
559	 2,34659903139798E-02 
560	 2,35907443244491E-02 
561	 2,46773677686623E-02 
562	 2,61627068794297E-02 
563	 2,68895550003278E-02 
564	 2,70722085940892E-02 
565	 2,71614830708671E-02 
566	 2,78558925637761E-02 
567	 2,87945202971469E-02 
568	 2,78214702691669E-02 
569	 2,73575944643785E-02 
570	 2,89443009947985E-02 
571	 3,00041870087693E-02 
572	 3,02545188749946E-02 
573	 2,98937915556473E-02 
574	 3,02671193675701E-02 
575	 3,16069012802999E-02 
576	 0,032118982840316 
577	 3,22499960399969E-02 
578	 3,26516584913939E-02 
579	 3,32838293746779E-02 
580	 3,39256265966895E-02 
581	 3,39193047382621E-02 
582	 3,37015449444866E-02 
583	 3,35168175841676E-02 
584	 3,31100269443248E-02 
585	 3,27297337075567E-02 
586	 3,28211423875553E-02 
587	 3,32259982966594E-02 
588	 0,033616017035688 
589	 3,29308492108611E-02 
590	 3,18584022613046E-02 
591	 3,11331378566236E-02 
592	 3,13042953049166E-02 
593	 3,19384981226811E-02 
594	 3,15787540165716E-02 
595	 3,09759342329319E-02 
596	 0,030625252288901 
597	 3,15085951409212E-02 
598	 3,22453418020037E-02 
599	 3,06082128482014E-02 
600	 3,01454579875682E-02 
601	 3,12001286994303E-02 
602	 3,09314170260943E-02 
603	 3,04833949583537E-02 
604	 3,07246213110423E-02 
605	 3,03694381669066E-02 
606	 2,95845308439574E-02 
607	 2,92746508404279E-02 
608	 0,028987434693409 
609	 2,86404675822391E-02 
610	 2,85731375025981E-02 
611	 2,88047291162708E-02 
612	 2,93186846120371E-02 
613	 2,91833664185381E-02 
614	 2,85583749328409E-02 
615	 2,88189635115113E-02 
616	 2,91305625435429E-02 
617	 2,89561064505852E-02 
618	 2,85472562558472E-02 
619	 2,81954938869423E-02 
620	 0,028360714971766 
621	 2,88493601746371E-02 
622	 2,94344569370809E-02 
623	 2,94657923122195E-02 
624	 0,029188642506249 
625	 2,89174219268342E-02 
626	 0,028971459842163 
627	 2,94029399927344E-02 
628	 3,01288460731021E-02 
629	 3,07839506581329E-02 
630	 3,11610265260537E-02 
631	 3,14163835658502E-02 
632	 0,031684864767258 
633	 3,21150461936089E-02 
634	 3,31037684463587E-02 
635	 3,43661488929716E-02 
636	 3,43351634349073E-02 
637	 3,40523356392706E-02 
638	 3,44483951556333E-02 
639	 3,51452331355267E-02 
640	 3,58921922798714E-02 
641	 3,62883188861817E-02 
642	 3,62881041090203E-02 
643	 3,60369295214316E-02 
644	 3,64872403308305E-02 
645	 3,73401016072696E-02 
646	 3,80920690750049E-02 
647	 3,83511833811655E-02 
648	 3,81365445153586E-02 
649	 3,78728783000798E-02 
650	 3,80483681213444E-02 
651	 3,88269168082697E-02 
652	 3,84385087363654E-02 
653	 3,74925845331348E-02 
654	 3,77725561990839E-02 
655	 0,038077914654332 
656	 3,81034035608322E-02 
657	 3,84341286317719E-02 
658	 3,84636045512217E-02 
659	 3,75657206348778E-02 
660	 3,63576075816163E-02 
661	 3,53069722791762E-02 
662	 3,52302282503234E-02 
663	 0,035357219622519 
664	 3,51886479437311E-02 
665	 3,43161262797534E-02 
666	 3,32188531834557E-02 
667	 3,26812576560335E-02 
668	 3,26823153858282E-02 
669	 3,29565394270221E-02 
670	 3,24583570597224E-02 
671	 3,19483636673451E-02 
672	 3,19887640745709E-02 
673	 3,14032408606579E-02 
674	 0,030551568639406 
675	 0,030775605734526 
676	 3,09943277908557E-02 
677	 3,08837630991467E-02 
678	 3,10311189587247E-02 
679	 3,11422862643499E-02 
680	 3,08303064292836E-02 
681	 3,06364750783698E-02 
682	 3,06667637061267E-02 
683	 3,06841759289282E-02 
684	 3,12832942303088E-02 
685	 3,26090006428857E-02 
686	 3,28331414528842E-02 
687	 3,26162446330187E-02 
688	 3,35528160721373E-02 
689	 3,46622250461732E-02 
690	 3,57785505576513E-02 
691	 0,037437434067868 
692	 3,92395715192423E-02 
693	 4,08433719095977E-02 
694	 4,27678222977374E-02 
695	 4,52235446662738E-02 
696	 4,85110090289878E-02 
697	 5,19221925047115E-02 
698	 0,055267220993415 
699	 5,95296990170656E-02 
700	 0,063849865940171 
701	 6,70417721632856E-02 
702	 7,10739042888826E-02 
703	 7,60156414966614E-02 
704	 8,04081029523512E-02 
705	 0,084698197193261 
706	 8,91127188121591E-02 
707	 9,31548253748431E-02 
708	 9,69547201789892E-02 
709	 0,100872709805869 
710	 0,104872550133258 
711	 0,108748507483101 
712	 0,111645482777483 
713	 0,114346211321798 
714	 0,117580755704864 
715	 0,120737956723959 
716	 0,123599103996014 
717	 0,12585224103471 
718	 0,12823390785883 
719	 0,130893981320228 
720	 0,132614901202993 
721	 0,134162936323302 
722	 0,136639552820875 
723	 0,138276404532636 
724	 0,139141057330385 
725	 0,14092873652317 
726	 0,142730383525411 
727	 0,143973877566361 
728	 0,14476885626521 
729	 0,145560445282296 
730	 0,147130307438281 
731	 0,148400173900077 
732	 0,149171302835402 
733	 0,150182329892856 
734	 0,151077137162073 
735	 0,151555225662815 
736	 0,152160930087429 
737	 0,15278125 
738	 0,15278710374032 
739	 0,153194654926416 
740	 0,154243635936104 
741	 0,154881816613114 
742	 0,155307566443112 
743	 0,155849866247991 
744	 0,156242765511404 
745	 0,156501714541683 
746	 0,156861238632692 
747	 0,157055088136446 
748	 0,15703847046963 
749	 0,157522075176523 
750	 0,158249008727925 
751	 0,158704329809681 
752	 0,159003542394047 
753	 0,159177909570268 
754	 0,159269787263051 
755	 0,159355623372246 
756	 0,159522001967119 
757	 0,15999838755453 
758	 0,160625120895842 
759	 0,161041685657197 
760	 0,161266734980098 
761	 0,161338245232225 
762	 0,161456251128759 
763	 0,161600324815621 
764	 0,161744365762052 
765	 0,161975055054742 
766	 0,162216296300099 
767	 0,162208254530463 
768	 0,162320258279969 
769	 0,162659611762001 
770	 0,162921309786263 
771	 0,163069362276334 
772	 0,163102089442611 
773	 0,163422689081632 
774	 0,163908968463935 
775	 0,163886546555663 
776	 0,163858216917001 
777	 0,164093150849311 
778	 0,164540364550913 
779	 0,164879725435389 
780	 0,164661549015956 
781	 0,164554025741641 
782	 0,16471519835794 
783	 0,164999552659364 
784	 0,165229573802093 
785	 0,165285214256014 
786	 0,165236686475018 
787	 0,165254615696059 
788	 0,165625224466295 
789	 0,165849781271418 
790	 0,165867828659158 
791	 0,166173727369634 
792	 0,166287569513608 
793	 0,165901203142632 
794	 0,166083501101132 
795	 0,166598629425668 
796	 0,166548345856429 
797	 0,166500339448961 
798	 0,166648971742908 
799	 0,167017968611937 
800	 0,167343736456672 
801	 0,167384650877352 
802	 0,167331837265272 
803	 0,167319778464707 
804	 0,16766587303511 
805	 0,167533009300935 
806	 0,166860789866029 
807	 0,167101397382234 
808	 0,167714947542592 
809	 0,168017176606111 
810	 0,168329549723534 
811	 0,168593430959495 
812	 0,168481678488517 
813	 0,168521013394243 
814	 0,168889336996762 
815	 0,169078998618102 
816	 0,169390736646281 
817	 0,170201620212661 
818	 0,170566359264841 
819	 0,170457446828546 
820	 0,170430279321402 
821	 0,170673928182472 
822	 0,171229050911278 
823	 0,171593240219229 
824	 0,171778293582043 
825	 0,171873873061824 
826	 0,171597610451431 
827	 0,17131629772069 
828	 0,172411452645446 
829	 0,173193516805243 
830	 0,172843968314466 
831	 0,172286316306496 
832	 0,172216426667621 
833	 0,173398688632548 
834	 0,173741750814087 
835	 0,173161155921158 
836	 0,1732115075633 
837	 0,173541310364986 
838	 0,173886109641978 
839	 0,173682220883563 
840	 0,1732780132138 
841	 0,173245608164974 
842	 0,174129441135714 
843	 0,175455819503802 
844	 0,175251734150767 
845	 0,17479004927017 
846	 0,174794722471403 
847	 0,174979008139168 
848	 0,17528833388581 
849	 0,175675622660421 
850	 0,17545841492661 
851	 0,174822727442534 
852	 0,174954022090401 
853	 0,175203713091746 
854	 0,175242006738343 
855	 0,175308492034307 
856	 0,175571478310697 
857	 0,176220484304861 
858	 0,176291984671102 
859	 0,175910100656245 
860	 0,176361560117567 
861	 0,176466205871072 
862	 0,175811308028953 
863	 0,17598108683194 
864	 0,17636231378873 
865	 0,175968284904484 
866	 0,176049183568294 
867	 0,17663767228648 
868	 0,176993679517239 
869	 0,176943135004054 
870	 0,176591001924593 
871	 0,177309796171909 
872	 0,178019124615921 
873	 0,17732362071149 
874	 0,176655630094288 
875	 0,176490255736423 
876	 0,177149185245709 
877	 0,178120780440503 
878	 0,178880589018924 
879	 0,178116765670381 
880	 0,177100702723027 
881	 0,177266753787658 
882	 0,177312568905974 
883	 0,177236353345197 
884	 0,177699665199735 
885	 0,178235413183895 
886	 0,178646372111089 
887	 0,178924449950045 
888	 0,17905278394872 
889	 0,179029147190554 
890	 0,178963822075662 
891	 0,178821396541653 
892	 0,178387206620212 
893	 0,178610290551368 
894	 0,179490057076841 
895	 0,17961546860964 
896	 0,179243281570856 
897	 0,178708108808331 
898	 0,178760745421711 
899	 0,179146269969816 
900	 0,179168890963344 
901	 0,179215995642267 
902	 0,179448913778507 
903	 0,180133312097237 
904	 0,18054984661445 
905	 0,180326876776807 
906	 0,18035889715832 
907	 0,180445392781951 
908	 0,180148444693061 
909	 0,180384870647453 
910	 0,180963607385198 
911	 0,180473113344531 
912	 0,180483745088879 
913	 0,181480775773013 
914	 0,181678040343039 
915	 0,181292017431436 
916	 0,180772213679614 
917	 0,180589068656542 
918	 0,180657206979511 
919	 0,180454822471518 
920	 0,180094111451995 
921	 0,179867101435341 
922	 0,181100635181022 
923	 0,181719940187834 
924	 0,180227497669194 
925	 0,180016204626864 
926	 0,180797949263955 
927	 0,181040829660078 
928	 0,181228124020527 
929	 0,181277970058434 
930	 0,180542194448749 
931	 0,18000026034036 
932	 0,180163816467105 
933	 0,180148745157225 
934	 0,180049322840935 
935	 0,180109548754506 
936	 0,18041110785358 
937	 0,180687125975429 
938	 0,180172460559762 
939	 0,179449042623489 
940	 0,179000530238627 
941	 0,180090490795477 
942	 0,180527787880274 
943	 0,178600941348745 
944	 0,177926822604229 
945	 0,178632259356447 
946	 0,179839646323396 
947	 0,179541327414455 
948	 0,17792960585837 
949	 0,178254712881009 
950	 0,178504948038728 
951	 0,177676811757088 
952	 0,177245940058846 
953	 0,177019787563364 
954	 0,176614268279948 
955	 0,176633402219241 
956	 0,176984227600691 
957	 0,177154638869267 
958	 0,177142797420649 
959	 0,176922489786308 
960	 0,176426991606911 
961	 0,176374241991612 
962	 0,177031937125292 
963	 0,175666628017466 
964	 0,174343108778873 
965	 0,1766932368211 
966	 0,177317141872823 
967	 0,175819245653257 
968	 0,175340908866689 
969	 0,175068873522205 
970	 0,17458083165469 
971	 0,172889238489496 
972	 0,172332574748026 
973	 0,174728467497349 
974	 0,175398011517271 
975	 0,175254977653242 
976	 0,177448503313632 
977	 0,177482017116574 
978	 0,175331042769754 
979	 0,175033914360442 
980	 0,176363968797792 
981	 0,178391962599077 
982	 0,176170567076361 
983	 0,173233658381477 
984	 0,173571659191362 
985	 0,175801980731132 
986	 0,178305969982791 
987	 0,178483591077016 
988	 0,178197451358124 
989	 0,177911529450928 
990	 0,177218310407211 
991	 0,176746911863693 
992	 0,176962088954908 
993	 0,178244400437467 
994	 0,180000650402428 
995	 0,181359217590822 
996	 0,179062401622603 
997	 0,175651695491421 
998	 0,177093683308974 
999	 0,178565408715036 
1000	 0,179388863075533 
1001	 0,182763956794315 
1002	 0,182914417835155 
1003	 0,178403464887763 
1004	 0,178766162405706 
1005	 0,180984250983899 
1006	 0,181344501436243 
1007	 0,180552294864083 
1008	 0,179630198559952 
1009	 0,180241470276837 
1010	 0,18114663431219 
1011	 0,181960208596598 
1012	 0,182480193530137 
1013	 0,183438012015292 
1014	 0,184740007000653 
1015	 0,184211755945135 
1016	 0,183075013382438 
1017	 0,182562580616661 
1018	 0,182486514084197 
1019	 0,183599093639949 
1020	 0,186866472626503 
1021	 0,186128870945119 
1022	 0,182834543551742 
1023	 0,185523156555276 
1024	 0,186532650999266 
1025	 0,1845362765303 
1026	 0,18606675513967 
1027	 0,1867891923 
1028	 0,184067551300049 
1029	 0,180622785421524 
1030	 0,179773676940838 
1031	 0,184462855451098 
1032	 0,186593650510733 
1033	 0,186062764686204 
1034	 0,186106662678072 
1035	 0,185301424745155 
1036	 0,184592744469063 
1037	 0,189032743855429 
1038	 0,186639855137175 
1039	 0,176627543782 
1040	 0,184967765141364 
1041	 0,197561473946143 
1042	 0,200739119537531 
1043	 0,19435446552522 
1044	 0,18682477203805 
1045	 0,189973192681285 
1046	 0,193109571482982 
1047	 0,19343044695539 
1048	 0,190144168015368 
1049	 0,185692395988556 
1050	 0,182204796744006 
1051	 0,184517126726484 
1052	 0,184155125380377 
1053	 0,17921586365963 
1054	 0,185006600065763 
1055	 0,191978226223498 
1056	 0,190987698215884 
1057	 0,185828652347392 
1058	 0,181611801969026 
1059	 0,184394670380782 
1060	 0,18624836789479 
1061	 0,185541176605759 
1062	 0,182501048845455 
1063	 0,188445225305345 
1064	 0,198173212836834 
1065	 0,178844294961525 
1066	 0,170876563702032 
1067	 0,187716359258214 
1068	 0,192901580246345 
1069	 0,195158239213103 
1070	 0,200844610788913 
1071	 0,200553628859204 
1072	 0,192837946450997 
1073	 0,178735954534863 
1074	 0,176145445817833 
1075	 0,181010550305032 
