Wavelength	GRA-VIE00647.asd
325	-9,45625081213897E-03 
326	 0,207667045423052 
327	 0,286500425521023 
328	 0,132857874852594 
329	 0,19194914613683 
330	 0,2748823181216 
331	 0,205411658449376 
332	 0,196127132101674 
333	 0,218114861322488 
334	 0,112494904522666 
335	 0,112413483570737 
336	 0,225480361288128 
337	 0,283075532017955 
338	 0,284537197501465 
339	 0,229971478913779 
340	 0,176249829713494 
341	 0,148201284893385 
342	 0,208107622326379 
343	 0,205598268214334 
344	 0,14003567176741 
345	 0,185153831372633 
346	 0,221603273445017 
347	 0,117163510713835 
348	 7,36415786568425E-02 
349	 0,106091285071985 
350	 0,147833962969275 
351	 0,163526391752079 
352	 0,151916349698684 
353	 0,168015521978346 
354	 0,185566895602256 
355	 0,172059220528268 
356	 0,169828016626452 
357	 0,175728964727833 
358	 0,152861499005442 
359	 0,140324988481032 
360	 0,152613918322364 
361	 0,15226270706147 
362	 0,149657649266007 
363	 0,164967888614149 
364	 0,161473535390389 
365	 0,144460773078427 
366	 0,165231587722638 
367	 0,184943878175383 
368	 0,178877189101274 
369	 0,162002257173252 
370	 0,150503516853588 
371	 0,168491722665892 
372	 0,171052328084635 
373	 0,1525024257742 
374	 0,150387656862125 
375	 0,153699395218348 
376	 0,153013350901288 
377	 0,15110143247526 
378	 0,153264560394925 
379	 0,170815477296868 
380	 0,180350833725423 
381	 0,176533428291641 
382	 0,167033810153799 
383	 0,158336915199083 
384	 0,157238030015397 
385	 0,170622319619034 
386	 0,187251004448891 
387	 0,180931422155066 
388	 0,17308444503343 
389	 0,172123923626052 
390	 0,172045341805417 
391	 0,170984596803215 
392	 0,167387659605155 
393	 0,171327287498402 
394	 0,178462883815745 
395	 0,167575121375506 
396	 0,16143811639956 
397	 0,168206689447857 
398	 0,164143239768509 
399	 0,153797762392204 
400	 0,146492259635261 
401	 0,151905953426556 
402	 0,165133250732701 
403	 0,15901751890023 
404	 0,152618234244645 
405	 0,158716729387223 
406	 0,164237024518657 
407	 0,166631889323862 
408	 0,164049674840105 
409	 0,164002200215715 
410	 0,167199811985187 
411	 0,16578596518997 
412	 0,162772698377359 
413	 0,161348230540516 
414	 0,160879416258991 
415	 0,161947866023253 
416	 0,167510364332007 
417	 0,166165805598126 
418	 0,156464244623309 
419	 0,158211903468457 
420	 0,165415308242002 
421	 0,168553244740363 
422	 0,162443429727738 
423	 0,152094279025834 
424	 0,156838206104474 
425	 0,164021029288577 
426	 0,165734901568235 
427	 0,164360557533732 
428	 0,162782209135678 
429	 0,165783253183197 
430	 0,166133193613269 
431	 0,163076348287713 
432	 0,163320856075159 
433	 0,163978939539253 
434	 0,162418620516926 
435	 0,161344448008451 
436	 0,161493522430577 
437	 0,163481365147391 
438	 0,165650677445025 
439	 0,167041011782874 
440	 0,167310563598703 
441	 0,166358194351301 
442	 0,164112233478539 
443	 0,162997083846836 
444	 0,163644220859486 
445	 0,165547024824842 
446	 0,168285975377616 
447	 0,171082895183796 
448	 0,170107669475589 
449	 0,167427097785368 
450	 0,167715652809343 
451	 0,168735137448347 
452	 0,169710530009801 
453	 0,170196850780612 
454	 0,170365254058007 
455	 0,170510256113392 
456	 0,172431263076747 
457	 0,17539177678819 
458	 0,17678391978627 
459	 0,177171692928032 
460	 0,176733248367212 
461	 0,175512024106806 
462	 0,174039215797162 
463	 0,17295811129399 
464	 0,172557046163823 
465	 0,172961489907404 
466	 0,17446339483066 
467	 0,175140127616242 
468	 0,174024959667178 
469	 0,174923018736681 
470	 0,176230826386778 
471	 0,173323124679297 
472	 0,173710107341277 
473	 0,178096763315114 
474	 0,177593338903104 
475	 0,175718838041606 
476	 0,17630220214148 
477	 0,175840255996653 
478	 0,17444284757537 
479	 0,173989132724177 
480	 0,174831764725317 
481	 0,176572556225286 
482	 0,174993072662043 
483	 0,17327801719382 
484	 0,176847401430258 
485	 0,178190666546892 
486	 0,176272679200758 
487	 0,174879264363082 
488	 0,175381369637474 
489	 0,178377487070546 
490	 0,179265812547845 
491	 0,17802794619188 
492	 0,176195643694148 
493	 0,175753385805865 
494	 0,176844847515934 
495	 0,175350174518321 
496	 0,173344456941394 
497	 0,173454042574565 
498	 0,174311162021218 
499	 0,175283777559714 
500	 0,175492489894968 
501	 0,175580930379085 
502	 0,175946235430447 
503	 0,176502189533 
504	 0,177467153750102 
505	 0,179379442630184 
506	 0,180084859903426 
507	 0,179310450129391 
508	 0,178903082370861 
509	 0,179295141403817 
510	 0,180665289692953 
511	 0,180625127445075 
512	 0,179740113626168 
513	 0,180782523643128 
514	 0,181426125602533 
515	 0,180971801039479 
516	 0,181683557189114 
517	 0,182928235002415 
518	 0,183525662975875 
519	 0,184701569360994 
520	 0,186184343932568 
521	 0,186039873993108 
522	 0,185464497376467 
523	 0,185309738834695 
524	 0,184364256318099 
525	 0,18359863643817 
526	 0,185835872245711 
527	 0,186714143051159 
528	 0,185148316699672 
529	 0,184233341327032 
530	 0,184178711717115 
531	 0,184905309362881 
532	 0,184952847498246 
533	 0,184329277409192 
534	 0,184216847910066 
535	 0,18442377562993 
536	 0,184833842995156 
537	 0,18547689792959 
538	 0,185831611319318 
539	 0,184940907566066 
540	 0,184235518355905 
541	 0,184337370386281 
542	 0,185729526474545 
543	 0,186842599446787 
544	 0,186217995466787 
545	 0,186073884303432 
546	 0,186631780901479 
547	 0,18724964961828 
548	 0,187411337908806 
549	 0,186989400021577 
550	 0,18728538320147 
551	 0,187724525459126 
552	 0,187159527322895 
553	 0,187103601080006 
554	 0,18753386118993 
555	 0,186470036795066 
556	 0,185634602184433 
557	 0,186403098352942 
558	 0,186911660580884 
559	 0,18691274669675 
560	 0,18671860004438 
561	 0,186358293006195 
562	 0,185873353076594 
563	 0,185146635430235 
564	 0,184791966389247 
565	 0,185604215500753 
566	 0,185770888472332 
567	 0,185320019081743 
568	 0,186155783478486 
569	 0,187067515697806 
570	 0,187263069667454 
571	 0,187751333585239 
572	 0,188674423011709 
573	 0,190109442048001 
574	 0,190838774807596 
575	 0,190823066002787 
576	 0,192515841685633 
577	 0,194207358913421 
578	 0,193890053223838 
579	 0,195760767898727 
580	 0,199382423984245 
581	 0,200541059168221 
582	 0,200741970934495 
583	 0,200939919346532 
584	 0,201681946385433 
585	 0,2028631323437 
586	 0,204125530273045 
587	 0,205241796189594 
588	 0,206122734957011 
589	 0,20690112133499 
590	 0,207543482970937 
591	 0,208011977330046 
592	 0,208227557493621 
593	 0,208427597015717 
594	 0,209275617604228 
595	 0,210059155842766 
596	 0,210471385885164 
597	 0,21098940967366 
598	 0,211356210515422 
599	 0,211126841585425 
600	 0,210807685253394 
601	 0,210568544024526 
602	 0,210426546001048 
603	 0,210224120489525 
604	 0,209817691798473 
605	 0,20913265582021 
606	 0,208168049297641 
607	 0,206823750228586 
608	 0,206052355522353 
609	 0,205943089588313 
610	 0,204497284412003 
611	 0,203041390422078 
612	 0,203381500165253 
613	 0,203533870714546 
614	 0,20314381609255 
615	 0,202779596298619 
616	 0,202496319827714 
617	 0,202277634237658 
618	 0,201489312064287 
619	 0,200658677535234 
620	 0,200987373059593 
621	 0,201456653482439 
622	 0,201581395555477 
623	 0,200785096317646 
624	 0,20013603059751 
625	 0,200735333247081 
626	 0,201492945051732 
627	 0,20213530114563 
628	 0,202724285635393 
629	 0,202832810605541 
630	 0,202436421910561 
631	 0,203070570912095 
632	 0,20407348116887 
633	 0,204047654354876 
634	 0,204499017288342 
635	 0,20560247986204 
636	 0,206214493042547 
637	 0,206709011029208 
638	 0,207453291422959 
639	 0,208636334354235 
640	 0,210002868443728 
641	 0,210874855363322 
642	 0,211501543994758 
643	 0,212022112635978 
644	 0,212797773741706 
645	 0,213376905446218 
646	 0,213140474961709 
647	 0,21265960873086 
648	 0,212151069214055 
649	 0,211795606080144 
650	 0,211297245487122 
651	 0,21044716492854 
652	 0,209346082192813 
653	 0,208066800097097 
654	 0,206714824177562 
655	 0,205176729082855 
656	 0,203519502467167 
657	 0,20224924941875 
658	 0,200778685663639 
659	 0,198508170735339 
660	 0,196325988729488 
661	 0,194434609745941 
662	 0,192791103453395 
663	 0,191092030265795 
664	 0,189268847937628 
665	 0,188056980990136 
666	 0,187110046391618 
667	 0,185736150154421 
668	 0,184819190424533 
669	 0,184504578354368 
670	 0,184371010158483 
671	 0,184171837088274 
672	 0,183731560075812 
673	 0,183375823611821 
674	 0,18313717471885 
675	 0,182902600356823 
676	 0,182969929537814 
677	 0,183282166487171 
678	 0,182839153010873 
679	 0,182453376827238 
680	 0,183162841387069 
681	 0,183905793207177 
682	 0,184536587994852 
683	 0,18536329531214 
684	 0,186636532312247 
685	 0,188434357992979 
686	 0,189899288937298 
687	 0,19175062579962 
688	 0,195380992050588 
689	 0,200026078635406 
690	 0,205079637986077 
691	 0,208932615029284 
692	 0,213660757215189 
693	 0,221093787301702 
694	 0,22917564140474 
695	 0,237619897627866 
696	 0,246777335371815 
697	 0,256713551909043 
698	 0,267381850200468 
699	 0,278378248450082 
700	 0,289875458330959 
701	 0,302130875596042 
702	 0,314222304363354 
703	 0,326026498549729 
704	 0,338173960920799 
705	 0,349984432116101 
706	 0,36099917292425 
707	 0,371443693950877 
708	 0,381483849019983 
709	 0,391365855144582 
710	 0,40048824168306 
711	 0,408763483038053 
712	 0,416668333068644 
713	 0,424198424767099 
714	 0,431361123540005 
715	 0,438348320767405 
716	 0,444915877291227 
717	 0,450292929531401 
718	 0,455567298286848 
719	 0,461051643409543 
720	 0,465482873157285 
721	 0,469368859550726 
722	 0,47352021482418 
723	 0,47734746896691 
724	 0,480784688788765 
725	 0,48412814567472 
726	 0,487118202529319 
727	 0,489615981689339 
728	 0,491835738686614 
729	 0,494073059367245 
730	 0,496815261343939 
731	 0,498986485848121 
732	 0,500422159618134 
733	 0,502017641122168 
734	 0,503476311045307 
735	 0,504560447187317 
736	 0,506038180715969 
737	 0,507662416390728 
738	 0,50843267974038 
739	 0,509281651760833 
740	 0,510521792523479 
741	 0,511837676142517 
742	 0,512807177033712 
743	 0,513001088818937 
744	 0,513469251527908 
745	 0,514389400657357 
746	 0,515468986254981 
747	 0,516484886129824 
748	 0,517293726676392 
749	 0,517986076589523 
750	 0,518578014202859 
751	 0,519066855217282 
752	 0,519730575519442 
753	 0,520515346245794 
754	 0,52089759767721 
755	 0,521201653727755 
756	 0,521678908506805 
757	 0,522307749396523 
758	 0,522883709345264 
759	 0,522936480698802 
760	 0,52351926889767 
761	 0,524686890950252 
762	 0,524957124471948 
763	 0,52501020053749 
764	 0,525533359988089 
765	 0,525944570032328 
766	 0,526163090735333 
767	 0,526267748320475 
768	 0,526232986522477 
769	 0,52617831116439 
770	 0,526690584134618 
771	 0,527498754898236 
772	 0,528217420115219 
773	 0,528663344585687 
774	 0,528890517200446 
775	 0,529258552199959 
776	 0,529592848729553 
777	 0,529782239912031 
778	 0,52964540336218 
779	 0,529606399880687 
780	 0,530301320011709 
781	 0,530725346125066 
782	 0,530735116221985 
783	 0,530796905928528 
784	 0,531270802340038 
785	 0,532224016015055 
786	 0,532086619395551 
787	 0,531404991853815 
788	 0,531542344700485 
789	 0,531759821646053 
790	 0,531921164673908 
791	 0,53230073898971 
792	 0,532771135594241 
793	 0,533201802437536 
794	 0,533462259148541 
795	 0,53350773497565 
796	 0,533247499777812 
797	 0,533353183722744 
798	 0,533924188679108 
799	 0,534197772561524 
800	 0,534287399493347 
801	 0,53432667823981 
802	 0,534037979743909 
803	 0,533808976727349 
804	 0,534805589334408 
805	 0,53534475028862 
806	 0,535033969402133 
807	 0,535493968421149 
808	 0,536137454408502 
809	 0,536252632273529 
810	 0,536803219074979 
811	 0,537592383710975 
812	 0,537538938946642 
813	 0,537424303259567 
814	 0,537604157128468 
815	 0,537998493325638 
816	 0,538567586918175 
817	 0,539251435572965 
818	 0,539714312205084 
819	 0,539912452511294 
820	 0,539966480942216 
821	 0,540150475325629 
822	 0,540526395473307 
823	 0,540466083199427 
824	 0,540380747140548 
825	 0,540862422229195 
826	 0,54130418882728 
827	 0,54146866878454 
828	 0,541043496894628 
829	 0,540949303070377 
830	 0,54157544726001 
831	 0,541927562872097 
832	 0,542040145755226 
833	 0,542117746475408 
834	 0,542374090762322 
835	 0,542713227607254 
836	 0,542607096187368 
837	 0,542514932270036 
838	 0,542664616475349 
839	 0,542770721573094 
840	 0,542751147018005 
841	 0,542537008020957 
842	 0,542694923555404 
843	 0,543201291240621 
844	 0,543496676779551 
845	 0,54358845252267 
846	 0,543535806436342 
847	 0,543802970287503 
848	 0,54411685394002 
849	 0,544022417623927 
850	 0,54417136338272 
851	 0,544596377129398 
852	 0,544888384491765 
853	 0,544947853601067 
854	 0,544769765565977 
855	 0,544787403827678 
856	 0,54486002962481 
857	 0,544725635369165 
858	 0,545115017541067 
859	 0,54594540447019 
860	 0,546478917966591 
861	 0,546375293671289 
862	 0,545704820685291 
863	 0,546141220944142 
864	 0,54728102062983 
865	 0,548330868220276 
866	 0,548472320599771 
867	 0,547921866708709 
868	 0,54805783787856 
869	 0,54812982700874 
870	 0,547906233312818 
871	 0,548097395674688 
872	 0,548572431715298 
873	 0,549066375521402 
874	 0,548593892637811 
875	 0,547790296135957 
876	 0,549229485710998 
877	 0,549976702769517 
878	 0,549175168309035 
879	 0,549653869250895 
880	 0,550542746953761 
881	 0,550696426422789 
882	 0,55080905836794 
883	 0,550976100946863 
884	 0,551133814564115 
885	 0,55114352614469 
886	 0,551030890847492 
887	 0,551165125413123 
888	 0,551476384706204 
889	 0,55185710801234 
890	 0,552021903683551 
891	 0,552342969056185 
892	 0,553891282494453 
893	 0,554246587255907 
894	 0,553099776857732 
895	 0,552889323302054 
896	 0,553170403688078 
897	 0,553520386466817 
898	 0,553974740810732 
899	 0,554324578869783 
900	 0,55422239820357 
901	 0,554424179831774 
902	 0,555014948945391 
903	 0,555376152473526 
904	 0,555911673854042 
905	 0,556707811415325 
906	 0,556560778794626 
907	 0,555804566555233 
908	 0,555129698420191 
909	 0,555543101334548 
910	 0,556744353225337 
911	 0,556984155730916 
912	 0,556876597476225 
913	 0,556625575728132 
914	 0,555644569605566 
915	 0,555195893876308 
916	 0,556574168277046 
917	 0,557020457550808 
918	 0,556542331049417 
919	 0,556653383916316 
920	 0,556931465541143 
921	 0,557157619795438 
922	 0,556825234678117 
923	 0,55652047833869 
924	 0,556670825962207 
925	 0,556271454814592 
926	 0,555553057362108 
927	 0,555233947009752 
928	 0,554405104426336 
929	 0,553432056014889 
930	 0,554561805345736 
931	 0,55544727392145 
932	 0,554959726512583 
933	 0,555783570593202 
934	 0,556708076857082 
935	 0,555899944505464 
936	 0,555808410176706 
937	 0,556058932098115 
938	 0,55374473102972 
939	 0,553028768456048 
940	 0,554684390221883 
941	 0,55372574451267 
942	 0,552649875520339 
943	 0,553676706244603 
944	 0,553631192714837 
945	 0,552365718787959 
946	 0,550517035192916 
947	 0,550403628176524 
948	 0,551542228896214 
949	 0,549468292569381 
950	 0,54688199901538 
951	 0,545518357216646 
952	 0,545591985633001 
953	 0,545933373894093 
954	 0,54510276030165 
955	 0,543907662981311 
956	 0,542458563177951 
957	 0,540327939129867 
958	 0,540129872520837 
959	 0,541948887784718 
960	 0,541682489568759 
961	 0,540710664692647 
962	 0,5401783190513 
963	 0,539247097776968 
964	 0,539029998178708 
965	 0,541255008339731 
966	 0,542590354960202 
967	 0,541960506256558 
968	 0,538614669223475 
969	 0,537217268318015 
970	 0,539329955651463 
971	 0,541061973579262 
972	 0,541088680113422 
973	 0,538853310272801 
974	 0,539281830197954 
975	 0,541033793281356 
976	 0,540166594657856 
977	 0,539898206347564 
978	 0,540570996526385 
979	 0,540174606774289 
980	 0,540576616022197 
981	 0,542240905195629 
982	 0,541998581500239 
983	 0,542329087270717 
984	 0,545516816251382 
985	 0,544804220141145 
986	 0,541732883354184 
987	 0,541635576797309 
988	 0,542834362723347 
989	 0,544715408326757 
990	 0,546576452336376 
991	 0,548154537777536 
992	 0,549003516204325 
993	 0,547404356793156 
994	 0,546798160488769 
995	 0,550377463594246 
996	 0,551618358999261 
997	 0,5504226623185 
998	 0,548884762268438 
999	 0,550868807061277 
1000	 0,555433461671664 
1001	 0,555463957662579 
1002	 0,551930572961611 
1003	 0,547126823060674 
1004	 0,550424066626237 
1005	 0,555612835247631 
1006	 0,556050162866733 
1007	 0,555358108895445 
1008	 0,555621472607867 
1009	 0,559530558230175 
1010	 0,559917287008238 
1011	 0,557000054949463 
1012	 0,558280328478713 
1013	 0,55931206188601 
1014	 0,558882538204275 
1015	 0,560856011686186 
1016	 0,563453319591909 
1017	 0,564931882325961 
1018	 0,566463930596898 
1019	 0,566215258392363 
1020	 0,561496965455064 
1021	 0,561078854932321 
1022	 0,565790578906696 
1023	 0,572399462370783 
1024	 0,572622066086368 
1025	 0,566178702082783 
1026	 0,566840882129909 
1027	 0,568952765877763 
1028	 0,569101783269622 
1029	 0,572511741322343 
1030	 0,575945039248532 
1031	 0,575127214054044 
1032	 0,572396010368402 
1033	 0,570410287501371 
1034	 0,57346697371672 
1035	 0,577305005589463 
1036	 0,578851177470661 
1037	 0,5715775647753 
1038	 0,569002906331752 
1039	 0,575383805356654 
1040	 0,57674942054422 
1041	 0,575174897449605 
1042	 0,573269858726131 
1043	 0,573536932403753 
1044	 0,573583093227796 
1045	 0,569893652497421 
1046	 0,567945997108407 
1047	 0,570560843773924 
1048	 0,581628086532898 
1049	 0,581733160110728 
1050	 0,570833853843234 
1051	 0,575085492137684 
1052	 0,580787718574087 
1053	 0,581659322700164 
1054	 0,583310661855634 
1055	 0,583423363523304 
1056	 0,580424690760058 
1057	 0,580161107799485 
1058	 0,581220532393485 
1059	 0,580560019365319 
1060	 0,585050119165831 
1061	 0,58688262255604 
1062	 0,565319470375509 
1063	 0,564264641130537 
1064	 0,585407613782775 
1065	 0,580895935754825 
1066	 0,573831169567436 
1067	 0,574115600095801 
1068	 0,578761507100967 
1069	 0,581173791142299 
1070	 0,576849084125539 
1071	 0,572419937168847 
1072	 0,568603699494577 
1073	 0,565861138449015 
1074	 0,575948800622931 
1075	 0,587425249944733 
