Wavelength	GRA-BER00009.asd
325	 0,302953463457308 
326	 0,5056464006611 
327	 0,46121695002322 
328	 0,219311825526866 
329	 0,282483116469839 
330	 0,406174784620026 
331	 0,37178079695209 
332	 0,322713706888032 
333	 0,288742776004124 
334	 0,266779890260209 
335	 0,207654297949047 
336	 0,144155703474603 
337	 0,254939283001085 
338	 0,33683098237725 
339	 0,249800420458407 
340	 0,248342807793563 
341	 0,302461755076043 
342	 0,231860696821601 
343	 0,192130995560398 
344	 0,224195710053669 
345	 0,22885376920232 
346	 0,212762066960294 
347	 0,189043706524184 
348	 0,173635759527494 
349	 0,174375645148115 
350	 0,215112147559195 
351	 0,225028905098329 
352	 0,190697508671344 
353	 0,199186988701855 
354	 0,231653295060066 
355	 0,253676631246548 
356	 0,250335868890948 
357	 0,23083007226675 
358	 0,226889052732975 
359	 0,230383880536204 
360	 0,236405842367098 
361	 0,241760596309142 
362	 0,241911002359143 
363	 0,230451352997663 
364	 0,237345119496149 
365	 0,251642785373352 
366	 0,208327634710191 
367	 0,178865368561367 
368	 0,205102411020996 
369	 0,217978055187943 
370	 0,221362440052744 
371	 0,240233604528824 
372	 0,237038893100796 
373	 0,216691229470825 
374	 0,245022770386362 
375	 0,268113079242573 
376	 0,247946722536804 
377	 0,239813226074567 
378	 0,248156109181007 
379	 0,265037767373681 
380	 0,258200931272674 
381	 0,226544956348131 
382	 0,227318760959249 
383	 0,239097740903784 
384	 0,23915876338947 
385	 0,236778926908644 
386	 0,235451769464989 
387	 0,241889169755836 
388	 0,242902966906193 
389	 0,235743460940738 
390	 0,234956667043837 
391	 0,237784787257321 
392	 0,239222990151978 
393	 0,245482466151031 
394	 0,252514017281156 
395	 0,245560002750101 
396	 0,241026859995246 
397	 0,245903913652696 
398	 0,239022896488539 
399	 0,231221586987257 
400	 0,24157282797977 
401	 0,247841492640644 
402	 0,245445219593042 
403	 0,239130638657038 
404	 0,238934598321718 
405	 0,24957263951873 
406	 0,246134970084468 
407	 0,236129427900145 
408	 0,242117218739343 
409	 0,239558079340815 
410	 0,226251048355812 
411	 0,225498311212597 
412	 0,230609460427198 
413	 0,234209987568121 
414	 0,239198011798013 
415	 0,24381752290504 
416	 0,243657880551465 
417	 0,241551606648015 
418	 0,239141584695212 
419	 0,238493273018269 
420	 0,237334726752465 
421	 0,23258980981451 
422	 0,230554456887232 
423	 0,231890066848685 
424	 0,233092386235098 
425	 0,237466672870105 
426	 0,245333230931528 
427	 0,242830878636255 
428	 0,23582816529524 
429	 0,237840724721533 
430	 0,240844173074588 
431	 0,242080222329283 
432	 0,239430931030876 
433	 0,238624036041367 
434	 0,244112370502473 
435	 0,243928554855495 
436	 0,239711570552248 
437	 0,241524831577986 
438	 0,242371201361444 
439	 0,240424467852562 
440	 0,241763246970436 
441	 0,24391021620716 
442	 0,243204188815859 
443	 0,243448081787175 
444	 0,24449044305179 
445	 0,242265446506084 
446	 0,242444715150113 
447	 0,247472344021444 
448	 0,245667798122841 
449	 0,241265685494671 
450	 0,245078885489296 
451	 0,247769151210301 
452	 0,24721736807853 
453	 0,247380437935295 
454	 0,247890528074807 
455	 0,248335607495902 
456	 0,250459358892092 
457	 0,252742815581359 
458	 0,250300863563698 
459	 0,248485910069099 
460	 0,249656179983794 
461	 0,253129419856593 
462	 0,255273351020343 
463	 0,251558135117559 
464	 0,248915258364595 
465	 0,248836150267519 
466	 0,249752654499964 
467	 0,250168221570499 
468	 0,249431075045901 
469	 0,251808048058907 
470	 0,255163859814252 
471	 0,254192698979834 
472	 0,252903090704226 
473	 0,252300938651383 
474	 0,250424504208388 
475	 0,249726854431683 
476	 0,252479786751612 
477	 0,254028665133126 
478	 0,253301075580814 
479	 0,249855904739599 
480	 0,247729918043193 
481	 0,248775529532739 
482	 0,250745915634997 
483	 0,251743659075225 
484	 0,249424938361711 
485	 0,247639289673579 
486	 0,247128500053167 
487	 0,245950427869766 
488	 0,245975596166032 
489	 0,248297596993331 
490	 0,248889006061514 
491	 0,248021186812724 
492	 0,247960807761416 
493	 0,247490772789356 
494	 0,246324626956211 
495	 0,244643961229448 
496	 0,243914791335482 
497	 0,245686315587453 
498	 0,245401511550216 
499	 0,243520472305718 
500	 0,24475501786749 
501	 0,246551076921745 
502	 0,247486007325406 
503	 0,24860333545537 
504	 0,249590495230997 
505	 0,249800378020632 
506	 0,249115632400662 
507	 0,248142995342966 
508	 0,249580177957831 
509	 0,250774684196647 
510	 0,249405858402649 
511	 0,249031808671154 
512	 0,249495741704846 
513	 0,248421955895531 
514	 0,248089953170082 
515	 0,249136788443743 
516	 0,248921741059653 
517	 0,248451333156021 
518	 0,249517475082009 
519	 0,2491480586635 
520	 0,247653805286505 
521	 0,249067143489206 
522	 0,250417354904454 
523	 0,249592618469794 
524	 0,248624532696994 
525	 0,248111269005049 
526	 0,248708735252128 
527	 0,248903368221271 
528	 0,248309539115147 
529	 0,248046721729171 
530	 0,248092272901705 
531	 0,248316295141275 
532	 0,249152543440366 
533	 0,249994695795345 
534	 0,248718877417458 
535	 0,247518562105714 
536	 0,24767195351352 
537	 0,248018274595299 
538	 0,248334192500057 
539	 0,248529411034008 
540	 0,248595864432145 
541	 0,24855972824367 
542	 0,248536726857937 
543	 0,248612928915907 
544	 0,248879603126721 
545	 0,249664629419318 
546	 0,25085483022729 
547	 0,252199412726684 
548	 0,252584799728507 
549	 0,251633200239727 
550	 0,251040832217515 
551	 0,250889708655262 
552	 0,250953983568735 
553	 0,251079638689624 
554	 0,251143693740433 
555	 0,250875526082979 
556	 0,250966132422059 
557	 0,251872683339129 
558	 0,251720146751623 
559	 0,250995230277245 
560	 0,251993232845702 
561	 0,251885650198994 
562	 0,250099533227594 
563	 0,250336610837534 
564	 0,251767934693623 
565	 0,25286337509378 
566	 0,253334974031346 
567	 0,253334579211488 
568	 0,253909387076993 
569	 0,254562864307957 
570	 0,254949546259495 
571	 0,255168947562614 
572	 0,255580041361728 
573	 0,256968030363386 
574	 0,258071126454646 
575	 0,258690710134586 
576	 0,260359009088254 
577	 0,262387846404862 
578	 0,26389045433226 
579	 0,265194034299157 
580	 0,26615600564863 
581	 0,266202263124723 
582	 0,266070758841949 
583	 0,266269811753135 
584	 0,267050157677586 
585	 0,267860628432006 
586	 0,267701832439161 
587	 0,26724703838621 
588	 0,266920720326424 
589	 0,267544485975895 
590	 0,268184529638766 
591	 0,268007766672287 
592	 0,268649748865293 
593	 0,269883704704195 
594	 0,270338367413994 
595	 0,270280136679642 
596	 0,269805702300569 
597	 0,2688936504477 
598	 0,268098861080336 
599	 0,268200573955607 
600	 0,268482505869859 
601	 0,268618261355384 
602	 0,268173458208285 
603	 0,268041594179507 
604	 0,268789846168744 
605	 0,268411187721089 
606	 0,26703677632785 
607	 0,265693475318108 
608	 0,265089066102725 
609	 0,265296628575501 
610	 0,264610494548104 
611	 0,263591095337087 
612	 0,263109769588265 
613	 0,26310349906646 
614	 0,263258844565289 
615	 0,262580058293041 
616	 0,261811837566342 
617	 0,261451977854125 
618	 0,26136109253437 
619	 0,261317468531807 
620	 0,260862371910814 
621	 0,260900458665005 
622	 0,261547597041468 
623	 0,261805144386803 
624	 0,261925492012184 
625	 0,262230229382114 
626	 0,262674656462761 
627	 0,263164129024327 
628	 0,263475867664639 
629	 0,263619773068005 
630	 0,263687620973947 
631	 0,26427674457478 
632	 0,265105027724418 
633	 0,265607564747129 
634	 0,266085086518707 
635	 0,26663773407348 
636	 0,267293828580415 
637	 0,268146365068717 
638	 0,269241625118464 
639	 0,270174298887401 
640	 0,270899756540608 
641	 0,271600273255672 
642	 0,271875650067734 
643	 0,271755076130521 
644	 0,272419900741482 
645	 0,273192823703816 
646	 0,273059922176417 
647	 0,273174141753523 
648	 0,273422020661403 
649	 0,272390563953719 
650	 0,271296777897896 
651	 0,270888530359803 
652	 0,269942333566367 
653	 0,268621496603472 
654	 0,267541962470521 
655	 0,266943665875901 
656	 0,266794318039467 
657	 0,266519502774789 
658	 0,265626378104423 
659	 0,263725378424263 
660	 0,262663136339589 
661	 0,262276843299303 
662	 0,260774491384872 
663	 0,259498960928801 
664	 0,259062820584798 
665	 0,258673293117921 
666	 0,258230848693169 
667	 0,257738147145549 
668	 0,25722146330788 
669	 0,256721907151886 
670	 0,256310584105729 
671	 0,256109154623302 
672	 0,256186416851931 
673	 0,256173725005894 
674	 0,256158916860969 
675	 0,256547891705198 
676	 0,256896968422932 
677	 0,257066229289959 
678	 0,257284226790325 
679	 0,25759368560045 
680	 0,258020020880578 
681	 0,25832818134982 
682	 0,258608484021617 
683	 0,25934122573156 
684	 0,260011816460353 
685	 0,260489674279665 
686	 0,262193528909305 
687	 0,264775252550333 
688	 0,267281158712425 
689	 0,270025441761766 
690	 0,273267430276745 
691	 0,27765226370173 
692	 0,282910257679489 
693	 0,288758391888905 
694	 0,295083761780399 
695	 0,302016059669376 
696	 0,310004268576351 
697	 0,31848334121381 
698	 0,327277533280991 
699	 0,336891599558221 
700	 0,34707096301873 
701	 0,357456052516213 
702	 0,367924676335669 
703	 0,37834875840834 
704	 0,388748456900577 
705	 0,398770531691237 
706	 0,408208440443197 
707	 0,417742881264445 
708	 0,427120492698096 
709	 0,435684971836601 
710	 0,443968046914379 
711	 0,452026062529577 
712	 0,459401375211829 
713	 0,466285306206567 
714	 0,472896609625934 
715	 0,479387462494289 
716	 0,485569508232486 
717	 0,490882771589495 
718	 0,495897923923892 
719	 0,500815301144546 
720	 0,505331496956461 
721	 0,509397728236303 
722	 0,512986708995285 
723	 0,517108771967194 
724	 0,521444713209257 
725	 0,524028313615087 
726	 0,526506795021253 
727	 0,529783980093483 
728	 0,532286184031006 
729	 0,534330241624296 
730	 0,536897332907608 
731	 0,538701081653767 
732	 0,539694177403544 
733	 0,541317685285136 
734	 0,54319665965627 
735	 0,544922893614376 
736	 0,546112672757628 
737	 0,547040015312226 
738	 0,548670702083623 
739	 0,549753995494028 
740	 0,550076881103114 
741	 0,551261449351603 
742	 0,552620489296497 
743	 0,553224683968786 
744	 0,553712716588481 
745	 0,554332591688569 
746	 0,555420493029529 
747	 0,556319120983846 
748	 0,556730936098641 
749	 0,557373777082164 
750	 0,557995668404575 
751	 0,558057751427686 
752	 0,55870049682534 
753	 0,559825801129766 
754	 0,559812622066832 
755	 0,559676396598101 
756	 0,560148410607515 
757	 0,560571129532727 
758	 0,560922714382376 
759	 0,561404443704722 
760	 0,561484210144842 
761	 0,561181081570852 
762	 0,561433186312624 
763	 0,561842790720967 
764	 0,561993369110367 
765	 0,562062948192791 
766	 0,562133489345237 
767	 0,562370429895078 
768	 0,562460583381981 
769	 0,562328137649539 
770	 0,562259230874347 
771	 0,562483746273806 
772	 0,563212033883513 
773	 0,563443751430052 
774	 0,563145538269451 
775	 0,562923992846761 
776	 0,563083892289776 
777	 0,563675598235524 
778	 0,563687904607239 
779	 0,563497001396915 
780	 0,563823777710145 
781	 0,564124890639969 
782	 0,564245228292026 
783	 0,56414928558616 
784	 0,564077391218758 
785	 0,564224568134285 
786	 0,56479254374948 
787	 0,565357493276486 
788	 0,565129328174528 
789	 0,564956629028683 
790	 0,565070379292591 
791	 0,565283074323762 
792	 0,565319326985475 
793	 0,56503423319915 
794	 0,565374637367346 
795	 0,565925826700314 
796	 0,565433957348924 
797	 0,565147520507155 
798	 0,56539435074446 
799	 0,565668227218957 
800	 0,5655124547204 
801	 0,564633788590519 
802	 0,564748151813588 
803	 0,565619426139057 
804	 0,565799520286727 
805	 0,565925097075678 
806	 0,56608671063038 
807	 0,565615326252652 
808	 0,565432793106137 
809	 0,566476223708354 
810	 0,566724225472031 
811	 0,566275124915418 
812	 0,566673091644112 
813	 0,566924821072158 
814	 0,566746754373025 
815	 0,566938691115885 
816	 0,567417198090488 
817	 0,567987443329782 
818	 0,568186359119079 
819	 0,568156326626583 
820	 0,568655601829701 
821	 0,569345857052481 
822	 0,569961377247234 
823	 0,569960277792974 
824	 0,569627330704445 
825	 0,569410935886097 
826	 0,569708880426749 
827	 0,570224473510837 
828	 0,569625966234533 
829	 0,569225034307271 
830	 0,569634039595181 
831	 0,570077133510647 
832	 0,570032471946886 
833	 0,568939517745132 
834	 0,568964039727818 
835	 0,56999793647961 
836	 0,569800414013389 
837	 0,569319676876772 
838	 0,569180077348451 
839	 0,570042311028271 
840	 0,570872379299284 
841	 0,570145617989672 
842	 0,569493550708463 
843	 0,569291694191566 
844	 0,569253747324283 
845	 0,569368400241239 
846	 0,569580123973131 
847	 0,56964070167072 
848	 0,569715138005155 
849	 0,570075684534493 
850	 0,570054992070882 
851	 0,569757347079449 
852	 0,570127027701711 
853	 0,57033852898321 
854	 0,570050515870645 
855	 0,570184546186175 
856	 0,570586625085141 
857	 0,57090866320501 
858	 0,571032724466303 
859	 0,571001723660383 
860	 0,571110387151582 
861	 0,5711473253968 
862	 0,571064437103227 
863	 0,571220729183171 
864	 0,571642150542151 
865	 0,572293583920324 
866	 0,572378427327865 
867	 0,571973957400186 
868	 0,571894242743842 
869	 0,57213321406585 
870	 0,572592771853429 
871	 0,572606265926831 
872	 0,572364429290998 
873	 0,572180880723082 
874	 0,571941315474137 
875	 0,571723396256296 
876	 0,571687380721364 
877	 0,572170045847311 
878	 0,573036875122089 
879	 0,572692620629783 
880	 0,572167150294593 
881	 0,572664001653132 
882	 0,573271662769175 
883	 0,573608019573402 
884	 0,573208023902424 
885	 0,572486227377698 
886	 0,571844800567289 
887	 0,572342348455579 
888	 0,572910723895517 
889	 0,572557944074971 
890	 0,572604864707893 
891	 0,573101252830475 
892	 0,57372746632743 
893	 0,573555597378443 
894	 0,572670156145458 
895	 0,572981437996274 
896	 0,573440317889027 
897	 0,573229353623528 
898	 0,573217151863066 
899	 0,57344554411568 
900	 0,573769654549882 
901	 0,574007770559374 
902	 0,573935093181797 
903	 0,572941189568835 
904	 0,572360556177082 
905	 0,572875267947893 
906	 0,572727380284698 
907	 0,572474888893898 
908	 0,573200363453114 
909	 0,572834318058593 
910	 0,571690946983446 
911	 0,572363041072602 
912	 0,573175762651406 
913	 0,573282276644013 
914	 0,572722350747248 
915	 0,572155477689705 
916	 0,572283854797517 
917	 0,572322257673465 
918	 0,572152618039771 
919	 0,571879312337372 
920	 0,571719105127116 
921	 0,571631260540716 
922	 0,570934180915181 
923	 0,570511868748126 
924	 0,570960319007324 
925	 0,570435038731267 
926	 0,569312038447226 
927	 0,568741185691829 
928	 0,569319533709888 
929	 0,570347830157058 
930	 0,568515655434359 
931	 0,566997704242888 
932	 0,567407911410968 
933	 0,566980041307348 
934	 0,565857100747141 
935	 0,564649385318508 
936	 0,565020595974263 
937	 0,56625825524039 
938	 0,565190494051135 
939	 0,564457969132012 
940	 0,564729768510628 
941	 0,564081488497399 
942	 0,563039569566622 
943	 0,562193967333297 
944	 0,561847899757273 
945	 0,561216223945114 
946	 0,558705062641155 
947	 0,557392288022471 
948	 0,557525931067864 
949	 0,556494909590386 
950	 0,55521707711575 
951	 0,554075354364132 
952	 0,552032773534794 
953	 0,550108445493561 
954	 0,54957569030504 
955	 0,549427023644136 
956	 0,548771909179067 
957	 0,545789738754979 
958	 0,544046346560774 
959	 0,544304044238642 
960	 0,54366507686046 
961	 0,542764699002199 
962	 0,542146068817755 
963	 0,541590579506641 
964	 0,540985514095651 
965	 0,540199938699375 
966	 0,539329762750322 
967	 0,538837445803855 
968	 0,540251304578555 
969	 0,540420571384327 
970	 0,538539978586998 
971	 0,538398466757586 
972	 0,538389693440828 
973	 0,537038254583744 
974	 0,537084185910833 
975	 0,537904274615166 
976	 0,537617050034985 
977	 0,536802241531816 
978	 0,536100787274215 
979	 0,537259038960701 
980	 0,537846441547623 
981	 0,536980484743704 
982	 0,537240638064608 
983	 0,53799407410356 
984	 0,538345130268473 
985	 0,538132756574735 
986	 0,53743331952521 
987	 0,536425948476597 
988	 0,536674631240946 
989	 0,538065207115701 
990	 0,53840654222124 
991	 0,538287386205358 
992	 0,538310435838224 
993	 0,540288162497828 
994	 0,541754585983619 
995	 0,54028930639767 
996	 0,54027949193842 
997	 0,54168463177459 
998	 0,542815440633646 
999	 0,543708194804926 
1000	 0,544352350061414 
1001	 0,545176627234882 
1002	 0,544962635517064 
1003	 0,54350044764025 
1004	 0,543077472676808 
1005	 0,544179480148358 
1006	 0,546813000495439 
1007	 0,548603050455162 
1008	 0,548697332565256 
1009	 0,546439073032274 
1010	 0,546870733554537 
1011	 0,550197832688462 
1012	 0,552613660493408 
1013	 0,551063564531121 
1014	 0,54633730660486 
1015	 0,550357728944787 
1016	 0,555131351320269 
1017	 0,553693855955696 
1018	 0,551712588165618 
1019	 0,550530623918935 
1020	 0,550833799217707 
1021	 0,552545954273812 
1022	 0,554763159179563 
1023	 0,554971063624847 
1024	 0,558188846584874 
1025	 0,563143371018994 
1026	 0,556189323980967 
1027	 0,551054042118513 
1028	 0,555917159515437 
1029	 0,558168403810356 
1030	 0,559143746752546 
1031	 0,56159145494184 
1032	 0,5589226521121 
1033	 0,554835273663343 
1034	 0,559154388840581 
1035	 0,560605259483913 
1036	 0,558629281248763 
1037	 0,563195006075946 
1038	 0,566162032467674 
1039	 0,564194964547393 
1040	 0,560828866982528 
1041	 0,557448389511182 
1042	 0,555740735043515 
1043	 0,559875956421373 
1044	 0,567468858829387 
1045	 0,574044683688245 
1046	 0,570775228797552 
1047	 0,562407537805314 
1048	 0,564514133575468 
1049	 0,566136986985057 
1050	 0,564888025291106 
1051	 0,564196879441542 
1052	 0,566612589701992 
1053	 0,571781924230587 
1054	 0,570935180442517 
1055	 0,568102426999422 
1056	 0,567084567124636 
1057	 0,563903670805286 
1058	 0,562750927825596 
1059	 0,569244050970901 
1060	 0,571362751842901 
1061	 0,569389951530184 
1062	 0,569989722877307 
1063	 0,572068374146605 
1064	 0,575438894500723 
1065	 0,58115290690671 
1066	 0,580489099866448 
1067	 0,572679411847838 
1068	 0,577057216789908 
1069	 0,580985423928741 
1070	 0,575192073839678 
1071	 0,569297550513005 
1072	 0,563949916407684 
1073	 0,559103653723582 
1074	 0,56659282408109 
1075	 0,577309938082161 
