Wavelength	GRA-VIE00942.asd
325	 0,314687607054682 
326	 0,426010863841698 
327	 0,481622610843427 
328	 0,410601465601993 
329	 0,350509697607974 
330	 0,286444226348953 
331	 0,260297389643945 
332	 0,251738511142204 
333	 0,239080641138535 
334	 0,1772246721689 
335	 0,248024000188978 
336	 0,39550728587416 
337	 0,377763765502496 
338	 0,295683356814243 
339	 0,219358778358952 
340	 0,168068753268402 
341	 0,160142986962687 
342	 0,250253708850084 
343	 0,272985779675937 
344	 0,216504297619411 
345	 0,218141640156287 
346	 0,223777247318586 
347	 0,173640139007202 
348	 0,133609231297849 
349	 0,119993772813435 
350	 0,149210309362183 
351	 0,129558778428094 
352	 5,43887812019166E-02 
353	 0,106803114760406 
354	 0,18722030556559 
355	 0,171865986558872 
356	 0,181506804750141 
357	 0,207687625298566 
358	 0,153897706963923 
359	 0,109634157579481 
360	 0,111480799660138 
361	 0,10447586120635 
362	 0,101086585240956 
363	 0,125845655144183 
364	 0,123628557281351 
365	 9,54550970055682E-02 
366	 9,25736734086805E-02 
367	 0,104367528491588 
368	 0,119916507147386 
369	 0,112794883740629 
370	 9,80931736189979E-02 
371	 0,107148578303585 
372	 0,108632577038996 
373	 9,81130511951575E-02 
374	 0,098366926488109 
375	 9,57492979261784E-02 
376	 8,01728694202203E-02 
377	 0,068444767684874 
378	 6,73897124579992E-02 
379	 8,38791311109262E-02 
380	 9,75070483835174E-02 
381	 0,102963128409915 
382	 0,108061494203754 
383	 0,108152326446338 
384	 9,89297661965038E-02 
385	 9,67794241730939E-02 
386	 9,81779337686386E-02 
387	 8,38363114629108E-02 
388	 8,21576825206972E-02 
389	 9,83174609757741E-02 
390	 9,26451153614583E-02 
391	 8,21205227171282E-02 
392	 9,00524518996421E-02 
393	 8,15350328857966E-02 
394	 6,25143333680809E-02 
395	 7,59505846546164E-02 
396	 8,88830985739513E-02 
397	 8,62133233659234E-02 
398	 8,03494176413669E-02 
399	 7,23927642302828E-02 
400	 6,03580780008269E-02 
401	 6,11147286600737E-02 
402	 7,14294422275735E-02 
403	 6,11374877996327E-02 
404	 5,75597730426042E-02 
405	 7,62023203609705E-02 
406	 7,28359650303872E-02 
407	 0,057865523874149 
408	 6,60655601435486E-02 
409	 6,77220459396167E-02 
410	 5,82558658743486E-02 
411	 5,58386550836159E-02 
412	 0,058159639321883 
413	 6,16651107599624E-02 
414	 5,81933070696412E-02 
415	 5,03231783261522E-02 
416	 4,87322460981282E-02 
417	 4,84152084471746E-02 
418	 4,78806505449428E-02 
419	 5,10326756967726E-02 
420	 5,33161309545914E-02 
421	 4,87611325712604E-02 
422	 4,91020433868041E-02 
423	 5,38691297201479E-02 
424	 5,35162057448541E-02 
425	 0,047041186064447 
426	 3,61878545211879E-02 
427	 4,14508410808569E-02 
428	 5,37531909787947E-02 
429	 5,30735775517577E-02 
430	 4,95232672779587E-02 
431	 4,68859782523247E-02 
432	 4,87660586403701E-02 
433	 5,05277250396352E-02 
434	 4,83313844768588E-02 
435	 4,99509212219289E-02 
436	 5,35746164661328E-02 
437	 5,12725869110797E-02 
438	 4,81598843127004E-02 
439	 4,68530947235475E-02 
440	 4,98043933672779E-02 
441	 5,25530733627239E-02 
442	 4,95275910339001E-02 
443	 4,50444990378586E-02 
444	 4,23319676646945E-02 
445	 4,83980784255939E-02 
446	 5,30650749942449E-02 
447	 5,05630981342211E-02 
448	 0,049205017905234 
449	 4,92576178337765E-02 
450	 4,90289454507692E-02 
451	 4,84922197326877E-02 
452	 4,78830159606717E-02 
453	 4,83701383333248E-02 
454	 4,96320259886832E-02 
455	 5,11308575130619E-02 
456	 0,049853932315952 
457	 4,71684189031559E-02 
458	 4,83087236081675E-02 
459	 4,90259693504062E-02 
460	 0,047846112400533 
461	 4,74945517489556E-02 
462	 4,75454958244293E-02 
463	 4,70948707630888E-02 
464	 4,71897779075666E-02 
465	 4,76955203605145E-02 
466	 4,73206792679966E-02 
467	 0,046589607813555 
468	 4,60996657699355E-02 
469	 4,84267302132642E-02 
470	 0,050380467770857 
471	 4,46053152613672E-02 
472	 4,25168124506159E-02 
473	 4,64908127067807E-02 
474	 4,84648604219091E-02 
475	 4,88807611472521E-02 
476	 4,86719697991102E-02 
477	 4,88399827296875E-02 
478	 4,89257956725397E-02 
479	 4,67855824628067E-02 
480	 4,51556173889793E-02 
481	 4,50345414897775E-02 
482	 4,31406814366901E-02 
483	 4,18512201811435E-02 
484	 4,51746582654061E-02 
485	 4,78322403880704E-02 
486	 4,81385247997972E-02 
487	 4,54298125628109E-02 
488	 4,42505554824689E-02 
489	 4,75798018264509E-02 
490	 4,87107152745375E-02 
491	 4,72074961448884E-02 
492	 4,42730171020046E-02 
493	 4,31773170618869E-02 
494	 4,48505137115511E-02 
495	 4,66503107682829E-02 
496	 4,70462447175455E-02 
497	 4,46856383553058E-02 
498	 4,41436211744276E-02 
499	 4,52576074495059E-02 
500	 4,37854925938687E-02 
501	 4,32295822890952E-02 
502	 4,52270081088136E-02 
503	 4,59024599019161E-02 
504	 4,59266921160839E-02 
505	 4,75940151390436E-02 
506	 4,71304946133279E-02 
507	 4,43121816384483E-02 
508	 4,30704715932837E-02 
509	 4,28743188556995E-02 
510	 4,30638806370408E-02 
511	 4,35585050061361E-02 
512	 4,41719925233097E-02 
513	 4,47521328101809E-02 
514	 4,47390393579822E-02 
515	 4,41209107876783E-02 
516	 0,044496350423676 
517	 4,53479693846499E-02 
518	 4,57601449356355E-02 
519	 4,58229720757774E-02 
520	 4,55422908534036E-02 
521	 4,47177193828814E-02 
522	 4,48840172133932E-02 
523	 0,046821227988049 
524	 4,62617507509053E-02 
525	 0,044457178086488 
526	 0,045876142993559 
527	 4,68304094949204E-02 
528	 4,62402590890989E-02 
529	 4,54221527490031E-02 
530	 4,48696078177654E-02 
531	 4,50083436909214E-02 
532	 4,55606776347423E-02 
533	 4,62014911922417E-02 
534	 4,61662950958327E-02 
535	 4,63059053383993E-02 
536	 4,70810646485494E-02 
537	 4,79874953273194E-02 
538	 4,84083783034824E-02 
539	 4,73074794243806E-02 
540	 4,66553853129061E-02 
541	 0,047013357777938 
542	 4,76371993495871E-02 
543	 4,81434543503837E-02 
544	 4,82294870339887E-02 
545	 4,87627808258519E-02 
546	 4,96467339821074E-02 
547	 5,01078095083254E-02 
548	 5,05988311547969E-02 
549	 5,12493257267257E-02 
550	 5,13768720530648E-02 
551	 0,051441719285476 
552	 5,22405396552332E-02 
553	 0,053486182769331 
554	 5,46880957638063E-02 
555	 5,42976478517056E-02 
556	 0,053925211560762 
557	 5,49259679853302E-02 
558	 5,65047611056897E-02 
559	 5,79837670668302E-02 
560	 5,81055623542986E-02 
561	 0,058169075702353 
562	 0,058692459849122 
563	 5,92736486133964E-02 
564	 5,99179597809726E-02 
565	 6,06683740495479E-02 
566	 6,14568267610065E-02 
567	 0,06208207231209 
568	 6,20235065969733E-02 
569	 6,16145793259983E-02 
570	 6,11830706616616E-02 
571	 6,14060648897727E-02 
572	 6,19447782105003E-02 
573	 6,19115673570661E-02 
574	 6,11065833195415E-02 
575	 5,99485293044011E-02 
576	 6,12809942181823E-02 
577	 6,22991156228189E-02 
578	 5,97691814925208E-02 
579	 5,91828840545928E-02 
580	 6,07297534810706E-02 
581	 6,10672747829335E-02 
582	 6,00916413898653E-02 
583	 5,80400501997948E-02 
584	 5,77240103618142E-02 
585	 5,84588963091708E-02 
586	 5,83608668784737E-02 
587	 0,058002955452142 
588	 0,057651335033808 
589	 5,79425398405784E-02 
590	 5,81723589919575E-02 
591	 5,77094284351547E-02 
592	 5,77383773113612E-02 
593	 5,82082955321612E-02 
594	 5,83144941880238E-02 
595	 5,84708552085408E-02 
596	 5,88498565355785E-02 
597	 5,94167887264414E-02 
598	 5,97472501944416E-02 
599	 5,92134890869251E-02 
600	 5,90875980328283E-02 
601	 5,95402423714297E-02 
602	 5,98246764278395E-02 
603	 5,94838287947611E-02 
604	 5,82445842546935E-02 
605	 5,71973870507792E-02 
606	 5,64539491121124E-02 
607	 5,57658347485895E-02 
608	 5,49448691697895E-02 
609	 0,053956048425455 
610	 5,30888122974422E-02 
611	 0,052468983904583 
612	 5,22090959715218E-02 
613	 5,17779945845053E-02 
614	 5,11091450564463E-02 
615	 5,04198862169439E-02 
616	 5,01061750854834E-02 
617	 5,03154121413354E-02 
618	 4,99092271190625E-02 
619	 4,91757039833045E-02 
620	 4,90015849553115E-02 
621	 4,90410055240361E-02 
622	 4,90975918340348E-02 
623	 0,048719351419743 
624	 4,83539819798977E-02 
625	 4,84901904303907E-02 
626	 4,90869918193899E-02 
627	 4,97271099379947E-02 
628	 4,93253333109343E-02 
629	 4,86065633798507E-02 
630	 4,80587456114405E-02 
631	 4,82440113488083E-02 
632	 4,86109949913666E-02 
633	 0,048116679956971 
634	 4,83254424432553E-02 
635	 4,92906427150429E-02 
636	 4,93229775078154E-02 
637	 4,90538438678171E-02 
638	 4,90715900686422E-02 
639	 0,049215100658725 
640	 4,94905374144549E-02 
641	 4,99625192591835E-02 
642	 5,04404726002244E-02 
643	 5,07986991308941E-02 
644	 5,09135366483905E-02 
645	 5,09287744727224E-02 
646	 5,10471550397402E-02 
647	 5,09606545384276E-02 
648	 5,05818219482363E-02 
649	 0,049793297911005 
650	 4,94109437078749E-02 
651	 4,98123632549215E-02 
652	 4,90665272732905E-02 
653	 4,76752703625381E-02 
654	 4,72086723920709E-02 
655	 4,70133698413873E-02 
656	 4,68333311981826E-02 
657	 0,046385004165047 
658	 4,58884727128411E-02 
659	 4,55807063505817E-02 
660	 4,49721613661456E-02 
661	 4,42275874121804E-02 
662	 4,40476116404308E-02 
663	 4,41622121170344E-02 
664	 4,43745623676403E-02 
665	 4,43001326408171E-02 
666	 4,41564801306195E-02 
667	 4,43416749001437E-02 
668	 4,48934383152994E-02 
669	 0,045602949777867 
670	 4,55993142594127E-02 
671	 0,045650758209875 
672	 4,63216091596899E-02 
673	 4,64351869661527E-02 
674	 4,62284383809769E-02 
675	 4,67682055091146E-02 
676	 4,72855404984707E-02 
677	 4,74949347353745E-02 
678	 4,73863398896039E-02 
679	 4,75498298723183E-02 
680	 4,86569427673498E-02 
681	 4,91166624878453E-02 
682	 4,88514829394822E-02 
683	 4,88489452914011E-02 
684	 4,92419773567683E-02 
685	 4,99890109931572E-02 
686	 4,98739095424289E-02 
687	 0,049562867334808 
688	 5,05087876997035E-02 
689	 5,16403089854446E-02 
690	 5,25997209537582E-02 
691	 5,31878202995686E-02 
692	 5,43867179386148E-02 
693	 5,70165508821826E-02 
694	 5,96370764236338E-02 
695	 6,24088183353601E-02 
696	 6,64072299854096E-02 
697	 7,11982953172177E-02 
698	 7,66158595438394E-02 
699	 8,26742017198909E-02 
700	 8,94423517667439E-02 
701	 9,69992321459861E-02 
702	 0,10496949349406 
703	 0,113446975460049 
704	 0,123053863780411 
705	 0,133474791982714 
706	 0,144374232752066 
707	 0,154899908250059 
708	 0,165514465614994 
709	 0,177278697998284 
710	 0,189400885802544 
711	 0,201657822833136 
712	 0,214185350043109 
713	 0,22691002888192 
714	 0,239771704055538 
715	 0,252349349812273 
716	 0,264743833321501 
717	 0,277445418148382 
718	 0,290318480564808 
719	 0,303188586923999 
720	 0,315240827092354 
721	 0,326840282649566 
722	 0,338627116744644 
723	 0,350644697940778 
724	 0,362453176325601 
725	 0,372712297605348 
726	 0,382557369977146 
727	 0,392564311598325 
728	 0,40136581214904 
729	 0,409390794693767 
730	 0,417704145888648 
731	 0,425647718447611 
732	 0,432987826897013 
733	 0,439587615757536 
734	 0,445735149869375 
735	 0,451648151579138 
736	 0,45673828782282 
737	 0,461215370420412 
738	 0,465800222500715 
739	 0,470215933721843 
740	 0,474311613484834 
741	 0,477842143012256 
742	 0,480871902652127 
743	 0,483509561881744 
744	 0,486072118863079 
745	 0,488557086847164 
746	 0,49060591800389 
747	 0,492703741033555 
748	 0,495031635281041 
749	 0,496937334681172 
750	 0,498392088627867 
751	 0,4994768612943 
752	 0,500362327995726 
753	 0,501242589557088 
754	 0,50251161693129 
755	 0,503792272997383 
756	 0,504772623165211 
757	 0,505288805839301 
758	 0,505616380026726 
759	 0,506378324576597 
760	 0,506937698023194 
761	 0,507159555962261 
762	 0,507421616858185 
763	 0,507746439351347 
764	 0,50813009082134 
765	 0,508458117246113 
766	 0,50869959256519 
767	 0,508867167554487 
768	 0,508866891282769 
769	 0,508756518939322 
770	 0,509037841795352 
771	 0,509454138473143 
772	 0,509653687317476 
773	 0,509723647858524 
774	 0,509729149172039 
775	 0,509833171149308 
776	 0,509866610186456 
777	 0,50978280157615 
778	 0,509912493831101 
779	 0,510037127043579 
780	 0,509779133729022 
781	 0,509904208634465 
782	 0,510415391143627 
783	 0,510579101073153 
784	 0,510579967108498 
785	 0,510566324140671 
786	 0,510732170186996 
787	 0,510915773434548 
788	 0,510771962124895 
789	 0,510626452754091 
790	 0,510662167113453 
791	 0,51121800953053 
792	 0,511559600537868 
793	 0,511168842232037 
794	 0,511205338053824 
795	 0,511498578446485 
796	 0,511221053423468 
797	 0,511223595326687 
798	 0,51161428928555 
799	 0,511500215974541 
800	 0,511270904755599 
801	 0,511325830806933 
802	 0,511408123878016 
803	 0,511521112927935 
804	 0,511807066552321 
805	 0,511989850767941 
806	 0,512008262614982 
807	 0,512142828711347 
808	 0,512397080805838 
809	 0,512739379065788 
810	 0,512893947512279 
811	 0,512928948754087 
812	 0,513248795741845 
813	 0,513339563627475 
814	 0,513117453922325 
815	 0,513455120869073 
816	 0,513923863951573 
817	 0,513939361243059 
818	 0,51406671472214 
819	 0,514376605880897 
820	 0,514673811488546 
821	 0,51512851633136 
822	 0,515674731874358 
823	 0,515412120207117 
824	 0,515050127219251 
825	 0,515589232829038 
826	 0,515733626403399 
827	 0,515344994205797 
828	 0,514978992668942 
829	 0,514740705327226 
830	 0,514752002322133 
831	 0,515207097510824 
832	 0,515817861217716 
833	 0,516179204191331 
834	 0,515888400060499 
835	 0,515216312041091 
836	 0,515378259835589 
837	 0,515614819761585 
838	 0,515512358313419 
839	 0,515175412373339 
840	 0,515110855833239 
841	 0,515993514174335 
842	 0,516261267338923 
843	 0,515888789442633 
844	 0,516308318817077 
845	 0,516370046820337 
846	 0,51562511880537 
847	 0,515560675338811 
848	 0,515906075465206 
849	 0,516035165650716 
850	 0,516477531582117 
851	 0,517121552788705 
852	 0,517300901351074 
853	 0,517152635635273 
854	 0,516820234075407 
855	 0,516719050629509 
856	 0,516818218789677 
857	 0,516993601097194 
858	 0,516845463822766 
859	 0,516625982053307 
860	 0,517576745009794 
861	 0,518054323270097 
862	 0,517436006095176 
863	 0,517702995380881 
864	 0,518495258540296 
865	 0,519061766340422 
866	 0,519178793178076 
867	 0,519161407909784 
868	 0,520388642992274 
869	 0,520602232271576 
870	 0,519123434270237 
871	 0,518924002436796 
872	 0,519416233307145 
873	 0,519545877099243 
874	 0,519425676085921 
875	 0,519282364111438 
876	 0,519862710978373 
877	 0,51991776747528 
878	 0,519212862337849 
879	 0,519761289485411 
880	 0,520262633927794 
881	 0,519277335645127 
882	 0,519386307071948 
883	 0,520448410919997 
884	 0,520807804176682 
885	 0,520584529492874 
886	 0,519924670078892 
887	 0,519604096826561 
888	 0,519586903089548 
889	 0,519780137499665 
890	 0,520052985666633 
891	 0,520488718079696 
892	 0,521451839581502 
893	 0,521554343839522 
894	 0,520732705685111 
895	 0,521023709312476 
896	 0,520998647564333 
897	 0,519740382207376 
898	 0,520063275092476 
899	 0,521286031302676 
900	 0,521424762351198 
901	 0,52158978291436 
902	 0,521875941988443 
903	 0,521496441150861 
904	 0,521478067707167 
905	 0,52223219823556 
906	 0,521691376318944 
907	 0,520774503337368 
908	 0,521116459409154 
909	 0,521306207190827 
910	 0,521095522633007 
911	 0,520797879946335 
912	 0,520564732173523 
913	 0,520580181955621 
914	 0,521276950558835 
915	 0,522236553139728 
916	 0,522871317429521 
917	 0,521614987641705 
918	 0,519528707697113 
919	 0,520091686930621 
920	 0,52032834938767 
921	 0,51945039872555 
922	 0,518781170835337 
923	 0,518785000198746 
924	 0,519629072675872 
925	 0,519583262680547 
926	 0,518564409425214 
927	 0,516971663262677 
928	 0,515724327557945 
929	 0,515250099154895 
930	 0,515920319784592 
931	 0,515976711709942 
932	 0,514536565609813 
933	 0,513273328577337 
934	 0,51279118872559 
935	 0,513520682473975 
936	 0,513317260840827 
937	 0,511943888114336 
938	 0,510043351627797 
939	 0,509550511262243 
940	 0,510416965889303 
941	 0,508014104990757 
942	 0,505184658656772 
943	 0,504576799044759 
944	 0,503920557088131 
945	 0,503041981474768 
946	 0,502326074477445 
947	 0,501253024326617 
948	 0,499675699749688 
949	 0,497819065618789 
950	 0,495223408092779 
951	 0,491980130712488 
952	 0,490123372839972 
953	 0,489234768439656 
954	 0,488480809302681 
955	 0,486880766195428 
956	 0,48465429154928 
957	 0,482908081908067 
958	 0,481982120830364 
959	 0,481568744948596 
960	 0,479535509398858 
961	 0,477584255120807 
962	 0,476926533677081 
963	 0,475516394382925 
964	 0,474793775992904 
965	 0,477264422795049 
966	 0,478276778017984 
967	 0,476932247288494 
968	 0,474034094666626 
969	 0,473515657909114 
970	 0,476033038066187 
971	 0,474527403935441 
972	 0,47270562422294 
973	 0,474212669987385 
974	 0,476129161126739 
975	 0,477100351281415 
976	 0,475614845486225 
977	 0,474713481630771 
978	 0,4750626154737 
979	 0,475509905536237 
980	 0,476569718344841 
981	 0,478097227088913 
982	 0,478274150338603 
983	 0,477136092285448 
984	 0,475124316004747 
985	 0,4747087849766 
986	 0,476106591611103 
987	 0,478712637129285 
988	 0,480375348489459 
989	 0,48073508106711 
990	 0,481020630094264 
991	 0,483015254865405 
992	 0,486835551649806 
993	 0,487081421686737 
994	 0,486313729299945 
995	 0,487533920960317 
996	 0,488126540179146 
997	 0,488148932840381 
998	 0,488489084818734 
999	 0,490095538917523 
1000	 0,492562954943262 
1001	 0,493639364827113 
1002	 0,49377076656777 
1003	 0,493712335412528 
1004	 0,496566216086594 
1005	 0,499011925311693 
1006	 0,497855286933182 
1007	 0,496771833873946 
1008	 0,497264044634757 
1009	 0,500724623492935 
1010	 0,503149169209281 
1011	 0,503661410232067 
1012	 0,503978576619383 
1013	 0,501752750195791 
1014	 0,498298244355848 
1015	 0,505274841956522 
1016	 0,512148137668978 
1017	 0,510095388957966 
1018	 0,509823069192241 
1019	 0,511257317596865 
1020	 0,512027424680083 
1021	 0,514533805204764 
1022	 0,518470620281174 
1023	 0,522271929473641 
1024	 0,521319264520638 
1025	 0,516456445523957 
1026	 0,518811862905473 
1027	 0,523628268129578 
1028	 0,526958531172532 
1029	 0,526895867767434 
1030	 0,525050464202117 
1031	 0,523898886223192 
1032	 0,526031441144734 
1033	 0,528716054686823 
1034	 0,525246911715848 
1035	 0,523341629630466 
1036	 0,525272062192257 
1037	 0,531081582004216 
1038	 0,535544134761184 
1039	 0,535556179923555 
1040	 0,530634576937448 
1041	 0,527788553991159 
1042	 0,531932554603146 
1043	 0,53146307316709 
1044	 0,530215320396128 
1045	 0,534991637053325 
1046	 0,534703547275079 
1047	 0,531591713153918 
1048	 0,537107623571292 
1049	 0,536113370511753 
1050	 0,529059841439106 
1051	 0,536009100243638 
1052	 0,546500348073131 
1053	 0,553236762631358 
1054	 0,547458867143581 
1055	 0,541511094728066 
1056	 0,546588823157753 
1057	 0,557947465929529 
1058	 0,563446082687232 
1059	 0,548659544662239 
1060	 0,550496965359358 
1061	 0,561151845583757 
1062	 0,545284217140042 
1063	 0,539105972265642 
1064	 0,54627382748406 
1065	 0,537235530889743 
1066	 0,532320653098248 
1067	 0,539852118661977 
1068	 0,554867619936166 
1069	 0,565118759011267 
1070	 0,562204722002436 
1071	 0,557884112868107 
1072	 0,55578084852269 
1073	 0,557888492523863 
1074	 0,55610126655919 
1075	 0,554156112854592 
