Wavelength	GRA-VAN00808.asd
325	 0,294357797472559 
326	 0,187378779079324 
327	 0,179913627115473 
328	 0,288979027779555 
329	 0,103805528303831 
330	-0,107879191280473 
331	 0,102154268128423 
332	 0,177987554880297 
333	 0,179899420069768 
334	 0,136101420077637 
335	 0,178567710666031 
336	 0,285307064438948 
337	 0,240675515520624 
338	 0,166166095991499 
339	 0,15789847215377 
340	 0,182007683767728 
341	 0,191551328720319 
342	 0,116789990184931 
343	 5,35292116305647E-02 
344	 5,69464268779164E-02 
345	 9,94096634173994E-02 
346	 0,139938012822721 
347	 0,122643961631364 
348	 5,11215827608519E-02 
349	-3,59412331286041E-02 
350	-1,66532833462052E-03 
351	 5,47265884436573E-02 
352	 8,02489681800027E-02 
353	 7,83239567621321E-02 
354	 6,20784674339122E-02 
355	 4,53240998321779E-02 
356	 3,65263821116989E-02 
357	 4,03836330733112E-02 
358	 0,066663478777413 
359	 7,85959718214516E-02 
360	 6,31936640575676E-02 
361	 8,61588920731001E-02 
362	 0,103024268894905 
363	 4,41416850892172E-02 
364	 2,48682541367922E-02 
365	 5,94551529714744E-02 
366	 8,77407252863352E-02 
367	 8,93364806875974E-02 
368	 0,05884160408933 
369	 4,87853913716741E-02 
370	 0,049918539167357 
371	 3,11742138706912E-02 
372	 4,16745718784471E-02 
373	 7,20839643229362E-02 
374	 3,58405321073921E-02 
375	-2,06033483776531E-03 
376	 0,011602388060792 
377	 1,79503333194939E-02 
378	 1,88800874968425E-02 
379	 3,91991311689655E-02 
380	 4,65968031467184E-02 
381	 3,71054130959892E-02 
382	 3,90651578024675E-02 
383	 4,41072733493565E-02 
384	 4,38659422835538E-02 
385	 0,052481472512216 
386	 6,32145758597096E-02 
387	 5,68647291555971E-02 
388	 4,02704245359025E-02 
389	 2,19577554652608E-02 
390	 0,024890929207407 
391	 3,04377336813411E-02 
392	 1,59832283639889E-02 
393	 2,40535257254695E-02 
394	 4,64723705421686E-02 
395	 3,16660389374713E-02 
396	 0,01949519504691 
397	 2,80378097128015E-02 
398	 3,33641551195134E-02 
399	 3,09585372229649E-02 
400	 1,75938450233065E-02 
401	 1,40879551569886E-02 
402	 2,26558609117503E-02 
403	 3,23681549530832E-02 
404	 2,65863808720642E-02 
405	-1,81204708618753E-03 
406	 3,01952024215925E-03 
407	 2,69722008612802E-02 
408	 3,02708130904704E-02 
409	 2,57417581191287E-02 
410	 1,77215109961435E-02 
411	 9,85955812372225E-03 
412	 6,44325557835427E-03 
413	 1,07603341451153E-02 
414	 1,47537050391228E-02 
415	 1,60055860170255E-02 
416	 1,21692109441593E-02 
417	 1,11523134111914E-02 
418	 1,52810233643219E-02 
419	 1,57739604071455E-02 
420	 1,61237449631257E-02 
421	 0,021536993689996 
422	 2,62712693304877E-02 
423	 2,67570795060773E-02 
424	 1,52166951462613E-02 
425	 8,75791430329939E-03 
426	 1,62926615620619E-02 
427	 1,97418857299192E-02 
428	 1,88430612633208E-02 
429	 0,017953158706796 
430	 1,61436066114512E-02 
431	 1,35189376587222E-02 
432	 9,98262908748886E-03 
433	 1,02609085410376E-02 
434	 1,74404177787698E-02 
435	 1,64622679964944E-02 
436	 9,28340229745259E-03 
437	 7,62475479516537E-03 
438	 9,62456919502015E-03 
439	 0,013629029770016 
440	 1,28151949328681E-02 
441	 1,13897294853964E-02 
442	 1,53882552459776E-02 
443	 1,80931773064494E-02 
444	 1,82621374266953E-02 
445	 1,78872114033591E-02 
446	 1,50772725895226E-02 
447	 9,7921298238289E-03 
448	 1,11944738646168E-02 
449	 1,63777939226859E-02 
450	 1,77086635254277E-02 
451	 1,80054957674244E-02 
452	 1,77273456600563E-02 
453	 1,57186788401953E-02 
454	 1,40934261735005E-02 
455	 1,47673923524903E-02 
456	 1,62338866627531E-02 
457	 0,017026875752502 
458	 1,38057924817325E-02 
459	 1,28844978519144E-02 
460	 1,60429538682068E-02 
461	 1,53139248924902E-02 
462	 1,35740509639114E-02 
463	 1,56278750118265E-02 
464	 1,37222136749396E-02 
465	 8,97804505551719E-03 
466	 1,15577217256881E-02 
467	 1,65960749724169E-02 
468	 2,03075731574286E-02 
469	 1,97676376475973E-02 
470	 1,67020651097819E-02 
471	 1,50446361246495E-02 
472	 1,61808973782273E-02 
473	 1,88042118218109E-02 
474	 1,34324323851029E-02 
475	 9,23876288137961E-03 
476	 1,53004252917582E-02 
477	 1,85202341623769E-02 
478	 1,74185185556341E-02 
479	 1,54569382715859E-02 
480	 1,48736214871934E-02 
481	 1,64071926944726E-02 
482	 1,57445828105701E-02 
483	 0,014258453498663 
484	 1,46249596850529E-02 
485	 1,50116760755952E-02 
486	 1,46905110931833E-02 
487	 1,26068156508361E-02 
488	 1,14292150148182E-02 
489	 1,30375399018398E-02 
490	 1,48773803249234E-02 
491	 1,59491326329558E-02 
492	 1,50937086581232E-02 
493	 1,42729285036314E-02 
494	 1,43969020194323E-02 
495	 1,63403246273919E-02 
496	 1,69242507282928E-02 
497	 0,012692519968004 
498	 1,18660035717902E-02 
499	 1,46415911385829E-02 
500	 1,56049665013339E-02 
501	 1,58803798556026E-02 
502	 1,59015687184889E-02 
503	 0,014130776493818 
504	 1,28417323529683E-02 
505	 1,64374460473722E-02 
506	 1,76261894072071E-02 
507	 1,53826170744559E-02 
508	 1,57789914309473E-02 
509	 1,60942815944735E-02 
510	 0,013835776841966 
511	 1,29882849308015E-02 
512	 1,33705624347348E-02 
513	 0,012284090929336 
514	 1,21752497726266E-02 
515	 1,37949172009721E-02 
516	 1,49874747657764E-02 
517	 1,55004504693348E-02 
518	 1,53297595795634E-02 
519	 1,53355761972391E-02 
520	 1,55911956238553E-02 
521	 1,55118474389813E-02 
522	 1,47283528707684E-02 
523	 1,32239108995975E-02 
524	 1,36986091257956E-02 
525	 1,52399233605835E-02 
526	 1,49201235127004E-02 
527	 1,42323858940105E-02 
528	 0,013672581613546 
529	 1,31324044561969E-02 
530	 1,30082421598373E-02 
531	 1,37119262542854E-02 
532	 1,36319904765373E-02 
533	 1,27380250243867E-02 
534	 1,20390884085031E-02 
535	 1,21175758207861E-02 
536	 1,31529705844483E-02 
537	 1,33906444469364E-02 
538	 1,32731429223094E-02 
539	 1,40993093832743E-02 
540	 1,48654768611985E-02 
541	 1,51533811584002E-02 
542	 1,46346351582763E-02 
543	 0,01390718969066 
544	 1,35720437844646E-02 
545	 1,33599771001118E-02 
546	 1,33447420265469E-02 
547	 1,39472412179154E-02 
548	 1,41367385398125E-02 
549	 1,35605621183695E-02 
550	 1,37601007636267E-02 
551	 1,40428777623998E-02 
552	 1,30389785329811E-02 
553	 0,012535210890699 
554	 1,28386349350687E-02 
555	 0,012967491057088 
556	 1,28998363849003E-02 
557	 1,27009557399085E-02 
558	 1,33160835941738E-02 
559	 1,42699152486074E-02 
560	 1,40093361560805E-02 
561	 1,34038606266808E-02 
562	 1,29710527785933E-02 
563	 1,36564809402413E-02 
564	 1,43476833959787E-02 
565	 1,34917125242827E-02 
566	 1,33136446159196E-02 
567	 1,38746363138253E-02 
568	 1,32464918814466E-02 
569	 1,25885896671538E-02 
570	 0,01268624444409 
571	 1,27165706329494E-02 
572	 1,28173122794764E-02 
573	 1,35689374912116E-02 
574	 0,014394963278204 
575	 0,014973172516163 
576	 1,49901953971507E-02 
577	 0,014653168664869 
578	 1,42462144905491E-02 
579	 1,45437962197719E-02 
580	 1,53627866919989E-02 
581	 1,55799343328642E-02 
582	 0,015415573232999 
583	 1,50929902624025E-02 
584	 1,53444296696819E-02 
585	 1,60465543190317E-02 
586	 1,68826041907037E-02 
587	 1,67938342529966E-02 
588	 1,59200072488333E-02 
589	 1,65423928594122E-02 
590	 1,73197160182818E-02 
591	 1,69619265893335E-02 
592	 1,68264141881708E-02 
593	 1,69970612058109E-02 
594	 0,017001534054362 
595	 1,67748467763028E-02 
596	 1,64117320765165E-02 
597	 1,68480701873878E-02 
598	 1,74551735694651E-02 
599	 1,71719471079225E-02 
600	 1,66219407958135E-02 
601	 1,61456524175845E-02 
602	 1,62895210375507E-02 
603	 1,66506043015365E-02 
604	 1,68391950416898E-02 
605	 1,62999349196622E-02 
606	 1,55434580748356E-02 
607	 1,61205415521722E-02 
608	 1,63953511774997E-02 
609	 1,58573353403951E-02 
610	 1,53793412039492E-02 
611	 1,51927762964141E-02 
612	 1,54772305855479E-02 
613	 1,57710848246793E-02 
614	 1,58875609894848E-02 
615	 1,57428457091932E-02 
616	 1,53055097469688E-02 
617	 1,46783505017714E-02 
618	 1,48950792845794E-02 
619	 1,54790848872419E-02 
620	 1,52016672128952E-02 
621	 1,48973501779672E-02 
622	 1,48211689274721E-02 
623	 1,48227729533864E-02 
624	 1,49394116929656E-02 
625	 1,52033188006732E-02 
626	 1,53434589112835E-02 
627	 1,54053968515384E-02 
628	 1,57581436431347E-02 
629	 1,59305472688894E-02 
630	 0,015718651632227 
631	 1,55400112770044E-02 
632	 1,54962954019618E-02 
633	 1,56839465368188E-02 
634	 1,53826539949234E-02 
635	 1,48224397119272E-02 
636	 1,59100930413397E-02 
637	 1,69126706101864E-02 
638	 1,64030972022059E-02 
639	 1,62504370145571E-02 
640	 1,65611263113605E-02 
641	 1,66560784322095E-02 
642	 1,70839626557399E-02 
643	 1,78269720442294E-02 
644	 1,74139767085847E-02 
645	 1,70802667881671E-02 
646	 0,018581437799656 
647	 1,88554784690174E-02 
648	 1,76338328457597E-02 
649	 1,66649435160772E-02 
650	 1,67089271784734E-02 
651	 0,018023640013971 
652	 1,78356961988508E-02 
653	 0,01677320654515 
654	 1,70315735861316E-02 
655	 0,017194683777409 
656	 1,68048045450658E-02 
657	 1,58757736117147E-02 
658	 1,50988027772539E-02 
659	 1,51643539623576E-02 
660	 1,53954736456169E-02 
661	 1,54402419458909E-02 
662	 1,47090122869133E-02 
663	 1,42595369629237E-02 
664	 1,45356592939635E-02 
665	 1,45114951380373E-02 
666	 1,41998845182814E-02 
667	 1,38081660920786E-02 
668	 1,35300600927383E-02 
669	 1,34501251163885E-02 
670	 1,36015495657325E-02 
671	 1,36751394930465E-02 
672	 1,34627074990052E-02 
673	 1,36241229096778E-02 
674	 1,39784971850655E-02 
675	 1,38085470366942E-02 
676	 1,36773137258621E-02 
677	 1,37555562590922E-02 
678	 1,37337036089807E-02 
679	 1,38481743825025E-02 
680	 0,014390087401481 
681	 1,41333503897533E-02 
682	 1,33989525379645E-02 
683	 1,41693598070149E-02 
684	 1,50322395300847E-02 
685	 1,51494120284207E-02 
686	 1,49616413815151E-02 
687	 0,014854080224577 
688	 1,54327756784757E-02 
689	 1,56225529155172E-02 
690	 1,53740590806572E-02 
691	 1,58730833977493E-02 
692	 1,69881837273287E-02 
693	 1,85177362877005E-02 
694	 1,98736000879489E-02 
695	 2,12340645812168E-02 
696	 2,33792802915273E-02 
697	 2,57456579621921E-02 
698	 2,82286165001461E-02 
699	 3,15651336438122E-02 
700	 3,54203334778801E-02 
701	 3,92682286707809E-02 
702	 4,41262896917101E-02 
703	 4,97748601938811E-02 
704	 5,46104859681955E-02 
705	 6,00377248667091E-02 
706	 0,066765636899243 
707	 0,072854981963557 
708	 7,87043924954266E-02 
709	 8,55799331525139E-02 
710	 9,23276304990252E-02 
711	 9,86354770650679E-02 
712	 0,10478844291542 
713	 0,111046341615161 
714	 0,1175837994459 
715	 0,123552631661793 
716	 0,129077362847273 
717	 0,134969079706559 
718	 0,140502056235145 
719	 0,145396343304299 
720	 0,149809851769807 
721	 0,154124677221014 
722	 0,158807319347758 
723	 0,162935764019997 
724	 0,166508082095651 
725	 0,170313212918217 
726	 0,17382930682996 
727	 0,176793206659083 
728	 0,179820209547681 
729	 0,18272454756724 
730	 0,185065866129143 
731	 0,186756965392036 
732	 0,1880472226377 
733	 0,190068029390094 
734	 0,192079969447953 
735	 0,193424798338732 
736	 0,194629178675017 
737	 0,195891564806581 
738	 0,197490975465796 
739	 0,198885650081788 
740	 0,199902180348253 
741	 0,200957773291845 
742	 0,201842140421641 
743	 0,202287161007276 
744	 0,20281681022436 
745	 0,203529388086653 
746	 0,20425950946525 
747	 0,205164037719185 
748	 0,206223311071289 
749	 0,206766351009888 
750	 0,206990149005731 
751	 0,207307508508052 
752	 0,207945228141828 
753	 0,208818067042633 
754	 0,209323060982388 
755	 0,2096573738963 
756	 0,209982925700912 
757	 0,210323925254435 
758	 0,210732169760589 
759	 0,211307451823733 
760	 0,211757567344531 
761	 0,211976284230001 
762	 0,211992763810344 
763	 0,212065394746063 
764	 0,212414025984143 
765	 0,212547899002953 
766	 0,212651808569137 
767	 0,213540242041856 
768	 0,213995327433261 
769	 0,213692780027841 
770	 0,213811841138523 
771	 0,214312578644581 
772	 0,215004818757168 
773	 0,215114357763995 
774	 0,214747621529269 
775	 0,21481539277973 
776	 0,215014162673551 
777	 0,215174743068323 
778	 0,215185719491165 
779	 0,215142037843712 
780	 0,215203756278225 
781	 0,215291048930792 
782	 0,215427682409045 
783	 0,215797279865913 
784	 0,216002618226543 
785	 0,215846483133267 
786	 0,216028483588079 
787	 0,21643432395386 
788	 0,216704081714235 
789	 0,216596543328905 
790	 0,216265625089882 
791	 0,216775297938618 
792	 0,217014205901572 
793	 0,216217555058039 
794	 0,216345049468316 
795	 0,217114317785343 
796	 0,217271922440534 
797	 0,216920999592935 
798	 0,216309753039515 
799	 0,216573040343349 
800	 0,217067774264621 
801	 0,217144077569756 
802	 0,217207528552465 
803	 0,21732889928091 
804	 0,217545564820211 
805	 0,217573743799742 
806	 0,217436879442636 
807	 0,217894041373039 
808	 0,218368653192246 
809	 0,21822956831384 
810	 0,218468597081049 
811	 0,219063967261777 
812	 0,219366300513897 
813	 0,219712314057004 
814	 0,220113274122793 
815	 0,2198571872499 
816	 0,219488158157173 
817	 0,219711900757457 
818	 0,220213534677658 
819	 0,220782531553026 
820	 0,221025636695264 
821	 0,221249958990914 
822	 0,221584041015201 
823	 0,221853574134091 
824	 0,222103254221176 
825	 0,222410513283054 
826	 0,222894890780975 
827	 0,223333841495824 
828	 0,222811441734126 
829	 0,223051256901827 
830	 0,224565612792924 
831	 0,224264122418644 
832	 0,223270755555346 
833	 0,223553500600574 
834	 0,224009625972916 
835	 0,224381432511769 
836	 0,224695066403272 
837	 0,224925771919257 
838	 0,225069614636674 
839	 0,225221768172406 
840	 0,225334527873316 
841	 0,225325248084435 
842	 0,225383697769087 
843	 0,225596348004204 
844	 0,226117587022239 
845	 0,226358046554503 
846	 0,226090230956821 
847	 0,226274906093782 
848	 0,226526282886459 
849	 0,226156040969382 
850	 0,22635457824902 
851	 0,227011572188128 
852	 0,226717190519407 
853	 0,226615315265436 
854	 0,227164950623159 
855	 0,227006846769417 
856	 0,226499162146452 
857	 0,226332211133511 
858	 0,22643695296344 
859	 0,226732548186316 
860	 0,226990276178513 
861	 0,227124643449549 
862	 0,227118338909589 
863	 0,227223525555881 
864	 0,227421258683662 
865	 0,22764712967963 
866	 0,227946640278709 
867	 0,228265704342625 
868	 0,228384303075905 
869	 0,228736351006191 
870	 0,229413563384303 
871	 0,229641821987539 
872	 0,22965817896722 
873	 0,229832027940832 
874	 0,229986449915424 
875	 0,230047471406644 
876	 0,229781204079172 
877	 0,230127535659409 
878	 0,231225163392587 
879	 0,231436487950172 
880	 0,231213023472799 
881	 0,231188878382104 
882	 0,231332151229775 
883	 0,231434416010337 
884	 0,230759773078907 
885	 0,230983736523383 
886	 0,232359190010592 
887	 0,23271273969653 
888	 0,23291177558204 
889	 0,233808983185045 
890	 0,234161758733287 
891	 0,233931824826143 
892	 0,233496513805116 
893	 0,233181690597382 
894	 0,233218133174081 
895	 0,233890178380799 
896	 0,234489626330401 
897	 0,234499731798362 
898	 0,234706383447646 
899	 0,234956958858392 
900	 0,234747044238218 
901	 0,235056927678583 
902	 0,235688979078636 
903	 0,234769778977889 
904	 0,234122097109387 
905	 0,234762680004672 
906	 0,234984312834856 
907	 0,23501800358957 
908	 0,235478223306811 
909	 0,235791416123437 
910	 0,235809052879552 
911	 0,235548742951322 
912	 0,235137337640325 
913	 0,234769756882887 
914	 0,235080897146187 
915	 0,235428964785226 
916	 0,235080817270933 
917	 0,234958118287901 
918	 0,235089832751565 
919	 0,235124798149861 
920	 0,234795535985721 
921	 0,234137860627772 
922	 0,233847126811315 
923	 0,233710093809776 
924	 0,23354052691642 
925	 0,233705029701002 
926	 0,233713180933802 
927	 0,232628924538975 
928	 0,231382021972223 
929	 0,2305261127639 
930	 0,230969071940373 
931	 0,231114954165726 
932	 0,230125458653147 
933	 0,22936477409969 
934	 0,228823928945989 
935	 0,228278263742915 
936	 0,227301360491253 
937	 0,226223385467151 
938	 0,226398202667943 
939	 0,22569485367977 
940	 0,223777489172509 
941	 0,223574193031237 
942	 0,223077738164366 
943	 0,220616089110424 
944	 0,219419755387698 
945	 0,219232792193175 
946	 0,218612037067617 
947	 0,21695382307517 
948	 0,214715412495356 
949	 0,214616436051647 
950	 0,213297609210706 
951	 0,209494790864886 
952	 0,208486297396423 
953	 0,208314635606951 
954	 0,20605466500612 
955	 0,204849641435481 
956	 0,204193001082246 
957	 0,200875616803171 
958	 0,199452249557452 
959	 0,200609371076517 
960	 0,199820696732223 
961	 0,198483163074474 
962	 0,197741552018302 
963	 0,196840960127906 
964	 0,19588088431052 
965	 0,195130667787946 
966	 0,194256734908069 
967	 0,193652597459565 
968	 0,194770235507227 
969	 0,195765875248481 
970	 0,195862866034948 
971	 0,19582881261506 
972	 0,195537089185901 
973	 0,194960691531573 
974	 0,195584574607673 
975	 0,196083874934066 
976	 0,193628520225786 
977	 0,193351539877191 
978	 0,195753343121359 
979	 0,197500078641055 
980	 0,197931015255223 
981	 0,1968775942096 
982	 0,195743166056324 
983	 0,195840085824034 
984	 0,197989607051118 
985	 0,197194954767927 
986	 0,195349918467894 
987	 0,197917797342229 
988	 0,200036031388788 
989	 0,200662081536749 
990	 0,201484666604943 
991	 0,201680105227385 
992	 0,201371380587285 
993	 0,203941558326342 
994	 0,205737495837137 
995	 0,203210815490494 
996	 0,203313360742207 
997	 0,205732688900251 
998	 0,207292045174033 
999	 0,208385484581402 
1000	 0,208941770152782 
1001	 0,208997798443765 
1002	 0,207641867094057 
1003	 0,205401939904746 
1004	 0,207832955966376 
1005	 0,21098935646525 
1006	 0,210798892718868 
1007	 0,210546312491572 
1008	 0,211548047789526 
1009	 0,215152219572121 
1010	 0,21651869193809 
1011	 0,215270163903356 
1012	 0,21503335165102 
1013	 0,214196048783194 
1014	 0,213338122495459 
1015	 0,218561892429597 
1016	 0,223723054823962 
1017	 0,223606483645739 
1018	 0,221411555461467 
1019	 0,220488632104408 
1020	 0,224820037642561 
1021	 0,225584898908054 
1022	 0,222948382975909 
1023	 0,222729868082173 
1024	 0,228141733948568 
1025	 0,236599064380789 
1026	 0,231502604666081 
1027	 0,227398827329904 
1028	 0,233174625814417 
1029	 0,236995401798378 
1030	 0,237073879718455 
1031	 0,233348964447738 
1032	 0,233756482026464 
1033	 0,237953439609567 
1034	 0,241926238257324 
1035	 0,241224778322418 
1036	 0,237799315837723 
1037	 0,244345694227056 
1038	 0,246471340853348 
1039	 0,239866127835271 
1040	 0,238058370015961 
1041	 0,240713385930871 
1042	 0,245621852339607 
1043	 0,242618293678166 
1044	 0,236840918552292 
1045	 0,237496073822643 
1046	 0,242273906065663 
1047	 0,247926452263254 
1048	 0,247492630180459 
1049	 0,252869984711571 
1050	 0,261543084233302 
1051	 0,250590541685327 
1052	 0,242794311043607 
1053	 0,248503928420789 
1054	 0,25003673036286 
1055	 0,253423195430377 
1056	 0,262000381223033 
1057	 0,252731589995728 
1058	 0,240317438835225 
1059	 0,249460520554361 
1060	 0,250837640472254 
1061	 0,246674857434934 
1062	 0,256227643824939 
1063	 0,26189147559445 
1064	 0,258882039015645 
1065	 0,247974394931054 
1066	 0,245074339059714 
1067	 0,25464521692975 
1068	 0,258075551217376 
1069	 0,254093615420169 
1070	 0,244568137431154 
1071	 0,24593721047198 
1072	 0,257833313948875 
1073	 0,273836019337032 
1074	 0,261448203181162 
1075	 0,23999114918331 
