Wavelength	GRA-VAN00535.asd
325	-1,01158033004696E-03 
326	-2,00856901785029E-02 
327	 6,56722351712257E-02 
328	 0,162333175519187 
329	 2,23582899744618E-02 
330	-0,134245777518928 
331	 3,89112469830178E-02 
332	 0,138719515601086 
333	 0,179791577256171 
334	 9,22804776178075E-02 
335	 4,27178683916825E-02 
336	 8,88310126812106E-02 
337	 9,09198481680136E-02 
338	 5,12537635043391E-02 
339	-3,15209462789552E-02 
340	 0,022316536190403 
341	 0,116543288909288 
342	 4,63439256232413E-02 
343	-6,76094182100516E-04 
344	 3,45325571931223E-02 
345	 6,33506934009351E-02 
346	 7,94013212368449E-02 
347	 6,82788847820896E-02 
348	 3,41264270557272E-02 
349	-1,11610772675531E-02 
350	-2,32532209475391E-02 
351	-1,80716819203105E-02 
352	-2,90490613766476E-03 
353	 4,35341373117636E-02 
354	 7,28535381274146E-02 
355	 2,38521164233726E-02 
356	 1,22858346379151E-02 
357	 0,034666555398449 
358	 9,44311166727057E-03 
359	-3,64282412376646E-03 
360	 0,021532989949565 
361	 4,12089080006266E-02 
362	 5,25220308617497E-02 
363	 5,62166211179985E-02 
364	 3,69173423939467E-02 
365	 6,73457216135078E-03 
366	 0,022357346517654 
367	 3,78418202245538E-02 
368	 2,78379061718949E-02 
369	 3,13532357469192E-02 
370	 3,52341193816866E-02 
371	 5,18499522066538E-03 
372	-2,51603074671395E-03 
373	 2,14541263361145E-02 
374	 4,27995062605928E-02 
375	 3,81023763417907E-02 
376	-4,05042435843927E-03 
377	 1,6702077538075E-03 
378	 3,72395760241993E-02 
379	 3,42232648812966E-02 
380	 1,76430903924481E-02 
381	 1,32393814124377E-03 
382	 1,73588881589759E-02 
383	 3,65881241141547E-02 
384	 3,29310740986197E-02 
385	 3,79189240735889E-02 
386	 4,19937394993642E-02 
387	 2,16980353222846E-03 
388	-1,55810083457329E-02 
389	 1,15685550219954E-02 
390	 3,08855337719687E-02 
391	 3,23317721428193E-02 
392	 1,05150343483639E-02 
393	 8,50144905717189E-03 
394	 2,34734940218694E-02 
395	 0,014506159735395 
396	 0,012962241973808 
397	 3,10999752426084E-02 
398	 3,94974212765312E-02 
399	 0,034318281624982 
400	 1,39848393069265E-02 
401	 9,21346297228187E-03 
402	 2,02578385369554E-02 
403	 1,65083306952542E-02 
404	 4,30182845291106E-03 
405	-9,08942723716991E-03 
406	-9,29686526810288E-04 
407	 0,015929109113576 
408	 1,18742706143034E-02 
409	 1,18691879722344E-02 
410	 0,019465963603708 
411	 1,63299121863109E-02 
412	 1,18103561721583E-02 
413	 1,49522400141625E-02 
414	 1,64810384218791E-02 
415	 1,50331415637772E-02 
416	 0,010986165218481 
417	 8,23333950489684E-03 
418	 8,6404616757949E-03 
419	 1,05414031230995E-02 
420	 1,56136460566394E-02 
421	 2,64586792581189E-02 
422	 2,37175917672997E-02 
423	 0,010181635315372 
424	 9,58663558258972E-03 
425	 1,38811844647304E-02 
426	 1,75070043423621E-02 
427	 1,73139084432033E-02 
428	 1,48994372401993E-02 
429	 1,40581065244831E-02 
430	 1,32106076436505E-02 
431	 1,21708763517998E-02 
432	 1,12339188990884E-02 
433	 1,24842168122403E-02 
434	 1,70401518775322E-02 
435	 1,40750941441782E-02 
436	 6,82754050799963E-03 
437	 8,78450147954104E-03 
438	 1,07733108707065E-02 
439	 9,72747434616369E-03 
440	 9,98496262803564E-03 
441	 1,12008321681449E-02 
442	 1,24855023544061E-02 
443	 1,30139980010323E-02 
444	 1,30242691747827E-02 
445	 1,42277180568337E-02 
446	 1,49851818876269E-02 
447	 1,43349258368279E-02 
448	 1,34392476691955E-02 
449	 1,25392214699429E-02 
450	 1,16762483466857E-02 
451	 1,14439632983605E-02 
452	 1,18707186574701E-02 
453	 1,21056525901976E-02 
454	 1,24822059455435E-02 
455	 0,013337317304956 
456	 0,015064937370854 
457	 1,58158248482467E-02 
458	 1,00883044806802E-02 
459	 6,97831883704955E-03 
460	 9,79744596762593E-03 
461	 1,10885051392414E-02 
462	 1,17749160545517E-02 
463	 1,41099558340139E-02 
464	 1,19536181646696E-02 
465	 6,91029797178371E-03 
466	 9,63362472715313E-03 
467	 1,34366254114038E-02 
468	 1,39672774191951E-02 
469	 1,45928313793456E-02 
470	 1,49774486498022E-02 
471	 1,35166891164716E-02 
472	 1,26302204448562E-02 
473	 1,29056906340158E-02 
474	 1,28438250985485E-02 
475	 1,24010976299353E-02 
476	 1,17024267833028E-02 
477	 1,27730877946413E-02 
478	 1,48437484037816E-02 
479	 1,48083950704749E-02 
480	 1,47958157686447E-02 
481	 1,53178346066308E-02 
482	 1,28121076372744E-02 
483	 9,66238366564398E-03 
484	 9,69056400384707E-03 
485	 1,12524817578626E-02 
486	 1,32603277743255E-02 
487	 1,36649050357834E-02 
488	 1,32481420732803E-02 
489	 1,27301853147665E-02 
490	 1,28211699225731E-02 
491	 1,34345547789645E-02 
492	 1,42279076524173E-02 
493	 1,40116266197571E-02 
494	 1,28195084570331E-02 
495	 1,37075916828062E-02 
496	 1,41167891290126E-02 
497	 1,10269964758791E-02 
498	 9,65436252936748E-03 
499	 1,05110722650638E-02 
500	 1,13091114388488E-02 
501	 0,011805956099112 
502	 1,18397193252471E-02 
503	 1,17869569948553E-02 
504	 1,19061389629228E-02 
505	 1,25036598734545E-02 
506	 1,35090167160892E-02 
507	 1,45277172572684E-02 
508	 1,42773252602741E-02 
509	 1,32127587425159E-02 
510	 0,011873909991918 
511	 1,12122948210267E-02 
512	 1,11681902749477E-02 
513	 1,08453652120776E-02 
514	 1,13141322319639E-02 
515	 1,27867462506085E-02 
516	 1,37365503541048E-02 
517	 1,40033643400912E-02 
518	 1,36176409195478E-02 
519	 0,013384331982291 
520	 1,32868566771605E-02 
521	 1,22723337827425E-02 
522	 1,13551337924776E-02 
523	 1,12995861331157E-02 
524	 1,16637528656437E-02 
525	 1,23405892164479E-02 
526	 1,35051782880568E-02 
527	 1,36639248650843E-02 
528	 1,24909542956407E-02 
529	 1,12740716497425E-02 
530	 1,10387200410606E-02 
531	 0,012744441420431 
532	 1,28730561862947E-02 
533	 1,14334279933418E-02 
534	 1,11569492950582E-02 
535	 1,12647408724113E-02 
536	 1,13490871575401E-02 
537	 1,18448773628864E-02 
538	 1,24469523842217E-02 
539	 0,01255043132645 
540	 1,25622444268566E-02 
541	 1,24663500502245E-02 
542	 0,01146752057893 
543	 1,09932129521089E-02 
544	 1,23332345162702E-02 
545	 1,23268657378946E-02 
546	 1,11912369906541E-02 
547	 1,13578114052004E-02 
548	 1,19668324512195E-02 
549	 1,25313336371747E-02 
550	 1,26067993040884E-02 
551	 1,22540879707514E-02 
552	 1,16430615572788E-02 
553	 1,14096417116256E-02 
554	 1,15584902682308E-02 
555	 1,10963936678355E-02 
556	 1,10222755471773E-02 
557	 1,20458138980917E-02 
558	 1,19975414331614E-02 
559	 1,12136232763897E-02 
560	 1,15564541255506E-02 
561	 1,18376744942037E-02 
562	 1,16985238444468E-02 
563	 1,19102862728828E-02 
564	 1,20872689062026E-02 
565	 0,011649948534912 
566	 0,01125966084015 
567	 1,11590807899026E-02 
568	 1,15220275262452E-02 
569	 1,18982229843823E-02 
570	 1,19542231320307E-02 
571	 1,17398236177169E-02 
572	 1,15616562143052E-02 
573	 1,20683291919901E-02 
574	 1,25389749244992E-02 
575	 1,27060098718889E-02 
576	 1,26908583611539E-02 
577	 1,26291438060094E-02 
578	 1,26701150711613E-02 
579	 1,30123366488903E-02 
580	 1,34811150373538E-02 
581	 1,33513725055489E-02 
582	 1,34366047430284E-02 
583	 1,40486555390286E-02 
584	 1,36874622405732E-02 
585	 1,30369191335865E-02 
586	 1,36568041246443E-02 
587	 1,39074391942586E-02 
588	 1,35684073469136E-02 
589	 1,40374638439988E-02 
590	 1,44851939206818E-02 
591	 1,41223941004508E-02 
592	 1,37871273185831E-02 
593	 1,36706195044147E-02 
594	 1,38334888742101E-02 
595	 1,38240401442042E-02 
596	 1,35994242215651E-02 
597	 1,45585321125676E-02 
598	 1,54847412357634E-02 
599	 1,43752239247925E-02 
600	 1,34052817903375E-02 
601	 1,31621923008052E-02 
602	 1,32008948731492E-02 
603	 1,36061282937214E-02 
604	 1,43120511502725E-02 
605	 1,38037426995577E-02 
606	 1,26313339799158E-02 
607	 1,27388504892363E-02 
608	 1,31565051092476E-02 
609	 0,013411267988385 
610	 1,28104273768125E-02 
611	 1,22562559564386E-02 
612	 1,29136808738115E-02 
613	 1,31368837023701E-02 
614	 1,27437804845292E-02 
615	 1,25737520666732E-02 
616	 1,23700368780183E-02 
617	 1,20998272473814E-02 
618	 0,012956936473988 
619	 1,41060557481753E-02 
620	 1,36405234529021E-02 
621	 1,28294779516014E-02 
622	 1,22615858996751E-02 
623	 0,01258642644888 
624	 1,30314630688311E-02 
625	 1,27951969818229E-02 
626	 1,30595733827142E-02 
627	 1,37060983695123E-02 
628	 1,37381467883068E-02 
629	 1,33876762473209E-02 
630	 1,28961105830806E-02 
631	 1,31060380425515E-02 
632	 1,37268359561798E-02 
633	 1,41436952250461E-02 
634	 1,41256502808655E-02 
635	 1,38488387524759E-02 
636	 1,44979917773576E-02 
637	 1,49210552890258E-02 
638	 0,014201291030707 
639	 0,013900151977087 
640	 1,41793027618479E-02 
641	 1,47107136292175E-02 
642	 1,51419344966556E-02 
643	 1,52877554259999E-02 
644	 1,52037181911243E-02 
645	 1,52671925669029E-02 
646	 1,59526086081323E-02 
647	 1,59869601374233E-02 
648	 1,52494308706404E-02 
649	 1,43712915937676E-02 
650	 1,42856374018238E-02 
651	 0,015417013819137 
652	 1,54033242980644E-02 
653	 1,48235442212543E-02 
654	 0,015705508095885 
655	 1,59564517001782E-02 
656	 0,015137780656365 
657	 1,46877529821864E-02 
658	 1,44460215620686E-02 
659	 1,41693765004044E-02 
660	 0,014292953309114 
661	 1,45827218549945E-02 
662	 1,41570614407504E-02 
663	 0,013601295805833 
664	 1,32709823760303E-02 
665	 1,34358237039429E-02 
666	 1,36465765856661E-02 
667	 1,31597313127056E-02 
668	 1,26614211320228E-02 
669	 1,24729663280081E-02 
670	 1,30213706594167E-02 
671	 1,34948540806723E-02 
672	 1,32831874363765E-02 
673	 1,34223171017153E-02 
674	 1,37735755917464E-02 
675	 1,35747502581479E-02 
676	 1,32802916777318E-02 
677	 1,31524023480247E-02 
678	 1,36419366893792E-02 
679	 1,42473105127069E-02 
680	 1,43369344641254E-02 
681	 1,41758699733107E-02 
682	 1,39610227490412E-02 
683	 1,40448429203971E-02 
684	 1,44774643582081E-02 
685	 1,51313565563165E-02 
686	 1,46779310612971E-02 
687	 1,39917447233708E-02 
688	 1,49663808889617E-02 
689	 1,55009161372495E-02 
690	 0,015245942830858 
691	 1,55589062962663E-02 
692	 1,63728074248004E-02 
693	 0,017536594969972 
694	 1,83432453135307E-02 
695	 1,90810633959815E-02 
696	 2,07969297796099E-02 
697	 2,30018023638695E-02 
698	 2,55003417211348E-02 
699	 2,82517543290548E-02 
700	 3,14475518112367E-02 
701	 0,035330834009485 
702	 3,94318725208141E-02 
703	 4,36364512099128E-02 
704	 4,79234740092544E-02 
705	 5,30440529174679E-02 
706	 5,92735298394713E-02 
707	 6,47486160461802E-02 
708	 6,98255180856987E-02 
709	 7,56839581671518E-02 
710	 0,081520016712703 
711	 8,70603785199903E-02 
712	 9,21297045790081E-02 
713	 0,097468017466606 
714	 0,103665581017363 
715	 0,108999614981653 
716	 0,113643672248552 
717	 0,119023865278284 
718	 0,123969172453932 
719	 0,128061375407687 
720	 0,13179538739572 
721	 0,135500616566762 
722	 0,139535900717325 
723	 0,142811521092299 
724	 0,145481708909745 
725	 0,14901468055422 
726	 0,152224172668325 
727	 0,154440737376159 
728	 0,156564758118103 
729	 0,158711598592022 
730	 0,160875753073796 
731	 0,162651172670069 
732	 0,164042664201847 
733	 0,165707508569199 
734	 0,167134017843779 
735	 0,167924714747369 
736	 0,169076274963513 
737	 0,170620572998042 
738	 0,172237021251406 
739	 0,173470483475089 
740	 0,174150388254966 
741	 0,174634844549216 
742	 0,17508644315111 
743	 0,175648372028579 
744	 0,176090237430581 
745	 0,176503953142473 
746	 0,177305620980192 
747	 0,17819299891506 
748	 0,178948175332021 
749	 0,179352003976353 
750	 0,179545880803497 
751	 0,179791684859439 
752	 0,179907407697601 
753	 0,180050682800249 
754	 0,180993765281965 
755	 0,181701814948364 
756	 0,181502220994986 
757	 0,181681775207163 
758	 0,182197537009302 
759	 0,182553809054609 
760	 0,182772868201313 
761	 0,182905328735959 
762	 0,183241015665505 
763	 0,1836022772221 
764	 0,183811848340918 
765	 0,183996116868037 
766	 0,184182181117155 
767	 0,18439777154834 
768	 0,18448562705344 
769	 0,184453630880835 
770	 0,18470051401848 
771	 0,185121688912493 
772	 0,185543446760937 
773	 0,18564436839057 
774	 0,185492146808748 
775	 0,185584998564003 
776	 0,185479550087859 
777	 0,185062296121431 
778	 0,185175670922899 
779	 0,185531224431712 
780	 0,185573919071345 
781	 0,185503875257517 
782	 0,1853994094013 
783	 0,185377602742593 
784	 0,185369018006004 
785	 0,185340074132129 
786	 0,185450906020152 
787	 0,185500676251064 
788	 0,185074908142299 
789	 0,184952846331867 
790	 0,185274967067229 
791	 0,185656097090697 
792	 0,185472666876764 
793	 0,184368803132515 
794	 0,184011212047854 
795	 0,184157945489012 
796	 0,183656293823054 
797	 0,183051094466043 
798	 0,182620723417107 
799	 0,182800902468199 
800	 0,183178275172117 
801	 0,18333501480275 
802	 0,183349298529931 
803	 0,183356662014525 
804	 0,183726104760463 
805	 0,183836753004803 
806	 0,183637272468234 
807	 0,184208465733463 
808	 0,184810478398694 
809	 0,184625186922281 
810	 0,184923107457103 
811	 0,185621994120249 
812	 0,185750169455065 
813	 0,185870867594277 
814	 0,18611557047402 
815	 0,185877946452632 
816	 0,185456904522708 
817	 0,185271320961307 
818	 0,18548275837708 
819	 0,185989488572294 
820	 0,186400189150848 
821	 0,186590968090779 
822	 0,186583524787695 
823	 0,186984259365707 
824	 0,187666481389202 
825	 0,18838006828686 
826	 0,188938411700822 
827	 0,189276336320992 
828	 0,189326030115057 
829	 0,189761671334492 
830	 0,190792639745201 
831	 0,191280322277476 
832	 0,19124679966438 
833	 0,190912530853267 
834	 0,19132368249523 
835	 0,192386488967989 
836	 0,192851631804762 
837	 0,193142406995546 
838	 0,19343240537449 
839	 0,193396472126345 
840	 0,193197337145229 
841	 0,193100459332901 
842	 0,193237608630649 
843	 0,193586109159374 
844	 0,193974204862214 
845	 0,194117967586376 
846	 0,193918165410048 
847	 0,193979545364153 
848	 0,193993832557722 
849	 0,193437336428768 
850	 0,193327092644541 
851	 0,193720282694158 
852	 0,193936034078277 
853	 0,193956180246398 
854	 0,19378152877787 
855	 0,193608392322655 
856	 0,193504584856332 
857	 0,193520830067189 
858	 0,19358976810735 
859	 0,193675845670808 
860	 0,193770125851471 
861	 0,193702292022323 
862	 0,193438942098525 
863	 0,193351435056609 
864	 0,193476970668189 
865	 0,193797964204087 
866	 0,19408854350223 
867	 0,194344252322168 
868	 0,194779041944501 
869	 0,195121083547597 
870	 0,19530167397005 
871	 0,19575235601512 
872	 0,196320567004476 
873	 0,196764870216545 
874	 0,196734440217491 
875	 0,196523942423317 
876	 0,197110296760314 
877	 0,198183376181606 
878	 0,199427274518428 
879	 0,199978524458195 
880	 0,200101777819104 
881	 0,200183296036547 
882	 0,200443685558961 
883	 0,200723210878605 
884	 0,200261371841155 
885	 0,200772421835958 
886	 0,202452369278735 
887	 0,2029165596972 
888	 0,202713104566489 
889	 0,202534213669364 
890	 0,202633479776155 
891	 0,202991173026685 
892	 0,203374115259945 
893	 0,20398678260511 
894	 0,204665276784903 
895	 0,204500470027684 
896	 0,204270261186063 
897	 0,204594390256974 
898	 0,204999945190115 
899	 0,205378451462741 
900	 0,205674045335057 
901	 0,205912878521895 
902	 0,206001508428678 
903	 0,205487068577309 
904	 0,205482618438276 
905	 0,206471515708333 
906	 0,206451672931174 
907	 0,206053343143339 
908	 0,206509423439906 
909	 0,206655706325602 
910	 0,206559488780361 
911	 0,207399557185002 
912	 0,207804081971501 
913	 0,207221157174063 
914	 0,206640988590549 
915	 0,20609087190798 
916	 0,20554504299287 
917	 0,205753747560591 
918	 0,206530338121585 
919	 0,207112199868456 
920	 0,207295379404383 
921	 0,206928706777988 
922	 0,205849202035359 
923	 0,205145679813679 
924	 0,205629180325176 
925	 0,205965675112244 
926	 0,205837904913955 
927	 0,205071980799202 
928	 0,205049773285553 
929	 0,205688583879936 
930	 0,205114634156002 
931	 0,204207313817161 
932	 0,203642464567896 
933	 0,204323682430486 
934	 0,204751092211728 
935	 0,202982049299456 
936	 0,201873359445134 
937	 0,201651312655046 
938	 0,200994944568333 
939	 0,200392670595326 
940	 0,200012799433137 
941	 0,199891136843611 
942	 0,199811316224991 
943	 0,19953233799554 
944	 0,198781033720686 
945	 0,197528363390154 
946	 0,195809053481455 
947	 0,193970697530156 
948	 0,19262972689163 
949	 0,193460416929526 
950	 0,193979509140875 
951	 0,192820570703392 
952	 0,191571714827789 
953	 0,189829312130079 
954	 0,187064046883973 
955	 0,186717223968876 
956	 0,187856927972324 
957	 0,186105794771673 
958	 0,184630069538773 
959	 0,184370945187072 
960	 0,184727093120982 
961	 0,183858338665064 
962	 0,180993497274364 
963	 0,182101088299933 
964	 0,184008600472455 
965	 0,180733338347184 
966	 0,17903655637607 
967	 0,17994248987885 
968	 0,181186407767681 
969	 0,182094641818558 
970	 0,182235271660223 
971	 0,181821354957561 
972	 0,181250960240657 
973	 0,181007226071445 
974	 0,182434484467929 
975	 0,184067654981397 
976	 0,182988922428121 
977	 0,181292258649873 
978	 0,180376558409247 
979	 0,182820991181486 
980	 0,185141694471873 
981	 0,185364122992655 
982	 0,183357475034607 
983	 0,181722980723416 
984	 0,182888257599773 
985	 0,182890571582247 
986	 0,182199917632831 
987	 0,183073585758166 
988	 0,184750053753629 
989	 0,186822516577436 
990	 0,189084854589811 
991	 0,188554503739399 
992	 0,185074781607086 
993	 0,187967094564982 
994	 0,190353344889013 
995	 0,185294028458812 
996	 0,18704948770936 
997	 0,192916886599899 
998	 0,192609802769731 
999	 0,191962795057872 
1000	 0,192177370832975 
1001	 0,191855072520415 
1002	 0,191454701904025 
1003	 0,191322695053905 
1004	 0,191875672701006 
1005	 0,193133214624929 
1006	 0,194876138022821 
1007	 0,195190292940001 
1008	 0,194254870642237 
1009	 0,192973500606622 
1010	 0,194463872698891 
1011	 0,197735988984631 
1012	 0,196339094990906 
1013	 0,196550651977866 
1014	 0,200053353093552 
1015	 0,199888963545696 
1016	 0,200985565666603 
1017	 0,20671613327047 
1018	 0,206567887570548 
1019	 0,202513254076003 
1020	 0,200011743403797 
1021	 0,201117415578737 
1022	 0,203849686055608 
1023	 0,200104405682661 
1024	 0,20215180461339 
1025	 0,210572907098043 
1026	 0,208790512249512 
1027	 0,204284223001772 
1028	 0,202903584016974 
1029	 0,205529682063333 
1030	 0,210265245664656 
1031	 0,214373480635733 
1032	 0,216007412460551 
1033	 0,215795992239744 
1034	 0,215998127579147 
1035	 0,213886806283797 
1036	 0,211894907491183 
1037	 0,221539406296448 
1038	 0,224917939848706 
1039	 0,21617847551242 
1040	 0,210435713999402 
1041	 0,211038452168311 
1042	 0,218155018342041 
1043	 0,215892201019687 
1044	 0,209974354440687 
1045	 0,211413022960013 
1046	 0,213223532475262 
1047	 0,21498541840078 
1048	 0,218380366497006 
1049	 0,229047929067194 
1050	 0,241116601850298 
1051	 0,228397313311144 
1052	 0,214910413882167 
1053	 0,214657925081752 
1054	 0,223490612939476 
1055	 0,231515491301977 
1056	 0,23007572475697 
1057	 0,222452966196698 
1058	 0,217952073121446 
1059	 0,228101318205886 
1060	 0,227606780093119 
1061	 0,220157060632152 
1062	 0,227059547459824 
1063	 0,229542219652367 
1064	 0,224505586721378 
1065	 0,221704036038869 
1066	 0,217146613693183 
1067	 0,211785796566535 
1068	 0,217181062598935 
1069	 0,223117892331949 
1070	 0,222178271119682 
1071	 0,221901156788522 
1072	 0,22439213418538 
1073	 0,229752360884762 
1074	 0,220212589247702 
1075	 0,207088295165612 
