Wavelength	GRA-VAN00553.asd
325	 0,26023281445805 
326	 0,279234559513765 
327	 0,196595754632409 
328	 8,77563946718532E-02 
329	 8,84062894858395E-02 
330	 0,201422747316748 
331	 0,287975880469003 
332	 0,267587948119268 
333	 0,188183508853015 
334	 4,03125153555108E-02 
335	 4,36596224752396E-02 
336	 0,198424834676232 
337	 0,144221898047742 
338	 2,98645138437924E-02 
339	-2,93878758008871E-02 
340	-0,022709842123423 
341	 1,79744507638953E-02 
342	 3,32172427899684E-02 
343	 8,17477834288589E-02 
344	 0,134217915489711 
345	 8,96265051579318E-02 
346	 4,17623460566628E-02 
347	 9,40925488008216E-02 
348	 7,36832588929735E-02 
349	-1,56986853132857E-03 
350	-1,54564564718158E-03 
351	 4,03581740846636E-02 
352	 8,66812009053388E-02 
353	 7,30832437773483E-02 
354	 4,50790731540444E-02 
355	 5,79137906726074E-02 
356	 9,36445353817591E-02 
357	 0,120570106043547 
358	 6,51925597358811E-02 
359	 2,97819968629042E-02 
360	 6,04665420214465E-02 
361	 6,06364138780877E-02 
362	 0,04712678764503 
363	 5,37352621935572E-02 
364	 0,053192357342841 
365	 4,77679839187053E-02 
366	 0,071815957735606 
367	 8,35376626270249E-02 
368	 6,16701115785158E-02 
369	 4,71785180846829E-02 
370	 3,73102097410479E-02 
371	 1,47369293616933E-02 
372	 2,29505983499543E-02 
373	 5,52703706476113E-02 
374	 4,06714015205798E-02 
375	 1,90376082581117E-02 
376	 2,32056894077978E-02 
377	 2,56379823565408E-02 
378	 2,60811029817193E-02 
379	 3,29433216439967E-02 
380	 3,57517786933649E-02 
381	 3,48821728132073E-02 
382	 4,93896914616489E-02 
383	 5,43213507972464E-02 
384	 2,96390680751753E-02 
385	 4,36255409783895E-02 
386	 7,30965743320883E-02 
387	 2,49735566219934E-02 
388	 5,60017308736193E-03 
389	 0,046879680311629 
390	 4,80834033065331E-02 
391	 2,96838142871327E-02 
392	 2,40347542467537E-02 
393	 2,49306640257443E-02 
394	 2,78429930000325E-02 
395	 2,15387354566559E-02 
396	 1,46881317447656E-02 
397	 1,32014774884939E-02 
398	 2,63245962505138E-02 
399	 3,90871716128588E-02 
400	 2,83590847313468E-02 
401	 0,032923205028733 
402	 5,07907169355243E-02 
403	 4,10497403413008E-02 
404	 2,25041749376748E-02 
405	 1,08989273872432E-02 
406	 1,72632590984805E-02 
407	 3,12397372524641E-02 
408	 3,24963712793832E-02 
409	 2,70201996405551E-02 
410	 1,90835508046372E-02 
411	 0,019029879567926 
412	 2,33931009334567E-02 
413	 2,80422062966893E-02 
414	 2,90032956146085E-02 
415	 2,62837583010293E-02 
416	 0,021725504308646 
417	 1,71475932066402E-02 
418	 0,014942800637859 
419	 2,24060844310566E-02 
420	 3,10258117203682E-02 
421	 0,030366422010181 
422	 2,70679407692193E-02 
423	 2,38161401891487E-02 
424	 2,34646403196426E-02 
425	 2,49708669624415E-02 
426	 2,73218872218346E-02 
427	 2,82015327438412E-02 
428	 2,73325470158592E-02 
429	 2,50064481876596E-02 
430	 2,14482912298569E-02 
431	 1,77998515065159E-02 
432	 1,79143270648616E-02 
433	 1,93542323740767E-02 
434	 1,97816501993803E-02 
435	 1,93783846645398E-02 
436	 1,85440369799463E-02 
437	 0,017949023059608 
438	 1,95707115911565E-02 
439	 2,32019633579213E-02 
440	 0,022547840042254 
441	 2,07558938754059E-02 
442	 2,24597875065434E-02 
443	 2,40024897964053E-02 
444	 2,44644391956249E-02 
445	 2,39318902375963E-02 
446	 2,25275409979967E-02 
447	 2,06022616716252E-02 
448	 1,96754594424645E-02 
449	 2,03246628520108E-02 
450	 2,33475457954881E-02 
451	 2,48076990524899E-02 
452	 2,38823463950989E-02 
453	 2,34131071945411E-02 
454	 2,29477882606072E-02 
455	 2,21488518342488E-02 
456	 2,50121339903869E-02 
457	 2,83402777761045E-02 
458	 2,11112761857105E-02 
459	 1,79494714550864E-02 
460	 2,35782375637402E-02 
461	 2,39158253127601E-02 
462	 2,18155014890417E-02 
463	 2,28243361606762E-02 
464	 2,09198841803485E-02 
465	 1,76280176191138E-02 
466	 0,023315302760348 
467	 2,80492399653611E-02 
468	 2,58610111663491E-02 
469	 2,64051502813271E-02 
470	 2,79329554744891E-02 
471	 2,38713403390435E-02 
472	 2,26865960687712E-02 
473	 2,56675403017702E-02 
474	 2,49365423864719E-02 
475	 2,30851202034181E-02 
476	 2,31556245338923E-02 
477	 0,026413172084536 
478	 3,01618989863886E-02 
479	 2,65038790343478E-02 
480	 2,28410319517383E-02 
481	 0,022784675794272 
482	 2,44497573650969E-02 
483	 2,60903033252302E-02 
484	 2,55255603098939E-02 
485	 2,50241051870504E-02 
486	 2,48784661000086E-02 
487	 2,35506466564653E-02 
488	 2,29001725242158E-02 
489	 2,41317222318207E-02 
490	 2,39362257150971E-02 
491	 2,33459625138204E-02 
492	 2,64743542405909E-02 
493	 0,026934203373303 
494	 2,36631775803245E-02 
495	 2,41905616566347E-02 
496	 2,51822153290564E-02 
497	 2,23632618268581E-02 
498	 2,24643811513961E-02 
499	 2,52817950671128E-02 
500	 0,025674188105388 
501	 2,49114822898483E-02 
502	 2,38812518539966E-02 
503	 2,37568629334706E-02 
504	 2,45118815024828E-02 
505	 2,58554988544087E-02 
506	 2,63427650670305E-02 
507	 2,60599810130323E-02 
508	 2,79831864335375E-02 
509	 2,86459182265568E-02 
510	 2,51659825315128E-02 
511	 2,44038524097276E-02 
512	 2,58977019026881E-02 
513	 2,46935038766871E-02 
514	 2,42704907142852E-02 
515	 2,57956495409717E-02 
516	 2,69153605370663E-02 
517	 2,74191867877673E-02 
518	 2,73674540449732E-02 
519	 0,027668399142643 
520	 2,82953406187168E-02 
521	 2,83224590011243E-02 
522	 2,75377496716097E-02 
523	 2,60398830548027E-02 
524	 0,026418665613566 
525	 2,78489985588034E-02 
526	 2,76364060086827E-02 
527	 2,69700636030029E-02 
528	 2,62951174341989E-02 
529	 2,58464050950634E-02 
530	 2,58274238398119E-02 
531	 2,64098305810422E-02 
532	 0,026735091567409 
533	 2,65307882657053E-02 
534	 2,55609865329403E-02 
535	 2,51022805418796E-02 
536	 2,58497746465397E-02 
537	 0,026691161900318 
538	 2,73128703027716E-02 
539	 2,74688745775682E-02 
540	 2,75827384864928E-02 
541	 2,76942905122846E-02 
542	 2,72477636876177E-02 
543	 2,69226632740767E-02 
544	 2,73665428581048E-02 
545	 2,77053354106589E-02 
546	 2,76617756281884E-02 
547	 2,69086128329887E-02 
548	 0,026603990642833 
549	 2,72287488848377E-02 
550	 2,77352369754252E-02 
551	 2,78633180311344E-02 
552	 2,74054706677822E-02 
553	 2,72208197921192E-02 
554	 2,73683240263271E-02 
555	 2,69026063253471E-02 
556	 0,026453830833665 
557	 2,65836734247428E-02 
558	 2,73186148131251E-02 
559	 2,83018465235733E-02 
560	 2,88436160640919E-02 
561	 2,84824547919879E-02 
562	 2,73385785450495E-02 
563	 0,027531513488593 
564	 2,80442864164972E-02 
565	 2,72895859736974E-02 
566	 2,68079060203958E-02 
567	 0,026905119912594 
568	 2,71966852291136E-02 
569	 2,75271447789001E-02 
570	 2,77526970462522E-02 
571	 2,76993293841056E-02 
572	 2,75119286744546E-02 
573	 2,74466408637045E-02 
574	 0,028137749651768 
575	 2,95296950341863E-02 
576	 3,00563341296532E-02 
577	 3,01676468992154E-02 
578	 3,04991258249585E-02 
579	 3,07378028775345E-02 
580	 3,09401195059846E-02 
581	 3,15329257878461E-02 
582	 3,16653228205943E-02 
583	 3,09945889919086E-02 
584	 3,08661364049537E-02 
585	 3,13367579185438E-02 
586	 3,22437622447548E-02 
587	 3,23544679858555E-02 
588	 0,031664851108607 
589	 3,21091849966305E-02 
590	 3,27718892110914E-02 
591	 3,27608477832132E-02 
592	 3,31240335094721E-02 
593	 0,033711385314626 
594	 3,35484167511464E-02 
595	 3,35038140768963E-02 
596	 3,38797348058558E-02 
597	 3,38961484923664E-02 
598	 3,34525176317097E-02 
599	 3,24834090021986E-02 
600	 0,032457768687566 
601	 3,33941965685016E-02 
602	 3,35766655337139E-02 
603	 3,35149611401917E-02 
604	 3,35644342380205E-02 
605	 0,03267838552242 
606	 3,13573150626371E-02 
607	 3,11236714404868E-02 
608	 3,13275872533443E-02 
609	 3,16625028107464E-02 
610	 3,17185130814162E-02 
611	 3,17070249364146E-02 
612	 3,19421991621387E-02 
613	 3,17818186353926E-02 
614	 3,12547076533843E-02 
615	 3,09778998800583E-02 
616	 0,030721025807739 
617	 3,04167087169891E-02 
618	 3,08252312564863E-02 
619	 3,14149718402976E-02 
620	 3,09585994073412E-02 
621	 3,04153380490264E-02 
622	 3,01574211068121E-02 
623	 3,03059920611617E-02 
624	 3,05485012811483E-02 
625	 3,05694963789183E-02 
626	 3,09160367455615E-02 
627	 3,14838705891543E-02 
628	 3,17255581458664E-02 
629	 3,15913195809748E-02 
630	 3,11691395416196E-02 
631	 0,031323565946487 
632	 3,18185936306805E-02 
633	 3,21152866599047E-02 
634	 3,20714235448557E-02 
635	 3,18668790450245E-02 
636	 3,25059346767075E-02 
637	 0,033121914656078 
638	 3,30038598162602E-02 
639	 3,31784739008705E-02 
640	 3,35571838031721E-02 
641	 3,33389386872791E-02 
642	 3,36125741301373E-02 
643	 3,46172082437729E-02 
644	 3,49741265305029E-02 
645	 3,49530377582685E-02 
646	 0,035075531603411 
647	 3,52077726995862E-02 
648	 3,51831457003953E-02 
649	 3,44778821929845E-02 
650	 3,38013692930445E-02 
651	 3,36272337477493E-02 
652	 3,35104308263439E-02 
653	 3,34629774369767E-02 
654	 3,37072219189722E-02 
655	 3,35915372080584E-02 
656	 3,29336886058128E-02 
657	 3,20756328614256E-02 
658	 3,12836644403951E-02 
659	 3,08103584791201E-02 
660	 3,06289050848675E-02 
661	 3,05983868719149E-02 
662	 3,03641247968486E-02 
663	 3,00860728959503E-02 
664	 2,98739056884049E-02 
665	 3,00057020597209E-02 
666	 2,99877056204964E-02 
667	 2,89929928955318E-02 
668	 2,83904791622424E-02 
669	 2,84130435947457E-02 
670	 2,82607413824719E-02 
671	 2,80498141207537E-02 
672	 2,79221901634113E-02 
673	 2,83053166670225E-02 
674	 2,89000300506297E-02 
675	 2,88716798232416E-02 
676	 2,85487167570849E-02 
677	 2,82130146909447E-02 
678	 2,87106058421176E-02 
679	 2,94921652630743E-02 
680	 2,98209482746317E-02 
681	 2,93857118856141E-02 
682	 2,87046720065405E-02 
683	 2,96833047500494E-02 
684	 3,06854135098998E-02 
685	 3,07686128317918E-02 
686	 3,06909262452976E-02 
687	 3,08885155990752E-02 
688	 3,20147188462512E-02 
689	 3,23187521523376E-02 
690	 3,18479940292063E-02 
691	 3,31594444138562E-02 
692	 3,53673729970805E-02 
693	 3,75360639775604E-02 
694	 0,039182243902093 
695	 4,06956026357377E-02 
696	 4,33208427448555E-02 
697	 0,04644079687302 
698	 4,97895284830701E-02 
699	 0,053195377800306 
700	 5,71428042455605E-02 
701	 6,22598570710466E-02 
702	 6,69500310791949E-02 
703	 7,11396653275773E-02 
704	 7,60758818147481E-02 
705	 8,13704657368568E-02 
706	 8,66482771345389E-02 
707	 9,11229351406373E-02 
708	 0,095186372760471 
709	 9,97455215533492E-02 
710	 0,104405647375695 
711	 0,108974025246471 
712	 0,113132872077307 
713	 0,116990189728463 
714	 0,120643467362181 
715	 0,123772797304683 
716	 0,126584014282264 
717	 0,129747754206333 
718	 0,132654560795953 
719	 0,135084606489484 
720	 0,137298848162244 
721	 0,139424332817636 
722	 0,14159531700614 
723	 0,143186847709526 
724	 0,144417431904929 
725	 0,146548917854745 
726	 0,148417457356891 
727	 0,149379492135473 
728	 0,150465724287388 
729	 0,151714855605839 
730	 0,152952926852248 
731	 0,153937732682047 
732	 0,154590365936881 
733	 0,154960321042807 
734	 0,15538198244372 
735	 0,156129765055013 
736	 0,156846405115557 
737	 0,157535502112452 
738	 0,158426136177506 
739	 0,159111157281503 
740	 0,159430914142193 
741	 0,15948029750231 
742	 0,159598655010118 
743	 0,160148558283637 
744	 0,160467885946154 
745	 0,160485873740391 
746	 0,160418737965171 
747	 0,160646619123822 
748	 0,16134072263708 
749	 0,162076655005246 
750	 0,162621222328277 
751	 0,162729788030424 
752	 0,162598427312099 
753	 0,162432034211239 
754	 0,1627092063162 
755	 0,162978056373936 
756	 0,162949550373079 
757	 0,163248039597353 
758	 0,163734189661839 
759	 0,163958614944952 
760	 0,164014613216476 
761	 0,16394307412456 
762	 0,163793098195666 
763	 0,163843912689659 
764	 0,164311651256614 
765	 0,164452704255706 
766	 0,164374157448208 
767	 0,164791176595732 
768	 0,165008320941148 
769	 0,164856317343045 
770	 0,165027256144087 
771	 0,165367706741141 
772	 0,165624849120366 
773	 0,165737163643724 
774	 0,165749919196295 
775	 0,165858496480839 
776	 0,166042761400534 
777	 0,166217217080986 
778	 0,165818027622944 
779	 0,165426620371531 
780	 0,165973834176384 
781	 0,166105761858637 
782	 0,165735203132353 
783	 0,165903531939083 
784	 0,166236546368339 
785	 0,166474839079644 
786	 0,16664728023815 
787	 0,166768407918285 
788	 0,166879573611227 
789	 0,166801523647493 
790	 0,166668152716019 
791	 0,167296676088016 
792	 0,167691277407275 
793	 0,167111386601737 
794	 0,166642631484218 
795	 0,166608671308873 
796	 0,167321612591906 
797	 0,167742540568217 
798	 0,167589121914449 
799	 0,167519168083807 
800	 0,167484954008636 
801	 0,167419876678063 
802	 0,167412016818288 
803	 0,167461408300356 
804	 0,167519086363212 
805	 0,167635769454692 
806	 0,167797057967251 
807	 0,167879280721319 
808	 0,167783002273558 
809	 0,167452140910672 
810	 0,167661449333349 
811	 0,168359544630242 
812	 0,168988787747193 
813	 0,169306034236429 
814	 0,169219166004923 
815	 0,169061269338397 
816	 0,169010342798773 
817	 0,16922490804829 
818	 0,169369901682287 
819	 0,169453769360046 
820	 0,16978899547389 
821	 0,1699716019735 
822	 0,169824932376253 
823	 0,169557296126885 
824	 0,169422729744925 
825	 0,169704153294541 
826	 0,170375037764609 
827	 0,171054978038208 
828	 0,170644448046806 
829	 0,170207030602406 
830	 0,170241865224787 
831	 0,169934097933068 
832	 0,169742530433645 
833	 0,170376223003089 
834	 0,1708394494578 
835	 0,170973094449399 
836	 0,171151283959114 
837	 0,171430339583429 
838	 0,171746182291405 
839	 0,171335636455072 
840	 0,1709131077701 
841	 0,171574341340779 
842	 0,1718140942581 
843	 0,171396606164064 
844	 0,170816581661571 
845	 0,17060010714155 
846	 0,170997826345951 
847	 0,171432843280123 
848	 0,171560862103702 
849	 0,171024888833482 
850	 0,170876578026464 
851	 0,171164525753587 
852	 0,171036607728373 
853	 0,171057190231466 
854	 0,17142080060948 
855	 0,171314427799599 
856	 0,17095023268552 
857	 0,170741868314918 
858	 0,17103330311204 
859	 0,171605265377312 
860	 0,171469821505352 
861	 0,171244523671474 
862	 0,171227087766354 
863	 0,171095975879463 
864	 0,171048196340349 
865	 0,171357028534448 
866	 0,171056817732898 
867	 0,170424932055536 
868	 0,17101664549757 
869	 0,171685405548455 
870	 0,171869578202416 
871	 0,171853109992739 
872	 0,171539019201425 
873	 0,170847244724086 
874	 0,171704005287819 
875	 0,173348123939669 
876	 0,172254297246553 
877	 0,171707289412821 
878	 0,172803459510738 
879	 0,173312546122929 
880	 0,173327881436243 
881	 0,173144270630723 
882	 0,172946401087717 
883	 0,172684970798879 
884	 0,17183540484786 
885	 0,172326931631563 
886	 0,174206534413235 
887	 0,173836371090185 
888	 0,172942291989221 
889	 0,173284807493592 
890	 0,173427814161289 
891	 0,173292219710514 
892	 0,173200751444369 
893	 0,173364986047745 
894	 0,173749422108753 
895	 0,173762303599597 
896	 0,173961900873231 
897	 0,174686729721918 
898	 0,17475068714287 
899	 0,17426190527113 
900	 0,173714189064561 
901	 0,173787827955372 
902	 0,174439766402795 
903	 0,174639595888319 
904	 0,174631826958338 
905	 0,174642333531914 
906	 0,175238464194413 
907	 0,175660565140542 
908	 0,174770153224106 
909	 0,174402482193777 
910	 0,174822223027386 
911	 0,17537375107781 
912	 0,175590330677911 
913	 0,175254393209335 
914	 0,174743900413187 
915	 0,174359056167218 
916	 0,174381644561736 
917	 0,174608414592785 
918	 0,174959104301323 
919	 0,175393177186847 
920	 0,17571623563622 
921	 0,175758219308627 
922	 0,175229009737862 
923	 0,174401716665675 
924	 0,173683760944881 
925	 0,174700586739474 
926	 0,175887343469114 
927	 0,173978992135645 
928	 0,173251264185769 
929	 0,174229691771024 
930	 0,174080739987192 
931	 0,173510799665697 
932	 0,173071117795898 
933	 0,1736192664059 
934	 0,174317591642847 
935	 0,173993671265491 
936	 0,173399527946058 
937	 0,172800501897518 
938	 0,172337301040518 
939	 0,172535994107011 
940	 0,173247560494029 
941	 0,172611041658637 
942	 0,171924952753493 
943	 0,172311281980053 
944	 0,172006969657173 
945	 0,171267115762035 
946	 0,171096888046219 
947	 0,17063177455169 
948	 0,170036975277516 
949	 0,170930474361311 
950	 0,171004784906101 
951	 0,169213410258354 
952	 0,168175985263539 
953	 0,167270301125822 
954	 0,16552055641557 
955	 0,165868169414294 
956	 0,16744223051372 
957	 0,166396040313299 
958	 0,165681430048321 
959	 0,165930010579943 
960	 0,16525146439344 
961	 0,16461594899516 
962	 0,164825691130824 
963	 0,165733308179817 
964	 0,16659695882008 
965	 0,166373698250508 
966	 0,165423595437105 
967	 0,16409433695211 
968	 0,162774184592782 
969	 0,163361325175843 
970	 0,165913211248648 
971	 0,166170514107048 
972	 0,164897686514393 
973	 0,163343792497306 
974	 0,164290994945041 
975	 0,165755933067828 
976	 0,16327306846178 
977	 0,162927462771456 
978	 0,165385205363194 
979	 0,167097896187585 
980	 0,167101665902654 
981	 0,165364976614323 
982	 0,165120700790281 
983	 0,16560770210413 
984	 0,165764909133303 
985	 0,166054346657808 
986	 0,166236295259901 
987	 0,165695984137146 
988	 0,166304726885166 
989	 0,168013147457707 
990	 0,168752979180659 
991	 0,168294013141132 
992	 0,166938997683285 
993	 0,167471442135411 
994	 0,167639944418596 
995	 0,165284619150903 
996	 0,166347282836457 
997	 0,169388555754165 
998	 0,169491459753456 
999	 0,169833821995505 
1000	 0,170824447270616 
1001	 0,171011963450062 
1002	 0,170207444602935 
1003	 0,168841510196335 
1004	 0,16994564586256 
1005	 0,17149180402113 
1006	 0,171335183387258 
1007	 0,171112666295041 
1008	 0,170545758722987 
1009	 0,168651133930387 
1010	 0,169260575251202 
1011	 0,172123098777414 
1012	 0,173035969012821 
1013	 0,172727090095491 
1014	 0,1717598039453 
1015	 0,171614067730318 
1016	 0,172408639640527 
1017	 0,174012074537226 
1018	 0,175415227059859 
1019	 0,175803242664469 
1020	 0,174368464857687 
1021	 0,172726459379234 
1022	 0,172075734895611 
1023	 0,173986035055865 
1024	 0,179663442735224 
1025	 0,186313829044882 
1026	 0,18155539741163 
1027	 0,174838001238851 
1028	 0,173609940529809 
1029	 0,179917962916474 
1030	 0,185363350816445 
1031	 0,180645089926055 
1032	 0,179437311495581 
1033	 0,182528562159265 
1034	 0,186236021626892 
1035	 0,183584583684281 
1036	 0,176998257096703 
1037	 0,183219706907439 
1038	 0,186113531582006 
1039	 0,181004862128754 
1040	 0,184704619824652 
1041	 0,187731141979483 
1042	 0,182548693579853 
1043	 0,179783233003469 
1044	 0,179263122011818 
1045	 0,178749951834999 
1046	 0,179362717484881 
1047	 0,181453075926653 
1048	 0,185226724954004 
1049	 0,191725299067529 
1050	 0,197681182735531 
1051	 0,190707796337188 
1052	 0,187661418116895 
1053	 0,195110443232355 
1054	 0,194637944155008 
1055	 0,196395561104721 
1056	 0,206694796305602 
1057	 0,194712586097133 
1058	 0,180179476241624 
1059	 0,195512954605732 
1060	 0,188533861505575 
1061	 0,170511784781558 
1062	 0,193400954749048 
1063	 0,200321101023565 
1064	 0,182660570059226 
1065	 0,172044255188081 
1066	 0,173668332414872 
1067	 0,187759391553102 
1068	 0,203338152169268 
1069	 0,198409069250846 
1070	 0,164943891267753 
1071	 0,171154141408794 
1072	 0,192993931396409 
1073	 0,190767994029884 
1074	 0,183130491830738 
1075	 0,181499055751306 
