Wavelength	GRA-VIE00778.asd
325	 0,16885698085124 
326	 0,209676301859601 
327	 0,192261916188355 
328	 0,11429390983287 
329	 0,145779058810487 
330	 0,146935146202277 
331	 3,48507999744305E-02 
332	 9,23304125646894E-02 
333	 0,259952255641011 
334	 0,127458402375948 
335	 0,103940188505421 
336	 0,229510351372613 
337	 0,188589551186067 
338	 0,134547171693244 
339	 0,168514877746995 
340	 0,130405040187615 
341	 6,21559263183118E-02 
342	 0,162863107829718 
343	 0,240628346147131 
344	 0,24250914688657 
345	 0,182504216751713 
346	 0,131706225098851 
347	 0,170158703016515 
348	 0,16616905408881 
349	 0,125339753732395 
350	 0,1327105892164 
351	 0,143536872303894 
352	 0,145874596038455 
353	 0,153190022527598 
354	 0,158366855249855 
355	 0,15381992299058 
356	 0,168759584215418 
357	 0,188765308755516 
358	 0,155753036682519 
359	 0,121790201197973 
360	 0,112433274432179 
361	 0,127998534957249 
362	 0,15256421186095 
363	 0,166885721081775 
364	 0,167925722749227 
365	 0,156287497809117 
366	 0,134096525102711 
367	 0,133649827755815 
368	 0,167045620978091 
369	 0,157036476019403 
370	 0,130242604238723 
371	 0,147783113786224 
372	 0,159845825901095 
373	 0,155031301400156 
374	 0,149152852548895 
375	 0,141920581242551 
376	 0,133429454611774 
377	 0,134321260117518 
378	 0,143935294516536 
379	 0,158096272302166 
380	 0,158417470228194 
381	 0,143952846205695 
382	 0,13524337221654 
383	 0,131368311969712 
384	 0,131027118361088 
385	 0,143800513980095 
386	 0,155771863718802 
387	 0,127683435684877 
388	 0,123397611973197 
389	 0,158174156138377 
390	 0,162749337645109 
391	 0,152082821721087 
392	 0,150046126192765 
393	 0,144501527129129 
394	 0,135610167135759 
395	 0,127412378320491 
396	 0,137488598690567 
397	 0,167951794415012 
398	 0,167228754685195 
399	 0,14879423450495 
400	 0,140390004134319 
401	 0,14442675754979 
402	 0,154420192539465 
403	 0,141168381610945 
404	 0,132817921318297 
405	 0,146450554540493 
406	 0,146073254188971 
407	 0,137065547432411 
408	 0,141000283580614 
409	 0,144148222242667 
410	 0,142647874234631 
411	 0,136308846179602 
412	 0,132060277070633 
413	 0,135666883054779 
414	 0,136376308479997 
415	 0,133878230320796 
416	 0,132712418536966 
417	 0,132138635108497 
418	 0,132591002389328 
419	 0,138069108453192 
420	 0,14382165719862 
421	 0,14380070174118 
422	 0,139405350782299 
423	 0,134155099939899 
424	 0,137801934863396 
425	 0,139661292403649 
426	 0,134344715085456 
427	 0,135260999275762 
428	 0,139018899802481 
429	 0,136492386877457 
430	 0,135078879058143 
431	 0,136123913993179 
432	 0,135862311923251 
433	 0,134259889217279 
434	 0,131844519667061 
435	 0,136057647667432 
436	 0,142624061759766 
437	 0,137370271375132 
438	 0,132826343554961 
439	 0,133796366443692 
440	 0,13583930136926 
441	 0,137349863674843 
442	 0,136945351641578 
443	 0,13468850673499 
444	 0,132281649634249 
445	 0,134771793162011 
446	 0,139085068185531 
447	 0,142554866379133 
448	 0,139880944912491 
449	 0,135252268197179 
450	 0,137681721959452 
451	 0,140611130377162 
452	 0,141874562587217 
453	 0,141251173863397 
454	 0,141580443981595 
455	 0,145143403300382 
456	 0,14475390151652 
457	 0,141883468335732 
458	 0,144255740911169 
459	 0,146192802025705 
460	 0,145431028197573 
461	 0,143698733244567 
462	 0,142340765498129 
463	 0,142913812873112 
464	 0,141667194944056 
465	 0,139140963170513 
466	 0,140586542386967 
467	 0,142522135205584 
468	 0,142733181606292 
469	 0,143756269088279 
470	 0,1443887903811 
471	 0,141276919376611 
472	 0,141222133291147 
473	 0,14460616061444 
474	 0,141441458023829 
475	 0,138779729493512 
476	 0,143625588446171 
477	 0,145337105442125 
478	 0,143740725150115 
479	 0,144655051370973 
480	 0,145268139195121 
481	 0,144310150567504 
482	 0,141810585758479 
483	 0,140085041888587 
484	 0,142519520522323 
485	 0,144259971254042 
486	 0,14401953470766 
487	 0,142249097410649 
488	 0,141530605947401 
489	 0,143550621061778 
490	 0,144620471424674 
491	 0,144009963879038 
492	 0,141182812212854 
493	 0,14000752289555 
494	 0,141350050440183 
495	 0,14126795572086 
496	 0,140121817781042 
497	 0,13869787770813 
498	 0,139772956980763 
499	 0,142441107834676 
500	 0,141929640577199 
501	 0,141456421974124 
502	 0,14254848230798 
503	 0,14180741945632 
504	 0,140710665233558 
505	 0,142584502750035 
506	 0,143631729620206 
507	 0,143134062875816 
508	 0,14318565754472 
509	 0,143852919787678 
510	 0,145091417566364 
511	 0,146652801266126 
512	 0,148239405109729 
513	 0,149719019632587 
514	 0,149223014180271 
515	 0,146667992793534 
516	 0,146996071543253 
517	 0,14867262611 
518	 0,148868401613151 
519	 0,14967323216698 
520	 0,150783521705022 
521	 0,149193909538737 
522	 0,148267760748934 
523	 0,150143063087305 
524	 0,14969736139384 
525	 0,148125746922982 
526	 0,150210029978691 
527	 0,151058901932056 
528	 0,149437157879323 
529	 0,148347092248204 
530	 0,147782433679471 
531	 0,147454801548936 
532	 0,148040693702449 
533	 0,149046808561748 
534	 0,148643678224415 
535	 0,147869199810517 
536	 0,147475548188463 
537	 0,14843443750604 
538	 0,149321822312985 
539	 0,147130482509493 
540	 0,146542764566707 
541	 0,148366416820229 
542	 0,149036969201163 
543	 0,148767829804521 
544	 0,148023113413884 
545	 0,148366477803508 
546	 0,14943619266735 
547	 0,14923432111754 
548	 0,148956564377838 
549	 0,14910111925338 
550	 0,148937744745465 
551	 0,148638052719757 
552	 0,148550558949027 
553	 0,149055204651524 
554	 0,149779132834551 
555	 0,148907016180057 
556	 0,147523688520449 
557	 0,146672419215427 
558	 0,147293574647566 
559	 0,148438126217977 
560	 0,147236344159823 
561	 0,146404423809725 
562	 0,146843197957987 
563	 0,146874026408062 
564	 0,146672363475028 
565	 0,14666124889942 
566	 0,14682121275069 
567	 0,147145506992875 
568	 0,147626957484033 
569	 0,147928030882361 
570	 0,147901624099029 
571	 0,148465248209983 
572	 0,149692995528187 
573	 0,151572742904784 
574	 0,15253339384136 
575	 0,152359376273211 
576	 0,153389617113615 
577	 0,154644688288702 
578	 0,154899477553438 
579	 0,156943529215351 
580	 0,160228632523605 
581	 0,161175670203421 
582	 0,16179515494614 
583	 0,163130245609118 
584	 0,16385447466486 
585	 0,164510549461966 
586	 0,166391488012217 
587	 0,167338894977146 
588	 0,1672026469611 
589	 0,168460353050091 
590	 0,169915807101147 
591	 0,170372653088868 
592	 0,170615710702122 
593	 0,170863239323937 
594	 0,171261592341969 
595	 0,171696836874609 
596	 0,172135906887787 
597	 0,172805038964592 
598	 0,173246010241938 
599	 0,172748417775362 
600	 0,172519218992771 
601	 0,172747297109342 
602	 0,172779421792687 
603	 0,172358693538413 
604	 0,17137419755546 
605	 0,170968147789057 
606	 0,17082055393586 
607	 0,169651289265952 
608	 0,168287628611506 
609	 0,16714721113559 
610	 0,166601030084601 
611	 0,166395249628174 
612	 0,166168704031572 
613	 0,165832434144052 
614	 0,16538069504475 
615	 0,16497723519263 
616	 0,164454341706316 
617	 0,163761571285769 
618	 0,163336264640738 
619	 0,163306058035747 
620	 0,163827337689307 
621	 0,164108717817604 
622	 0,163988529816258 
623	 0,164250205464793 
624	 0,164454620359324 
625	 0,16413088214114 
626	 0,163958612779236 
627	 0,164110245162591 
628	 0,164616432230027 
629	 0,165196120840436 
630	 0,165633824025361 
631	 0,165563262423234 
632	 0,165629670900135 
633	 0,166940876356767 
634	 0,168038818130634 
635	 0,16859294442357 
636	 0,169083620705308 
637	 0,170070576192059 
638	 0,171886238433475 
639	 0,172534786698988 
640	 0,172420869080369 
641	 0,173521632730058 
642	 0,174718202539063 
643	 0,175548282525447 
644	 0,175986420767421 
645	 0,176358499757943 
646	 0,17709383692729 
647	 0,177344164090106 
648	 0,177097281910461 
649	 0,177136434116745 
650	 0,176967519608567 
651	 0,176252509928363 
652	 0,175108784445917 
653	 0,173815426958742 
654	 0,172882237262005 
655	 0,171751209516976 
656	 0,17028771557016 
657	 0,168805054181054 
658	 0,167262557772961 
659	 0,165598781756795 
660	 0,163650647225414 
661	 0,161590557971378 
662	 0,159970144155117 
663	 0,158343264026897 
664	 0,156592412546288 
665	 0,155541595106479 
666	 0,154742633473063 
667	 0,153331245343723 
668	 0,152532865470446 
669	 0,15238460577407 
670	 0,151490420580511 
671	 0,151153752466264 
672	 0,152242779032261 
673	 0,151856668129134 
674	 0,150544972154896 
675	 0,150928394694214 
676	 0,151088940785698 
677	 0,150473769950759 
678	 0,14991917107243 
679	 0,149884407346109 
680	 0,15080562510248 
681	 0,151243829473471 
682	 0,151288848313853 
683	 0,152352120875689 
684	 0,153876237779459 
685	 0,155511331222438 
686	 0,157134938809385 
687	 0,159124228975099 
688	 0,16208974050986 
689	 0,166127349884211 
690	 0,171086642380338 
691	 0,176080485333078 
692	 0,181663921246658 
693	 0,188397434016794 
694	 0,196517530017707 
695	 0,20591244400325 
696	 0,216197638766729 
697	 0,227353997811867 
698	 0,239280753098056 
699	 0,25176301808021 
700	 0,26492536308102 
701	 0,278939352446091 
702	 0,292887147169064 
703	 0,306550269623212 
704	 0,32024769285837 
705	 0,333792086679399 
706	 0,346964151372886 
707	 0,359188338330231 
708	 0,370736782360194 
709	 0,382239218989107 
710	 0,393226660866715 
711	 0,403533582528909 
712	 0,413077613091392 
713	 0,421986371303872 
714	 0,430398581615216 
715	 0,438016268407002 
716	 0,44502663155206 
717	 0,45207513256642 
718	 0,458465522317555 
719	 0,464002896009436 
720	 0,469296780713815 
721	 0,474192636043594 
722	 0,478451058106226 
723	 0,482641632860062 
724	 0,486796166209773 
725	 0,490584604695709 
726	 0,493810883094899 
727	 0,496418295477107 
728	 0,499060298431896 
729	 0,501667351415457 
730	 0,503947438572297 
731	 0,505759800216544 
732	 0,507253421635789 
733	 0,509253675899092 
734	 0,511180287916108 
735	 0,512518216513574 
736	 0,513745728476798 
737	 0,514921468219125 
738	 0,515926431035674 
739	 0,517056130490179 
740	 0,518318129220379 
741	 0,51907231291448 
742	 0,519652436839543 
743	 0,520499183013738 
744	 0,521384198452604 
745	 0,522234221759437 
746	 0,522959526085683 
747	 0,52371882618927 
748	 0,524577132381353 
749	 0,525376507380799 
750	 0,526019937784118 
751	 0,526387972679066 
752	 0,526818363125749 
753	 0,527390542776954 
754	 0,527961674952678 
755	 0,528576681567108 
756	 0,52924261287035 
757	 0,529697738961512 
758	 0,530035036508122 
759	 0,530517835063525 
760	 0,531090361496321 
761	 0,53165200915109 
762	 0,531835519191635 
763	 0,531901379072503 
764	 0,532110281542251 
765	 0,532318762116233 
766	 0,532497479307809 
767	 0,53259125088899 
768	 0,532866344431437 
769	 0,533386105036114 
770	 0,533849225482219 
771	 0,534162806944047 
772	 0,534261872071085 
773	 0,534481612998637 
774	 0,534819649385932 
775	 0,534989190768462 
776	 0,5352222143281 
777	 0,535576387103386 
778	 0,535583349987351 
779	 0,535482611698113 
780	 0,535691837683948 
781	 0,535967105231991 
782	 0,5362579260507 
783	 0,536609740225877 
784	 0,536999983514456 
785	 0,537362419079773 
786	 0,537276832884011 
787	 0,537096826916074 
788	 0,53755815953494 
789	 0,537825914937536 
790	 0,537820654039163 
791	 0,538344912615858 
792	 0,538809233982449 
793	 0,538755891932129 
794	 0,538756741203706 
795	 0,538797898439539 
796	 0,538562329673235 
797	 0,538914352165298 
798	 0,539860711479019 
799	 0,539989076527731 
800	 0,539791102255582 
801	 0,539790212851556 
802	 0,539649578362374 
803	 0,539530376848867 
804	 0,53998331958316 
805	 0,540273171706378 
806	 0,540271228395152 
807	 0,540909462467421 
808	 0,541608528833535 
809	 0,541705300838965 
810	 0,541771352875043 
811	 0,542008104226014 
812	 0,542659949957695 
813	 0,543146369655779 
814	 0,543238125760331 
815	 0,543266981459162 
816	 0,54337137286542 
817	 0,543681392438507 
818	 0,54437548245694 
819	 0,545319080429727 
820	 0,54613685186827 
821	 0,546343485015462 
822	 0,54585266507307 
823	 0,545796177430514 
824	 0,546079375440048 
825	 0,546412035549058 
826	 0,546843150454823 
827	 0,547219420682946 
828	 0,547102344605251 
829	 0,546937979973018 
830	 0,54698592375638 
831	 0,547229233115662 
832	 0,547485303888417 
833	 0,547510902048606 
834	 0,547709962303117 
835	 0,548015456478711 
836	 0,547878854371741 
837	 0,547716683306725 
838	 0,547770482961571 
839	 0,547962829609541 
840	 0,54826803116084 
841	 0,54865952144661 
842	 0,548639132089076 
843	 0,548354706421312 
844	 0,548776075916464 
845	 0,548984627230583 
846	 0,548668688991271 
847	 0,549435508534908 
848	 0,550452218825273 
849	 0,550329371172503 
850	 0,549972115950781 
851	 0,549798350608147 
852	 0,550390670158864 
853	 0,55096277224948 
854	 0,551049116576306 
855	 0,550743618732529 
856	 0,550422008725809 
857	 0,550567892170613 
858	 0,551059748322374 
859	 0,551784678546209 
860	 0,552631141204164 
861	 0,552726800963878 
862	 0,55187484096204 
863	 0,551970122188005 
864	 0,552746864931484 
865	 0,553562517197259 
866	 0,554020984070057 
867	 0,5542187949808 
868	 0,554981594018372 
869	 0,555116168159641 
870	 0,55430125553309 
871	 0,554266343664331 
872	 0,554644837050105 
873	 0,554787003491619 
874	 0,55457304139114 
875	 0,554294102435805 
876	 0,554861618364737 
877	 0,555617361721385 
878	 0,556242049228082 
879	 0,55682499222941 
880	 0,556860217021844 
881	 0,555907334955379 
882	 0,555698195423298 
883	 0,55621380651624 
884	 0,556381958747276 
885	 0,556618451246679 
886	 0,55701241334211 
887	 0,557454919746562 
888	 0,557711910214541 
889	 0,557618388854654 
890	 0,557838608966261 
891	 0,55834336978013 
892	 0,55884890739497 
893	 0,558769544212166 
894	 0,558238564945177 
895	 0,55881790075012 
896	 0,559398282915069 
897	 0,559170331628246 
898	 0,559495450644938 
899	 0,560115850101085 
900	 0,560211189454377 
901	 0,560347494445551 
902	 0,560597258449755 
903	 0,560618670358535 
904	 0,560701068950447 
905	 0,560996136754141 
906	 0,56121788427791 
907	 0,561267010687336 
908	 0,561064488476251 
909	 0,561120879890714 
910	 0,561451031451094 
911	 0,561686138562391 
912	 0,561753728780184 
913	 0,561670383794125 
914	 0,561809129126818 
915	 0,562096438966352 
916	 0,562379196132079 
917	 0,562089326921947 
918	 0,561402276002954 
919	 0,561019159998228 
920	 0,560737336634282 
921	 0,560729079954193 
922	 0,562054464075342 
923	 0,56299081648936 
924	 0,562160572467228 
925	 0,5610476811535 
926	 0,560293416530596 
927	 0,560584132750665 
928	 0,560331930033588 
929	 0,559538243280349 
930	 0,560017658472115 
931	 0,56060858031001 
932	 0,560551964999044 
933	 0,559732281423724 
934	 0,55899647983687 
935	 0,559398682520423 
936	 0,559697917248907 
937	 0,559539531038579 
938	 0,558692461154353 
939	 0,558411673220964 
940	 0,55883640352857 
941	 0,557863069004221 
942	 0,556831711008089 
943	 0,556963826263026 
944	 0,557121192083905 
945	 0,556890596270977 
946	 0,555914192156232 
947	 0,554438432971876 
948	 0,552693062228612 
949	 0,551073548839816 
950	 0,54986435657161 
951	 0,549162013224292 
952	 0,548314514397086 
953	 0,547794315291201 
954	 0,548141463198992 
955	 0,546422979761645 
956	 0,543640995853592 
957	 0,544018548525586 
958	 0,543902645580573 
959	 0,542632360122748 
960	 0,543342410048016 
961	 0,543414484736179 
962	 0,541130614703463 
963	 0,540071709258097 
964	 0,540295665198799 
965	 0,54104501469667 
966	 0,541778170950634 
967	 0,541808576320732 
968	 0,539528163554733 
969	 0,538438027230236 
970	 0,539666714546495 
971	 0,540073151814385 
972	 0,540199287826327 
973	 0,540661168028124 
974	 0,540709464240344 
975	 0,540709074374825 
976	 0,54150638683347 
977	 0,542075685502131 
978	 0,541917928005836 
979	 0,540242220878339 
980	 0,539528197449562 
981	 0,54075095982504 
982	 0,541573294771664 
983	 0,541814279370772 
984	 0,541601754828745 
985	 0,542580177380183 
986	 0,543638704978969 
987	 0,541960753605765 
988	 0,541976573411632 
989	 0,544334894737091 
990	 0,546621155048412 
991	 0,547606622373044 
992	 0,546794521831213 
993	 0,545612311765046 
994	 0,545799963115271 
995	 0,548688467263633 
996	 0,550391870645109 
997	 0,550769434576608 
998	 0,55106087281334 
999	 0,552054617076453 
1000	 0,553756821223873 
1001	 0,555496235542449 
1002	 0,555016501448895 
1003	 0,552526520645426 
1004	 0,556213135608545 
1005	 0,56066735893266 
1006	 0,56020432015817 
1007	 0,558240131076128 
1008	 0,558105302293786 
1009	 0,564563820769277 
1010	 0,565982132003805 
1011	 0,562388797366049 
1012	 0,565193738366187 
1013	 0,567131562096838 
1014	 0,565684636573277 
1015	 0,56467793821111 
1016	 0,564913224754925 
1017	 0,566672629692286 
1018	 0,56779371855925 
1019	 0,568226092808628 
1020	 0,568427499590782 
1021	 0,568813378809142 
1022	 0,570382059940194 
1023	 0,576085278821201 
1024	 0,577249343238176 
1025	 0,572869538348737 
1026	 0,57308842125853 
1027	 0,575766963086531 
1028	 0,578316470724127 
1029	 0,57380163183617 
1030	 0,571259457697642 
1031	 0,580930237774498 
1032	 0,58415512244505 
1033	 0,579741651717489 
1034	 0,572911035531422 
1035	 0,571131890956767 
1036	 0,575590419542312 
1037	 0,582129164965522 
1038	 0,583543773442933 
1039	 0,578764858297233 
1040	 0,582881271368523 
1041	 0,587099397804795 
1042	 0,583576984497319 
1043	 0,576493193481222 
1044	 0,571509629205524 
1045	 0,57452688127221 
1046	 0,58040263797479 
1047	 0,58520605781488 
1048	 0,583511927656891 
1049	 0,581959869642748 
1050	 0,583126185480158 
1051	 0,587922344423124 
1052	 0,591079713869229 
1053	 0,590542729764826 
1054	 0,591311131105089 
1055	 0,591281655544952 
1056	 0,588619927633791 
1057	 0,585609712779923 
1058	 0,583285168579162 
1059	 0,582828055992215 
1060	 0,59148811541035 
1061	 0,599516050079582 
1062	 0,58286287584463 
1063	 0,577295247840097 
1064	 0,587596163375877 
1065	 0,588211915690683 
1066	 0,581886955042803 
1067	 0,57389112477165 
1068	 0,587635075442689 
1069	 0,596930028636358 
1070	 0,583962503993083 
1071	 0,582230860836535 
1072	 0,585286174719209 
1073	 0,581517849015268 
1074	 0,581376791569846 
1075	 0,583014797555456 
