Wavelength	GRA-BER00698.asd
325	-8,44522920295798E-02 
326	-0,093576455914234 
327	-1,85170448632799E-02 
328	 9,45403207464483E-02 
329	 0,172225674235126 
330	 0,185883372524302 
331	 9,19611059256373E-02 
332	-6,35553919344298E-03 
333	-5,28656767543609E-02 
334	 3,6450233281493E-03 
335	 7,66303001035716E-03 
336	-5,98936298803336E-02 
337	-0,120062358737057 
338	-0,106541736510825 
339	 2,79112669088008E-02 
340	 0,036629046308911 
341	-3,80770940496603E-02 
342	-2,39765533481289E-02 
343	-0,041503168474039 
344	-9,94311311421348E-02 
345	-6,04969617360288E-02 
346	 1,35769673510177E-02 
347	 4,68708404028632E-02 
348	 5,52326893859453E-02 
349	 4,91633130259118E-02 
350	 3,09827483430028E-02 
351	 6,77959654381878E-02 
352	 0,146896767841765 
353	 0,118621245976257 
354	 4,28008201069238E-02 
355	-1,25241269584486E-02 
356	-2,00989016394063E-02 
357	 0,01823697377966 
358	 5,35738873472155E-02 
359	 6,64616639200829E-02 
360	 6,13178784572335E-02 
361	 8,89632952255035E-02 
362	 0,108363253514549 
363	 5,62204675453867E-02 
364	 2,26057616856573E-02 
365	 2,05151621722804E-02 
366	 2,19432781529103E-02 
367	 2,64548264016699E-02 
368	 3,37528870738213E-02 
369	 5,04653452033056E-02 
370	 0,063800724123139 
371	 5,50525759024535E-02 
372	 4,76868869593779E-02 
373	 4,79411792103396E-02 
374	 5,05410351542956E-02 
375	 3,92304464382034E-02 
376	 5,31217822708977E-03 
377	 4,72224420071741E-03 
378	 2,85213882801851E-02 
379	 3,64413707253686E-02 
380	 3,58013268185768E-02 
381	 3,35709339053764E-02 
382	 0,05994506568457 
383	 7,48520550409209E-02 
384	 4,36283193233519E-02 
385	 3,32052949845989E-02 
386	 4,17452944971313E-02 
387	 2,62362359384463E-02 
388	 2,75929222422153E-02 
389	 5,25445808721922E-02 
390	 4,98684956608373E-02 
391	 0,04033265062953 
392	 5,18627505567072E-02 
393	 5,07380248983368E-02 
394	 3,64638773541852E-02 
395	 2,93285192848354E-02 
396	 0,029885890685222 
397	 3,72512108992612E-02 
398	 4,45749459689509E-02 
399	 4,80611683594964E-02 
400	 4,39827258802053E-02 
401	 0,040978155296863 
402	 4,15928365401546E-02 
403	 4,61317790705614E-02 
404	 4,80303337489189E-02 
405	 4,32982021712501E-02 
406	 3,83216456499022E-02 
407	 3,69103081289822E-02 
408	 4,46004636980574E-02 
409	 4,95116619348909E-02 
410	 4,88112043664865E-02 
411	 5,01098777896767E-02 
412	 4,97824238290738E-02 
413	 0,044542303555604 
414	 4,41172401553401E-02 
415	 4,68959077015155E-02 
416	 4,30988189586509E-02 
417	 4,42617957867475E-02 
418	 5,22398664880959E-02 
419	 5,00206677499418E-02 
420	 4,35291557128316E-02 
421	 4,21640898491165E-02 
422	 4,34061877264159E-02 
423	 4,63170742093333E-02 
424	 5,02623316306686E-02 
425	 5,03959953645628E-02 
426	 4,53434899888693E-02 
427	 0,049059194760781 
428	 5,69467665090528E-02 
429	 5,83644038594073E-02 
430	 5,24342976059712E-02 
431	 4,29408676049733E-02 
432	 4,80940871247253E-02 
433	 5,33862481822015E-02 
434	 0,046691954634626 
435	 5,08738789971306E-02 
436	 6,19294940665091E-02 
437	 5,99468527344138E-02 
438	 5,47613277882587E-02 
439	 5,07522642115559E-02 
440	 4,97187750712664E-02 
441	 5,21958111421424E-02 
442	 5,84043602960667E-02 
443	 6,09993824438307E-02 
444	 5,83823533495474E-02 
445	 5,11666594198347E-02 
446	 4,90421661973873E-02 
447	 5,66537437424382E-02 
448	 5,70552862408763E-02 
449	 5,39988903353827E-02 
450	 5,93642073347927E-02 
451	 6,02331939250613E-02 
452	 5,53356428694421E-02 
453	 5,76001060652651E-02 
454	 6,14637957714139E-02 
455	 6,14534683697396E-02 
456	 6,13878806650383E-02 
457	 6,19120114996303E-02 
458	 6,28540762825326E-02 
459	 6,41105015405978E-02 
460	 6,53546382630922E-02 
461	 6,54687063091084E-02 
462	 6,38903323806288E-02 
463	 0,059988469107926 
464	 6,01563302223357E-02 
465	 6,34912089435198E-02 
466	 6,07043992769767E-02 
467	 5,77207335049014E-02 
468	 5,85293960073811E-02 
469	 6,07853671278093E-02 
470	 6,35689828512971E-02 
471	 0,066228031793052 
472	 6,58323926877957E-02 
473	 6,26699022987434E-02 
474	 6,32363525438022E-02 
475	 6,43504570764201E-02 
476	 6,27014786185787E-02 
477	 6,29789913085777E-02 
478	 6,46711180688122E-02 
479	 6,34182620415284E-02 
480	 6,39409065651296E-02 
481	 6,77147845675323E-02 
482	 6,91011147544465E-02 
483	 6,85629672052368E-02 
484	 0,067740409837442 
485	 6,56023646868946E-02 
486	 6,35790144450354E-02 
487	 6,74117932497435E-02 
488	 7,19902680798644E-02 
489	 0,073184106656766 
490	 7,05413040337747E-02 
491	 6,68051199478923E-02 
492	 6,82577977065525E-02 
493	 7,06693229701752E-02 
494	 7,19048342301684E-02 
495	 6,86949323731106E-02 
496	 6,56959151915515E-02 
497	 6,82878137502325E-02 
498	 7,13377300666963E-02 
499	 7,29696442866683E-02 
500	 7,12875206097996E-02 
501	 6,96294295598229E-02 
502	 7,00250595315872E-02 
503	 0,072014385881955 
504	 0,073843285924605 
505	 7,26311038563494E-02 
506	 7,14374654113846E-02 
507	 7,14120910979238E-02 
508	 7,31699603541476E-02 
509	 7,46575666331612E-02 
510	 7,41336683812168E-02 
511	 7,42678425710804E-02 
512	 7,49321841763117E-02 
513	 7,42707689142165E-02 
514	 7,42574783465621E-02 
515	 0,07552157564831 
516	 7,62508324376788E-02 
517	 7,64282401472374E-02 
518	 7,63041105528076E-02 
519	 7,61402088932324E-02 
520	 7,62278545751354E-02 
521	 7,71465034264037E-02 
522	 7,83033779127256E-02 
523	 7,92007712266634E-02 
524	 7,95612178051823E-02 
525	 7,95793405531107E-02 
526	 7,96902305125433E-02 
527	 8,04007857255929E-02 
528	 8,15108133396661E-02 
529	 8,08502797831515E-02 
530	 7,98447191280985E-02 
531	 0,080279208181585 
532	 8,14935699121808E-02 
533	 8,30046444339057E-02 
534	 8,40798956286693E-02 
535	 8,39798402013334E-02 
536	 8,26099930009107E-02 
537	 0,083080910958879 
538	 8,45018342734474E-02 
539	 0,084437388710789 
540	 8,43364617341758E-02 
541	 8,46852203149284E-02 
542	 8,58169815760155E-02 
543	 8,64158061712827E-02 
544	 8,53218919543216E-02 
545	 8,56132030586236E-02 
546	 8,71590048055646E-02 
547	 8,78635874104283E-02 
548	 8,79278104569644E-02 
549	 8,76262086947407E-02 
550	 8,85665230478978E-02 
551	 8,97337473331026E-02 
552	 0,089218403783992 
553	 0,089962970273764 
554	 9,18380752261085E-02 
555	 9,08140607810154E-02 
556	 8,97616774071451E-02 
557	 9,09623026324054E-02 
558	 0,0908023116711 
559	 8,96821470686323E-02 
560	 9,00989598056018E-02 
561	 9,11835540275672E-02 
562	 9,24787420167694E-02 
563	 9,33540511796971E-02 
564	 9,35912586447172E-02 
565	 9,30180754578878E-02 
566	 9,30077608975897E-02 
567	 9,35546163689268E-02 
568	 9,31390458611608E-02 
569	 9,27838259789728E-02 
570	 9,32560949731419E-02 
571	 9,47368489996252E-02 
572	 9,61262534394443E-02 
573	 9,49347547623179E-02 
574	 9,43554973946844E-02 
575	 0,095357051576529 
576	 9,64595182858741E-02 
577	 9,71868138173922E-02 
578	 9,71414344586419E-02 
579	 9,67594280703591E-02 
580	 9,64550935584051E-02 
581	 9,70426557265234E-02 
582	 0,097854440790254 
583	 9,84320495782055E-02 
584	 9,85685189143807E-02 
585	 9,83551280427516E-02 
586	 9,79466437452506E-02 
587	 9,82099191804822E-02 
588	 9,91074034047629E-02 
589	 9,92185203971056E-02 
590	 9,87842096633557E-02 
591	 9,81451446539992E-02 
592	 9,81099297082057E-02 
593	 9,86294074857676E-02 
594	 9,91109488320946E-02 
595	 9,93526021139604E-02 
596	 9,93393515371322E-02 
597	 9,99134279733862E-02 
598	 0,10062469195277 
599	 0,100686955451674 
600	 0,100487720556155 
601	 0,100196218333623 
602	 9,99601647753622E-02 
603	 0,100008774244523 
604	 0,100464166859504 
605	 0,100569517810871 
606	 0,100456518148501 
607	 0,100796597447228 
608	 0,101154851487223 
609	 0,101334534008913 
610	 0,10116901935723 
611	 0,101051249817464 
612	 0,101472320652791 
613	 0,101324552763044 
614	 0,100778719308953 
615	 0,101410943670747 
616	 0,101763834355499 
617	 0,101044475408388 
618	 0,100985736141638 
619	 0,1016145978995 
620	 0,102576486018628 
621	 0,102806529102772 
622	 0,10215033018524 
623	 0,101922671707303 
624	 0,101929418846909 
625	 0,101904063622013 
626	 0,10236257612969 
627	 0,103117966811679 
628	 0,103377748311004 
629	 0,103527158541247 
630	 0,103753077447574 
631	 0,103982616491579 
632	 0,104104546573479 
633	 0,103914325896286 
634	 0,104283090970825 
635	 0,105112066043688 
636	 0,104866809982957 
637	 0,104561012688849 
638	 0,105043443744395 
639	 0,105188258982767 
640	 0,105089579715077 
641	 0,105518251391781 
642	 0,105904838867966 
643	 0,105981705391086 
644	 0,105570936172693 
645	 0,105307319429197 
646	 0,106018099524325 
647	 0,106154411567998 
648	 0,105605577647555 
649	 0,105382608108184 
650	 0,105570034470508 
651	 0,106118536999881 
652	 0,105961448803495 
653	 0,105434961187305 
654	 0,105538045685222 
655	 0,105877817460565 
656	 0,106245255227733 
657	 0,106298809139908 
658	 0,106039352959913 
659	 0,10551097993201 
660	 0,104996439985132 
661	 0,10474710924682 
662	 0,105304969318523 
663	 0,105543829391711 
664	 0,104963065702356 
665	 0,10449022322527 
666	 0,104333365307327 
667	 0,104633187622276 
668	 0,104829853104877 
669	 0,104805040843301 
670	 0,104864895935807 
671	 0,104921580963318 
672	 0,104881508935394 
673	 0,104444457005031 
674	 0,104067842271483 
675	 0,105013055640496 
676	 0,105720687935411 
677	 0,105724956020171 
678	 0,106051966659532 
679	 0,106401431594395 
680	 0,106333257161318 
681	 0,106478677913329 
682	 0,106921618292922 
683	 0,107353825054208 
684	 0,108106401723725 
685	 0,109233044566527 
686	 0,109559124891916 
687	 0,109584933245947 
688	 0,110517784974091 
689	 0,110967172462489 
690	 0,110819752268359 
691	 0,11148248433192 
692	 0,112302382670573 
693	 0,11266852413385 
694	 0,113122841755417 
695	 0,113795737062704 
696	 0,114788625660094 
697	 0,115736918692083 
698	 0,116479118252216 
699	 0,117228829701343 
700	 0,117697108743636 
701	 0,11749762481239 
702	 0,118129304995117 
703	 0,119523078518443 
704	 0,120106961915158 
705	 0,120546966180841 
706	 0,12122666151514 
707	 0,12157425656752 
708	 0,121966822793214 
709	 0,123305820689524 
710	 0,123960368117737 
711	 0,123740153827904 
712	 0,124296077207307 
713	 0,125089038813496 
714	 0,125538224233212 
715	 0,125564817946498 
716	 0,125458512466868 
717	 0,126011514487212 
718	 0,126630031868965 
719	 0,127042613266118 
720	 0,12723310881156 
721	 0,127400772247607 
722	 0,127800914040274 
723	 0,128068431149035 
724	 0,128251523357229 
725	 0,128811272733302 
726	 0,129386752314377 
727	 0,129742492519759 
728	 0,129927253710888 
729	 0,130064420316958 
730	 0,130352523320937 
731	 0,130711527694608 
732	 0,131098261966274 
733	 0,131467274145988 
734	 0,13167227904621 
735	 0,131618917682394 
736	 0,131714250194257 
737	 0,132026350326645 
738	 0,132543194348535 
739	 0,132962834764998 
740	 0,133148211320571 
741	 0,133126483945277 
742	 0,133192240155865 
743	 0,133666255358138 
744	 0,13394386720446 
745	 0,133974565768135 
746	 0,134039458880521 
747	 0,13422048972313 
748	 0,134564585578652 
749	 0,135004087921817 
750	 0,135384816669678 
751	 0,135489153290791 
752	 0,135693371957038 
753	 0,136094292132178 
754	 0,136690752430209 
755	 0,136922356975437 
756	 0,136488907258075 
757	 0,136631365280293 
758	 0,137195422466627 
759	 0,137467724507869 
760	 0,137610917858792 
761	 0,137715890360893 
762	 0,138046424064381 
763	 0,138434416197335 
764	 0,138703908983691 
765	 0,138892667383434 
766	 0,138963658093259 
767	 0,13870341274371 
768	 0,138980364098611 
769	 0,1399343188279 
770	 0,140167445026914 
771	 0,140024896705159 
772	 0,140059431653403 
773	 0,14022208789649 
774	 0,140462793331427 
775	 0,140601097272278 
776	 0,14076720271244 
777	 0,141010004890563 
778	 0,141195637739783 
779	 0,141308468394201 
780	 0,141346717776357 
781	 0,141518584569801 
782	 0,141823109937004 
783	 0,142019681173695 
784	 0,142256252940922 
785	 0,142611400026202 
786	 0,142903232254583 
787	 0,143107901440165 
788	 0,143241402474028 
789	 0,143229236641688 
790	 0,143161886274343 
791	 0,143472251806678 
792	 0,143799936228934 
793	 0,143866561533308 
794	 0,14401098313985 
795	 0,144272706703318 
796	 0,144620237993069 
797	 0,144938095135088 
798	 0,145204022172545 
799	 0,145584343758535 
800	 0,145851244283078 
801	 0,145806522712568 
802	 0,145800218406289 
803	 0,145938401240856 
804	 0,146365718266498 
805	 0,14641645064919 
806	 0,146020240042426 
807	 0,146274788797801 
808	 0,146779197858993 
809	 0,147020321084559 
810	 0,147115403678525 
811	 0,147126104702093 
812	 0,147185990400263 
813	 0,147228098383553 
814	 0,147234719163837 
815	 0,14723646561391 
816	 0,147269184760735 
817	 0,147374997246387 
818	 0,147759241979847 
819	 0,14827916664761 
820	 0,148372032724192 
821	 0,148561315417034 
822	 0,148995840930004 
823	 0,148935040052484 
824	 0,14878000592641 
825	 0,149122206936847 
826	 0,148995656779586 
827	 0,148560459120949 
828	 0,149042432179301 
829	 0,14964835273693 
830	 0,14989821414356 
831	 0,14953051060843 
832	 0,149244434191434 
833	 0,150006224963105 
834	 0,150277917331323 
835	 0,149919945862784 
836	 0,149739534326009 
837	 0,149961967891333 
838	 0,150581408263808 
839	 0,150477741397128 
840	 0,150231573230218 
841	 0,150829059289399 
842	 0,150921503721035 
843	 0,150513439892975 
844	 0,150748473630439 
845	 0,151189246091279 
846	 0,151502868391424 
847	 0,15111240534273 
848	 0,150697790425797 
849	 0,151286914267577 
850	 0,151334911975628 
851	 0,150840307357678 
852	 0,151099972652701 
853	 0,151581847775336 
854	 0,151930263966865 
855	 0,151799372395805 
856	 0,151545736729977 
857	 0,151705777368958 
858	 0,152159069134101 
859	 0,152629015222613 
860	 0,152399617354425 
861	 0,151853912623782 
862	 0,151329845245407 
863	 0,151566097444965 
864	 0,151955191776895 
865	 0,15162430155163 
866	 0,151837167036134 
867	 0,152438426316025 
868	 0,151947660198698 
869	 0,151967599979829 
870	 0,153069120514782 
871	 0,15381133272735 
872	 0,153902307831444 
873	 0,153206211972423 
874	 0,152542270000091 
875	 0,152265396749219 
876	 0,152734860988088 
877	 0,153084625226347 
878	 0,152987718650291 
879	 0,153047526355073 
880	 0,153117988252731 
881	 0,153013207330168 
882	 0,153103016060054 
883	 0,15334339200663 
884	 0,153435798002674 
885	 0,153445824911994 
886	 0,153423737955493 
887	 0,153563852169283 
888	 0,153601775172918 
889	 0,153342193935576 
890	 0,153723013302033 
891	 0,15431954098617 
892	 0,153806771160781 
893	 0,153615296327604 
894	 0,153977764022358 
895	 0,153670224882832 
896	 0,15353515258786 
897	 0,154131599634917 
898	 0,153944603997444 
899	 0,15340529379529 
900	 0,153676059537111 
901	 0,154247204099257 
902	 0,154829728960433 
903	 0,154894709781819 
904	 0,154972330732096 
905	 0,155374504138587 
906	 0,155807705349844 
907	 0,155964849336944 
908	 0,155485210396258 
909	 0,154990204333749 
910	 0,154652312104508 
911	 0,154311419814048 
912	 0,154595732528563 
913	 0,15561959859908 
914	 0,156238749301292 
915	 0,156447724483408 
916	 0,1563943561728 
917	 0,156591382890329 
918	 0,156878627545316 
919	 0,156543790768492 
920	 0,156174444279439 
921	 0,155993677711869 
922	 0,155977392146598 
923	 0,155988886315852 
924	 0,155924586157833 
925	 0,155968343644822 
926	 0,156053627642101 
927	 0,155988733083743 
928	 0,156482996161391 
929	 0,157245769958453 
930	 0,156353187083894 
931	 0,156156175357327 
932	 0,157664023792649 
933	 0,157629607443482 
934	 0,156764937399322 
935	 0,156448992576579 
936	 0,15656522170997 
937	 0,156977621268677 
938	 0,157237619552763 
939	 0,157779367753018 
940	 0,158526950012655 
941	 0,158390798377188 
942	 0,157868981750125 
943	 0,157540527518971 
944	 0,15801504173406 
945	 0,158896581424159 
946	 0,159323476382833 
947	 0,158343267051609 
948	 0,156715048358181 
949	 0,158300312258408 
950	 0,159667538156986 
951	 0,159084026290928 
952	 0,159308165879768 
953	 0,159651223275148 
954	 0,159003750052604 
955	 0,158148113083342 
956	 0,1576902540804 
957	 0,158815904550406 
958	 0,159153431565804 
959	 0,158141224504581 
960	 0,15729246590995 
961	 0,157577408635058 
962	 0,159247763732295 
963	 0,158096840830263 
964	 0,15671313557283 
965	 0,159856601008106 
966	 0,160071802654885 
967	 0,157334705710249 
968	 0,157361184829728 
969	 0,15838538810421 
970	 0,159242231056611 
971	 0,157460670687208 
972	 0,156183992123868 
973	 0,15812141435066 
974	 0,158794012246044 
975	 0,158576872802347 
976	 0,159527390224169 
977	 0,159534716961904 
978	 0,158623213380369 
979	 0,158724828125838 
980	 0,159587399502747 
981	 0,160615366120086 
982	 0,159179808675726 
983	 0,156914300806593 
984	 0,155889724000392 
985	 0,157828075697413 
986	 0,160746074921428 
987	 0,160189605184279 
988	 0,160182628712906 
989	 0,161103059404324 
990	 0,160106590806323 
991	 0,158664779003012 
992	 0,158013218426138 
993	 0,160471636759813 
994	 0,162425472604592 
995	 0,160332807452094 
996	 0,159157532181754 
997	 0,159718291781315 
998	 0,161800613716146 
999	 0,161427131275954 
1000	 0,159483524989286 
1001	 0,164249814176833 
1002	 0,16528650081171 
1003	 0,159092142468451 
1004	 0,15779405713546 
1005	 0,159498381307173 
1006	 0,161174050903749 
1007	 0,161117322287732 
1008	 0,160247523921148 
1009	 0,160845770632665 
1010	 0,163138611175912 
1011	 0,165571951491202 
1012	 0,162664992236544 
1013	 0,160877143590356 
1014	 0,162198180984188 
1015	 0,160807482835604 
1016	 0,160332354303695 
1017	 0,163652281119062 
1018	 0,166549054679094 
1019	 0,167675283777758 
1020	 0,166058596465788 
1021	 0,163113127463363 
1022	 0,161074775702795 
1023	 0,164542939370971 
1024	 0,168748110421173 
1025	 0,170720658123651 
1026	 0,1659347634853 
1027	 0,162397321079189 
1028	 0,16455077620999 
1029	 0,162759667382758 
1030	 0,160701430792114 
1031	 0,163518918309454 
1032	 0,166300032653342 
1033	 0,166749332523004 
1034	 0,162086155151848 
1035	 0,16247875852409 
1036	 0,167679739642806 
1037	 0,166397580080168 
1038	 0,162665575461531 
1039	 0,159182723381275 
1040	 0,1593914103678 
1041	 0,16214215986742 
1042	 0,165694670354082 
1043	 0,166896529919245 
1044	 0,166840929413101 
1045	 0,167579449850373 
1046	 0,164845846911264 
1047	 0,161345269352167 
1048	 0,165715059549613 
1049	 0,162966735967301 
1050	 0,153608541237957 
1051	 0,158628551449035 
1052	 0,161843205633595 
1053	 0,157678536138079 
1054	 0,164001269693783 
1055	 0,171997017594047 
1056	 0,172471049903426 
1057	 0,164997325638824 
1058	 0,154074003376388 
1059	 0,146440874400214 
1060	 0,147315512600058 
1061	 0,154773521966091 
1062	 0,161255115485498 
1063	 0,166765207115694 
1064	 0,168440892696874 
1065	 0,155104377263277 
1066	 0,157500376652434 
1067	 0,180536582987162 
1068	 0,172108188438506 
1069	 0,161176607952174 
1070	 0,169922730388028 
1071	 0,174490741034596 
1072	 0,169063897121616 
1073	 0,151653905716754 
1074	 0,143676413723216 
1075	 0,145210367096307 
