Wavelength	GRA-VIE00784.asd
325	 1,65558220027642E-02 
326	 0,268149128398415 
327	 0,32373191535651 
328	 0,133071169220887 
329	 6,52201299061229E-02 
330	 8,80801133641002E-02 
331	 0,175272655288244 
332	 0,153498734007271 
333	 5,17832874383472E-02 
334	 5,36997135944688E-02 
335	 0,151201190560556 
336	 0,251281962073638 
337	 0,19904380384552 
338	 0,140357138404379 
339	 0,167812416655615 
340	 0,108395967029603 
341	 7,07399665740848E-03 
342	 8,64448960968933E-02 
343	 0,166563496976334 
344	 0,191763005150166 
345	 0,179222623139825 
346	 0,153046684474598 
347	 0,138320089835437 
348	 8,29889691642853E-02 
349	 1,76622984976423E-02 
350	 4,79696944268785E-02 
351	 7,22634852584036E-02 
352	 6,67322537195333E-02 
353	 8,85368368237107E-02 
354	 0,115406383542155 
355	 0,120109120359188 
356	 0,093267300557571 
357	 4,89271465339853E-02 
358	 2,73011137026828E-02 
359	 0,025450468438028 
360	 3,76569243746113E-02 
361	 3,10687211577189E-02 
362	 2,23605064513674E-02 
363	 3,88052683693169E-02 
364	 4,79597753570312E-02 
365	 4,47576546089442E-02 
366	 3,94080172519222E-02 
367	 3,83774434960816E-02 
368	 0,043488079838504 
369	 3,22676120551986E-02 
370	 1,81978735802003E-02 
371	 2,79937597083631E-02 
372	 3,96722959466109E-02 
373	 4,37362029575656E-02 
374	 2,96018157000322E-02 
375	 1,58252048091652E-02 
376	 1,65411413959824E-02 
377	 2,80536467650878E-02 
378	 4,10266515995465E-02 
379	 3,67090065150724E-02 
380	 3,81513114526131E-02 
381	 4,64555169080897E-02 
382	 3,28889144460492E-02 
383	 1,99171362345465E-02 
384	 3,08030386415776E-02 
385	 4,80051175378825E-02 
386	 5,76944718533824E-02 
387	 3,61943246877469E-02 
388	 2,42717478356204E-02 
389	 3,45246457880794E-02 
390	 3,02916128641374E-02 
391	 2,84408529908273E-02 
392	 5,13710835002285E-02 
393	 3,79785775882966E-02 
394	 8,72163730497933E-04 
395	 2,29705553556199E-02 
396	 4,53691421217472E-02 
397	 4,13165162266127E-02 
398	 3,27736576040897E-02 
399	 2,57987640391791E-02 
400	 2,43619366989756E-02 
401	 2,77573146246172E-02 
402	 3,20722299967768E-02 
403	 2,38829426458668E-02 
404	 2,05822297578512E-02 
405	 3,16543424821582E-02 
406	 2,40133341380863E-02 
407	 9,83087733028521E-03 
408	 2,46121633164359E-02 
409	 3,00017552136043E-02 
410	 1,98798201484894E-02 
411	 1,87826838667259E-02 
412	 2,12247002405107E-02 
413	 2,09201036970205E-02 
414	 1,88904240169763E-02 
415	 1,78883484561149E-02 
416	 2,59358536049759E-02 
417	 2,74304844468989E-02 
418	 1,89474138111849E-02 
419	 1,94297606772953E-02 
420	 2,43600141597712E-02 
421	 2,61025222993571E-02 
422	 1,93352974882654E-02 
423	 8,88940125847614E-03 
424	 1,46794953716655E-02 
425	 1,71996800755187E-02 
426	 6,61837763689616E-03 
427	 6,86784310958744E-03 
428	 1,32185609893316E-02 
429	 1,16451488411303E-02 
430	 1,20257219856692E-02 
431	 1,59572459917913E-02 
432	 1,88004237692048E-02 
433	 1,85490986670842E-02 
434	 1,41454712519341E-02 
435	 1,45130589343273E-02 
436	 1,78215684898718E-02 
437	 1,47881733497711E-02 
438	 0,013220197392467 
439	 1,56391669145561E-02 
440	 1,70562175395675E-02 
441	 1,75761881726932E-02 
442	 0,017959306972116 
443	 1,64798463816999E-02 
444	 1,41597391162642E-02 
445	 1,56068951297004E-02 
446	 1,74047818037494E-02 
447	 1,72960688172444E-02 
448	 1,50552599500243E-02 
449	 1,28721193286596E-02 
450	 1,47066983330843E-02 
451	 1,78650294473753E-02 
452	 0,020315532723418 
453	 1,74573966424863E-02 
454	 1,47017439904638E-02 
455	 1,69533172559385E-02 
456	 1,71028694906215E-02 
457	 1,54881130228293E-02 
458	 1,66786210754182E-02 
459	 1,81312628256669E-02 
460	 1,84636480702379E-02 
461	 1,60187594901096E-02 
462	 1,36115759012274E-02 
463	 1,51387868152176E-02 
464	 1,50320609527029E-02 
465	 1,34668481310441E-02 
466	 1,67016568909223E-02 
467	 1,75632533215456E-02 
468	 1,23339851059418E-02 
469	 1,29306041268701E-02 
470	 1,69335540757776E-02 
471	 0,016247392658942 
472	 1,50776905570975E-02 
473	 1,46664620669361E-02 
474	 1,44795331708158E-02 
475	 1,54955790957786E-02 
476	 1,84134708970174E-02 
477	 1,77104539884501E-02 
478	 1,39416443622734E-02 
479	 1,12098691839173E-02 
480	 1,19172655472367E-02 
481	 1,60125335209479E-02 
482	 1,39653355166418E-02 
483	 1,04596757099975E-02 
484	 1,39912739296331E-02 
485	 1,58994789795185E-02 
486	 1,45758120143416E-02 
487	 1,26982025444565E-02 
488	 1,26821838149532E-02 
489	 1,59098160279403E-02 
490	 1,71379574203184E-02 
491	 1,60708286172151E-02 
492	 1,38506798791863E-02 
493	 1,29203518462272E-02 
494	 1,38389764589805E-02 
495	 1,34161784674108E-02 
496	 1,32613954777732E-02 
497	 1,53795706211019E-02 
498	 0,016000739713607 
499	 1,47960439567445E-02 
500	 1,33374386323785E-02 
501	 1,29589882704332E-02 
502	 1,41097293332983E-02 
503	 1,32260745321856E-02 
504	 1,18953676093408E-02 
505	 1,37197378825762E-02 
506	 1,50350350465911E-02 
507	 1,47877799535326E-02 
508	 1,36122943253912E-02 
509	 1,25428539730265E-02 
510	 1,24818762217222E-02 
511	 1,28138714960789E-02 
512	 1,33403556687216E-02 
513	 1,39834241006091E-02 
514	 1,43153564202053E-02 
515	 1,41645530394201E-02 
516	 1,37701574451971E-02 
517	 1,36953946939651E-02 
518	 1,46853258765588E-02 
519	 1,47247174929866E-02 
520	 1,36515648316477E-02 
521	 1,27593270278634E-02 
522	 1,27523262617493E-02 
523	 1,39478749810509E-02 
524	 1,40324693388892E-02 
525	 1,35683773306324E-02 
526	 1,47814404348939E-02 
527	 1,58305955274401E-02 
528	 1,58454017097614E-02 
529	 0,013764895558029 
530	 1,18852978588676E-02 
531	 1,28109119859274E-02 
532	 1,32643816438666E-02 
533	 1,28061567853739E-02 
534	 1,25251518085134E-02 
535	 1,26098047822641E-02 
536	 1,31494947841077E-02 
537	 0,013822885568929 
538	 1,41785810883629E-02 
539	 1,34710394563605E-02 
540	 1,31156405649672E-02 
541	 1,34027753824434E-02 
542	 1,33530631299979E-02 
543	 1,30713444384915E-02 
544	 1,27418152692271E-02 
545	 1,31082702899781E-02 
546	 1,38918193586369E-02 
547	 1,39657542571551E-02 
548	 1,36226380438377E-02 
549	 1,31209634177564E-02 
550	 0,013317365939423 
551	 1,37092972741686E-02 
552	 1,33479690607031E-02 
553	 1,32727931301168E-02 
554	 0,013504711658417 
555	 1,29754827335916E-02 
556	 1,20648786336878E-02 
557	 1,12560381672838E-02 
558	 1,23607832988983E-02 
559	 1,43063742723186E-02 
560	 1,36180766518922E-02 
561	 1,30295686606166E-02 
562	 1,34733445019401E-02 
563	 1,36052439282894E-02 
564	 1,34877834383461E-02 
565	 1,33464874141524E-02 
566	 1,37252830719277E-02 
567	 1,43503992064328E-02 
568	 0,013697486667166 
569	 1,31133978854407E-02 
570	 1,35235677607561E-02 
571	 1,40680547727493E-02 
572	 1,46158388551407E-02 
573	 1,53215846062982E-02 
574	 0,015158799507275 
575	 0,014115950575509 
576	 0,014277116701301 
577	 1,45907951737685E-02 
578	 1,37617804119996E-02 
579	 1,45052610492764E-02 
580	 1,63738304669267E-02 
581	 1,61439407660862E-02 
582	 1,53707489631532E-02 
583	 1,49928125560473E-02 
584	 1,50689001865432E-02 
585	 1,52114374288355E-02 
586	 1,46007328062447E-02 
587	 1,50504682701182E-02 
588	 1,65660933514512E-02 
589	 1,67005162570264E-02 
590	 1,61371482934919E-02 
591	 1,56536239411369E-02 
592	 1,56106460972327E-02 
593	 1,58381852812489E-02 
594	 1,55534403149716E-02 
595	 1,53936227799714E-02 
596	 0,015666223267955 
597	 1,63856401739423E-02 
598	 1,69081712896961E-02 
599	 1,62778372680937E-02 
600	 1,62121850338591E-02 
601	 1,68360364474024E-02 
602	 1,66736133592173E-02 
603	 1,60923835279808E-02 
604	 1,54369118791872E-02 
605	 1,48595365029159E-02 
606	 0,014547482109727 
607	 1,49467035395233E-02 
608	 1,47968821363589E-02 
609	 1,38569280062499E-02 
610	 1,37786500666657E-02 
611	 1,43276856391295E-02 
612	 1,50290078799384E-02 
613	 1,48783616769576E-02 
614	 1,41615627633706E-02 
615	 1,47782224189298E-02 
616	 0,015493443778934 
617	 1,55036378155249E-02 
618	 0,015199579327723 
619	 1,48511137400635E-02 
620	 1,48687004414498E-02 
621	 1,49252418484068E-02 
622	 1,49392405075788E-02 
623	 0,015070225387698 
624	 1,51674790188642E-02 
625	 1,50679724936592E-02 
626	 1,47258325068494E-02 
627	 1,43490269949196E-02 
628	 1,45091945080692E-02 
629	 1,48521030478987E-02 
630	 1,51532706393059E-02 
631	 1,52418205978476E-02 
632	 1,52180631659773E-02 
633	 1,52664122250749E-02 
634	 1,56082164772717E-02 
635	 1,61690964289524E-02 
636	 1,64152414075906E-02 
637	 1,62882119210048E-02 
638	 0,015834411438414 
639	 1,61255955391589E-02 
640	 0,016918501724345 
641	 1,71175370605489E-02 
642	 1,70751324056869E-02 
643	 1,69578991368456E-02 
644	 1,69932073207677E-02 
645	 1,72232866060496E-02 
646	 1,76605324600867E-02 
647	 1,81186621208775E-02 
648	 1,83608381384633E-02 
649	 1,77635443067126E-02 
650	 1,73900537101365E-02 
651	 1,78583959546636E-02 
652	 1,77563386936554E-02 
653	 1,73141064808019E-02 
654	 1,74182266054521E-02 
655	 1,76798572210478E-02 
656	 1,78776841514164E-02 
657	 1,76137935935455E-02 
658	 1,70890855512417E-02 
659	 0,016551076087895 
660	 1,61558141436491E-02 
661	 1,58482161082633E-02 
662	 1,52637504665448E-02 
663	 1,49923335275036E-02 
664	 1,52036263779534E-02 
665	 0,014804223498798 
666	 1,41980180902697E-02 
667	 1,42032415671073E-02 
668	 1,43041763874769E-02 
669	 1,43571006754494E-02 
670	 1,42956413913924E-02 
671	 1,46181885779537E-02 
672	 1,55930110800568E-02 
673	 1,54794405648208E-02 
674	 0,014627242822315 
675	 1,45740127435937E-02 
676	 1,47780638687637E-02 
677	 1,49858618757791E-02 
678	 1,46905243233053E-02 
679	 1,44461169189351E-02 
680	 1,49468704973185E-02 
681	 1,53298091295302E-02 
682	 1,53888861937388E-02 
683	 1,51178122431108E-02 
684	 0,015152001459795 
685	 1,57624427628382E-02 
686	 1,57500722301419E-02 
687	 1,55356075488569E-02 
688	 1,61249710644438E-02 
689	 1,70325167156911E-02 
690	 1,79442886343597E-02 
691	 1,81002030803453E-02 
692	 1,85463753223482E-02 
693	 2,01809849835391E-02 
694	 2,15506735601232E-02 
695	 2,28043149646847E-02 
696	 2,49653154730162E-02 
697	 0,027779203898972 
698	 3,10612740685221E-02 
699	 3,42610221975772E-02 
700	 3,76991742702542E-02 
701	 4,18505594261928E-02 
702	 4,61362239179995E-02 
703	 5,04561115817352E-02 
704	 5,49566334176363E-02 
705	 5,99150630223938E-02 
706	 6,54035515527196E-02 
707	 7,05397711429838E-02 
708	 7,53592091471356E-02 
709	 8,01786761482994E-02 
710	 8,49223501398562E-02 
711	 8,96370908223233E-02 
712	 9,45971839827764E-02 
713	 9,92983355386115E-02 
714	 0,103298560324643 
715	 0,107010793542921 
716	 0,110646933101774 
717	 0,114545599759292 
718	 0,118174883473773 
719	 0,121357710730764 
720	 0,124576942994714 
721	 0,127368380023457 
722	 0,129118165900271 
723	 0,131468377181286 
724	 0,134416518779042 
725	 0,13653347676326 
726	 0,138284869326237 
727	 0,139953900032355 
728	 0,141440743715873 
729	 0,142813692217782 
730	 0,144187930444137 
731	 0,145539900004346 
732	 0,146778661906485 
733	 0,147532947956248 
734	 0,148260299033934 
735	 0,149340154478603 
736	 0,150203034903698 
737	 0,150840150178947 
738	 0,15147727794322 
739	 0,15212710588905 
740	 0,152799750288539 
741	 0,153474009763978 
742	 0,154022302693968 
743	 0,154310262224371 
744	 0,154747130778876 
745	 0,155280279551933 
746	 0,155397936708875 
747	 0,155634220540016 
748	 0,156243535207903 
749	 0,156824373685056 
750	 0,157346611230865 
751	 0,157859010927221 
752	 0,157976105980262 
753	 0,157808042840892 
754	 0,158148689746923 
755	 0,158608725322091 
756	 0,158899104636593 
757	 0,159256469639142 
758	 0,159453770266051 
759	 0,158897707935821 
760	 0,158915650858369 
761	 0,159733470527426 
762	 0,160140139142128 
763	 0,160269773952519 
764	 0,160320952812718 
765	 0,160494848468767 
766	 0,160701079567379 
767	 0,160536229006072 
768	 0,16051458454062 
769	 0,160839710687774 
770	 0,16139481045013 
771	 0,161796712485669 
772	 0,161630728901664 
773	 0,161587499396578 
774	 0,161773103106823 
775	 0,161975489555724 
776	 0,162145708442362 
777	 0,16225458242958 
778	 0,162351258511343 
779	 0,162483683428585 
780	 0,162712536222922 
781	 0,162877284387088 
782	 0,162919512107703 
783	 0,162739180612964 
784	 0,162896185984218 
785	 0,163625411471344 
786	 0,16360078700828 
787	 0,163105953166747 
788	 0,162959637910196 
789	 0,163198838559358 
790	 0,163694249329821 
791	 0,163782918775386 
792	 0,163674401779803 
793	 0,163608017944117 
794	 0,16415556534282 
795	 0,16482877573945 
796	 0,164322114455314 
797	 0,164293400834193 
798	 0,165045906129182 
799	 0,16517062589933 
800	 0,165065187970034 
801	 0,16515250604123 
802	 0,16502929154964 
803	 0,1649114719764 
804	 0,16556966141494 
805	 0,165913851287937 
806	 0,165653049443735 
807	 0,165601153239433 
808	 0,165836565831576 
809	 0,16635039200969 
810	 0,166573359914296 
811	 0,166494313452289 
812	 0,166387982087195 
813	 0,166680249904695 
814	 0,167397919473622 
815	 0,167415427992566 
816	 0,167285552588233 
817	 0,167762632751648 
818	 0,168104504047545 
819	 0,168202026207367 
820	 0,168178206815655 
821	 0,168488961661755 
822	 0,169215733750645 
823	 0,169345341152067 
824	 0,169122784887919 
825	 0,169006224772478 
826	 0,169563074310109 
827	 0,17042630807665 
828	 0,169976271410929 
829	 0,169436256317791 
830	 0,169462607124886 
831	 0,169758266054149 
832	 0,170203578385057 
833	 0,170669210040461 
834	 0,170885159811729 
835	 0,170815272652692 
836	 0,170569797778028 
837	 0,170537251576627 
838	 0,170890933798611 
839	 0,171140751454195 
840	 0,171298016318745 
841	 0,17146631836086 
842	 0,171358853236392 
843	 0,171149589705175 
844	 0,171705690825079 
845	 0,171840049971174 
846	 0,171139662463161 
847	 0,171708577719332 
848	 0,172479792014082 
849	 0,171654838979409 
850	 0,171578329239991 
851	 0,172339120318733 
852	 0,172161061718305 
853	 0,172206942761275 
854	 0,172935543727118 
855	 0,172966389332361 
856	 0,172716134768778 
857	 0,172954443533446 
858	 0,172842041601019 
859	 0,172427638247152 
860	 0,172454144866099 
861	 0,172783861958809 
862	 0,173220467050215 
863	 0,172883207587928 
864	 0,172664995666309 
865	 0,173806338772723 
866	 0,1746149143779 
867	 0,174815960949167 
868	 0,174893242031055 
869	 0,175103153256751 
870	 0,175472331452191 
871	 0,175166815793482 
872	 0,174876299479009 
873	 0,17547627252973 
874	 0,175646626363336 
875	 0,175450368463283 
876	 0,175951879285602 
877	 0,176376310562255 
878	 0,1764259425256 
879	 0,176435044405527 
880	 0,176293816189455 
881	 0,175931050264086 
882	 0,176752681105756 
883	 0,178191368713413 
884	 0,178030673180901 
885	 0,177809571806476 
886	 0,177988061155443 
887	 0,177983678072732 
888	 0,177920446139673 
889	 0,177975998076431 
890	 0,178605396242537 
891	 0,17943117841463 
892	 0,179493892165309 
893	 0,17925379733768 
894	 0,179035750674083 
895	 0,179634650186729 
896	 0,179895082616278 
897	 0,179074162951603 
898	 0,179280439417621 
899	 0,180193454627923 
900	 0,18066814810606 
901	 0,180760437772878 
902	 0,180653473285816 
903	 0,181133440353955 
904	 0,181480042174824 
905	 0,181258144818777 
906	 0,18077719985405 
907	 0,180550743883161 
908	 0,181213202385106 
909	 0,182033107352908 
910	 0,182640997129532 
911	 0,18258758982479 
912	 0,182497041377537 
913	 0,182572169954905 
914	 0,181961969594076 
915	 0,18159084003054 
916	 0,182457249086514 
917	 0,182658141343029 
918	 0,182100239041455 
919	 0,181513004733097 
920	 0,181267543893514 
921	 0,181569242677944 
922	 0,182493302199425 
923	 0,183071382115039 
924	 0,182534507632542 
925	 0,181554696571138 
926	 0,180798681102267 
927	 0,181218686025465 
928	 0,18137414392584 
929	 0,181199774231931 
930	 0,182241602904242 
931	 0,182596602318946 
932	 0,1814121842707 
933	 0,181132567799953 
934	 0,181245123480183 
935	 0,180752458479385 
936	 0,180271097526673 
937	 0,179758441411644 
938	 0,178618123877166 
939	 0,178190603914047 
940	 0,178581861670914 
941	 0,177294070834771 
942	 0,176594767400737 
943	 0,17830558050136 
944	 0,178680428591849 
945	 0,177593000788615 
946	 0,17600649979801 
947	 0,175072233058463 
948	 0,174736996471838 
949	 0,173028009143479 
950	 0,172366156352577 
951	 0,173547305692613 
952	 0,172219537025305 
953	 0,169951474876894 
954	 0,169147445158672 
955	 0,167936010528211 
956	 0,166572857084384 
957	 0,166532310542792 
958	 0,167088677840929 
959	 0,16774887562936 
960	 0,167746878831364 
961	 0,166907270395559 
962	 0,165252947505243 
963	 0,163441999401673 
964	 0,163083698817779 
965	 0,166287352785165 
966	 0,166797700499279 
967	 0,164555283933995 
968	 0,164646611159274 
969	 0,164798742081736 
970	 0,164301046205019 
971	 0,164378558264873 
972	 0,164408427870654 
973	 0,163888545267668 
974	 0,164378181832378 
975	 0,165362574937735 
976	 0,165520147208494 
977	 0,164405177941915 
978	 0,163018773254341 
979	 0,165419375430462 
980	 0,166573160087143 
981	 0,164761139690496 
982	 0,16599433784494 
983	 0,167412652500505 
984	 0,165871761444002 
985	 0,165034529833559 
986	 0,165353506860255 
987	 0,16631435880074 
988	 0,167892236793868 
989	 0,169629872365897 
990	 0,170273666851504 
991	 0,170479392250682 
992	 0,170741153213448 
993	 0,171763376308149 
994	 0,172477142752362 
995	 0,171884390568921 
996	 0,172128113718008 
997	 0,173322674740331 
998	 0,174899397463374 
999	 0,176289108001799 
1000	 0,176722008021666 
1001	 0,174209296547442 
1002	 0,173201840112293 
1003	 0,175531792540128 
1004	 0,176930943261924 
1005	 0,178424728774432 
1006	 0,180954125253507 
1007	 0,180274148220056 
1008	 0,178045766137396 
1009	 0,178356026646887 
1010	 0,180945024149556 
1011	 0,184547412506092 
1012	 0,185689105437399 
1013	 0,184426883733359 
1014	 0,181537289635326 
1015	 0,180341434318011 
1016	 0,182536006785214 
1017	 0,188393108137558 
1018	 0,190244981118435 
1019	 0,188937434608224 
1020	 0,187601387631507 
1021	 0,186855470126894 
1022	 0,187688318069895 
1023	 0,192067102796834 
1024	 0,1950184598989 
1025	 0,194773049505597 
1026	 0,192451151677592 
1027	 0,191933946211867 
1028	 0,194999706103278 
1029	 0,19468338947266 
1030	 0,193923408409299 
1031	 0,196703162549565 
1032	 0,197599808336856 
1033	 0,196663569390446 
1034	 0,196039410808512 
1035	 0,197324479468026 
1036	 0,200291730272353 
1037	 0,202054552038901 
1038	 0,205328632980463 
1039	 0,209285963179141 
1040	 0,204077793019231 
1041	 0,199023282188339 
1042	 0,201727149245318 
1043	 0,203413416894339 
1044	 0,202933131255299 
1045	 0,200620447274357 
1046	 0,201614401272172 
1047	 0,203878277510493 
1048	 0,199543625705401 
1049	 0,199560664627787 
1050	 0,205216384263643 
1051	 0,207047044348574 
1052	 0,209687859489725 
1053	 0,213351489895659 
1054	 0,206079888717024 
1055	 0,199665659568751 
1056	 0,204948901256185 
1057	 0,218675642747543 
1058	 0,224949613833762 
1059	 0,204570098663968 
1060	 0,20990743220345 
1061	 0,229216807445617 
1062	 0,211465170736157 
1063	 0,204155748417142 
1064	 0,214510676254556 
1065	 0,213294231603786 
1066	 0,215061398038438 
1067	 0,222674590614302 
1068	 0,21708038698867 
1069	 0,211849890766472 
1070	 0,216792195108034 
1071	 0,216628883523 
1072	 0,214952055338182 
1073	 0,217765152385029 
1074	 0,221306353828822 
1075	 0,22210418907736 
