Wavelength	GRA-VIE00389.asd
325	 0,133332545804638 
326	 0,212149765817698 
327	 0,221152554085962 
328	 0,148938308894375 
329	 0,253097742011882 
330	 0,368884321980694 
331	 0,302814911960541 
332	 0,224125814714045 
333	 0,135104319897385 
334	 0,128879842026968 
335	 0,184621926156899 
336	 0,254619992229947 
337	 0,330402652738994 
338	 0,328065193811014 
339	 0,19618630667236 
340	 0,166735757822559 
341	 0,227477066777986 
342	 0,236556196164641 
343	 0,229877942320207 
344	 0,213081028986582 
345	 0,152654952281316 
346	 9,53373641535385E-02 
347	 0,102177383282226 
348	 0,102255064313503 
349	 0,103227366722542 
350	 0,169574353415649 
351	 0,177345103964337 
352	 0,110498207052531 
353	 0,120841051266971 
354	 0,160471262637015 
355	 0,159520325087737 
356	 0,151016072373968 
357	 0,132063861743164 
358	 6,87279758478983E-02 
359	 4,58669943173092E-02 
360	 9,48515875605686E-02 
361	 0,129076370739601 
362	 0,138457084431638 
363	 0,129078920437888 
364	 0,12101760398207 
365	 0,119268716883957 
366	 0,118230460344985 
367	 0,122068316786442 
368	 0,129495857619696 
369	 0,110786846609382 
370	 8,02861967695282E-02 
371	 6,41996700900397E-02 
372	 8,17539826546931E-02 
373	 0,123239928580582 
374	 0,120393892199414 
375	 0,101511328829006 
376	 0,090068801619825 
377	 7,46155946787938E-02 
378	 6,76391118287664E-02 
379	 9,95115097312074E-02 
380	 0,109110166449735 
381	 8,92372283196195E-02 
382	 9,43949340106681E-02 
383	 0,100282820194265 
384	 8,21736428452173E-02 
385	 8,50905698826662E-02 
386	 0,102045445645812 
387	 9,73876096871231E-02 
388	 9,32668516335492E-02 
389	 0,097299085503362 
390	 0,102322628365577 
391	 0,103673260093627 
392	 9,66785849686961E-02 
393	 8,41891083887061E-02 
394	 7,27089776109895E-02 
395	 0,079120953591887 
396	 0,090245008413021 
397	 9,80458729247275E-02 
398	 9,32987342127359E-02 
399	 8,08182721495542E-02 
400	 6,73214203684138E-02 
401	 7,48322664780592E-02 
402	 9,70681480882616E-02 
403	 9,12978295753445E-02 
404	 7,83237650442674E-02 
405	 7,35285849301608E-02 
406	 7,09292575689341E-02 
407	 7,20535957694853E-02 
408	 0,082653315686797 
409	 8,40215532400656E-02 
410	 7,47843440734217E-02 
411	 7,56247602929448E-02 
412	 7,79299970412208E-02 
413	 7,31366430276054E-02 
414	 7,07872880445456E-02 
415	 7,12090496312991E-02 
416	 7,10885533042996E-02 
417	 6,92259555143166E-02 
418	 6,63312397566544E-02 
419	 7,05236410382714E-02 
420	 7,52162034893596E-02 
421	 7,14922349994697E-02 
422	 6,75978241549625E-02 
423	 6,61115411038447E-02 
424	 6,89401704574731E-02 
425	 6,84708062284363E-02 
426	 6,14999258517777E-02 
427	 6,28564496784124E-02 
428	 6,91518544910182E-02 
429	 7,12874052978465E-02 
430	 7,21975615788144E-02 
431	 7,19307962843322E-02 
432	 6,81021466280121E-02 
433	 6,42643126969525E-02 
434	 6,36997951780015E-02 
435	 6,73114084644613E-02 
436	 7,23234340902611E-02 
437	 7,19775645155761E-02 
438	 7,01800283839865E-02 
439	 6,87407880469281E-02 
440	 6,86859739551653E-02 
441	 6,85874267527128E-02 
442	 6,65435898021793E-02 
443	 6,46890067241789E-02 
444	 6,40083566377948E-02 
445	 6,54521042861732E-02 
446	 6,86897450276092E-02 
447	 7,27742308066656E-02 
448	 7,21371009124254E-02 
449	 6,88365790852734E-02 
450	 6,79297854626505E-02 
451	 6,89494190259229E-02 
452	 7,07393273783057E-02 
453	 6,80998757623659E-02 
454	 6,57585870511396E-02 
455	 6,80221602008114E-02 
456	 6,83743716885253E-02 
457	 6,70759597333042E-02 
458	 0,068526832697279 
459	 6,83352134310984E-02 
460	 6,57112935928037E-02 
461	 6,80365397539077E-02 
462	 7,11704416578245E-02 
463	 6,87803251950733E-02 
464	 6,55479656817151E-02 
465	 6,39317835791436E-02 
466	 0,068480009656029 
467	 7,09636849746366E-02 
468	 6,69715039393592E-02 
469	 6,96707707912226E-02 
470	 7,49442946242275E-02 
471	 7,07857433702425E-02 
472	 0,068898586735018 
473	 7,16103445174399E-02 
474	 7,09815130601567E-02 
475	 6,95367118878582E-02 
476	 7,00812631300637E-02 
477	 7,01403841666445E-02 
478	 6,97237210283109E-02 
479	 7,03959667745844E-02 
480	 7,01121971870701E-02 
481	 6,82142663339168E-02 
482	 6,69588392130469E-02 
483	 6,68294817320069E-02 
484	 6,81526715607112E-02 
485	 6,93994340639598E-02 
486	 6,96692991006109E-02 
487	 6,73043000389048E-02 
488	 6,61028459822104E-02 
489	 6,86130645185743E-02 
490	 6,98219448354172E-02 
491	 6,90395083040864E-02 
492	 6,62812026796285E-02 
493	 6,52985322307799E-02 
494	 6,71030028558778E-02 
495	 6,87243657526222E-02 
496	 6,90383444676269E-02 
497	 6,71493652794458E-02 
498	 6,65825364345154E-02 
499	 0,067215659934319 
500	 6,56927133102132E-02 
501	 6,50975287955898E-02 
502	 6,68442958618947E-02 
503	 6,71954346184392E-02 
504	 6,69919979181489E-02 
505	 0,068639274561992 
506	 6,97203904920376E-02 
507	 6,94387706915332E-02 
508	 6,75608407627416E-02 
509	 6,64511813232465E-02 
510	 6,80788699590129E-02 
511	 6,89065411359963E-02 
512	 6,87095089471756E-02 
513	 6,87499803525935E-02 
514	 6,89431310609039E-02 
515	 6,93632873049897E-02 
516	 7,05564029569157E-02 
517	 7,13537808676753E-02 
518	 7,00886084695492E-02 
519	 7,00602886352812E-02 
520	 7,12660411489577E-02 
521	 7,02397850041035E-02 
522	 6,95254048544789E-02 
523	 7,07784227562182E-02 
524	 7,05300705853214E-02 
525	 6,94804405529861E-02 
526	 7,06767299920913E-02 
527	 7,05735752578301E-02 
528	 6,86322647169263E-02 
529	 6,88857016896546E-02 
530	 6,96991650170001E-02 
531	 6,89003235371222E-02 
532	 6,87845554009188E-02 
533	 6,93374209482413E-02 
534	 6,88858414402985E-02 
535	 6,83659665805127E-02 
536	 6,83729257051841E-02 
537	 6,90779483056702E-02 
538	 6,97181979736598E-02 
539	 6,88376093170074E-02 
540	 6,83174924627964E-02 
541	 6,86664311399736E-02 
542	 6,91651066546602E-02 
543	 6,97103265974401E-02 
544	 7,01962459414941E-02 
545	 6,97428294188801E-02 
546	 6,88573449235045E-02 
547	 6,95050122274433E-02 
548	 6,97104951707008E-02 
549	 6,88409101521805E-02 
550	 6,97192839446975E-02 
551	 7,10248035561981E-02 
552	 0,070256591793575 
553	 6,93165315319669E-02 
554	 6,88094268555932E-02 
555	 6,87764508853029E-02 
556	 6,89104574543205E-02 
557	 6,89641682705776E-02 
558	 6,93659568443166E-02 
559	 6,97261370338742E-02 
560	 6,88741613658818E-02 
561	 0,068247053539971 
562	 6,82898001973847E-02 
563	 0,067722063929941 
564	 6,71348873993657E-02 
565	 6,74320996583498E-02 
566	 0,067924670410486 
567	 6,84418299701918E-02 
568	 6,91482636028014E-02 
569	 6,95400568517688E-02 
570	 6,93357046199935E-02 
571	 6,94218984512046E-02 
572	 6,98859722820328E-02 
573	 7,06408672813441E-02 
574	 7,09476193670008E-02 
575	 7,09002193514413E-02 
576	 7,26907334238068E-02 
577	 7,42632104393614E-02 
578	 7,32548149493922E-02 
579	 0,073926222572161 
580	 7,62626894772036E-02 
581	 7,71150817354435E-02 
582	 7,74309288185238E-02 
583	 0,077754951166 
584	 7,81404939217833E-02 
585	 7,87619390793222E-02 
586	 7,98875207071759E-02 
587	 8,08015391984795E-02 
588	 8,14144617559041E-02 
589	 8,24905452375823E-02 
590	 8,35071557182882E-02 
591	 8,39461732768584E-02 
592	 8,39586537281458E-02 
593	 8,38164090718438E-02 
594	 8,41185187526705E-02 
595	 8,44485165503883E-02 
596	 8,46938354830063E-02 
597	 8,55320299002421E-02 
598	 8,61776826875034E-02 
599	 8,53703771106918E-02 
600	 8,49206754927928E-02 
601	 8,51467393035299E-02 
602	 8,51540630555705E-02 
603	 8,48239015177956E-02 
604	 8,41270775925232E-02 
605	 8,38223157770828E-02 
606	 8,36469255234561E-02 
607	 8,25564151743686E-02 
608	 8,17047302386404E-02 
609	 8,14445924922571E-02 
610	 8,09851677923694E-02 
611	 8,05968996795446E-02 
612	 8,06851717000882E-02 
613	 8,02122741222919E-02 
614	 7,93793841929822E-02 
615	 7,97496434674633E-02 
616	 0,080156430511151 
617	 7,98799668341412E-02 
618	 7,96813631371043E-02 
619	 7,95503542913165E-02 
620	 7,91952256901902E-02 
621	 7,93318553474132E-02 
622	 7,99493675010144E-02 
623	 7,98851713432775E-02 
624	 7,92978978181187E-02 
625	 7,84816831888608E-02 
626	 7,87231993325492E-02 
627	 0,079837433588273 
628	 0,080568285343433 
629	 8,04875375349222E-02 
630	 7,96116992168493E-02 
631	 8,00708223097459E-02 
632	 8,11594443158236E-02 
633	 8,12912736286795E-02 
634	 8,16917914276949E-02 
635	 0,082583400268803 
636	 8,34448018835663E-02 
637	 8,42519188832685E-02 
638	 8,49689000183769E-02 
639	 8,52632383093834E-02 
640	 8,53682858791068E-02 
641	 0,085964514212394 
642	 8,67801148917861E-02 
643	 8,76396046711886E-02 
644	 8,81985551819797E-02 
645	 8,85241151024115E-02 
646	 8,87535994187383E-02 
647	 8,89965216431095E-02 
648	 8,92034710328916E-02 
649	 0,089093471300137 
650	 8,88305036084719E-02 
651	 8,85083912734029E-02 
652	 8,79631944599195E-02 
653	 8,71370601818371E-02 
654	 8,58500786160487E-02 
655	 8,52214105150488E-02 
656	 8,53093597714819E-02 
657	 8,44572705876974E-02 
658	 8,28694007850354E-02 
659	 8,09166147493171E-02 
660	 7,96005162812306E-02 
661	 7,88287253379493E-02 
662	 0,077609349943064 
663	 7,62136832687279E-02 
664	 7,48802877545116E-02 
665	 7,43393558659578E-02 
666	 7,41280310201073E-02 
667	 7,34020745337085E-02 
668	 7,26560785146346E-02 
669	 7,20321378222187E-02 
670	 7,14454642358206E-02 
671	 7,13801108250183E-02 
672	 7,21001658224793E-02 
673	 0,072015949659956 
674	 7,13070964227001E-02 
675	 7,10925338432289E-02 
676	 7,10125876316287E-02 
677	 7,09266289734402E-02 
678	 7,05302663253466E-02 
679	 7,04111749702559E-02 
680	 7,12702629418209E-02 
681	 7,17056854933201E-02 
682	 7,16457926225789E-02 
683	 7,19132859022648E-02 
684	 0,072701196992409 
685	 7,40779044180901E-02 
686	 7,54213787565582E-02 
687	 7,68680554223917E-02 
688	 7,87408383710047E-02 
689	 0,081615149213308 
690	 8,53847555627639E-02 
691	 8,86460944235601E-02 
692	 9,23396724618462E-02 
693	 9,73564274554335E-02 
694	 0,103286807290493 
695	 0,110066358084775 
696	 0,117710595783781 
697	 0,126202026893635 
698	 0,135404975138768 
699	 0,144764057564784 
700	 0,154600580653295 
701	 0,165379554724349 
702	 0,17626290452999 
703	 0,187013457659592 
704	 0,197734353516357 
705	 0,208457189125208 
706	 0,21910361410074 
707	 0,229026441509745 
708	 0,238330668366539 
709	 0,247348867438087 
710	 0,256139248979759 
711	 0,26470710324229 
712	 0,272962771977767 
713	 0,280419309773148 
714	 0,286722012800758 
715	 0,292993892014287 
716	 0,299253117730863 
717	 0,304944615077046 
718	 0,310133949353201 
719	 0,31484259520078 
720	 0,319040153932821 
721	 0,322933235011609 
722	 0,326799075430946 
723	 0,33051651043374 
724	 0,333922944588258 
725	 0,336640976784836 
726	 0,338969521127882 
727	 0,341160327013039 
728	 0,343570437682975 
729	 0,346021514426563 
730	 0,348135043202878 
731	 0,34961729861514 
732	 0,350616955875342 
733	 0,352194696908859 
734	 0,353773481080846 
735	 0,354840814843638 
736	 0,355971387402846 
737	 0,357147371426965 
738	 0,358047070561797 
739	 0,358982355890524 
740	 0,360025107159575 
741	 0,360853058769985 
742	 0,361682390543056 
743	 0,362774355526457 
744	 0,363272940910218 
745	 0,363394913329975 
746	 0,364426288161144 
747	 0,365372226396401 
748	 0,365786291775394 
749	 0,366570829008023 
750	 0,36742707357414 
751	 0,367745355216322 
752	 0,367924846495661 
753	 0,368221907184002 
754	 0,369132722814334 
755	 0,370020742915102 
756	 0,370442189764345 
757	 0,370976837147022 
758	 0,37146541057582 
759	 0,371350865610575 
760	 0,371636982413163 
761	 0,372514004268021 
762	 0,373201061636146 
763	 0,373570432465971 
764	 0,373584189157314 
765	 0,373997449319752 
766	 0,374642014895212 
767	 0,374666858561484 
768	 0,374627981206052 
769	 0,374832549185195 
770	 0,375675575262488 
771	 0,376569524588392 
772	 0,376801607662125 
773	 0,377026758705635 
774	 0,377317065178211 
775	 0,377387733533004 
776	 0,37759344257607 
777	 0,378060929592158 
778	 0,378212128511256 
779	 0,378450681811724 
780	 0,379461247593439 
781	 0,379982925256206 
782	 0,379876964107616 
783	 0,379914100177536 
784	 0,380221554336636 
785	 0,380820064613031 
786	 0,381079977440865 
787	 0,381085022546094 
788	 0,381139720806602 
789	 0,381412743701015 
790	 0,381904062352166 
791	 0,38231935748892 
792	 0,382700629557837 
793	 0,383079284981013 
794	 0,383401369337907 
795	 0,383611442826618 
796	 0,383552469750702 
797	 0,383938277526562 
798	 0,384792424290213 
799	 0,38495999586387 
800	 0,384990921901776 
801	 0,385415654077377 
802	 0,385387394755434 
803	 0,385212606506479 
804	 0,386087095622705 
805	 0,38681741589854 
806	 0,386988335139134 
807	 0,386972829360519 
808	 0,387017202948788 
809	 0,387359947820868 
810	 0,388024716848605 
811	 0,388770124429072 
812	 0,388887879435483 
813	 0,389304848903768 
814	 0,390184474210891 
815	 0,389954766849319 
816	 0,38963125727403 
817	 0,390535904730956 
818	 0,391417243586722 
819	 0,391918464164204 
820	 0,391862097890652 
821	 0,391887321402297 
822	 0,392299311475312 
823	 0,392783752471549 
824	 0,393154981306473 
825	 0,393224900050591 
826	 0,393691843286346 
827	 0,394308387548078 
828	 0,393668795137711 
829	 0,393379633250485 
830	 0,39417727433879 
831	 0,394844265470465 
832	 0,395282828712293 
833	 0,395554331423778 
834	 0,395838127476176 
835	 0,396078733283236 
836	 0,395841709959523 
837	 0,395959115834637 
838	 0,396742816407993 
839	 0,396902305856322 
840	 0,396858307761798 
841	 0,397402257978826 
842	 0,397474475263959 
843	 0,397240628886768 
844	 0,398258784759806 
845	 0,398602462205398 
846	 0,397550955802236 
847	 0,398025630585983 
848	 0,399171662828556 
849	 0,399330150348008 
850	 0,399825716323818 
851	 0,400648847218703 
852	 0,400789259164371 
853	 0,400678025073299 
854	 0,400612453673684 
855	 0,400873254911692 
856	 0,401287270991741 
857	 0,401565778135363 
858	 0,402104174179613 
859	 0,40266826813931 
860	 0,402147560668504 
861	 0,402020141628123 
862	 0,402915488161815 
863	 0,40339027411271 
864	 0,403752939412447 
865	 0,404585763886939 
866	 0,405259967275914 
867	 0,405559051317003 
868	 0,405266024574688 
869	 0,405219314358674 
870	 0,405728248610695 
871	 0,405884480657935 
872	 0,40586615785894 
873	 0,405982957962524 
874	 0,405939372278755 
875	 0,405840021759227 
876	 0,406136360546342 
877	 0,40644792411504 
878	 0,406673651853873 
879	 0,407254210452726 
880	 0,407752657296698 
881	 0,407720811816066 
882	 0,408268616221053 
883	 0,40918454875307 
884	 0,409397471836885 
885	 0,409059776245337 
886	 0,408563687452583 
887	 0,409696356668112 
888	 0,410741306916331 
889	 0,410108214861133 
890	 0,409931410656281 
891	 0,410427024206368 
892	 0,411211672982414 
893	 0,411915604707323 
894	 0,412263682147288 
895	 0,411839789222288 
896	 0,411519884880383 
897	 0,411935418825389 
898	 0,411982563196372 
899	 0,412075484113942 
900	 0,413259681588188 
901	 0,414029143118148 
902	 0,414131901003199 
903	 0,414545597017138 
904	 0,414347891810636 
905	 0,413248316616965 
906	 0,41348559368942 
907	 0,41436529312889 
908	 0,414504436947355 
909	 0,414577297724168 
910	 0,414831782996605 
911	 0,415741880717942 
912	 0,415791749613858 
913	 0,414644226502567 
914	 0,414798697507128 
915	 0,416055474762152 
916	 0,41779294880754 
917	 0,417613734999113 
918	 0,416098177759918 
919	 0,416009941165397 
920	 0,416105109989113 
921	 0,416062301729515 
922	 0,416163145335387 
923	 0,416360470434931 
924	 0,41653215255689 
925	 0,415874792192644 
926	 0,415147066298468 
927	 0,415942336246526 
928	 0,416143768863395 
929	 0,415540661134332 
930	 0,415729290584249 
931	 0,415992625815792 
932	 0,415846082831068 
933	 0,414913329581051 
934	 0,414460164340624 
935	 0,416027851533197 
936	 0,415962212652487 
937	 0,414427617530398 
938	 0,414244964518202 
939	 0,414713284296436 
940	 0,415194234817614 
941	 0,413645485898121 
942	 0,411825698784544 
943	 0,411444697749345 
944	 0,412292857313448 
945	 0,413180938769674 
946	 0,412009043736696 
947	 0,410855544037242 
948	 0,410055851657817 
949	 0,40841731477765 
950	 0,407235062104875 
951	 0,407025805880632 
952	 0,405920443377106 
953	 0,404642697664768 
954	 0,404257549787708 
955	 0,403398631645707 
956	 0,402335226116917 
957	 0,402470343939203 
958	 0,402796256894053 
959	 0,402673032591288 
960	 0,40092706194453 
961	 0,39948897418587 
962	 0,399746773157655 
963	 0,400071669894483 
964	 0,399953486908079 
965	 0,399003964199864 
966	 0,400043216059513 
967	 0,401981367359964 
968	 0,39899583436503 
969	 0,397378775220967 
970	 0,399449314278393 
971	 0,401811698441356 
972	 0,40325200471737 
973	 0,402893188679891 
974	 0,401952635368069 
975	 0,400918971672402 
976	 0,400195119783577 
977	 0,400191366578392 
978	 0,400781925609573 
979	 0,401082245628181 
980	 0,401296685282826 
981	 0,401697191407979 
982	 0,403414327900381 
983	 0,404743071017177 
984	 0,404009312200823 
985	 0,403314657806814 
986	 0,403453139370337 
987	 0,405146590053628 
988	 0,405901982449979 
989	 0,406026572763652 
990	 0,409972179818691 
991	 0,411107892874022 
992	 0,40725745155997 
993	 0,40780156184299 
994	 0,410380468090478 
995	 0,411750345319569 
996	 0,413204765637385 
997	 0,414620040857528 
998	 0,415543210175569 
999	 0,415875910285409 
1000	 0,415587354566359 
1001	 0,414629191915308 
1002	 0,413752613449367 
1003	 0,413779729513812 
1004	 0,416424044611778 
1005	 0,419810227755085 
1006	 0,421751926302314 
1007	 0,4202342569303 
1008	 0,418099174168622 
1009	 0,420837172499896 
1010	 0,423890354773896 
1011	 0,426153226516823 
1012	 0,429046443632421 
1013	 0,428178806722488 
1014	 0,423166704881885 
1015	 0,421798058110021 
1016	 0,425050687478887 
1017	 0,431905031069778 
1018	 0,43069288086951 
1019	 0,426562920488513 
1020	 0,429683982717607 
1021	 0,43040836118968 
1022	 0,428760721605445 
1023	 0,431112922827768 
1024	 0,432919150329083 
1025	 0,433381674127929 
1026	 0,436273491287198 
1027	 0,438265552801289 
1028	 0,437546348538274 
1029	 0,437958917707057 
1030	 0,440066060260507 
1031	 0,443431596005266 
1032	 0,439976786539896 
1033	 0,433664990528022 
1034	 0,435753737406846 
1035	 0,438818522853068 
1036	 0,441391394483928 
1037	 0,446119003271431 
1038	 0,448847486864942 
1039	 0,447439666173223 
1040	 0,442003979725546 
1041	 0,439710057407373 
1042	 0,445330228877042 
1043	 0,445517210131359 
1044	 0,443611755486915 
1045	 0,446283959816171 
1046	 0,44547714777029 
1047	 0,44297706223959 
1048	 0,447217763630601 
1049	 0,446638480815781 
1050	 0,441114488642021 
1051	 0,444540455277441 
1052	 0,449560759604793 
1053	 0,452520341064239 
1054	 0,455375011864926 
1055	 0,455966624522432 
1056	 0,453474907541802 
1057	 0,457849263371068 
1058	 0,463211808061673 
1059	 0,459642655420783 
1060	 0,457855307323031 
1061	 0,456554940968384 
1062	 0,446892802673312 
1063	 0,450218208926828 
1064	 0,463891464502417 
1065	 0,451616065214699 
1066	 0,446010771585691 
1067	 0,45757815545151 
1068	 0,460524383194625 
1069	 0,463651894512763 
1070	 0,471856596471617 
1071	 0,463364598658044 
1072	 0,451514449234353 
1073	 0,454110457184138 
1074	 0,461334759391792 
1075	 0,467030883227956 
