Wavelength	GRA-VIE00282.asd
325	 4,96261207517749E-02 
326	 0,157847878502342 
327	 0,239481952149681 
328	 0,203816253030864 
329	 0,126595482008153 
330	 5,26256447839445E-02 
331	 6,91613414083427E-02 
332	 9,69119007512046E-02 
333	 0,124789400548704 
334	 8,84733685208028E-02 
335	 0,123211206387452 
336	 0,21581611648121 
337	 0,240102791936408 
338	 0,231740995174985 
339	 0,212532372234424 
340	 0,166697672238392 
341	 0,111720620835889 
342	 0,113364303786968 
343	 0,155660475264304 
344	 0,205149729845233 
345	 0,176200439823217 
346	 0,134238581794153 
347	 0,153703470071015 
348	 0,13730549142673 
349	 9,71313818871117E-02 
350	 0,112312806942115 
351	 0,136318009886493 
352	 0,155763834616641 
353	 0,166014813721341 
354	 0,168635206134752 
355	 0,168458106591268 
356	 0,157932802450272 
357	 0,139305539933439 
358	 0,118092998717677 
359	 0,114954384887114 
360	 0,136612711566996 
361	 0,154142486179943 
362	 0,159416948120718 
363	 0,149318220791362 
364	 0,140756389207408 
365	 0,135459411360235 
366	 0,117892407263709 
367	 0,122930719444449 
368	 0,162394724955985 
369	 0,145815883424226 
370	 0,108077347899551 
371	 0,125813650421479 
372	 0,143438999261902 
373	 0,146170841953223 
374	 0,141523290069589 
375	 0,136359109775489 
376	 0,134979677747133 
377	 0,124506547476403 
378	 0,113896323589312 
379	 0,125114661737632 
380	 0,143338667393007 
381	 0,158912356449746 
382	 0,150535000202838 
383	 0,135808647899653 
384	 0,13330115263083 
385	 0,131304994423101 
386	 0,128508074573164 
387	 0,123929467540929 
388	 0,131861080788517 
389	 0,152347091392637 
390	 0,156074984001242 
391	 0,149046972568317 
392	 0,141172482038015 
393	 0,128116070628437 
394	 0,117388257641567 
395	 0,134919938756845 
396	 0,145930253140306 
397	 0,136374722798456 
398	 0,132877509119315 
399	 0,134277178499798 
400	 0,133852037300749 
401	 0,134392809995243 
402	 0,135104648499233 
403	 0,130398352330063 
404	 0,129794203639954 
405	 0,138287638931546 
406	 0,137411264375287 
407	 0,131107511129201 
408	 0,132700847081634 
409	 0,134548704567536 
410	 0,135250236320668 
411	 0,138798603459087 
412	 0,140296082986434 
413	 0,135410997763613 
414	 0,128072246366845 
415	 0,122463153841818 
416	 0,127465647911726 
417	 0,129823674256946 
418	 0,126094669224376 
419	 0,130506025429178 
420	 0,136298344884475 
421	 0,133671045563566 
422	 0,13037068003651 
423	 0,12894836064451 
424	 0,131449783204356 
425	 0,132147667734817 
426	 0,128311552293034 
427	 0,128101049209313 
428	 0,131489951228904 
429	 0,137217535773328 
430	 0,136885225575072 
431	 0,130564337022448 
432	 0,130988199007247 
433	 0,132628995322072 
434	 0,130496428291557 
435	 0,131098294422022 
436	 0,134445573406779 
437	 0,138370158741621 
438	 0,139614962663607 
439	 0,137299925411831 
440	 0,136138461982437 
441	 0,135813663298849 
442	 0,135303216020639 
443	 0,135227278869646 
444	 0,135682560030769 
445	 0,136763627053851 
446	 0,137006560333314 
447	 0,13571522347214 
448	 0,134832926842215 
449	 0,135380703481242 
450	 0,138977195241485 
451	 0,13983544988679 
452	 0,137104339259919 
453	 0,136050534500481 
454	 0,136204324973482 
455	 0,136863688653613 
456	 0,137004874637739 
457	 0,137306645088194 
458	 0,140675401029673 
459	 0,141843295851384 
460	 0,139315029351942 
461	 0,139465619501785 
462	 0,140131392454636 
463	 0,137619274831381 
464	 0,137032499047657 
465	 0,138754761601672 
466	 0,13975846061804 
467	 0,139364724827338 
468	 0,137515877406068 
469	 0,13834498934682 
470	 0,139958493437165 
471	 0,137220804293793 
472	 0,13634571242533 
473	 0,138269326406994 
474	 0,137011846890776 
475	 0,136080778545279 
476	 0,138942932470666 
477	 0,138886038892536 
478	 0,136129721140458 
479	 0,135024961556931 
480	 0,134451121011459 
481	 0,13404573993965 
482	 0,134255131727975 
483	 0,134872125624407 
484	 0,135540169667508 
485	 0,136702524254402 
486	 0,137576254816414 
487	 0,134438156462948 
488	 0,133401148322679 
489	 0,138433562257187 
490	 0,140017635502365 
491	 0,137915615404053 
492	 0,134772865480965 
493	 0,133928781914476 
494	 0,136117820737314 
495	 0,137062513893348 
496	 0,136789772814006 
497	 0,135766316004125 
498	 0,135972578583119 
499	 0,13682970332863 
500	 0,13485529924696 
501	 0,133479135770155 
502	 0,134482588356512 
503	 0,135304698831843 
504	 0,13560559830559 
505	 0,135418255082621 
506	 0,135428259286795 
507	 0,135692288803118 
508	 0,135375153754583 
509	 0,134998530477626 
510	 0,135090712537372 
511	 0,135921779825421 
512	 0,137225861657854 
513	 0,138451877551075 
514	 0,138616793603691 
515	 0,137582520063161 
516	 0,13745431282488 
517	 0,138229068460343 
518	 0,139589838451229 
519	 0,140542322536222 
520	 0,140683474690392 
521	 0,139662163720548 
522	 0,139241086595448 
523	 0,140472718357108 
524	 0,139996102623035 
525	 0,138682138757793 
526	 0,139786116646946 
527	 0,140530254778306 
528	 0,140085866446676 
529	 0,139342969616692 
530	 0,139062718561034 
531	 0,139988352599132 
532	 0,139772493361684 
533	 0,138660062404552 
534	 0,139208786595277 
535	 0,139797230883372 
536	 0,139604984587234 
537	 0,140397610109914 
538	 0,141130757402001 
539	 0,139387737003638 
540	 0,13854360222186 
541	 0,139393372432158 
542	 0,140157699419764 
543	 0,140749615218402 
544	 0,141159266192064 
545	 0,141130838183028 
546	 0,140902800549932 
547	 0,141214207410139 
548	 0,141696016521808 
549	 0,142092026426682 
550	 0,141951346599536 
551	 0,141633649002796 
552	 0,141774834490628 
553	 0,141911441005673 
554	 0,141832313406464 
555	 0,141190778054295 
556	 0,14074474810498 
557	 0,141084080020665 
558	 0,141334479107647 
559	 0,141257235917962 
560	 0,14063456733842 
561	 0,140230318183859 
562	 0,140352029073347 
563	 0,140604250845879 
564	 0,140856854278149 
565	 0,140991385116779 
566	 0,141339545468862 
567	 0,141749275025499 
568	 0,141385185943519 
569	 0,141019483037361 
570	 0,141214962683216 
571	 0,141690309175052 
572	 0,142474144212751 
573	 0,143877933466443 
574	 0,144273895453453 
575	 0,143639455846397 
576	 0,145328145836573 
577	 0,147157138187248 
578	 0,146512402280904 
579	 0,147443922837551 
580	 0,149869197132954 
581	 0,150748084127586 
582	 0,15068826199485 
583	 0,150181847976744 
584	 0,150505707143603 
585	 0,151229401094686 
586	 0,151213086718523 
587	 0,151542347935869 
588	 0,152513199105649 
589	 0,153984077407587 
590	 0,155179604143523 
591	 0,155397648396068 
592	 0,155163996180368 
593	 0,154817933696334 
594	 0,154861153500702 
595	 0,155128245254888 
596	 0,15552627855176 
597	 0,156004330731588 
598	 0,156167463387579 
599	 0,155451874655675 
600	 0,154973482165626 
601	 0,154941392642166 
602	 0,154695572788678 
603	 0,15467541358184 
604	 0,155140830620674 
605	 0,15486281559759 
606	 0,154049681950702 
607	 0,153757357074644 
608	 0,153367168362483 
609	 0,152656373777536 
610	 0,151512024677747 
611	 0,15074375844756 
612	 0,151324288919377 
613	 0,151184700178549 
614	 0,150249372644684 
615	 0,15012814168685 
616	 0,150063446149819 
617	 0,149615532859629 
618	 0,14939950383744 
619	 0,149293738359283 
620	 0,148821891308139 
621	 0,148949205408051 
622	 0,1497092962986 
623	 0,149699826166359 
624	 0,149305706006276 
625	 0,14903281085607 
626	 0,149343804852732 
627	 0,149964220273273 
628	 0,149797984010962 
629	 0,14944502254429 
630	 0,149269494743902 
631	 0,14944228029641 
632	 0,150016783350687 
633	 0,151063800980088 
634	 0,15161539604689 
635	 0,151595764334849 
636	 0,151992924332021 
637	 0,152732512329729 
638	 0,153674209887524 
639	 0,154172051490719 
640	 0,154337518775566 
641	 0,154742281229604 
642	 0,155384673560323 
643	 0,156179174749246 
644	 0,156512438518382 
645	 0,156685833449591 
646	 0,157168659599081 
647	 0,157154625846584 
648	 0,156689638203343 
649	 0,156641163364036 
650	 0,156609663652874 
651	 0,156291432565758 
652	 0,155530211168102 
653	 0,154514257717185 
654	 0,153600947666123 
655	 0,153109069956253 
656	 0,152908989465166 
657	 0,151781415977742 
658	 0,150343687950686 
659	 0,149302348081257 
660	 0,148076990445067 
661	 0,146703186598667 
662	 0,145530089992275 
663	 0,144646217321704 
664	 0,144035252838083 
665	 0,143181901946576 
666	 0,142213242768929 
667	 0,141397185201219 
668	 0,141121889939325 
669	 0,141285328888985 
670	 0,140971323199962 
671	 0,140795361518332 
672	 0,141186783802279 
673	 0,140940347073872 
674	 0,140297721283007 
675	 0,140305618974839 
676	 0,140529809491126 
677	 0,140793897364749 
678	 0,141011604133104 
679	 0,140985199631431 
680	 0,140511664852241 
681	 0,140268644095774 
682	 0,140493215410309 
683	 0,141344077152717 
684	 0,142147511085964 
685	 0,142544435204665 
686	 0,143126455153203 
687	 0,144207239525481 
688	 0,146154198663172 
689	 0,148511653181538 
690	 0,151069880877892 
691	 0,153492178984755 
692	 0,156747064946396 
693	 0,16164749341189 
694	 0,166832527331272 
695	 0,172399438888622 
696	 0,179203725095584 
697	 0,187190407244691 
698	 0,196252017972998 
699	 0,205831492485325 
700	 0,215987861893634 
701	 0,226862619521708 
702	 0,238234802564524 
703	 0,249973646259997 
704	 0,261989854730511 
705	 0,274089251927583 
706	 0,286061570749688 
707	 0,297527266064206 
708	 0,308607315497308 
709	 0,319593120196188 
710	 0,330476602396123 
711	 0,341092513110939 
712	 0,350737450606233 
713	 0,359758093080265 
714	 0,368522476931437 
715	 0,376666325090816 
716	 0,38431750615891 
717	 0,392015882352498 
718	 0,399082401815589 
719	 0,405287615856068 
720	 0,410985655170266 
721	 0,416430117900066 
722	 0,421922350489139 
723	 0,426902800244636 
724	 0,431244677681739 
725	 0,435036811152964 
726	 0,438667641431413 
727	 0,442337948998094 
728	 0,445485021470755 
729	 0,448317990680759 
730	 0,451383285883032 
731	 0,453705066200827 
732	 0,455279750361258 
733	 0,457390055289355 
734	 0,459557853322902 
735	 0,461326092141499 
736	 0,462920279106618 
737	 0,464360614889311 
738	 0,465635456525196 
739	 0,466615747409037 
740	 0,467369683271949 
741	 0,468483512898293 
742	 0,469757947043719 
743	 0,470898305959838 
744	 0,471797736627161 
745	 0,472465798750869 
746	 0,472957076297789 
747	 0,473808546082842 
748	 0,475183822799304 
749	 0,475998224587827 
750	 0,476414281811282 
751	 0,476892023967785 
752	 0,4773338006447 
753	 0,477754052893598 
754	 0,47820522756003 
755	 0,478688055825385 
756	 0,479204301712376 
757	 0,479789902927946 
758	 0,480312011281926 
759	 0,480485396074681 
760	 0,480731885334609 
761	 0,481185744046824 
762	 0,481768368651053 
763	 0,482171848123174 
764	 0,48215664854924 
765	 0,482579661095559 
766	 0,483242273351151 
767	 0,483174435063663 
768	 0,483126048674894 
769	 0,483364491291555 
770	 0,483569236479917 
771	 0,483841197436929 
772	 0,484315628775065 
773	 0,484531441983598 
774	 0,484557171457863 
775	 0,484965635690912 
776	 0,485293138548101 
777	 0,485328147226711 
778	 0,48539533238412 
779	 0,485488344888998 
780	 0,485538347819501 
781	 0,485762305309232 
782	 0,486067189776685 
783	 0,485825735709249 
784	 0,486015995525028 
785	 0,487097861876989 
786	 0,487127753682783 
787	 0,486670134267253 
788	 0,487253889064522 
789	 0,487418843361622 
790	 0,487030352852783 
791	 0,487408126814853 
792	 0,487750065597203 
793	 0,487456026482498 
794	 0,487538662439699 
795	 0,4879262445828 
796	 0,488073106884788 
797	 0,488530112436801 
798	 0,489207793918535 
799	 0,488838008874044 
800	 0,488470066197386 
801	 0,489061181957871 
802	 0,48893840752337 
803	 0,488416077290291 
804	 0,48912292161315 
805	 0,489700260711656 
806	 0,489722384825432 
807	 0,489743974165749 
808	 0,489928663987071 
809	 0,490399680478952 
810	 0,490926869057698 
811	 0,491338732938028 
812	 0,491308681619007 
813	 0,491393777463372 
814	 0,491761547215718 
815	 0,491812247990541 
816	 0,491778982345646 
817	 0,491994088850587 
818	 0,492337200429581 
819	 0,492733301124019 
820	 0,493093403258475 
821	 0,493183803218849 
822	 0,492972716964811 
823	 0,493053000061123 
824	 0,493267040041442 
825	 0,493331408209082 
826	 0,493443347020656 
827	 0,493600348985832 
828	 0,4936542779058 
829	 0,493744219404491 
830	 0,49392478200805 
831	 0,494061025860323 
832	 0,494093074169579 
833	 0,493964475275763 
834	 0,494457542768791 
835	 0,495334132925291 
836	 0,495214213827072 
837	 0,494822281317726 
838	 0,494586519378487 
839	 0,494495693776313 
840	 0,494598518499386 
841	 0,494941676444386 
842	 0,495079984256461 
843	 0,495038517522568 
844	 0,495386037042641 
845	 0,495436813680812 
846	 0,495021191403352 
847	 0,495815336493853 
848	 0,49671055679081 
849	 0,495925615155525 
850	 0,495772286066913 
851	 0,496457519784032 
852	 0,496687423643474 
853	 0,496634337302877 
854	 0,496444419316497 
855	 0,496619812881097 
856	 0,496790255411228 
857	 0,496381888080528 
858	 0,496176001828878 
859	 0,496378180161962 
860	 0,497099859978824 
861	 0,497170981871031 
862	 0,496229624576353 
863	 0,496260013577856 
864	 0,496926919715183 
865	 0,497498969660376 
866	 0,497957660483352 
867	 0,498207767287393 
868	 0,498064786622101 
869	 0,498063832638352 
870	 0,498440048273664 
871	 0,498876789521779 
872	 0,49912061832034 
873	 0,498908880992442 
874	 0,498047217477984 
875	 0,497157745005491 
876	 0,498072408855432 
877	 0,49891264704671 
878	 0,498970559284653 
879	 0,499375033320491 
880	 0,499425242789999 
881	 0,498401914015017 
882	 0,498483012354306 
883	 0,49944426814465 
884	 0,499528104108694 
885	 0,49932629532462 
886	 0,499189655403814 
887	 0,50000884940467 
888	 0,50065420884394 
889	 0,500131709019614 
890	 0,500423345844232 
891	 0,501112449304017 
892	 0,500438080095681 
893	 0,500320597124441 
894	 0,501017746991345 
895	 0,500754537960636 
896	 0,500348413624564 
897	 0,500430511102874 
898	 0,500115223738143 
899	 0,499905171892103 
900	 0,500911768831533 
901	 0,501603306790441 
902	 0,501738651181601 
903	 0,502369449868423 
904	 0,50242036928643 
905	 0,501441572551666 
906	 0,501370665882312 
907	 0,501644559396132 
908	 0,501123879317558 
909	 0,501218320017577 
910	 0,50178994901013 
911	 0,501250232214688 
912	 0,501184234025892 
913	 0,502069005965393 
914	 0,501871236731135 
915	 0,501842949719445 
916	 0,503373099306705 
917	 0,502571102229797 
918	 0,500278076078475 
919	 0,500546982458661 
920	 0,501124985171703 
921	 0,501241230284392 
922	 0,500980641062252 
923	 0,50053693854943 
924	 0,500154537294976 
925	 0,500626985318816 
926	 0,500962385740114 
927	 0,499165060495496 
928	 0,497724324687336 
929	 0,497472541721329 
930	 0,498598885517911 
931	 0,499302152840006 
932	 0,49857149864665 
933	 0,497673590178337 
934	 0,496848128981371 
935	 0,496217820843111 
936	 0,496081806705091 
937	 0,495974451686128 
938	 0,494186969342933 
939	 0,493917844315346 
940	 0,495407872940835 
941	 0,493137077605803 
942	 0,490517365589473 
943	 0,490700118770809 
944	 0,490927587882253 
945	 0,490536890141301 
946	 0,489137763165914 
947	 0,488343292110488 
948	 0,487992239614255 
949	 0,48554881407849 
950	 0,483455786018475 
951	 0,482990217239656 
952	 0,482576588855204 
953	 0,481725142863604 
954	 0,480090342259722 
955	 0,478484106759009 
956	 0,477076746693971 
957	 0,475593131610997 
958	 0,475423164018631 
959	 0,476351430600368 
960	 0,475095201877203 
961	 0,473867882618684 
962	 0,474145355943085 
963	 0,472568172156204 
964	 0,470772392173393 
965	 0,471864718159562 
966	 0,472615661051576 
967	 0,472284669169904 
968	 0,47121025576521 
969	 0,470377615177563 
970	 0,47019994567055 
971	 0,469972662427597 
972	 0,469935425475677 
973	 0,470298704809414 
974	 0,470653180636827 
975	 0,470632912010882 
976	 0,469743517467089 
977	 0,468992317828004 
978	 0,468981892067418 
979	 0,470827453846025 
980	 0,471358139897954 
981	 0,46960839023192 
982	 0,470103410401839 
983	 0,471188819734134 
984	 0,47092509506785 
985	 0,471314626720692 
986	 0,472125385715949 
987	 0,472258744461226 
988	 0,472184781906726 
989	 0,472341821537575 
990	 0,473895482239422 
991	 0,474841635331015 
992	 0,474366100111797 
993	 0,474580677030542 
994	 0,474988689506048 
995	 0,474975777629355 
996	 0,475442915800713 
997	 0,47699498182136 
998	 0,480523952543381 
999	 0,482728341994109 
1000	 0,482577506107511 
1001	 0,480381923032399 
1002	 0,478801965334252 
1003	 0,479509505120213 
1004	 0,482481155360757 
1005	 0,486072229407088 
1006	 0,488358282436119 
1007	 0,486444781567109 
1008	 0,483162592823735 
1009	 0,484256096212585 
1010	 0,486000661290921 
1011	 0,487260723995524 
1012	 0,487990997280702 
1013	 0,487187619378639 
1014	 0,485012605971473 
1015	 0,484210009611082 
1016	 0,48558677491454 
1017	 0,489064354327409 
1018	 0,489636225220513 
1019	 0,488994528042815 
1020	 0,490750657554258 
1021	 0,491444910593459 
1022	 0,491740403953135 
1023	 0,495899803178904 
1024	 0,498459986523269 
1025	 0,497857382659192 
1026	 0,496254001226728 
1027	 0,496745826914741 
1028	 0,500388217065284 
1029	 0,498972881219626 
1030	 0,498818638935691 
1031	 0,507169436047877 
1032	 0,506798807924772 
1033	 0,499395865593922 
1034	 0,495348647215432 
1035	 0,495220267999775 
1036	 0,498551371248005 
1037	 0,502410721808993 
1038	 0,504316196441366 
1039	 0,50340226734673 
1040	 0,503443869941277 
1041	 0,50218450791032 
1042	 0,498209000437527 
1043	 0,496709550196459 
1044	 0,497961003885975 
1045	 0,500937509769798 
1046	 0,497374561174161 
1047	 0,491068569374746 
1048	 0,494884118603174 
1049	 0,500754264799941 
1050	 0,506697227387089 
1051	 0,516001148634331 
1052	 0,518262846357194 
1053	 0,510482692555107 
1054	 0,506352581473604 
1055	 0,503987797693895 
1056	 0,501603977787019 
1057	 0,505111599553049 
1058	 0,507967853502967 
1059	 0,500798236122736 
1060	 0,504518782541515 
1061	 0,512075661848288 
1062	 0,497743509391994 
1063	 0,498621922362441 
1064	 0,515224702397339 
1065	 0,504595433438395 
1066	 0,499327853052894 
1067	 0,508630090024937 
1068	 0,500198223538372 
1069	 0,49765507366773 
1070	 0,514838985127644 
1071	 0,505245212213812 
1072	 0,490084675998892 
1073	 0,49899937275765 
1074	 0,506666469017351 
1075	 0,511096559590016 
