Wavelength	GRA-VAN00657.asd
325	 0,318527018253741 
326	 0,17199764772059 
327	 0,110573662506529 
328	 0,228375196734527 
329	 0,197174388554021 
330	 0,191010067393294 
331	 0,327409572166758 
332	 0,282667322064951 
333	 0,16169159156185 
334	 0,111662817551963 
335	 9,40930956594579E-02 
336	 0,102492666846885 
337	 9,32661071883534E-02 
338	 9,44805626070016E-02 
339	 0,134629866929522 
340	 0,177763555199594 
341	 0,185388228508792 
342	 0,118575679471884 
343	 0,102328671918392 
344	 0,157683391936001 
345	 0,162021404857283 
346	 0,142324602304383 
347	 0,128607625967088 
348	 7,19127397133648E-02 
349	-6,03555032960985E-03 
350	 1,68680984262238E-03 
351	 4,85720611025017E-02 
352	 8,94554653175343E-02 
353	 5,49861833582343E-02 
354	 1,08464703463903E-02 
355	 3,79062712714913E-02 
356	 6,61414011672938E-02 
357	 7,43960390309166E-02 
358	 4,75839615944655E-02 
359	 3,36052500918608E-02 
360	 5,58094098203207E-02 
361	 0,084259236072732 
362	 9,56457488781306E-02 
363	 5,99299559374893E-02 
364	 4,70702961278172E-02 
365	 6,42816614436678E-02 
366	 6,69490893798796E-02 
367	 6,02767037279542E-02 
368	 4,89932090384041E-02 
369	 4,17363011682632E-02 
370	 3,56700084831109E-02 
371	 2,07099319495282E-02 
372	 3,76085230030157E-02 
373	 7,61371728210945E-02 
374	 6,27497119534998E-02 
375	 3,65318713405709E-02 
376	 3,12782262520469E-02 
377	 3,24708965960435E-02 
378	 0,037220110149688 
379	 4,36858887127614E-02 
380	 0,045817862472388 
381	 4,71275669390897E-02 
382	 7,72887714131218E-02 
383	 9,05001284487728E-02 
384	 4,91841195270115E-02 
385	 4,50219698687394E-02 
386	 0,064588660316955 
387	 2,44753838435371E-02 
388	 6,36879002776319E-03 
389	 3,47365593203264E-02 
390	 3,08360076367358E-02 
391	 0,019360725215957 
392	 3,49223028662364E-02 
393	 4,62977883059204E-02 
394	 4,68254153543744E-02 
395	 3,66253278458388E-02 
396	 3,19554703029843E-02 
397	 3,92918417128137E-02 
398	 4,10857592331324E-02 
399	 3,57302558737775E-02 
400	 2,29284543191686E-02 
401	 2,36531603447742E-02 
402	 3,56778835834252E-02 
403	 3,17878799986477E-02 
404	 2,10070044111374E-02 
405	 1,19206406053714E-02 
406	 2,03391805722783E-02 
407	 3,55625677153638E-02 
408	 3,52804182753852E-02 
409	 3,00107244926283E-02 
410	 2,40727515492611E-02 
411	 2,14940073430215E-02 
412	 0,021377093146441 
413	 0,022554360072065 
414	 2,34848597173454E-02 
415	 2,39675890075984E-02 
416	 2,53647987753782E-02 
417	 2,21786632099376E-02 
418	 1,46205373899254E-02 
419	 1,71795260986655E-02 
420	 2,49009379031573E-02 
421	 3,05244240746013E-02 
422	 2,99206636539561E-02 
423	 0,024522244010272 
424	 2,28071073728449E-02 
425	 2,17780473232299E-02 
426	 2,01345956189022E-02 
427	 2,29622180367013E-02 
428	 2,75464290724046E-02 
429	 2,87635273417961E-02 
430	 2,45135298411117E-02 
431	 1,65293382495583E-02 
432	 1,47842273167713E-02 
433	 1,77016569208584E-02 
434	 2,28205540683589E-02 
435	 2,19131739506266E-02 
436	 1,68217076971967E-02 
437	 1,64841374418668E-02 
438	 1,63304194357096E-02 
439	 0,015270796403328 
440	 1,71929700425353E-02 
441	 1,99757017817889E-02 
442	 2,05834160033104E-02 
443	 1,97819926976159E-02 
444	 1,83375201167176E-02 
445	 1,82718422427291E-02 
446	 1,78207917553611E-02 
447	 1,61023704543728E-02 
448	 1,49714622541082E-02 
449	 1,56707945844337E-02 
450	 0,020266881324058 
451	 2,22217291616723E-02 
452	 2,06081396901917E-02 
453	 2,20290531459822E-02 
454	 0,022475104621076 
455	 1,85193401150727E-02 
456	 2,06617138338679E-02 
457	 2,60429855907531E-02 
458	 2,15775567703682E-02 
459	 0,018580360529791 
460	 2,10978812528749E-02 
461	 2,19605463884406E-02 
462	 2,06885945266717E-02 
463	 1,75420633276044E-02 
464	 1,54667627447864E-02 
465	 1,57045585067747E-02 
466	 1,91878471103355E-02 
467	 2,24439538308681E-02 
468	 2,31067880241978E-02 
469	 2,25418168810215E-02 
470	 0,021114520116214 
471	 1,87846279673158E-02 
472	 1,82729739619497E-02 
473	 2,01631496109576E-02 
474	 2,23040854022406E-02 
475	 2,37178422830001E-02 
476	 2,36277790095338E-02 
477	 2,44127882280306E-02 
478	 2,52869204030784E-02 
479	 2,27791474325679E-02 
480	 1,97251322291977E-02 
481	 0,017804409777334 
482	 1,78317492891891E-02 
483	 0,018822301044771 
484	 1,92407722660674E-02 
485	 1,93634283266185E-02 
486	 0,019131903103078 
487	 1,81136189434103E-02 
488	 1,79191443594319E-02 
489	 1,94790579240684E-02 
490	 1,87200082941263E-02 
491	 1,71316990681372E-02 
492	 1,99067575299883E-02 
493	 0,021135467784528 
494	 1,94223689071458E-02 
495	 1,94898421601688E-02 
496	 1,94006356974517E-02 
497	 1,66736619896728E-02 
498	 1,65587841238768E-02 
499	 1,90776350952607E-02 
500	 2,09220385663223E-02 
501	 2,07603165138668E-02 
502	 1,83087069758367E-02 
503	 1,81550159206505E-02 
504	 1,94701641685451E-02 
505	 0,019711533768357 
506	 2,00139210830595E-02 
507	 2,04482086441824E-02 
508	 2,03625222431642E-02 
509	 1,93961931828639E-02 
510	 1,74131006564862E-02 
511	 1,71811060514424E-02 
512	 1,82298818264013E-02 
513	 1,78111482369625E-02 
514	 1,77522525185602E-02 
515	 0,018675338573533 
516	 1,94574436149511E-02 
517	 1,99539471142425E-02 
518	 2,01388835720022E-02 
519	 2,04484303029268E-02 
520	 2,07475155967826E-02 
521	 2,01256331917239E-02 
522	 1,92766774860272E-02 
523	 1,87767627944424E-02 
524	 1,87764002598105E-02 
525	 1,92340177319445E-02 
526	 2,02151311757003E-02 
527	 2,01698830086385E-02 
528	 1,88348233154391E-02 
529	 0,018019980900124 
530	 1,80454289269031E-02 
531	 1,90587650391809E-02 
532	 1,93817394542376E-02 
533	 0,018679816851131 
534	 1,70619975109932E-02 
535	 1,66040946732331E-02 
536	 1,82661884759361E-02 
537	 1,88168570734335E-02 
538	 1,86375823946333E-02 
539	 1,92836805541537E-02 
540	 2,00312437818453E-02 
541	 2,04839662501666E-02 
542	 1,98949719562376E-02 
543	 1,90186916739654E-02 
544	 1,86280629059003E-02 
545	 1,84005358213962E-02 
546	 1,83187580841263E-02 
547	 0,01849907465742 
548	 1,86454377247537E-02 
549	 0,018602987410149 
550	 1,85040780304126E-02 
551	 1,83357123293907E-02 
552	 1,80497447108484E-02 
553	 1,77880693183206E-02 
554	 1,76441716638818E-02 
555	 1,77731066708537E-02 
556	 1,78810635250222E-02 
557	 1,77592584265293E-02 
558	 1,80275156882023E-02 
559	 1,85813870621006E-02 
560	 1,89823992050281E-02 
561	 1,89021549328342E-02 
562	 1,83850395872137E-02 
563	 1,87807094659302E-02 
564	 0,019156141554057 
565	 1,81449359715139E-02 
566	 1,73181872927479E-02 
567	 1,70827345793328E-02 
568	 1,72239096468502E-02 
569	 1,76643876691046E-02 
570	 1,82664896988104E-02 
571	 1,83761182509853E-02 
572	 1,81627497309018E-02 
573	 1,81541756307748E-02 
574	 1,87040423597486E-02 
575	 1,97453960751072E-02 
576	 2,01603131399781E-02 
577	 2,01926189705406E-02 
578	 2,02127471104162E-02 
579	 1,99308165162353E-02 
580	 1,96626558509734E-02 
581	 2,05692294812324E-02 
582	 2,11906168804467E-02 
583	 2,07927417271646E-02 
584	 2,06880771798092E-02 
585	 2,10662355900097E-02 
586	 2,20220925918385E-02 
587	 2,20790094331673E-02 
588	 0,021234213242542 
589	 2,17724888026321E-02 
590	 2,24352545869801E-02 
591	 2,20238869426776E-02 
592	 2,21292078463042E-02 
593	 2,26545032456558E-02 
594	 0,022461503091916 
595	 2,22760426356903E-02 
596	 2,24970392942567E-02 
597	 2,35472645111572E-02 
598	 2,42656495617735E-02 
599	 2,28719880846907E-02 
600	 2,20067567964371E-02 
601	 2,21408215038319E-02 
602	 2,17769753138625E-02 
603	 2,17397516208242E-02 
604	 2,25507497100651E-02 
605	 2,22168530650519E-02 
606	 2,12108606664071E-02 
607	 2,15428772091133E-02 
608	 2,19048487352226E-02 
609	 2,18387941796323E-02 
610	 2,15944934673528E-02 
611	 2,13861389932679E-02 
612	 2,14518116291058E-02 
613	 2,12576799319235E-02 
614	 2,07960699960587E-02 
615	 0,02049766720166 
616	 2,01838462513548E-02 
617	 1,98293221434365E-02 
618	 0,020254308348585 
619	 2,09296570316117E-02 
620	 2,06302154225705E-02 
621	 2,01430116042958E-02 
622	 1,97883850555503E-02 
623	 1,97465729645453E-02 
624	 1,99204920706519E-02 
625	 2,01870494002212E-02 
626	 2,04634260091349E-02 
627	 2,07156504962111E-02 
628	 2,10348838111896E-02 
629	 2,08973576786379E-02 
630	 2,02144419237192E-02 
631	 2,04373259344024E-02 
632	 2,10682014309674E-02 
633	 2,10078823096955E-02 
634	 2,11150847614954E-02 
635	 2,15994055139066E-02 
636	 2,23934883931523E-02 
637	 2,27532785277393E-02 
638	 2,21517786147387E-02 
639	 2,22552315153683E-02 
640	 2,28433713094195E-02 
641	 2,23951365787134E-02 
642	 2,26957820618398E-02 
643	 2,40857800362333E-02 
644	 2,40309794951707E-02 
645	 0,023516982081648 
646	 2,41187140870329E-02 
647	 2,41911199265061E-02 
648	 2,35743596474896E-02 
649	 2,30551305571493E-02 
650	 2,30492250465645E-02 
651	 2,37110239656987E-02 
652	 2,36712819174419E-02 
653	 2,31928070188157E-02 
654	 2,33313480999766E-02 
655	 2,29036176854371E-02 
656	 2,17753187080213E-02 
657	 0,02122484788284 
658	 2,09489879765912E-02 
659	 2,05551745627486E-02 
660	 2,02706428019772E-02 
661	 2,00052642562486E-02 
662	 0,019323153875264 
663	 1,90277196316957E-02 
664	 1,94113576316155E-02 
665	 1,94832224076727E-02 
666	 1,91041642919245E-02 
667	 1,82159624354391E-02 
668	 1,80491946325921E-02 
669	 1,87054153076841E-02 
670	 1,90451770512851E-02 
671	 1,90879844203059E-02 
672	 1,88905696613243E-02 
673	 1,87167559754139E-02 
674	 1,86122234078951E-02 
675	 0,018528342497475 
676	 1,84580278557608E-02 
677	 1,84722783698571E-02 
678	 1,89937701607958E-02 
679	 1,95242464302096E-02 
680	 1,94470995198107E-02 
681	 1,89622574926142E-02 
682	 0,018462862137025 
683	 1,89793852152493E-02 
684	 1,96326126220635E-02 
685	 1,98917829171859E-02 
686	 1,99927418870691E-02 
687	 0,0202199711638 
688	 2,10767952563372E-02 
689	 2,13264943529241E-02 
690	 0,020991016969716 
691	 2,18187574667302E-02 
692	 2,32274460808873E-02 
693	 0,024638975085508 
694	 2,63408213999475E-02 
695	 2,83361905971329E-02 
696	 3,04443318768054E-02 
697	 0,033183381596989 
698	 3,67458545947107E-02 
699	 4,07528376312537E-02 
700	 4,51772741223721E-02 
701	 5,00273153686634E-02 
702	 5,50302178417078E-02 
703	 6,02074718425778E-02 
704	 6,58821585498614E-02 
705	 7,20821488069146E-02 
706	 7,86769292280438E-02 
707	 8,46104506586738E-02 
708	 9,03116962925306E-02 
709	 9,68751233940529E-02 
710	 0,103187131503614 
711	 0,108997351525577 
712	 0,114847613054176 
713	 0,120564445951838 
714	 0,125978352093371 
715	 0,131448152226747 
716	 0,136815128942255 
717	 0,141489204174812 
718	 0,145972037531061 
719	 0,150349404938747 
720	 0,153690449187758 
721	 0,15679629359271 
722	 0,160779729160098 
723	 0,164400157078343 
724	 0,167436268261299 
725	 0,170206860312293 
726	 0,172824699169471 
727	 0,175335739119132 
728	 0,177361333682296 
729	 0,179167447940636 
730	 0,18133644591696 
731	 0,183087652177295 
732	 0,18432013751262 
733	 0,185674251050582 
734	 0,187014735742562 
735	 0,188208037367423 
736	 0,189340539498236 
737	 0,190380563940314 
738	 0,191180238382187 
739	 0,192114225166426 
740	 0,193208473145779 
741	 0,193741388838269 
742	 0,194095742731708 
743	 0,194773331001359 
744	 0,195436114813954 
745	 0,195983905378212 
746	 0,196318529825115 
747	 0,196719764996337 
748	 0,197316220941226 
749	 0,197844605102912 
750	 0,198258976193384 
751	 0,198539105876276 
752	 0,198905664246401 
753	 0,199327353070157 
754	 0,199408149131671 
755	 0,199526289339853 
756	 0,199941517602895 
757	 0,200320532784606 
758	 0,200590610014622 
759	 0,200696120604943 
760	 0,200972505595053 
761	 0,201428873645619 
762	 0,201533113607701 
763	 0,201550357346434 
764	 0,201750005698957 
765	 0,201969386779942 
766	 0,202126668714108 
767	 0,202087709090025 
768	 0,202008940163698 
769	 0,202006606433198 
770	 0,20225902627305 
771	 0,202723730913315 
772	 0,203313739374345 
773	 0,203378500510557 
774	 0,203002058047966 
775	 0,202883863545435 
776	 0,2030322948407 
777	 0,203414864039511 
778	 0,203673676275983 
779	 0,203718662921617 
780	 0,203495140254759 
781	 0,203340295581985 
782	 0,203345272646042 
783	 0,203413984991712 
784	 0,203550730056805 
785	 0,203750943497768 
786	 0,204021185746183 
787	 0,204192528905748 
788	 0,203963672663354 
789	 0,203835517062266 
790	 0,203976754353166 
791	 0,204440084953782 
792	 0,20452414111126 
793	 0,203765939536539 
794	 0,203467191304801 
795	 0,203606184353874 
796	 0,203629869676017 
797	 0,203713428561027 
798	 0,203839193321719 
799	 0,203749399599279 
800	 0,20370108948059 
801	 0,203921076320211 
802	 0,203923976614558 
803	 0,203833560563251 
804	 0,204242182277637 
805	 0,204436309518755 
806	 0,204242015251196 
807	 0,204265112264081 
808	 0,204382702679694 
809	 0,204432561159661 
810	 0,204782284722879 
811	 0,20533041613914 
812	 0,205578670230802 
813	 0,205984580972573 
814	 0,206554879778782 
815	 0,206175009199041 
816	 0,205641965550142 
817	 0,205988223081134 
818	 0,206288380051098 
819	 0,206441124678371 
820	 0,206826048773897 
821	 0,207020929131807 
822	 0,206854452362827 
823	 0,206584594402609 
824	 0,206555091701925 
825	 0,207147470781945 
826	 0,207988164866186 
827	 0,208615782441417 
828	 0,207885978711382 
829	 0,207613520520438 
830	 0,208526074877706 
831	 0,208535037141796 
832	 0,208001843192489 
833	 0,207726366800937 
834	 0,208268240093751 
835	 0,209250694272932 
836	 0,208876371444562 
837	 0,208717146606331 
838	 0,209444850628289 
839	 0,209378251064698 
840	 0,208914215533945 
841	 0,208865766707204 
842	 0,208944338707713 
843	 0,209093708145327 
844	 0,209308889144356 
845	 0,209555838142424 
846	 0,20980182629084 
847	 0,210076083434232 
848	 0,21010278441807 
849	 0,209510454523689 
850	 0,20926557514819 
851	 0,209463564894205 
852	 0,209486601878911 
853	 0,209631423982056 
854	 0,209929855151762 
855	 0,209504636591393 
856	 0,209019402752341 
857	 0,209488713154213 
858	 0,209783462838675 
859	 0,209730288561476 
860	 0,209686205377439 
861	 0,209815082776808 
862	 0,21017563107557 
863	 0,210536392477848 
864	 0,210574586415756 
865	 0,209942694017593 
866	 0,209906102890488 
867	 0,210444067105876 
868	 0,210445627274827 
869	 0,210623497348321 
870	 0,211187330109202 
871	 0,211367412438086 
872	 0,211243260209278 
873	 0,21101697461592 
874	 0,211184490939965 
875	 0,211705157254126 
876	 0,212126890064401 
877	 0,212404427434094 
878	 0,21251288016315 
879	 0,212603089314878 
880	 0,212617774303384 
881	 0,212488596557597 
882	 0,212272918421834 
883	 0,212200577962735 
884	 0,212844559051057 
885	 0,213325465703298 
886	 0,213437109428609 
887	 0,214066219125074 
888	 0,214444627049906 
889	 0,213881208314881 
890	 0,213415813985592 
891	 0,21344163338575 
892	 0,214429442904662 
893	 0,214716749601253 
894	 0,214129255204486 
895	 0,214668281396813 
896	 0,215247117107085 
897	 0,215040970033334 
898	 0,215175832994858 
899	 0,215450211108378 
900	 0,21519678795721 
901	 0,215257843751278 
902	 0,215599551656192 
903	 0,215137950086149 
904	 0,214804075186753 
905	 0,215082821145165 
906	 0,214871080035802 
907	 0,21450146716559 
908	 0,214621554218721 
909	 0,214939050701798 
910	 0,215335413198371 
911	 0,215690499958999 
912	 0,216011599554968 
913	 0,216148028933598 
914	 0,215271248025693 
915	 0,214334394334219 
916	 0,21443331043551 
917	 0,214700188380341 
918	 0,214904969596464 
919	 0,214929711529113 
920	 0,215102250907877 
921	 0,215261343408427 
922	 0,214068919915153 
923	 0,213041144516093 
924	 0,213406946734373 
925	 0,21387609683501 
926	 0,213825028944269 
927	 0,21250683771724 
928	 0,212215205507967 
929	 0,212892193460089 
930	 0,21167112017198 
931	 0,210347609214283 
932	 0,210044838816402 
933	 0,210807659827078 
934	 0,21101370470161 
935	 0,208716329880425 
936	 0,207391491553596 
937	 0,207285831047003 
938	 0,206823141471005 
939	 0,205491026585415 
940	 0,203701709422244 
941	 0,204974992409318 
942	 0,205968561167257 
943	 0,203822624760098 
944	 0,202608970176843 
945	 0,202378655771654 
946	 0,202014661484318 
947	 0,200110110375316 
948	 0,197225448879851 
949	 0,19705553452683 
950	 0,197033494342709 
951	 0,1958085092369 
952	 0,195138352859596 
953	 0,19412315926191 
954	 0,191617676960627 
955	 0,190747002040206 
956	 0,190866994671816 
957	 0,188381907456956 
958	 0,187167985122905 
959	 0,187777854824696 
960	 0,186362888004093 
961	 0,184717087662731 
962	 0,184234459409749 
963	 0,183426028698964 
964	 0,183179073352357 
965	 0,185063425212149 
966	 0,185347457877664 
967	 0,183761535069301 
968	 0,182517300809388 
969	 0,181945333695992 
970	 0,182226373300337 
971	 0,183041593982323 
972	 0,183182889374771 
973	 0,181799338507934 
974	 0,181613059321581 
975	 0,182190866052069 
976	 0,181849150017018 
977	 0,182879752593179 
978	 0,184903298362543 
979	 0,184577918767074 
980	 0,183853368679663 
981	 0,183645747007878 
982	 0,183050615975074 
983	 0,183138650815593 
984	 0,184767828700429 
985	 0,184291507347196 
986	 0,182605827227052 
987	 0,182677592265859 
988	 0,184195187814903 
989	 0,186633848011506 
990	 0,188423586899162 
991	 0,189280109612413 
992	 0,189288434457453 
993	 0,190478966049598 
994	 0,189865154545325 
995	 0,18497030641608 
996	 0,185983901501467 
997	 0,191189118691362 
998	 0,193558179624331 
999	 0,193571606942308 
1000	 0,192075439989443 
1001	 0,192207194486435 
1002	 0,192755619438841 
1003	 0,193028415691426 
1004	 0,192289187112311 
1005	 0,19275174238383 
1006	 0,196051479674161 
1007	 0,195295557675068 
1008	 0,192902523897993 
1009	 0,195170315875571 
1010	 0,197701415047818 
1011	 0,199010306989059 
1012	 0,198052111173452 
1013	 0,19881093529628 
1014	 0,202156292373695 
1015	 0,202068821494508 
1016	 0,202959209537437 
1017	 0,207700318496328 
1018	 0,205046432413406 
1019	 0,200253376042827 
1020	 0,203386061923817 
1021	 0,205912771308964 
1022	 0,206295503516145 
1023	 0,205585475995966 
1024	 0,206717466630501 
1025	 0,209495281296841 
1026	 0,207694505223539 
1027	 0,207018370191663 
1028	 0,210569546173786 
1029	 0,210928740895523 
1030	 0,211773987858023 
1031	 0,217661998729927 
1032	 0,22014298457387 
1033	 0,219291276278819 
1034	 0,218854470713396 
1035	 0,21395982877734 
1036	 0,207051629512447 
1037	 0,210535475156849 
1038	 0,2146890065279 
1039	 0,215766364895941 
1040	 0,219014529417767 
1041	 0,222674822344914 
1042	 0,224619519120581 
1043	 0,221239673412978 
1044	 0,216731090540085 
1045	 0,217402348947097 
1046	 0,216784996864604 
1047	 0,216121245354492 
1048	 0,220890970543783 
1049	 0,232768983037097 
1050	 0,244729152677522 
1051	 0,231216757064473 
1052	 0,218168248712167 
1053	 0,219751961804748 
1054	 0,226980615767425 
1055	 0,232462518525658 
1056	 0,23012285778648 
1057	 0,222632906909831 
1058	 0,22010178021918 
1059	 0,234835558865494 
1060	 0,238656852756961 
1061	 0,233197332759456 
1062	 0,236382441593199 
1063	 0,238462417024538 
1064	 0,236204553513809 
1065	 0,22612478804339 
1066	 0,225136055922575 
1067	 0,237003161543371 
1068	 0,239172142871204 
1069	 0,232453972759054 
1070	 0,22014710028274 
1071	 0,215718029488842 
1072	 0,22367092363864 
1073	 0,243097875889619 
1074	 0,231502292697566 
1075	 0,211881537065219 
