Wavelength	GRA-BER00575.asd
325	-2,77565019351603E-02 
326	-5,66758068614155E-02 
327	-2,66278165802538E-04 
328	 0,132608852424459 
329	 6,11671350636469E-02 
330	-4,92624421226152E-02 
331	-2,01327279921946E-02 
332	-7,10296430110473E-02 
333	-0,148673687051387 
334	-8,97022883803599E-02 
335	-5,06336084653395E-02 
336	-0,06140658366574 
337	-0,100306841434885 
338	-7,84481725230952E-02 
339	 7,21838480921388E-02 
340	 0,076551861845465 
341	-3,08820727757668E-02 
342	-0,111346292103724 
343	-0,123762559364427 
344	-6,13251621413653E-02 
345	 4,88711968303805E-03 
346	 4,13621241445612E-02 
347	 2,47956263175033E-02 
348	 2,54702033899373E-02 
349	 4,39519143588846E-02 
350	 4,76442015427927E-02 
351	 8,47215302499358E-02 
352	 0,143525361219201 
353	 0,118704059552163 
354	 6,82898446207303E-02 
355	 5,74928444691475E-02 
356	 7,65863421905919E-03 
357	-5,39150103506329E-02 
358	 2,19068411464401E-02 
359	 6,41044154873346E-02 
360	 2,93302301172825E-02 
361	 0,046169484604362 
362	 7,85682655664198E-02 
363	 5,38049084896884E-02 
364	 3,45427566881735E-02 
365	 3,23034249605772E-02 
366	 4,06068905720618E-02 
367	 3,63132498768392E-02 
368	 0,012054447692346 
369	 3,70382345725773E-02 
370	 7,08447956882513E-02 
371	 3,95545818458805E-02 
372	 3,02535191481131E-02 
373	 5,51133580789602E-02 
374	 4,60529354260159E-02 
375	 2,97894767357037E-02 
376	 2,76091902641427E-02 
377	 2,35264129658697E-02 
378	 2,08797914137644E-02 
379	 3,09007878957575E-02 
380	 4,18471418942882E-02 
381	 5,04429674171917E-02 
382	 5,60079006655899E-02 
383	 0,056634989157698 
384	 5,17176564750698E-02 
385	 5,45158978280879E-02 
386	 5,84361670089882E-02 
387	 3,80646703842166E-02 
388	 3,17368737108133E-02 
389	 4,86565549630128E-02 
390	 4,44254013204894E-02 
391	 3,42730855428606E-02 
392	 3,97291629688715E-02 
393	 3,97194212271569E-02 
394	 3,43590707792158E-02 
395	 3,85639425247061E-02 
396	 4,17139534538636E-02 
397	 3,93260902340258E-02 
398	 3,97134906850803E-02 
399	 4,25464575314435E-02 
400	 4,62789749634474E-02 
401	 4,56568948520936E-02 
402	 4,14801911428346E-02 
403	 4,14198439948645E-02 
404	 4,32578439831632E-02 
405	 4,52776597695934E-02 
406	 4,78598787068991E-02 
407	 4,92374422583558E-02 
408	 4,55477400605301E-02 
409	 4,56932667256963E-02 
410	 5,12671612564451E-02 
411	 5,70528246586958E-02 
412	 5,82658344796801E-02 
413	 5,12237287158967E-02 
414	 4,62989333292342E-02 
415	 4,53213507043157E-02 
416	 4,62443667689697E-02 
417	 4,94293513596632E-02 
418	 5,37911289681864E-02 
419	 5,47581574390566E-02 
420	 5,19292963443995E-02 
421	 4,53486270527859E-02 
422	 4,30585922076304E-02 
423	 4,61780933728607E-02 
424	 5,21028447822059E-02 
425	 5,44237601997539E-02 
426	 5,07008589988758E-02 
427	 5,54297862347389E-02 
428	 6,24832209617169E-02 
429	 5,79005858028946E-02 
430	 5,00701643684523E-02 
431	 4,40149377969879E-02 
432	 4,96595860808172E-02 
433	 5,53148289003354E-02 
434	 5,11306016202985E-02 
435	 5,04756488747684E-02 
436	 5,31715494567809E-02 
437	 5,24624951302305E-02 
438	 5,12772956817449E-02 
439	 5,11943022684612E-02 
440	 0,055002873416065 
441	 5,85568557072227E-02 
442	 5,65286495913346E-02 
443	 5,61668395928793E-02 
444	 5,80400468771578E-02 
445	 5,75422611081855E-02 
446	 5,82986850570686E-02 
447	 0,061852747939783 
448	 6,12680295829598E-02 
449	 5,82453689829827E-02 
450	 5,74690469394318E-02 
451	 5,84633343448345E-02 
452	 6,06155081464314E-02 
453	 6,12535144892909E-02 
454	 6,13779848085741E-02 
455	 6,20114609650926E-02 
456	 6,22333667793693E-02 
457	 6,24206102176394E-02 
458	 0,06409228024242 
459	 6,51295168036137E-02 
460	 6,47377838734986E-02 
461	 6,45531726529971E-02 
462	 0,06340184525832 
463	 5,94665170356588E-02 
464	 5,98141856405493E-02 
465	 6,38439372361078E-02 
466	 6,26282278135357E-02 
467	 6,22975800660388E-02 
468	 6,62188075944348E-02 
469	 6,62976878477335E-02 
470	 6,33449230755663E-02 
471	 6,06280943640186E-02 
472	 6,21035870311275E-02 
473	 6,74295779553489E-02 
474	 6,79825659349167E-02 
475	 0,065827842121565 
476	 6,36482886764575E-02 
477	 6,45598666700402E-02 
478	 6,72981824813765E-02 
479	 6,61974858698436E-02 
480	 6,59609795136194E-02 
481	 6,80860580828448E-02 
482	 0,06669699057633 
483	 6,53290607101155E-02 
484	 7,01238454649815E-02 
485	 7,07694815423801E-02 
486	 6,66430649665252E-02 
487	 6,62357180856392E-02 
488	 0,068312763258541 
489	 7,13537815389913E-02 
490	 7,03947522618789E-02 
491	 6,78486819503851E-02 
492	 0,071654494403896 
493	 7,33319687306066E-02 
494	 7,09153423081127E-02 
495	 7,05426918736741E-02 
496	 7,14073528576066E-02 
497	 7,20477950849313E-02 
498	 7,21854450415342E-02 
499	 7,20971152917447E-02 
500	 0,073077027797531 
501	 7,36883874780392E-02 
502	 7,32600325809757E-02 
503	 7,32220682466516E-02 
504	 0,073979172540244 
505	 0,076080779342576 
506	 7,61892850542145E-02 
507	 7,42778613761334E-02 
508	 7,49673365636338E-02 
509	 7,61715606652277E-02 
510	 0,075948369967856 
511	 7,70999731399026E-02 
512	 7,87326637654313E-02 
513	 7,70547058501399E-02 
514	 7,62086996962649E-02 
515	 7,76275869625268E-02 
516	 7,79016426086283E-02 
517	 7,75155843945585E-02 
518	 7,76096124226755E-02 
519	 7,76302783207102E-02 
520	 0,077745231819598 
521	 0,079006253405636 
522	 8,00716949798436E-02 
523	 8,00698290365255E-02 
524	 8,08217612725812E-02 
525	 8,20007302001379E-02 
526	 0,082244411296024 
527	 0,082386522521567 
528	 8,26583650725656E-02 
529	 8,27126441892092E-02 
530	 8,28372852730803E-02 
531	 8,33693648394027E-02 
532	 8,35179031735677E-02 
533	 8,34479565475512E-02 
534	 8,43200824970997E-02 
535	 8,49228788006646E-02 
536	 8,47017197437257E-02 
537	 8,54028058181365E-02 
538	 8,65510394952459E-02 
539	 8,68764178002828E-02 
540	 8,70817123222372E-02 
541	 8,73134226621549E-02 
542	 8,72696738784988E-02 
543	 8,72222636593705E-02 
544	 8,74529024686275E-02 
545	 8,80044350042481E-02 
546	 8,89030790572089E-02 
547	 9,04838186136038E-02 
548	 9,07524373935273E-02 
549	 8,91849663268782E-02 
550	 0,089618677124728 
551	 9,10418131085773E-02 
552	 0,091176421941189 
553	 9,17458187126753E-02 
554	 9,27613339566314E-02 
555	 9,24580727017731E-02 
556	 9,20070738711107E-02 
557	 9,23683265596096E-02 
558	 0,092450701824069 
559	 9,22008350792016E-02 
560	 9,17705449121536E-02 
561	 9,22839793018723E-02 
562	 9,39357164658595E-02 
563	 9,49057043582142E-02 
564	 9,49651231415853E-02 
565	 9,40608891790373E-02 
566	 9,46143724571351E-02 
567	 0,096282699044314 
568	 9,53391873901737E-02 
569	 9,44836773195938E-02 
570	 0,095519407927971 
571	 9,64800962869116E-02 
572	 9,67926178924594E-02 
573	 9,57642608876361E-02 
574	 9,56475133246688E-02 
575	 9,68701381447081E-02 
576	 9,68297139841433E-02 
577	 9,64556328727476E-02 
578	 9,69824019780941E-02 
579	 9,77278605151679E-02 
580	 9,82650055776563E-02 
581	 9,76211378233075E-02 
582	 9,76057784548468E-02 
583	 9,90383997785945E-02 
584	 9,95544994838987E-02 
585	 9,92446782679644E-02 
586	 9,87526920419844E-02 
587	 9,92387858906892E-02 
588	 0,100576516858499 
589	 0,100398597716722 
590	 9,97184738247489E-02 
591	 9,95910003761238E-02 
592	 9,98402162759263E-02 
593	 0,100231061034488 
594	 0,100102262890458 
595	 0,10033773563381 
596	 0,101189442706851 
597	 0,101424754377677 
598	 0,101340758517601 
599	 0,101575606872732 
600	 0,101805073349168 
601	 0,10196673090423 
602	 0,102179923306701 
603	 0,10217432154667 
604	 0,101788383196655 
605	 0,101755464200931 
606	 0,101940514910417 
607	 0,101686464464567 
608	 0,101405716221086 
609	 0,101258947630793 
610	 0,101139345511317 
611	 0,101411375233064 
612	 0,102510596184321 
613	 0,102509093192997 
614	 0,101741845714077 
615	 0,103149933133559 
616	 0,10408682076143 
617	 0,103044127321024 
618	 0,102640049084123 
619	 0,103067041921657 
620	 0,103959889886069 
621	 0,104675669701847 
622	 0,104826661626623 
623	 0,103974726877869 
624	 0,103136267133723 
625	 0,103364731800829 
626	 0,104236308899615 
627	 0,105220771328281 
628	 0,105087518271624 
629	 0,105063982764836 
630	 0,105661102216693 
631	 0,105707253001346 
632	 0,105303589769708 
633	 0,10476697867089 
634	 0,105249894158267 
635	 0,106529464588674 
636	 0,106195237577746 
637	 0,10545809161947 
638	 0,105429260511274 
639	 0,105836905361567 
640	 0,106438587034652 
641	 0,106836941529303 
642	 0,106631476516578 
643	 0,105863727208119 
644	 0,105868087883802 
645	 0,106423960355019 
646	 0,107071961794686 
647	 0,10734623643249 
648	 0,107185450905819 
649	 0,106878408340081 
650	 0,106842106739052 
651	 0,107285085688179 
652	 0,107357467371318 
653	 0,107056232234299 
654	 0,106621419286341 
655	 0,106346846501336 
656	 0,106391604343189 
657	 0,106869939385498 
658	 0,107252497513164 
659	 0,10700472950845 
660	 0,106519534117583 
661	 0,106071025988624 
662	 0,106175886761845 
663	 0,106155087279656 
664	 0,105769144296348 
665	 0,10602196279553 
666	 0,106325349409926 
667	 0,105561003717043 
668	 0,105481274311118 
669	 0,106271302104124 
670	 0,106619022492784 
671	 0,106629599207153 
672	 0,106428881547581 
673	 0,106129917039511 
674	 0,106026021384288 
675	 0,106736063208824 
676	 0,107452342730308 
677	 0,107853369226967 
678	 0,108115353974935 
679	 0,108260721079904 
680	 0,108309309901913 
681	 0,108745771130251 
682	 0,109448826322058 
683	 0,109575300281544 
684	 0,109975283696433 
685	 0,111038500193368 
686	 0,111600479014754 
687	 0,111841146914324 
688	 0,112364420948709 
689	 0,112911181432056 
690	 0,11331629676029 
691	 0,113155882540793 
692	 0,11306017102962 
693	 0,113587195173695 
694	 0,114189357667718 
695	 0,114720533766954 
696	 0,115102136634563 
697	 0,115501904029704 
698	 0,115947752804911 
699	 0,116228782488663 
700	 0,116180938512088 
701	 0,115621849373317 
702	 0,116010228308354 
703	 0,117232220424944 
704	 0,117649127172096 
705	 0,117677856928856 
706	 0,117650370259238 
707	 0,118045801398156 
708	 0,118701408925661 
709	 0,119177603236477 
710	 0,119580434158836 
711	 0,119900642067076 
712	 0,119994798479303 
713	 0,120227745624424 
714	 0,120883421265094 
715	 0,120919856314491 
716	 0,120553322819152 
717	 0,120870257875641 
718	 0,121223754785126 
719	 0,12140316870026 
720	 0,121777107117907 
721	 0,122248457887502 
722	 0,122658560812913 
723	 0,122670302659044 
724	 0,122448952821364 
725	 0,122788523383827 
726	 0,123338386548271 
727	 0,123841215435451 
728	 0,124105648616212 
729	 0,124210345190721 
730	 0,124339536923635 
731	 0,12462552954758 
732	 0,125084520785782 
733	 0,125573190128581 
734	 0,125937014805066 
735	 0,126052329441141 
736	 0,126015407505613 
737	 0,125996164839011 
738	 0,126374571896142 
739	 0,126615366909541 
740	 0,126569738719073 
741	 0,126646447505943 
742	 0,126849880211304 
743	 0,127143888154775 
744	 0,127572275377423 
745	 0,127994541861687 
746	 0,127982476408921 
747	 0,127975148037221 
748	 0,128205515880736 
749	 0,128468496573197 
750	 0,128762282226904 
751	 0,129119517381357 
752	 0,129494975237221 
753	 0,129814075786223 
754	 0,129894615708277 
755	 0,129848104309648 
756	 0,129803353379815 
757	 0,130078851844372 
758	 0,130624905346204 
759	 0,131272859412671 
760	 0,131649191450166 
761	 0,131677747263907 
762	 0,131745224546805 
763	 0,131833539928196 
764	 0,131906724246773 
765	 0,131953049896028 
766	 0,131991670811694 
767	 0,131993264154216 
768	 0,132455130405363 
769	 0,133380994297861 
770	 0,133584014398549 
771	 0,133490180717181 
772	 0,133715377228429 
773	 0,13368695010016 
774	 0,133535367840405 
775	 0,134042827772563 
776	 0,134382635021533 
777	 0,134235499938378 
778	 0,13462900846629 
779	 0,135148823072184 
780	 0,135024692043433 
781	 0,135232156588416 
782	 0,135782441474334 
783	 0,135694318592486 
784	 0,135894313193745 
785	 0,1368058538058 
786	 0,136490438020612 
787	 0,135769012300503 
788	 0,136599096445948 
789	 0,137062809521443 
790	 0,136845670272728 
791	 0,137146629001944 
792	 0,137585637012577 
793	 0,137830496962727 
794	 0,13794474612314 
795	 0,138019362566561 
796	 0,138208792899864 
797	 0,138643714798216 
798	 0,139175245273128 
799	 0,138867035340884 
800	 0,138579160258981 
801	 0,139105303106222 
802	 0,139291064924905 
803	 0,139229368287393 
804	 0,139812259854272 
805	 0,139875382096759 
806	 0,139242582899856 
807	 0,139386008665427 
808	 0,139923123555236 
809	 0,14031843341184 
810	 0,140430818083244 
811	 0,140383526935508 
812	 0,140668343749759 
813	 0,140869077689094 
814	 0,140824792943595 
815	 0,140638900399251 
816	 0,140669506727433 
817	 0,141295882160754 
818	 0,141526516923156 
819	 0,141380457484494 
820	 0,141652074778617 
821	 0,141927938645955 
822	 0,142009092146854 
823	 0,141872038930492 
824	 0,141878967093961 
825	 0,142475203592717 
826	 0,142429768938695 
827	 0,141889514207098 
828	 0,142304348893508 
829	 0,142779182944791 
830	 0,142852191517715 
831	 0,142700249526793 
832	 0,142692627687371 
833	 0,143292555798897 
834	 0,143537424968456 
835	 0,143371399365105 
836	 0,143453499626247 
837	 0,143605238239823 
838	 0,143703071043197 
839	 0,143491605216377 
840	 0,143387592021773 
841	 0,143997956678176 
842	 0,144303505370602 
843	 0,144241844707329 
844	 0,144586878416306 
845	 0,14468297421641 
846	 0,144288189589425 
847	 0,144348025662933 
848	 0,144661102554744 
849	 0,144790274902308 
850	 0,144923699140375 
851	 0,145031489770609 
852	 0,144884973310128 
853	 0,144820267764119 
854	 0,144996061990985 
855	 0,145164890493936 
856	 0,145106669996687 
857	 0,144575983711032 
858	 0,144885597954988 
859	 0,145795034715141 
860	 0,145512938575283 
861	 0,144791316598851 
862	 0,144181502495817 
863	 0,1445609440882 
864	 0,145180347328296 
865	 0,144961082708996 
866	 0,14518356609664 
867	 0,145750837785058 
868	 0,145469278665506 
869	 0,145080609280706 
870	 0,145057752294171 
871	 0,145961936820788 
872	 0,146879269522299 
873	 0,146679360274268 
874	 0,145955857076027 
875	 0,14524131705153 
876	 0,145531595715689 
877	 0,146295117002992 
878	 0,147083704066528 
879	 0,146899458838453 
880	 0,146294763374759 
881	 0,145984595778674 
882	 0,146225853820624 
883	 0,146755805985087 
884	 0,146695986283863 
885	 0,146680466679474 
886	 0,146966814650667 
887	 0,147790096699953 
888	 0,148032646844854 
889	 0,14682217301566 
890	 0,14682865094949 
891	 0,14765767335709 
892	 0,147329421365549 
893	 0,147093851626364 
894	 0,147260768526294 
895	 0,147438827250915 
896	 0,147501301780361 
897	 0,147395621913291 
898	 0,147553254498353 
899	 0,147841417905475 
900	 0,147911096689477 
901	 0,147783597640689 
902	 0,147608058429952 
903	 0,147869882132517 
904	 0,148412187507461 
905	 0,148977003202725 
906	 0,148574156792324 
907	 0,147751279858836 
908	 0,147456632167423 
909	 0,147929314121874 
910	 0,148721694889168 
911	 0,148137169676118 
912	 0,147938225498696 
913	 0,148750994079072 
914	 0,148960150135536 
915	 0,148804394281073 
916	 0,148717156807675 
917	 0,148919742205745 
918	 0,149181796122322 
919	 0,148710985432195 
920	 0,148581487904822 
921	 0,149202199020521 
922	 0,150773050856473 
923	 0,151087568410006 
924	 0,148731833675509 
925	 0,148631260722855 
926	 0,149859492799551 
927	 0,149225678275196 
928	 0,149535168054456 
929	 0,150706890530782 
930	 0,149558634572409 
931	 0,148721702109856 
932	 0,149580061725978 
933	 0,150202774190537 
934	 0,15010610643808 
935	 0,149032397914273 
936	 0,149402809648266 
937	 0,150915978045598 
938	 0,151219907148688 
939	 0,150624272799578 
940	 0,149691698626789 
941	 0,151002321193263 
942	 0,151934077467302 
943	 0,150273607245362 
944	 0,14922245275355 
945	 0,149409132652339 
946	 0,150994439993236 
947	 0,151220071864384 
948	 0,150007626568964 
949	 0,150385567127639 
950	 0,151055981888144 
951	 0,151323857413522 
952	 0,151943725338138 
953	 0,152063149973521 
954	 0,150709817469385 
955	 0,150404587594324 
956	 0,151257848994483 
957	 0,152155297608117 
958	 0,152503130049693 
959	 0,152038495074918 
960	 0,150821540927435 
961	 0,150540955894467 
962	 0,152161425285257 
963	 0,15254503357042 
964	 0,152182190958927 
965	 0,152528695744486 
966	 0,151987447085151 
967	 0,150947296929126 
968	 0,151862137100804 
969	 0,152116514817369 
970	 0,150763258027846 
971	 0,148883421930494 
972	 0,148934114613895 
973	 0,152610817884676 
974	 0,154410720902632 
975	 0,154518568007012 
976	 0,155095805070383 
977	 0,154757210171457 
978	 0,153602148534443 
979	 0,152911707140956 
980	 0,152778312244218 
981	 0,153148666243321 
982	 0,153472796701307 
983	 0,152643681495522 
984	 0,150049216957908 
985	 0,151334732496567 
986	 0,154610998008311 
987	 0,154180722043786 
988	 0,154281582349446 
989	 0,155163726179859 
990	 0,153323978501447 
991	 0,152052907318227 
992	 0,153009785819915 
993	 0,154721950954294 
994	 0,156001139559254 
995	 0,155771188710646 
996	 0,153952495469702 
997	 0,152114601258338 
998	 0,15319900175902 
999	 0,153657503292008 
1000	 0,153611651720123 
1001	 0,157969129295669 
1002	 0,158231837254986 
1003	 0,152065790559733 
1004	 0,152304874687898 
1005	 0,155320147991856 
1006	 0,156563126564724 
1007	 0,157393683127624 
1008	 0,15786041468777 
1009	 0,157907389607915 
1010	 0,156659102654399 
1011	 0,155112789712424 
1012	 0,157279781175313 
1013	 0,158745890952434 
1014	 0,157887502488213 
1015	 0,157035102966702 
1016	 0,156777652941145 
1017	 0,15744287031046 
1018	 0,158259997277716 
1019	 0,158903016120352 
1020	 0,159069110518964 
1021	 0,157376055312444 
1022	 0,154655503174525 
1023	 0,153696298685944 
1024	 0,155075367201231 
1025	 0,157770192483455 
1026	 0,155994623547784 
1027	 0,155098510893788 
1028	 0,157848852587195 
1029	 0,156995980291519 
1030	 0,154665752916295 
1031	 0,154279126601428 
1032	 0,155558624619273 
1033	 0,156369742526798 
1034	 0,152397130610742 
1035	 0,151413391498742 
1036	 0,153818500845227 
1037	 0,152723149590682 
1038	 0,15164599984565 
1039	 0,152148117654462 
1040	 0,153558379300477 
1041	 0,155603211279678 
1042	 0,157306557608515 
1043	 0,152587934753941 
1044	 0,148848913596135 
1045	 0,156836309959207 
1046	 0,157957286786465 
1047	 0,154603917043943 
1048	 0,162512560182417 
1049	 0,161957404442472 
1050	 0,150987209602613 
1051	 0,145394200206509 
1052	 0,147748038851992 
1053	 0,156229938121957 
1054	 0,152192357975161 
1055	 0,147745116896059 
1056	 0,153651927341626 
1057	 0,159935507933938 
1058	 0,159668446898306 
1059	 0,146349272025181 
1060	 0,144456165487127 
1061	 0,154189853201944 
1062	 0,162934819904071 
1063	 0,160318824610314 
1064	 0,148046265715014 
1065	 0,14338316159746 
1066	 0,153229991866037 
1067	 0,171750901954747 
1068	 0,155100006925266 
1069	 0,136577907033923 
1070	 0,143487487965652 
1071	 0,160707877407753 
1072	 0,170482493595218 
1073	 0,155464405095032 
1074	 0,144960198407936 
1075	 0,141326869815991 
