Wavelength	GRA-VAN00313.asd
325	 0,369993809732309 
326	 0,279979691500747 
327	 0,164611283042695 
328	 0,15923340712211 
329	-2,07893541405018E-02 
330	-0,147587153673351 
331	 0,098565181780829 
332	 0,17832046741814 
333	 0,170752588777745 
334	 0,101732101616628 
335	 0,123297156096345 
336	 0,223831638067033 
337	 0,139056060614465 
338	 4,52210874313714E-02 
339	 9,13849186791523E-02 
340	 0,146683447719809 
341	 0,160538040762219 
342	 0,124931364512381 
343	 0,109914012451765 
344	 0,130786988407116 
345	 0,115234078060198 
346	 9,81851703578221E-02 
347	 0,118189176223957 
348	 0,066170487893326 
349	-2,69389856939736E-02 
350	-1,76659830091501E-03 
351	 4,12804582216591E-02 
352	 5,31994741046465E-02 
353	 4,04094078661529E-02 
354	 2,02829937011383E-02 
355	 1,33204068359846E-02 
356	 4,60602584466454E-02 
357	 8,89387502111516E-02 
358	 5,22263814448682E-02 
359	 3,42051439415989E-02 
360	 7,53106176763823E-02 
361	 8,68734469205714E-02 
362	 7,19879268880641E-02 
363	 4,24986762155093E-02 
364	 3,82300509100663E-02 
365	 5,93809504946739E-02 
366	 6,08527192933303E-02 
367	 6,77502687897995E-02 
368	 8,87189862547763E-02 
369	 6,52641987035261E-02 
370	 2,35484967817604E-02 
371	 1,94556480337377E-02 
372	 0,028238865413322 
373	 3,79486264100098E-02 
374	 3,68661305084713E-02 
375	 3,31874008904611E-02 
376	 3,39377157067876E-02 
377	 4,03981782505646E-02 
378	 4,62051956682544E-02 
379	 3,42397858877563E-02 
380	 0,033932287679783 
381	 5,04510568764156E-02 
382	 6,22683017956524E-02 
383	 6,90512954125932E-02 
384	 7,21487859113688E-02 
385	 6,40894714038924E-02 
386	 4,94406293039181E-02 
387	 0,037551360837269 
388	 3,52777349603266E-02 
389	 4,32801638738708E-02 
390	 4,19107636153172E-02 
391	 3,74178307731292E-02 
392	 3,87141826618268E-02 
393	 3,82150603146524E-02 
394	 3,41989384739695E-02 
395	 2,42529908442844E-02 
396	 2,35642116458389E-02 
397	 3,82161317735752E-02 
398	 5,51822585979686E-02 
399	 6,16898385234191E-02 
400	 4,16701565907737E-02 
401	 3,48146826423125E-02 
402	 4,24951577786127E-02 
403	 2,68219393928218E-02 
404	 1,11756315051617E-02 
405	 1,29787946017493E-02 
406	 0,024567405354718 
407	 0,035414351337825 
408	 2,89900075230619E-02 
409	 2,87595612397957E-02 
410	 0,037762277494699 
411	 3,53925472551423E-02 
412	 3,03330434277573E-02 
413	 3,12672460375967E-02 
414	 0,030078110783871 
415	 2,67909619745809E-02 
416	 2,49205876130965E-02 
417	 2,28132600473442E-02 
418	 2,07054727889118E-02 
419	 0,022863363010034 
420	 0,027949386130016 
421	 3,41225667682079E-02 
422	 3,74134386822321E-02 
423	 3,61487972124906E-02 
424	 2,77667128260774E-02 
425	 2,39221901293106E-02 
426	 3,02112930760636E-02 
427	 2,99765830553928E-02 
428	 2,60213909833436E-02 
429	 2,76304735469499E-02 
430	 2,72668355418349E-02 
431	 2,39161781575335E-02 
432	 2,20627904744296E-02 
433	 2,41623959522279E-02 
434	 3,11852371292276E-02 
435	 2,79846641801334E-02 
436	 1,87131254558622E-02 
437	 0,021033004293673 
438	 0,025365401960057 
439	 2,74509185172934E-02 
440	 2,51839765909514E-02 
441	 2,33647581008246E-02 
442	 2,82186673547668E-02 
443	 3,00053572977131E-02 
444	 2,77252220584761E-02 
445	 2,62348665649153E-02 
446	 2,51385409906817E-02 
447	 2,44917787810612E-02 
448	 2,64465087235439E-02 
449	 2,84684682839495E-02 
450	 2,51640175343031E-02 
451	 2,43298144314242E-02 
452	 2,72376505078889E-02 
453	 2,80346957803346E-02 
454	 2,75376042097995E-02 
455	 2,69052898988916E-02 
456	 2,93365288505612E-02 
457	 3,25145332132141E-02 
458	 2,84979934410225E-02 
459	 2,56361170149992E-02 
460	 0,02724259299424 
461	 2,93514936771643E-02 
462	 2,97815920618942E-02 
463	 2,62163349719268E-02 
464	 2,38457074278244E-02 
465	 2,39477508598775E-02 
466	 2,52368620419238E-02 
467	 2,76667799881414E-02 
468	 0,030788931549347 
469	 3,15738416933609E-02 
470	 0,030415786645742 
471	 0,028825935180044 
472	 2,85461585352805E-02 
473	 2,94925538604218E-02 
474	 2,73158487920005E-02 
475	 2,63268003417924E-02 
476	 3,07119605748493E-02 
477	 0,033274631890628 
478	 3,30914005459517E-02 
479	 3,21632186147445E-02 
480	 3,03106669828477E-02 
481	 2,81733627372524E-02 
482	 2,97000728810497E-02 
483	 3,17576726574489E-02 
484	 2,91911437065427E-02 
485	 2,79148964070989E-02 
486	 2,88205128295391E-02 
487	 2,87440239472566E-02 
488	 2,89863053760904E-02 
489	 3,03675742139886E-02 
490	 3,03444733622147E-02 
491	 2,95519052431908E-02 
492	 3,04685037009842E-02 
493	 3,08302773782015E-02 
494	 3,01895405201156E-02 
495	 3,06877283245993E-02 
496	 3,09333973124234E-02 
497	 2,92497258693809E-02 
498	 2,83824148764915E-02 
499	 2,86985208259956E-02 
500	 2,94951894810363E-02 
501	 2,90415318347187E-02 
502	 2,68647601490384E-02 
503	 2,76895943444289E-02 
504	 3,00106582419566E-02 
505	 3,01450095358734E-02 
506	 3,06140699283408E-02 
507	 3,16812605810451E-02 
508	 3,14058475793681E-02 
509	 3,09383134337102E-02 
510	 3,13542744858943E-02 
511	 3,19093423081406E-02 
512	 3,20117224079754E-02 
513	 3,01912488597979E-02 
514	 2,99371011693397E-02 
515	 3,21712650793737E-02 
516	 3,20575954213561E-02 
517	 3,11729095304679E-02 
518	 0,032360128158684 
519	 3,34868659591521E-02 
520	 0,033889692023102 
521	 3,33824271083264E-02 
522	 3,22607056539286E-02 
523	 3,09710385090131E-02 
524	 3,15298172655635E-02 
525	 3,32037703191449E-02 
526	 3,38916808997749E-02 
527	 3,32481201053404E-02 
528	 3,16449573965927E-02 
529	 3,19266700304267E-02 
530	 3,34769424177652E-02 
531	 3,52921919094794E-02 
532	 0,035062607222158 
533	 3,30155967879515E-02 
534	 3,14128915435179E-02 
535	 3,12877350013862E-02 
536	 3,30240383422774E-02 
537	 3,40406234415616E-02 
538	 3,42961355008498E-02 
539	 3,44143003369963E-02 
540	 3,49557407121729E-02 
541	 3,56811865552043E-02 
542	 3,44295019725709E-02 
543	 3,32549919865049E-02 
544	 3,41618079755123E-02 
545	 3,45307636539823E-02 
546	 3,41766766464867E-02 
547	 3,41158745690453E-02 
548	 3,41804204187819E-02 
549	 3,43663619577045E-02 
550	 0,035046173201377 
551	 3,57783894437714E-02 
552	 3,58711548291906E-02 
553	 0,035407937262739 
554	 3,46702795884033E-02 
555	 3,46025574796634E-02 
556	 3,47258665284843E-02 
557	 3,46618571786227E-02 
558	 3,51884343155391E-02 
559	 3,59406150477414E-02 
560	 3,57514277619427E-02 
561	 3,52698576165697E-02 
562	 3,48789294514369E-02 
563	 0,035215098318204 
564	 3,57008091410272E-02 
565	 0,035511439008001 
566	 3,52855562400152E-02 
567	 3,51360719512901E-02 
568	 3,47789506717552E-02 
569	 3,48023316700369E-02 
570	 3,55103327438933E-02 
571	 3,55568160850025E-02 
572	 3,52637639692319E-02 
573	 3,57448313206005E-02 
574	 3,67261984730973E-02 
575	 3,78979175868374E-02 
576	 3,81585478443013E-02 
577	 3,81476400035928E-02 
578	 3,86652602452602E-02 
579	 0,039023451776804 
580	 3,91951245313262E-02 
581	 3,95467330495163E-02 
582	 3,99516534410637E-02 
583	 4,03500532740473E-02 
584	 4,08537056343951E-02 
585	 4,13468640551987E-02 
586	 4,16390382013728E-02 
587	 4,16006139726642E-02 
588	 4,14017023815745E-02 
589	 4,19354720659924E-02 
590	 4,25411402973133E-02 
591	 4,26187701623366E-02 
592	 4,34797347099605E-02 
593	 4,45419610182639E-02 
594	 4,35101525050883E-02 
595	 4,25197175237217E-02 
596	 4,25604069384353E-02 
597	 4,29220418931935E-02 
598	 4,32265705561749E-02 
599	 0,043034526238698 
600	 4,27331471156818E-02 
601	 4,25351466919327E-02 
602	 4,27474398191956E-02 
603	 4,31537850898487E-02 
604	 4,34814720580479E-02 
605	 4,26876254536901E-02 
606	 4,14477371758401E-02 
607	 4,19014521041388E-02 
608	 4,20561502015323E-02 
609	 0,041320582370978 
610	 4,08544889158117E-02 
611	 4,06866312092215E-02 
612	 4,07258655902788E-02 
613	 4,09198301701635E-02 
614	 4,10361453818348E-02 
615	 4,03284976685224E-02 
616	 4,00885322120119E-02 
617	 4,09642501994015E-02 
618	 4,08016236202824E-02 
619	 4,00248212322326E-02 
620	 4,01011263526085E-02 
621	 4,00885050101528E-02 
622	 3,98204423171564E-02 
623	 3,99303531730681E-02 
624	 4,00997084081959E-02 
625	 3,99815512336122E-02 
626	 3,99789523020253E-02 
627	 4,02086781248064E-02 
628	 4,09237730834024E-02 
629	 4,07921056901803E-02 
630	 3,94600465579084E-02 
631	 3,98163164097514E-02 
632	 4,09746231575332E-02 
633	 4,09224040567245E-02 
634	 4,12031601565315E-02 
635	 4,20159799926551E-02 
636	 4,24380814848889E-02 
637	 4,25492334192594E-02 
638	 4,24890649446691E-02 
639	 4,29377584960339E-02 
640	 4,35526857174737E-02 
641	 4,29899871939043E-02 
642	 4,31012988140659E-02 
643	 4,43951637836596E-02 
644	 4,50165553937649E-02 
645	 4,52683415028817E-02 
646	 4,57824680671961E-02 
647	 4,53490336945179E-02 
648	 4,41397370163266E-02 
649	 4,36520358240964E-02 
650	 0,043737357122596 
651	 4,41843906142638E-02 
652	 4,40003564805782E-02 
653	 4,34442667288149E-02 
654	 4,34351549542354E-02 
655	 4,30861097484927E-02 
656	 4,21646277033727E-02 
657	 4,09877898772096E-02 
658	 4,00132712169451E-02 
659	 3,96661493261861E-02 
660	 3,92146260410306E-02 
661	 3,85900020678693E-02 
662	 3,81189858722915E-02 
663	 3,75730164920122E-02 
664	 3,69032652522629E-02 
665	 3,66159117383775E-02 
666	 3,64049864465525E-02 
667	 3,56848331441957E-02 
668	 3,54423933874023E-02 
669	 3,57252937896025E-02 
670	 3,54690058150539E-02 
671	 3,55529236642952E-02 
672	 3,65385248392366E-02 
673	 3,61494057923313E-02 
674	 3,49316550354262E-02 
675	 3,51235088930078E-02 
676	 3,54545253360649E-02 
677	 3,55277214730255E-02 
678	 3,56186687855926E-02 
679	 3,59968755645085E-02 
680	 0,036940076427598 
681	 3,67580169648727E-02 
682	 3,58068424637469E-02 
683	 3,64457446991708E-02 
684	 3,77681772874964E-02 
685	 3,90323064839223E-02 
686	 3,88069575095939E-02 
687	 3,81521313896564E-02 
688	 0,039291713167324 
689	 4,03586516477675E-02 
690	 4,10594441942309E-02 
691	 4,25078863555536E-02 
692	 4,46143962355324E-02 
693	 4,72191064406919E-02 
694	 4,96993868402948E-02 
695	 0,052057441584829 
696	 5,45342596943852E-02 
697	 0,057860446447009 
698	 6,21164476642539E-02 
699	 6,56045312333346E-02 
700	 0,06915256238619 
701	 7,40097778315927E-02 
702	 7,88181699030324E-02 
703	 8,32697639185526E-02 
704	 8,74976242156561E-02 
705	 9,22730082091614E-02 
706	 9,78777837292971E-02 
707	 0,102371114460932 
708	 0,106116368137109 
709	 0,110280408953466 
710	 0,114605363140589 
711	 0,118844309241102 
712	 0,122114745702949 
713	 0,125193589426247 
714	 0,128782355264538 
715	 0,131767342825625 
716	 0,134317568031421 
717	 0,137524972981482 
718	 0,140024760178166 
719	 0,141476450576484 
720	 0,143458091413528 
721	 0,145688036505244 
722	 0,14761760972239 
723	 0,149005089942455 
724	 0,150075259964347 
725	 0,151833773573205 
726	 0,15335932593728 
727	 0,154181400352206 
728	 0,155444927948462 
729	 0,156858299863773 
730	 0,157646707974071 
731	 0,158086512820951 
732	 0,158424225498261 
733	 0,1593032229506 
734	 0,160301231196854 
735	 0,161016125954817 
736	 0,16142103816808 
737	 0,161753985705514 
738	 0,162694233666038 
739	 0,16323655151664 
740	 0,163178171573863 
741	 0,163711512483205 
742	 0,164433969199563 
743	 0,164771985194994 
744	 0,16504902776129 
745	 0,165282992259255 
746	 0,165246620975216 
747	 0,165543554363792 
748	 0,166373121787947 
749	 0,166647690150316 
750	 0,166603929016542 
751	 0,166808715088233 
752	 0,167042375400772 
753	 0,167280320995724 
754	 0,167588753366522 
755	 0,167977800088251 
756	 0,168412463180585 
757	 0,168509259774206 
758	 0,168417932901058 
759	 0,168542985619459 
760	 0,168831008150374 
761	 0,169201270597763 
762	 0,169317839651913 
763	 0,169393163661999 
764	 0,169632014502572 
765	 0,169758759030353 
766	 0,169806951305177 
767	 0,17001829598157 
768	 0,170093260728274 
769	 0,170005835835511 
770	 0,170276787173933 
771	 0,170797043417005 
772	 0,171369737939821 
773	 0,171393814798847 
774	 0,171059189777964 
775	 0,171415832045363 
776	 0,171720657623226 
777	 0,1716423324119 
778	 0,171730359674696 
779	 0,171848873004177 
780	 0,171709658789023 
781	 0,171795668056878 
782	 0,17211046168622 
783	 0,172194829373325 
784	 0,172183756821212 
785	 0,172204962764343 
786	 0,17253398674388 
787	 0,17298425382412 
788	 0,173168499632798 
789	 0,173125088252311 
790	 0,173030764097815 
791	 0,173639345331698 
792	 0,173960539548507 
793	 0,173325013573295 
794	 0,173607761813462 
795	 0,174423221079554 
796	 0,174277233627019 
797	 0,174008523545239 
798	 0,173971595761573 
799	 0,174544453037031 
800	 0,174975518788083 
801	 0,174591123021319 
802	 0,17433350145811 
803	 0,174380496897866 
804	 0,174756714835737 
805	 0,174815759715671 
806	 0,174452444559033 
807	 0,174629671406908 
808	 0,174903051400442 
809	 0,174761099448506 
810	 0,175089794751688 
811	 0,175800004892996 
812	 0,176153048753028 
813	 0,176468674314006 
814	 0,1767689475727 
815	 0,176481372218751 
816	 0,176077090912536 
817	 0,176157597422716 
818	 0,176276178145686 
819	 0,176358997988259 
820	 0,176506096737148 
821	 0,176542057353368 
822	 0,176468190787814 
823	 0,176871185101264 
824	 0,177336029617162 
825	 0,177273054798178 
826	 0,177614198377941 
827	 0,178164536283122 
828	 0,177543500008353 
829	 0,17720849794302 
830	 0,177764862836776 
831	 0,177764032145354 
832	 0,177375380725127 
833	 0,17704474544572 
834	 0,177306588727787 
835	 0,178004811363264 
836	 0,178165347173136 
837	 0,178148923706216 
838	 0,178105684327136 
839	 0,177700687901127 
840	 0,177287870454953 
841	 0,177387724216551 
842	 0,17774568760254 
843	 0,178176068272125 
844	 0,178384805711317 
845	 0,17823930289316 
846	 0,177788043605996 
847	 0,177903138205307 
848	 0,178244444533732 
849	 0,178193447078463 
850	 0,178050193739547 
851	 0,177976854455436 
852	 0,178316523193998 
853	 0,178389684526942 
854	 0,177941913731901 
855	 0,178045777757206 
856	 0,178171314789667 
857	 0,177449615088975 
858	 0,177353740384891 
859	 0,177955364098106 
860	 0,178251950515484 
861	 0,178586698696392 
862	 0,179024339146314 
863	 0,17899728644854 
864	 0,178599424756158 
865	 0,178047218141034 
866	 0,178269242596742 
867	 0,178979920281078 
868	 0,178561766291313 
869	 0,178139295385221 
870	 0,178246314770223 
871	 0,17872157692125 
872	 0,178874059999043 
873	 0,177966299563202 
874	 0,178306479380425 
875	 0,179465784713078 
876	 0,178622628728803 
877	 0,178119432290057 
878	 0,178738220514325 
879	 0,178949925581628 
880	 0,178839429264679 
881	 0,178642040551252 
882	 0,178681232629313 
883	 0,178921377456014 
884	 0,179071738009283 
885	 0,179144885920924 
886	 0,179182774053436 
887	 0,179500463766102 
888	 0,179599166105275 
889	 0,179055973804635 
890	 0,178733472441032 
891	 0,17877555912267 
892	 0,179148724161611 
893	 0,179270860539085 
894	 0,179043028857517 
895	 0,179017120764008 
896	 0,179194481913605 
897	 0,179551548996156 
898	 0,18009058343103 
899	 0,180319269747735 
900	 0,179371391098289 
901	 0,17912193110564 
902	 0,179696529781837 
903	 0,179271761172021 
904	 0,179019547776564 
905	 0,17955311258622 
906	 0,179548150931373 
907	 0,179493465570225 
908	 0,180286550786429 
909	 0,180528027139868 
910	 0,180086881403833 
911	 0,179691697789865 
912	 0,179339175828456 
913	 0,179077167018061 
914	 0,178916543835548 
915	 0,179006138909385 
916	 0,179482903950996 
917	 0,179992586959984 
918	 0,180331034497812 
919	 0,180136921878032 
920	 0,180593527541357 
921	 0,181654146320491 
922	 0,181038435467671 
923	 0,179905268267189 
924	 0,179409922868664 
925	 0,180185860778292 
926	 0,181001026362395 
927	 0,179450978468644 
928	 0,178676640134119 
929	 0,179270165177395 
930	 0,179937552669727 
931	 0,179856187069147 
932	 0,178829477292736 
933	 0,179245409961401 
934	 0,180119625024324 
935	 0,179848088192775 
936	 0,178176225561228 
937	 0,176257269710362 
938	 0,177584203720184 
939	 0,178173424630014 
940	 0,177036801796421 
941	 0,177619652692434 
942	 0,178378146845357 
943	 0,177860940984698 
944	 0,177398507147588 
945	 0,17709317205957 
946	 0,176707625014956 
947	 0,176643284865887 
948	 0,176907259757773 
949	 0,177335964260513 
950	 0,176440493821745 
951	 0,173949662131889 
952	 0,174167999139986 
953	 0,174637613567867 
954	 0,172066505139302 
955	 0,17193191819548 
956	 0,173808796622627 
957	 0,173653825824059 
958	 0,173117533630515 
959	 0,172690562417984 
960	 0,172396998328902 
961	 0,171610699157921 
962	 0,170230652103084 
963	 0,171637646961748 
964	 0,173657125718869 
965	 0,172362486596496 
966	 0,170495650569161 
967	 0,169226616664308 
968	 0,169767026000972 
969	 0,171070990859062 
970	 0,172220838032907 
971	 0,17137891237845 
972	 0,169900915675481 
973	 0,169244337320909 
974	 0,16987689876971 
975	 0,17100545237655 
976	 0,171022752597892 
977	 0,171741586177921 
978	 0,173287919843867 
979	 0,174531428940807 
980	 0,174920058864472 
981	 0,174192954064484 
982	 0,172685912319039 
983	 0,171468508638286 
984	 0,171576706475872 
985	 0,17256744249672 
986	 0,173688207402717 
987	 0,173665401975954 
988	 0,174120159565993 
989	 0,175309501107097 
990	 0,17649165142384 
991	 0,177045590671584 
992	 0,176627661564622 
993	 0,175359650332609 
994	 0,174503188135674 
995	 0,175264807468288 
996	 0,176664718782063 
997	 0,178023674233289 
998	 0,178450344003678 
999	 0,179113394336626 
1000	 0,179923627906413 
1001	 0,179738402743102 
1002	 0,177299492013665 
1003	 0,173219395620819 
1004	 0,17451346876995 
1005	 0,178081925690031 
1006	 0,180046134564448 
1007	 0,178570221639958 
1008	 0,176310243912435 
1009	 0,17857686311634 
1010	 0,179258821782829 
1011	 0,177825617333789 
1012	 0,177927536482725 
1013	 0,179178337158631 
1014	 0,181312434546424 
1015	 0,183728042557152 
1016	 0,184497720946115 
1017	 0,182395534150461 
1018	 0,180471944368266 
1019	 0,179692832396024 
1020	 0,180607042009905 
1021	 0,17997613217063 
1022	 0,178752481438316 
1023	 0,181869591404074 
1024	 0,185084758815325 
1025	 0,186885482447875 
1026	 0,188871744187637 
1027	 0,18708748257191 
1028	 0,180915300084502 
1029	 0,184343076604171 
1030	 0,19032083717582 
1031	 0,189108195962675 
1032	 0,18708403447251 
1033	 0,186207391561724 
1034	 0,188096881907871 
1035	 0,188514909563754 
1036	 0,187033723847939 
1037	 0,187307208806762 
1038	 0,185169305796033 
1039	 0,180436116198554 
1040	 0,181418100872366 
1041	 0,188150418026394 
1042	 0,197850057297865 
1043	 0,192091546409116 
1044	 0,181048451406684 
1045	 0,182351850619347 
1046	 0,187175699087015 
1047	 0,192018510340102 
1048	 0,192677962650581 
1049	 0,195779183827806 
1050	 0,19960862454069 
1051	 0,189546419247086 
1052	 0,185523301260002 
1053	 0,194847746630892 
1054	 0,193832267149699 
1055	 0,191944821622561 
1056	 0,196718536103554 
1057	 0,188838601457592 
1058	 0,181850265984194 
1059	 0,19715349460956 
1060	 0,199855002651419 
1061	 0,192026140133 
1062	 0,195865383613214 
1063	 0,1948664221004 
1064	 0,188305658523907 
1065	 0,191826261008624 
1066	 0,191186852637143 
1067	 0,183894152871479 
1068	 0,19199308238577 
1069	 0,199605566977155 
1070	 0,195521260643601 
1071	 0,195420229240014 
1072	 0,195815728803095 
1073	 0,190623679633013 
1074	 0,181497337399934 
1075	 0,179398412498813 
