Wavelength	GRA-BER00325.asd
325	 0,200292240105993 
326	 0,449815551902595 
327	 0,455400205998874 
328	 0,234198542290525 
329	 0,152784898522028 
330	 0,149039589688579 
331	 0,185100649590155 
332	 0,271730408143097 
333	 0,332968553572882 
334	 0,246461122296851 
335	 0,167357861656446 
336	 0,174090634034828 
337	 0,231594976278361 
338	 0,240579427982867 
339	 0,133122399572062 
340	 0,11458035080008 
341	 0,170709528545408 
342	 0,17610218456754 
343	 0,161658516962529 
344	 0,142406684608435 
345	 0,135694891709288 
346	 0,155007138703467 
347	 0,205696349776272 
348	 0,203628370811318 
349	 0,164914710490944 
350	 0,172267464813302 
351	 0,164697819022378 
352	 0,130570645718177 
353	 0,123712232032427 
354	 0,143478230528204 
355	 0,181989396172106 
356	 0,182944873922343 
357	 0,152594535303022 
358	 0,132886090627014 
359	 0,14091752294116 
360	 0,175533250350287 
361	 0,177936308981516 
362	 0,166569485269181 
363	 0,175826750361163 
364	 0,172547090167227 
365	 0,155802524631818 
366	 0,145765695060188 
367	 0,146591822207585 
368	 0,158384585911227 
369	 0,157263910561558 
370	 0,145698322180036 
371	 0,130002711125814 
372	 0,140475396985353 
373	 0,17430998700284 
374	 0,184873090795946 
375	 0,18758823220086 
376	 0,193384415552599 
377	 0,181656043855424 
378	 0,166588842165991 
379	 0,183143275604368 
380	 0,182523716574022 
381	 0,15810735987892 
382	 0,161971272879765 
383	 0,178190002563367 
384	 0,188325345474433 
385	 0,175309257513949 
386	 0,151090016061555 
387	 0,157259440474546 
388	 0,165284464173499 
389	 0,165542736230657 
390	 0,167047565258806 
391	 0,170624843532147 
392	 0,176200763650478 
393	 0,191837520371734 
394	 0,20655245411636 
395	 0,184331705291652 
396	 0,166941417790078 
397	 0,17518254926171 
398	 0,175786271407253 
399	 0,17062992988085 
400	 0,167402935602244 
401	 0,176601946327498 
402	 0,191235549968424 
403	 0,178142214647155 
404	 0,163569916542407 
405	 0,16513417696158 
406	 0,16394952727781 
407	 0,163318162756399 
408	 0,176383747375166 
409	 0,180770166672072 
410	 0,17336077475331 
411	 0,17433194167888 
412	 0,177516289429453 
413	 0,176458183209318 
414	 0,178387672847427 
415	 0,181335732376253 
416	 0,17727244067958 
417	 0,17406192954971 
418	 0,174640085987637 
419	 0,174505540273856 
420	 0,175246582188442 
421	 0,179365204154586 
422	 0,178397376720893 
423	 0,173560799173921 
424	 0,174644895094989 
425	 0,179568416353832 
426	 0,185654231609698 
427	 0,181909692022212 
428	 0,175453828239906 
429	 0,181777507144582 
430	 0,186162731183677 
431	 0,184629885129547 
432	 0,179655075137327 
433	 0,17676754382389 
434	 0,180240463895648 
435	 0,180692461645089 
436	 0,178766226708896 
437	 0,180977496276849 
438	 0,182070126866472 
439	 0,180370994898295 
440	 0,17898702319953 
441	 0,17816465004179 
442	 0,177803773736977 
443	 0,179096460910472 
444	 0,180941517665634 
445	 0,178628768422357 
446	 0,178016455196484 
447	 0,181829070773334 
448	 0,179361793651878 
449	 0,175350019378587 
450	 0,181333428550111 
451	 0,185272055839654 
452	 0,184150338179944 
453	 0,18233435562261 
454	 0,181192581386559 
455	 0,181935377789121 
456	 0,186187325454878 
457	 0,190743636046323 
458	 0,186259619136924 
459	 0,184322425619895 
460	 0,188592385782902 
461	 0,188298009692727 
462	 0,18589296867544 
463	 0,18598434954657 
464	 0,185276493403654 
465	 0,183826149478699 
466	 0,184220855478576 
467	 0,185800780503377 
468	 0,187746119478442 
469	 0,18693721326764 
470	 0,185594719113704 
471	 0,189379019090909 
472	 0,190211989677619 
473	 0,186530279548512 
474	 0,183367180116833 
475	 0,184000005732116 
476	 0,190738807928641 
477	 0,191252616230295 
478	 0,186071589194081 
479	 0,183517864665577 
480	 0,183400477297081 
481	 0,185250533497799 
482	 0,184625328586257 
483	 0,183791993543459 
484	 0,186942592573169 
485	 0,187140777477974 
486	 0,183928961916581 
487	 0,182835577881726 
488	 0,182961667726797 
489	 0,183422568965964 
490	 0,182898393924837 
491	 0,182189094613735 
492	 0,183815114966131 
493	 0,185153380200945 
494	 0,184888264933688 
495	 0,181351950215476 
496	 0,178441462850349 
497	 0,180561515126607 
498	 0,180880562134638 
499	 0,179377828935574 
500	 0,181125705962243 
501	 0,182541549003783 
502	 0,18207380438525 
503	 0,184795963601205 
504	 0,187868639162703 
505	 0,185191642618648 
506	 0,183924705107029 
507	 0,185505299899876 
508	 0,186042754971818 
509	 0,18602571670717 
510	 0,186008712266134 
511	 0,185192406791799 
512	 0,184205549520137 
513	 0,185039069473151 
514	 0,185631941386364 
515	 0,185175726281047 
516	 0,184678381131472 
517	 0,18455673050497 
518	 0,185252381247839 
519	 0,185306326046802 
520	 0,18473712308191 
521	 0,185184385849587 
522	 0,185451275111585 
523	 0,184762483245127 
524	 0,184692129677422 
525	 0,185173373858225 
526	 0,185609046284566 
527	 0,185326971501053 
528	 0,184502438896819 
529	 0,185698683612338 
530	 0,186817168320787 
531	 0,185334440855819 
532	 0,184232348191161 
533	 0,184001020420568 
534	 0,183762607220554 
535	 0,183850362837086 
536	 0,184348904066057 
537	 0,184402690307008 
538	 0,184200010272593 
539	 0,184322252108044 
540	 0,184325200585542 
541	 0,184193644228152 
542	 0,184404599050949 
543	 0,18484641255871 
544	 0,185383975593343 
545	 0,186120004558628 
546	 0,1868659008137 
547	 0,187198248327884 
548	 0,186970578329826 
549	 0,186308521620686 
550	 0,186559759330989 
551	 0,187326587105127 
552	 0,187766695465697 
553	 0,187749665180964 
554	 0,187254192236873 
555	 0,186290323475316 
556	 0,186205135986603 
557	 0,187865025961087 
558	 0,18754262180587 
559	 0,185915566015544 
560	 0,186499474909341 
561	 0,186713011040223 
562	 0,18589669875007 
563	 0,186400023466957 
564	 0,187383239286839 
565	 0,187483183100402 
566	 0,188027983507405 
567	 0,188916156305764 
568	 0,188547919812421 
569	 0,188467496687672 
570	 0,18970036248817 
571	 0,190953214269795 
572	 0,19208345851722 
573	 0,193370275141905 
574	 0,193852800703278 
575	 0,193774505603689 
576	 0,196299728947646 
577	 0,199079106446504 
578	 0,199299500091542 
579	 0,200125753960977 
580	 0,201689848560308 
581	 0,201980671817736 
582	 0,202628254731645 
583	 0,204360769145611 
584	 0,205186648879465 
585	 0,205376413514888 
586	 0,205948242259994 
587	 0,205567864906137 
588	 0,204460229063499 
589	 0,205256227859093 
590	 0,206439554350972 
591	 0,206521752851307 
592	 0,206573151277737 
593	 0,206725883897718 
594	 0,206871626773744 
595	 0,206655929670588 
596	 0,205924590538322 
597	 0,204724875647366 
598	 0,204117396888277 
599	 0,205655291699694 
600	 0,206544712209894 
601	 0,206117227483334 
602	 0,205251003809569 
603	 0,204472428510702 
604	 0,204180382459649 
605	 0,203932924824318 
606	 0,203505825195968 
607	 0,202536438728995 
608	 0,201654801649621 
609	 0,201058375328285 
610	 0,200329057185115 
611	 0,199422379616342 
612	 0,198328800515776 
613	 0,198183634748578 
614	 0,198863158672061 
615	 0,199104572834857 
616	 0,198750609665612 
617	 0,197802167185317 
618	 0,197354533585166 
619	 0,197307382340647 
620	 0,197097570592962 
621	 0,196896594423206 
622	 0,196865315639386 
623	 0,197543898138228 
624	 0,19835447184754 
625	 0,19868637935291 
626	 0,199021490390206 
627	 0,199362385268511 
628	 0,199372338433619 
629	 0,199661885304756 
630	 0,200425812064766 
631	 0,200463894248142 
632	 0,200552788989296 
633	 0,202200860554351 
634	 0,203211379474312 
635	 0,20336163415561 
636	 0,204723732160097 
637	 0,205773893121018 
638	 0,205340052217756 
639	 0,206228257947182 
640	 0,208078771194184 
641	 0,208707884803741 
642	 0,209099416122874 
643	 0,209569733657539 
644	 0,209817836331835 
645	 0,209917239063648 
646	 0,209979960344741 
647	 0,21072155015523 
648	 0,211692915095038 
649	 0,2107565013863 
650	 0,209620940045618 
651	 0,20934014546628 
652	 0,208257415779677 
653	 0,206655331004127 
654	 0,205513641444797 
655	 0,204780300154037 
656	 0,20430887079138 
657	 0,203391388732826 
658	 0,202074996760496 
659	 0,200500724735465 
660	 0,199625081799309 
661	 0,199156700696808 
662	 0,197522405940472 
663	 0,196263408571148 
664	 0,196034020479999 
665	 0,195490418709682 
666	 0,194768781851634 
667	 0,194331012143501 
668	 0,193927432027601 
669	 0,193564840350441 
670	 0,193581606264456 
671	 0,193389611249833 
672	 0,192613202380488 
673	 0,19270413293111 
674	 0,193392246830969 
675	 0,193457315389539 
676	 0,193308408595436 
677	 0,193143810601909 
678	 0,193299346510614 
679	 0,193745708317723 
680	 0,194400084840402 
681	 0,194962109852592 
682	 0,195360320266335 
683	 0,195647530907839 
684	 0,195988570166733 
685	 0,1965687307097 
686	 0,197811395704868 
687	 0,199636541280067 
688	 0,201739125372501 
689	 0,204715444378767 
690	 0,208502962491422 
691	 0,2119340836163 
692	 0,21607312037178 
693	 0,221862402872012 
694	 0,228108517531463 
695	 0,234860672672176 
696	 0,242786450206663 
697	 0,251773002313268 
698	 0,261557035691772 
699	 0,270824127295242 
700	 0,280538085704132 
701	 0,29209416217533 
702	 0,303751170924791 
703	 0,31503572953802 
704	 0,326221792988538 
705	 0,337299654627446 
706	 0,348172664553422 
707	 0,358429239657671 
708	 0,36827210549946 
709	 0,378191709840839 
710	 0,387752323339988 
711	 0,396753430779601 
712	 0,405064451071121 
713	 0,412779547807471 
714	 0,420030144578431 
715	 0,427084401024125 
716	 0,43397378594011 
717	 0,440742166563396 
718	 0,446653012850184 
719	 0,451550424577218 
720	 0,456672525148597 
721	 0,461741054224839 
722	 0,466249804837311 
723	 0,470438885192206 
724	 0,474324078316543 
725	 0,477761077091256 
726	 0,481055116746846 
727	 0,484354495756671 
728	 0,487275183760982 
729	 0,489740005381408 
730	 0,491665718910294 
731	 0,493712515736308 
732	 0,496025522845157 
733	 0,498178484816081 
734	 0,500022728567426 
735	 0,501468913960446 
736	 0,502931655117477 
737	 0,50430575551071 
738	 0,505058537937395 
739	 0,505940988744247 
740	 0,507224465692645 
741	 0,508613556470682 
742	 0,509817296263512 
743	 0,510546149129894 
744	 0,511289840364784 
745	 0,512114494626844 
746	 0,512839353085209 
747	 0,513515140103428 
748	 0,514165046898248 
749	 0,514783035747977 
750	 0,515321548602149 
751	 0,515692510016848 
752	 0,516464121408329 
753	 0,517488282395199 
754	 0,517591599107507 
755	 0,517611047839171 
756	 0,518121980511276 
757	 0,518296451468967 
758	 0,518342918733868 
759	 0,518943619945627 
760	 0,519445425789937 
761	 0,519655415626974 
762	 0,519757301047111 
763	 0,519899723616181 
764	 0,520197345163322 
765	 0,520292091412646 
766	 0,520285642566281 
767	 0,520665726497504 
768	 0,520809541445188 
769	 0,520585060074288 
770	 0,520717753465682 
771	 0,52115300837675 
772	 0,521734395827598 
773	 0,521776236505508 
774	 0,521360137769427 
775	 0,521160116173708 
776	 0,521544904364388 
777	 0,522521595685593 
778	 0,522584703343641 
779	 0,522248615204252 
780	 0,522525924178008 
781	 0,522688908425279 
782	 0,522677773279334 
783	 0,522924401772503 
784	 0,523234703442098 
785	 0,523464698171077 
786	 0,52356178660258 
787	 0,52361398618341 
788	 0,523800132093453 
789	 0,523915358744716 
790	 0,523899546071457 
791	 0,52377507297064 
792	 0,523643251036181 
793	 0,523618859054747 
794	 0,524037114144429 
795	 0,524560137511058 
796	 0,524369065427539 
797	 0,524068653092343 
798	 0,523954395779334 
799	 0,524428685224758 
800	 0,524664427158103 
801	 0,523960738717268 
802	 0,523948700838919 
803	 0,524490406592094 
804	 0,524371411986909 
805	 0,524543533710365 
806	 0,525172334040467 
807	 0,525297673869818 
808	 0,525172870325074 
809	 0,525153852961017 
810	 0,525433124630447 
811	 0,525849156610528 
812	 0,525745793335609 
813	 0,526030791017278 
814	 0,526905967998418 
815	 0,527097321426357 
816	 0,52709246281676 
817	 0,52759093885675 
818	 0,528092988230673 
819	 0,528473480904236 
820	 0,528633876509153 
821	 0,529136330674303 
822	 0,5300806865938 
823	 0,530255960541374 
824	 0,530046909664991 
825	 0,530106891056035 
826	 0,529953102094912 
827	 0,529722691365836 
828	 0,530159324541504 
829	 0,530527834844163 
830	 0,530482412540095 
831	 0,530525082206946 
832	 0,530646359446855 
833	 0,530762314122405 
834	 0,530369426677226 
835	 0,529796382483645 
836	 0,5305371139073 
837	 0,531176943552363 
838	 0,531027778061884 
839	 0,531175782780358 
840	 0,531428038483121 
841	 0,531356503459087 
842	 0,531060079341226 
843	 0,530758666621449 
844	 0,531045600084442 
845	 0,531508562020942 
846	 0,531833824448344 
847	 0,531567315543181 
848	 0,531329311717517 
849	 0,532047180791469 
850	 0,532126499581271 
851	 0,531628484663483 
852	 0,532128901164722 
853	 0,532730139599807 
854	 0,532888790729132 
855	 0,532416668045222 
856	 0,532028341693905 
857	 0,532696897889771 
858	 0,532874126439349 
859	 0,532595894068086 
860	 0,533304787470272 
861	 0,533922107755037 
862	 0,533919761963392 
863	 0,533769379897182 
864	 0,533772312096123 
865	 0,534239924218526 
866	 0,534692724037124 
867	 0,534986667743127 
868	 0,535078538445809 
869	 0,535237607671645 
870	 0,535545608035969 
871	 0,535599919896786 
872	 0,535637718115566 
873	 0,535954722836035 
874	 0,535411394671505 
875	 0,534322263509221 
876	 0,534194940094074 
877	 0,53465008534025 
878	 0,535329200655756 
879	 0,535104441342252 
880	 0,534603630675726 
881	 0,534597436497037 
882	 0,534710361369815 
883	 0,534864148805037 
884	 0,534978269868189 
885	 0,535384765714752 
886	 0,536056784179254 
887	 0,536250586888585 
888	 0,536261459081945 
889	 0,536388270615338 
890	 0,536125718074071 
891	 0,535930652675639 
892	 0,537075957552047 
893	 0,537190073952706 
894	 0,536018472057979 
895	 0,536164579938509 
896	 0,536597590327606 
897	 0,536484899196629 
898	 0,536547253009341 
899	 0,536752499956786 
900	 0,536875602605211 
901	 0,536947294078582 
902	 0,536855861980634 
903	 0,536009182631581 
904	 0,536157420669982 
905	 0,537936368812906 
906	 0,537343589838529 
907	 0,536159918481323 
908	 0,537576940125731 
909	 0,537467327446983 
910	 0,535948910008549 
911	 0,536521196319415 
912	 0,537762003908249 
913	 0,538596257460411 
914	 0,536795548799514 
915	 0,534965989380055 
916	 0,536068730662689 
917	 0,536791386286778 
918	 0,536611384083516 
919	 0,535906509417932 
920	 0,535695301402007 
921	 0,536061130012984 
922	 0,535245863670716 
923	 0,534661802211436 
924	 0,535398397442062 
925	 0,535664362904579 
926	 0,535232056510622 
927	 0,534206024673904 
928	 0,533874876677689 
929	 0,534336095902455 
930	 0,534382304246202 
931	 0,53418650395901 
932	 0,533804650806228 
933	 0,533024618004914 
934	 0,532055804201864 
935	 0,531193001768718 
936	 0,53095390961071 
937	 0,531064745971626 
938	 0,5302615482378 
939	 0,530369275231733 
940	 0,531471991625074 
941	 0,530398059484898 
942	 0,528632181317551 
943	 0,527695182800357 
944	 0,527559167539868 
945	 0,527299474875136 
946	 0,525141578156688 
947	 0,524137418658694 
948	 0,524613063842784 
949	 0,524384088637701 
950	 0,523502487346852 
951	 0,522017590159914 
952	 0,520183544766205 
953	 0,518714936762334 
954	 0,518374155140366 
955	 0,518912982398545 
956	 0,519173539381322 
957	 0,516336745149703 
958	 0,514352563872797 
959	 0,514163744185608 
960	 0,512929708643159 
961	 0,512222270328394 
962	 0,512988439982197 
963	 0,512136169222856 
964	 0,510761047023694 
965	 0,511157381379386 
966	 0,510585533484624 
967	 0,509276176615962 
968	 0,510321884489519 
969	 0,509910870334876 
970	 0,507170093921219 
971	 0,506584116593738 
972	 0,507477200905743 
973	 0,50874344244183 
974	 0,508371037206238 
975	 0,507597147158219 
976	 0,509299811569384 
977	 0,510504820070133 
978	 0,510639501792615 
979	 0,510912288974306 
980	 0,510610113732061 
981	 0,509464686061723 
982	 0,507621344070401 
983	 0,507288938965696 
984	 0,510205606833612 
985	 0,510138306527317 
986	 0,508312492541398 
987	 0,509389117714785 
988	 0,510180651228611 
989	 0,510101895874016 
990	 0,51011677372516 
991	 0,511459890712293 
992	 0,513803061289902 
993	 0,511063147424608 
994	 0,508100388294674 
995	 0,510150784872709 
996	 0,511185707808756 
997	 0,511112583304562 
998	 0,511855439966728 
999	 0,51261509055952 
1000	 0,513824072642762 
1001	 0,518050129726218 
1002	 0,520304914261404 
1003	 0,518283211649893 
1004	 0,515124014759054 
1005	 0,513019830979114 
1006	 0,513792432679919 
1007	 0,516203325015169 
1008	 0,519042875745372 
1009	 0,520621336005891 
1010	 0,52182005404746 
1011	 0,522902171905485 
1012	 0,524005077608555 
1013	 0,524825852969322 
1014	 0,525036322374676 
1015	 0,523329979640929 
1016	 0,523211816268281 
1017	 0,526948771645245 
1018	 0,527067446269976 
1019	 0,525305285809624 
1020	 0,52582490633638 
1021	 0,524919883059391 
1022	 0,524063447091838 
1023	 0,529733801446927 
1024	 0,533507951778711 
1025	 0,532838687278755 
1026	 0,530652563111598 
1027	 0,532224119997622 
1028	 0,539160552660881 
1029	 0,537263928880278 
1030	 0,532703703054806 
1031	 0,533841010754778 
1032	 0,530489768165761 
1033	 0,525815166300369 
1034	 0,529744071224531 
1035	 0,531951874702336 
1036	 0,53201871479512 
1037	 0,539916510465415 
1038	 0,543673176005079 
1039	 0,539058022620142 
1040	 0,53498893231221 
1041	 0,53303453611899 
1042	 0,533987272711628 
1043	 0,535693872549761 
1044	 0,539589640763188 
1045	 0,547445229349542 
1046	 0,544592172690854 
1047	 0,53487316821254 
1048	 0,534280054645941 
1049	 0,539844935696607 
1050	 0,546216805460203 
1051	 0,536056318842727 
1052	 0,529804869080668 
1053	 0,536731000270861 
1054	 0,544642636899588 
1055	 0,548754648104386 
1056	 0,545795910522804 
1057	 0,54127459892829 
1058	 0,539725166357119 
1059	 0,54511193236697 
1060	 0,539860967031975 
1061	 0,530143480684402 
1062	 0,537644357212327 
1063	 0,544328774411727 
1064	 0,543821588207884 
1065	 0,534947052575096 
1066	 0,525815568847071 
1067	 0,52432825537069 
1068	 0,544878235850892 
1069	 0,560597458245043 
1070	 0,552974469709852 
1071	 0,543331915698306 
1072	 0,536049827174169 
1073	 0,532949096488525 
1074	 0,534975730992886 
1075	 0,537608583632902 
