Wavelength	GRA-BER00672.asd
325	 0,031206577511472 
326	 0,203912135340876 
327	 0,291259342690817 
328	 0,223002546223102 
329	 3,87923908768049E-02 
330	-0,110285205207146 
331	-3,17048931742047E-02 
332	 3,89522920751249E-02 
333	 6,40605780658823E-02 
334	 8,35624490853884E-02 
335	 5,76802919491588E-02 
336	 3,28377452757968E-04 
337	 4,48871976403517E-03 
338	 2,18149589974669E-02 
339	 4,73082071205851E-03 
340	 7,72551451891355E-03 
341	 3,20378484790754E-02 
342	 8,02339306632848E-02 
343	 5,52868130586089E-02 
344	-4,39032098494009E-02 
345	-5,17826439838102E-02 
346	-1,01729219637458E-02 
347	 2,23277176986752E-02 
348	 5,79059162731899E-02 
349	 8,47732117008924E-02 
350	 0,067942293807385 
351	 0,061941647948623 
352	 7,79017825932113E-02 
353	 5,13137453666571E-02 
354	 1,65772158085146E-02 
355	 1,43785912156722E-02 
356	 2,55865427180168E-02 
357	 4,22098127486748E-02 
358	 5,02507573029424E-02 
359	 4,52433942435811E-02 
360	 3,05528658121657E-02 
361	 4,40063890683688E-02 
362	 6,13430854849917E-02 
363	 4,22780402884855E-02 
364	 2,10515768699472E-02 
365	 5,96617014759436E-03 
366	-2,27600899113869E-03 
367	 7,41967303173489E-03 
368	 3,53856892180867E-02 
369	 3,17791717091467E-02 
370	 1,37279848362622E-02 
371	 1,53118629367758E-02 
372	 2,85429784480776E-02 
373	 4,46352798247966E-02 
374	 3,89934032775781E-02 
375	 1,82360983788392E-02 
376	-8,53587714220763E-03 
377	 1,57202831925157E-03 
378	 3,43121780529804E-02 
379	 4,56817435130147E-02 
380	 3,53336459609686E-02 
381	 1,27991824738611E-02 
382	 3,48629213945498E-02 
383	 5,47131536609008E-02 
384	 2,86100382567767E-02 
385	 1,01649254347956E-02 
386	 8,86486478574625E-03 
387	 1,81022131578938E-02 
388	 0,028500638148545 
389	 0,032228499437689 
390	 2,29685703027643E-02 
391	 1,31601714559116E-02 
392	 1,83966400999627E-02 
393	 2,73353607202378E-02 
394	 3,28254625963228E-02 
395	 2,04837649021266E-02 
396	 1,09679699225807E-02 
397	 1,42319150788544E-02 
398	 2,18524442848248E-02 
399	 2,54970075961491E-02 
400	 1,48126424564122E-02 
401	 9,03266430253505E-03 
402	 1,18233921400635E-02 
403	 0,017730557735641 
404	 1,86301781025911E-02 
405	 1,01377166979211E-02 
406	 5,51619535998592E-03 
407	 5,91769941849923E-03 
408	 8,8624051437525E-03 
409	 1,54917508555489E-02 
410	 2,34619068606035E-02 
411	 2,59569813290465E-02 
412	 1,95868942702225E-02 
413	 2,65085362264266E-03 
414	 2,29460683546886E-03 
415	 1,47866212085587E-02 
416	 1,78987823004949E-02 
417	 1,79968287134436E-02 
418	 1,74516733441535E-02 
419	 1,70646875284498E-02 
420	 1,65424117774556E-02 
421	 1,53778738894141E-02 
422	 1,21478477491638E-02 
423	 9,21164167207119E-03 
424	 1,55284842096927E-02 
425	 1,93408599452827E-02 
426	 1,48100148817869E-02 
427	 1,57589837786652E-02 
428	 1,99444079879199E-02 
429	 2,02392315644383E-02 
430	 1,97578573879881E-02 
431	 1,91118756744503E-02 
432	 1,76884194714147E-02 
433	 1,48840747060979E-02 
434	 1,06076706317958E-02 
435	 1,29500945633896E-02 
436	 1,89544775224805E-02 
437	 1,75747925480056E-02 
438	 1,57114401985282E-02 
439	 1,56648001717156E-02 
440	 1,42694979772289E-02 
441	 1,29732936329784E-02 
442	 1,38201490596308E-02 
443	 1,48370758814536E-02 
444	 1,48022827926925E-02 
445	 1,07689264435823E-02 
446	 1,01360225893029E-02 
447	 1,62591667566219E-02 
448	 1,53447737107611E-02 
449	 0,010969197870541 
450	 1,33923893692941E-02 
451	 1,48153359841212E-02 
452	 1,35824048310614E-02 
453	 1,28500831867035E-02 
454	 1,41657716001969E-02 
455	 1,84324819005468E-02 
456	 1,89438718639705E-02 
457	 1,71451191429229E-02 
458	 2,10967740126282E-02 
459	 2,17610842574187E-02 
460	 1,68265106667618E-02 
461	 1,78781332952844E-02 
462	 1,92850694731953E-02 
463	 1,20851249474695E-02 
464	 1,11104255004461E-02 
465	 1,65934621255743E-02 
466	 1,58564021681462E-02 
467	 1,34771962255032E-02 
468	 1,27655772424658E-02 
469	 1,49128768927307E-02 
470	 1,70647563067453E-02 
471	 0,012996547657855 
472	 1,07379432012743E-02 
473	 0,012719189102933 
474	 1,68743045904057E-02 
475	 1,95419501899465E-02 
476	 1,75134036736974E-02 
477	 1,63558953372874E-02 
478	 1,62612660926965E-02 
479	 1,40119242620643E-02 
480	 1,27040490553976E-02 
481	 1,35851173404267E-02 
482	 1,43722249166977E-02 
483	 1,50869219262468E-02 
484	 1,62748541151943E-02 
485	 1,47834457314689E-02 
486	 1,15565522992958E-02 
487	 1,31847917784253E-02 
488	 1,62627075262933E-02 
489	 1,78536923432061E-02 
490	 1,62603431075709E-02 
491	 1,31156817747373E-02 
492	 1,26967931067676E-02 
493	 1,31307838078153E-02 
494	 0,013586207062817 
495	 1,28084012731965E-02 
496	 1,20245074494644E-02 
497	 1,27055789317323E-02 
498	 1,37718466821051E-02 
499	 1,45200897949364E-02 
500	 1,35145612493251E-02 
501	 0,01305348223485 
502	 1,41775110015441E-02 
503	 1,38056835968847E-02 
504	 1,29699762027422E-02 
505	 1,42890485325693E-02 
506	 1,39952587628943E-02 
507	 0,011923793743199 
508	 1,23994179404219E-02 
509	 1,33724082383735E-02 
510	 1,29235649336708E-02 
511	 0,013324140788727 
512	 1,41819837643255E-02 
513	 1,33671362087545E-02 
514	 1,27620575365029E-02 
515	 0,013109303155622 
516	 1,35138907351509E-02 
517	 1,36260215131362E-02 
518	 1,30672965525863E-02 
519	 1,35762277058392E-02 
520	 0,014782117224093 
521	 1,35567671876191E-02 
522	 1,26007626925267E-02 
523	 1,37412683074679E-02 
524	 1,43456619576522E-02 
525	 1,39569203731928E-02 
526	 1,23736410026069E-02 
527	 1,13905276219527E-02 
528	 1,15950759865045E-02 
529	 1,20320797762957E-02 
530	 1,23273741063706E-02 
531	 0,012159586427828 
532	 1,21516721183708E-02 
533	 1,25271307807661E-02 
534	 1,36501841732127E-02 
535	 1,40338266947483E-02 
536	 1,30262871537517E-02 
537	 1,31703851774673E-02 
538	 1,38704344069897E-02 
539	 1,33765714630961E-02 
540	 1,29182409791366E-02 
541	 1,28379323975092E-02 
542	 1,28701517247438E-02 
543	 0,012981722748474 
544	 1,31471567483299E-02 
545	 0,013365624468989 
546	 1,35576248591655E-02 
547	 1,35538990555438E-02 
548	 1,33836969853054E-02 
549	 1,31465861743665E-02 
550	 1,33858634343877E-02 
551	 0,013818002981871 
552	 1,39128610198651E-02 
553	 1,40852592928257E-02 
554	 1,42487704698416E-02 
555	 1,35401051450345E-02 
556	 1,31753759542955E-02 
557	 0,014041691702517 
558	 1,38087110922474E-02 
559	 1,28404319632248E-02 
560	 1,30606034748068E-02 
561	 1,36181052414008E-02 
562	 0,014220862476937 
563	 0,015088334632372 
564	 1,59480284580561E-02 
565	 1,64576918025504E-02 
566	 1,60770121959189E-02 
567	 0,015009540346803 
568	 1,41992430193701E-02 
569	 1,44652292279862E-02 
570	 0,016209788457265 
571	 1,74287663697931E-02 
572	 1,79036169551372E-02 
573	 1,79246165591049E-02 
574	 1,81275263214375E-02 
575	 1,86763634339324E-02 
576	 1,88118149847686E-02 
577	 1,90573877667884E-02 
578	 2,00199677432204E-02 
579	 2,01524673778532E-02 
580	 1,95832140436549E-02 
581	 1,98831906000156E-02 
582	 2,02102937311235E-02 
583	 2,00519143451678E-02 
584	 1,93237165818119E-02 
585	 1,84909676976936E-02 
586	 1,83101004094291E-02 
587	 1,88470158349929E-02 
588	 0,019703279726143 
589	 0,019161313639185 
590	 1,81201037668813E-02 
591	 1,75273794712661E-02 
592	 1,76590740944725E-02 
593	 1,80975956345959E-02 
594	 1,74747768872534E-02 
595	 1,70559032656034E-02 
596	 1,73503563268624E-02 
597	 1,75495154263067E-02 
598	 1,75201794128189E-02 
599	 1,71858350729233E-02 
600	 1,72463162212476E-02 
601	 1,75929831134365E-02 
602	 1,70269255036626E-02 
603	 1,61192975244744E-02 
604	 1,54328259501458E-02 
605	 1,58131698244036E-02 
606	 1,66033447462423E-02 
607	 1,57924276101498E-02 
608	 0,015260172031914 
609	 1,55090801201749E-02 
610	 1,49951214815904E-02 
611	 1,46446284621034E-02 
612	 1,57228621992862E-02 
613	 1,57337408952827E-02 
614	 0,014671989838766 
615	 1,46803658514682E-02 
616	 1,48282368660502E-02 
617	 1,45719949219954E-02 
618	 1,45795982733601E-02 
619	 1,48069475298427E-02 
620	 1,49750358116082E-02 
621	 1,53808834348524E-02 
622	 1,58727255158835E-02 
623	 1,53143329386171E-02 
624	 1,46774537175812E-02 
625	 1,50014516355604E-02 
626	 0,015474417699882 
627	 1,59198170974249E-02 
628	 1,64222719989376E-02 
629	 1,66119244402542E-02 
630	 1,64249293836881E-02 
631	 1,68890165842389E-02 
632	 1,76628694312809E-02 
633	 1,79796713241192E-02 
634	 1,86489216255906E-02 
635	 1,95602939111185E-02 
636	 1,93375827582697E-02 
637	 1,90576844825456E-02 
638	 1,96539214788688E-02 
639	 2,04732011902982E-02 
640	 2,12397875021476E-02 
641	 2,16829211301219E-02 
642	 2,15344562140894E-02 
643	 2,09211393402246E-02 
644	 2,12324176255718E-02 
645	 2,20581783891461E-02 
646	 2,26937451925657E-02 
647	 2,29335950910991E-02 
648	 2,28521515870867E-02 
649	 2,29570771692449E-02 
650	 2,32662714369564E-02 
651	 2,37392372009642E-02 
652	 2,38821514804734E-02 
653	 2,37806759445078E-02 
654	 2,37444731045216E-02 
655	 2,38873355473419E-02 
656	 2,41811573715951E-02 
657	 2,42478125485851E-02 
658	 2,41292959094881E-02 
659	 2,38975649568953E-02 
660	 2,35849659091562E-02 
661	 2,32156686107281E-02 
662	 2,27962750091464E-02 
663	 0,022401164221273 
664	 2,20457317893081E-02 
665	 2,15089710554218E-02 
666	 2,10011433695084E-02 
667	 2,08785600131062E-02 
668	 2,08369806080263E-02 
669	 2,06928265961722E-02 
670	 2,01052063120034E-02 
671	 0,019584681901467 
672	 1,95267855833283E-02 
673	 1,94797902076249E-02 
674	 1,93388553840503E-02 
675	 1,90452973996681E-02 
676	 0,018801525642502 
677	 1,86659774718961E-02 
678	 1,84938229768614E-02 
679	 1,82289208292272E-02 
680	 1,78258770409765E-02 
681	 1,79666017816786E-02 
682	 1,83435654590017E-02 
683	 1,72761024061427E-02 
684	 1,69840938472588E-02 
685	 1,85061676438381E-02 
686	 0,018799073159897 
687	 1,83165621990166E-02 
688	 1,85749925475783E-02 
689	 1,92060141970516E-02 
690	 2,00235137247826E-02 
691	 2,05585877894996E-02 
692	 2,10494635405658E-02 
693	 2,17576350430808E-02 
694	 2,29678119888416E-02 
695	 2,46207966067426E-02 
696	 2,64136068929019E-02 
697	 0,028381332793161 
698	 3,05566577590771E-02 
699	 3,31362962815602E-02 
700	 3,58880849305948E-02 
701	 3,84981410221368E-02 
702	 4,15627030398542E-02 
703	 4,51485285264306E-02 
704	 4,89795769613422E-02 
705	 5,29067047563255E-02 
706	 0,05679951071254 
707	 6,05021334969548E-02 
708	 6,42344464549588E-02 
709	 6,84688082384973E-02 
710	 7,26320936893258E-02 
711	 7,64746432567158E-02 
712	 7,98504773022662E-02 
713	 8,30953314278112E-02 
714	 8,64943878296237E-02 
715	 0,089466235106043 
716	 9,21359094030528E-02 
717	 9,50474841687817E-02 
718	 9,81421273037306E-02 
719	 0,101272288037814 
720	 0,103704217216633 
721	 0,105808752675914 
722	 0,108146636491501 
723	 0,110256981453169 
724	 0,11208730797078 
725	 0,113728619459956 
726	 0,115580290950312 
727	 0,117757731991362 
728	 0,118977811019845 
729	 0,119683468089692 
730	 0,120980522786348 
731	 0,122184103588316 
732	 0,123180850577901 
733	 0,124357564140093 
734	 0,125392182704998 
735	 0,126018971477241 
736	 0,126657328430077 
737	 0,127365156906206 
738	 0,128093415796109 
739	 0,128687458416269 
740	 0,129141658592073 
741	 0,129809346513351 
742	 0,130513053588806 
743	 0,131010840588785 
744	 0,131040492800582 
745	 0,130813693121982 
746	 0,131125367803739 
747	 0,131528755801459 
748	 0,131826328890907 
749	 0,132398343916059 
750	 0,133019290728298 
751	 0,133298057660137 
752	 0,133373769294155 
753	 0,13341425328879 
754	 0,133930526411309 
755	 0,134238961473882 
756	 0,13392336026113 
757	 0,134054207403216 
758	 0,134555009558841 
759	 0,134953630591331 
760	 0,135078592553649 
761	 0,134974244059913 
762	 0,13526222707802 
763	 0,135536100538637 
764	 0,135397308872393 
765	 0,135141677737129 
766	 0,134992341976826 
767	 0,13534625979423 
768	 0,135814603356399 
769	 0,13616620079252 
770	 0,136134175702002 
771	 0,136015885937962 
772	 0,136183868361568 
773	 0,136392065641615 
774	 0,136480706979601 
775	 0,136087391693054 
776	 0,135940933490479 
777	 0,136358904446629 
778	 0,13664627987276 
779	 0,136720845152693 
780	 0,136587194506838 
781	 0,136639248299035 
782	 0,136880069926035 
783	 0,136865200107543 
784	 0,136907723799933 
785	 0,137169815619642 
786	 0,137129978383102 
787	 0,137092479812882 
788	 0,137756652965483 
789	 0,137947904044735 
790	 0,137552740149693 
791	 0,137654671857219 
792	 0,138029890123107 
793	 0,138438743892238 
794	 0,138547990984279 
795	 0,138503223341055 
796	 0,138744706415041 
797	 0,139106549772298 
798	 0,139420169276862 
799	 0,13914668215984 
800	 0,138871251922004 
801	 0,139144480193621 
802	 0,139427340511894 
803	 0,139574227482033 
804	 0,139469908584521 
805	 0,139406442354812 
806	 0,139553258833746 
807	 0,140113923318318 
808	 0,140649865640307 
809	 0,140694655018466 
810	 0,140644642977876 
811	 0,14058215199627 
812	 0,140422614012942 
813	 0,140580313360605 
814	 0,141139021272572 
815	 0,141441592711224 
816	 0,141537295749946 
817	 0,141568423502771 
818	 0,14189295131874 
819	 0,142265269549201 
820	 0,141568686919632 
821	 0,14147518393937 
822	 0,142557101344989 
823	 0,142912611061894 
824	 0,142811879398605 
825	 0,142853031245972 
826	 0,142537095102111 
827	 0,142163127042923 
828	 0,142983584213227 
829	 0,143716824621418 
830	 0,143709835819255 
831	 0,143487961361623 
832	 0,143446676121089 
833	 0,144029610012565 
834	 0,144256518572295 
835	 0,144002337551383 
836	 0,143642391082605 
837	 0,143734590686348 
838	 0,144486298551409 
839	 0,144974988972121 
840	 0,145053986680422 
841	 0,144691968880793 
842	 0,144961906240864 
843	 0,14577934536922 
844	 0,145897865509403 
845	 0,145783167599992 
846	 0,145710476275029 
847	 0,145682034436857 
848	 0,145896968806456 
849	 0,146608211496783 
850	 0,146758094058592 
851	 0,146384110766035 
852	 0,146612138000102 
853	 0,146651694013842 
854	 0,14621840860071 
855	 0,146367579239985 
856	 0,146904915105963 
857	 0,147400052611962 
858	 0,147981859314814 
859	 0,148502514919518 
860	 0,148607744375438 
861	 0,148008860792476 
862	 0,146893142282118 
863	 0,147469773822501 
864	 0,148415447646961 
865	 0,147754421010449 
866	 0,148215870422704 
867	 0,149579937174628 
868	 0,149229646365017 
869	 0,148798620359586 
870	 0,149001777735263 
871	 0,149178216887494 
872	 0,149286578584237 
873	 0,149338485145022 
874	 0,149206946189317 
875	 0,148998408813499 
876	 0,149025442443494 
877	 0,149382008521848 
878	 0,149943698753645 
879	 0,149760354884603 
880	 0,149491915023301 
881	 0,149899400633628 
882	 0,150301148195463 
883	 0,150415675273901 
884	 0,149789736939417 
885	 0,149616822597434 
886	 0,150235940910591 
887	 0,150810127464674 
888	 0,151242928234178 
889	 0,151475111735744 
890	 0,151346569117273 
891	 0,151110211743962 
892	 0,151353765094232 
893	 0,151630481214597 
894	 0,151739914279127 
895	 0,151468838445811 
896	 0,151353724503742 
897	 0,151734089241446 
898	 0,151587266813094 
899	 0,151131831988116 
900	 0,151023614914516 
901	 0,151256254170083 
902	 0,151638178432962 
903	 0,151350280993106 
904	 0,151411661165087 
905	 0,152327392830577 
906	 0,152869016223615 
907	 0,152867546968145 
908	 0,15233358846286 
909	 0,152057919125753 
910	 0,152052681665174 
911	 0,151573298510152 
912	 0,15124224194278 
913	 0,151414840440493 
914	 0,152359990705472 
915	 0,152994120905763 
916	 0,152199907542833 
917	 0,15189140130267 
918	 0,152241110918679 
919	 0,152724979969781 
920	 0,152545498762894 
921	 0,151731426673225 
922	 0,152099785566918 
923	 0,152240809296211 
924	 0,151128453660348 
925	 0,151305096272215 
926	 0,152292005525744 
927	 0,15248271382558 
928	 0,153061493405134 
929	 0,153744803638529 
930	 0,152460197291155 
931	 0,150911729501327 
932	 0,150228666972286 
933	 0,150460899939319 
934	 0,150734827144616 
935	 0,149964552106419 
936	 0,149636782657473 
937	 0,149851755907851 
938	 0,150066782224261 
939	 0,149379730801187 
940	 0,147978148024728 
941	 0,148998589210835 
942	 0,149436391392946 
943	 0,146881605782404 
944	 0,146471565463182 
945	 0,147759756901899 
946	 0,14837802110391 
947	 0,147602535300659 
948	 0,145696794920741 
949	 0,144621603987243 
950	 0,144401718094215 
951	 0,144741532264322 
952	 0,143577438245558 
953	 0,14196727634076 
954	 0,141443327018303 
955	 0,141561846181763 
956	 0,142064431177814 
957	 0,142687806950851 
958	 0,142062424981277 
959	 0,14025969556859 
960	 0,139999616677423 
961	 0,140326920336477 
962	 0,140349020922002 
963	 0,139529371289894 
964	 0,138963932791273 
965	 0,140409459230711 
966	 0,140049893318611 
967	 0,137982384042424 
968	 0,137490324371071 
969	 0,137628714933639 
970	 0,137854912033429 
971	 0,137100024688948 
972	 0,136918325580483 
973	 0,138632010816644 
974	 0,140190540819371 
975	 0,141022915251259 
976	 0,140808421028025 
977	 0,140543882238266 
978	 0,140331495204853 
979	 0,139148108157307 
980	 0,139190280495203 
981	 0,140932079568553 
982	 0,140320429617825 
983	 0,13871845300484 
984	 0,137973104928573 
985	 0,138899839369394 
986	 0,140669812582648 
987	 0,141359461357943 
988	 0,141687279431822 
989	 0,141545223724044 
990	 0,139747898455375 
991	 0,139098799245801 
992	 0,140932036049472 
993	 0,143522909534992 
994	 0,144886837599426 
995	 0,143426648363447 
996	 0,142194218248978 
997	 0,142170081207608 
998	 0,14407107143492 
999	 0,143747205149048 
1000	 0,14145069622332 
1001	 0,143197985973197 
1002	 0,142177553400466 
1003	 0,13701865644163 
1004	 0,140539232309474 
1005	 0,145889775771616 
1006	 0,145780760407051 
1007	 0,146252905011722 
1008	 0,146913868366731 
1009	 0,145383920958486 
1010	 0,14665172467293 
1011	 0,150079173301535 
1012	 0,148912641978267 
1013	 0,147889051720653 
1014	 0,148659718742998 
1015	 0,148333999792439 
1016	 0,148847857416032 
1017	 0,151510258444272 
1018	 0,152776031065091 
1019	 0,151467697814844 
1020	 0,146856605116931 
1021	 0,1481150568815 
1022	 0,152899149395016 
1023	 0,147674458267787 
1024	 0,14630993633296 
1025	 0,151488937054525 
1026	 0,152551726229172 
1027	 0,153565925973943 
1028	 0,156021143206614 
1029	 0,149943592984922 
1030	 0,144213161996646 
1031	 0,149722480273757 
1032	 0,155146515704167 
1033	 0,156160287894298 
1034	 0,148540020527769 
1035	 0,146203526768899 
1036	 0,151254710025814 
1037	 0,156167224633949 
1038	 0,155239310678701 
1039	 0,148668434973068 
1040	 0,153710864121749 
1041	 0,160512046174742 
1042	 0,159979115853418 
1043	 0,153888071532747 
1044	 0,150461517023706 
1045	 0,160223983029467 
1046	 0,166557193190114 
1047	 0,16701251991345 
1048	 0,165357462989946 
1049	 0,159089543542902 
1050	 0,150695027439777 
1051	 0,151473939140568 
1052	 0,153161139721614 
1053	 0,151852382629958 
1054	 0,15156431527522 
1055	 0,1512256210932 
1056	 0,150510720615783 
1057	 0,157131015007162 
1058	 0,161671669734483 
1059	 0,15071267740448 
1060	 0,146983562174821 
1061	 0,152408591113988 
1062	 0,159020487932798 
1063	 0,16221581879409 
1064	 0,160198166712104 
1065	 0,150376830110003 
1066	 0,159995037050279 
1067	 0,189181441216429 
1068	 0,174741368400893 
1069	 0,152029293778405 
1070	 0,150363272562306 
1071	 0,149629929452479 
1072	 0,150056763952379 
1073	 0,153665482335037 
1074	 0,15365654626185 
1075	 0,148380378252085 
