Wavelength	GRA-VAN00126.asd
325	 0,160678211767548 
326	 0,21625629618266 
327	 0,34135608546862 
328	 0,395775485918286 
329	 0,311298246685575 
330	 0,34245361510941 
331	 0,61021270574662 
332	 0,56789293175293 
333	 0,395677483961133 
334	 0,314790427988797 
335	 0,28577515560731 
336	 0,302113804080743 
337	 0,279325002172462 
338	 0,250455679201842 
339	 0,245916214884179 
340	 0,286889861824475 
341	 0,314846549071534 
342	 0,231293427014617 
343	 0,190190382305816 
344	 0,234328238162521 
345	 0,239026799088744 
346	 0,256781109710651 
347	 0,32674836590948 
348	 0,270328719283829 
349	 0,140904561166498 
350	 0,188441925766046 
351	 0,241075087494524 
352	 0,230858074823592 
353	 0,209122557861903 
354	 0,19497519058215 
355	 0,209098475350463 
356	 0,197947903026367 
357	 0,171600492361863 
358	 0,180677215437107 
359	 0,211088224564435 
360	 0,242742503613818 
361	 0,227521368218208 
362	 0,198810376257735 
363	 0,205802864765096 
364	 0,216746673521736 
365	 0,225046069695653 
366	 0,23884648800447 
367	 0,233974294971975 
368	 0,201765680538393 
369	 0,186953545847023 
370	 0,187858716009513 
371	 0,191722555091869 
372	 0,200082742637158 
373	 0,206522177245219 
374	 0,192925711708923 
375	 0,187116427024884 
376	 0,208175372871929 
377	 0,204830379819955 
378	 0,189445059606319 
379	 0,207452973824639 
380	 0,220236222591971 
381	 0,218450620249721 
382	 0,21448554195247 
383	 0,210881012660172 
384	 0,209069727254946 
385	 0,210743535912293 
386	 0,209170728409143 
387	 0,183744960940008 
388	 0,17090000185251 
389	 0,1839040934887 
390	 0,19423599947949 
391	 0,196135560157098 
392	 0,186335703308764 
393	 0,183221635176333 
394	 0,188907161172359 
395	 0,196086256839395 
396	 0,202295752564963 
397	 0,206406529628173 
398	 0,21369143401604 
399	 0,214012866173364 
400	 0,190500341742624 
401	 0,189517101822354 
402	 0,209778567208515 
403	 0,202654471057455 
404	 0,187710140873881 
405	 0,179957689513598 
406	 0,177145436552069 
407	 0,179772333284399 
408	 0,190242811534448 
409	 0,194308397524059 
410	 0,18938839993466 
411	 0,186759373367462 
412	 0,189164785221138 
413	 0,197601352124445 
414	 0,195640622999211 
415	 0,185903438950375 
416	 0,181721311299212 
417	 0,180679607998297 
418	 0,181949758852279 
419	 0,184345294224243 
420	 0,187970687964453 
421	 0,193384238343962 
422	 0,195646394273032 
423	 0,194311181405548 
424	 0,192329495844158 
425	 0,189493672120461 
426	 0,186384926669909 
427	 0,188839343253715 
428	 0,192911719486739 
429	 0,190471723100399 
430	 0,187839030008112 
431	 0,186461630385238 
432	 0,183855177547739 
433	 0,182750482872457 
434	 0,185187941755952 
435	 0,185166776966118 
436	 0,183448908025881 
437	 0,185249226689719 
438	 0,185504703088621 
439	 0,183180879884921 
440	 0,184646001933854 
441	 0,18730612784689 
442	 0,187214598546289 
443	 0,186631860092099 
444	 0,185999515026958 
445	 0,18491145717713 
446	 0,184157956584394 
447	 0,184401382323923 
448	 0,186652887177009 
449	 0,189419818268015 
450	 0,189923297897176 
451	 0,188679948544592 
452	 0,186590633853108 
453	 0,186608010197356 
454	 0,187717088694356 
455	 0,188896693148312 
456	 0,191889982559403 
457	 0,194591936382752 
458	 0,190459342035914 
459	 0,188772967499982 
460	 0,192429473223856 
461	 0,191778493622681 
462	 0,18939723735585 
463	 0,1898664340247 
464	 0,188411530204751 
465	 0,186317950188459 
466	 0,192279148414372 
467	 0,196656536886809 
468	 0,193751445372971 
469	 0,193935340200026 
470	 0,195021942364041 
471	 0,189168740274607 
472	 0,187026561400528 
473	 0,190768534679265 
474	 0,192878078457828 
475	 0,193537029702526 
476	 0,193353103017354 
477	 0,193055942676372 
478	 0,193094578145451 
479	 0,194165941196696 
480	 0,194776270895865 
481	 0,194162469439116 
482	 0,192628516139042 
483	 0,191219545819543 
484	 0,19131451341714 
485	 0,191790774658619 
486	 0,192085474112679 
487	 0,191155537403876 
488	 0,191372494936044 
489	 0,194080582090845 
490	 0,193092076321321 
491	 0,19040188567926 
492	 0,193190292493046 
493	 0,193911602392987 
494	 0,190990130292002 
495	 0,190960233109792 
496	 0,191751131952325 
497	 0,19053047874419 
498	 0,190043561459298 
499	 0,190564664428913 
500	 0,191127670365758 
501	 0,191278892187551 
502	 0,190884581293624 
503	 0,191002957372695 
504	 0,192194418717401 
505	 0,195393540560125 
506	 0,19641687290611 
507	 0,194930250199558 
508	 0,19565849563342 
509	 0,196590932739125 
510	 0,195820011012331 
511	 0,195512113148444 
512	 0,195584208283739 
513	 0,1943772336381 
514	 0,194890386265402 
515	 0,197849283443928 
516	 0,199039240980557 
517	 0,199098172516603 
518	 0,199548498938794 
519	 0,199660781723723 
520	 0,19949790970656 
521	 0,19989181166067 
522	 0,199716087725738 
523	 0,198370221069069 
524	 0,198609712255044 
525	 0,200022100710146 
526	 0,200970371183571 
527	 0,200534721412418 
528	 0,198744518872784 
529	 0,19795816870951 
530	 0,197958950811791 
531	 0,198251509832472 
532	 0,198476809558377 
533	 0,198399399720288 
534	 0,197590513735938 
535	 0,197303564146267 
536	 0,198133137353687 
537	 0,198287390640517 
538	 0,19810608503389 
539	 0,198692360745295 
540	 0,199235683991424 
541	 0,199335858477374 
542	 0,198358909961231 
543	 0,197507674409388 
544	 0,197929113430588 
545	 0,198124684651882 
546	 0,198027935409863 
547	 0,198351908267011 
548	 0,198717690929344 
549	 0,19899178607665 
550	 0,199657905487324 
551	 0,200175667617427 
552	 0,19965367741044 
553	 0,198934087776628 
554	 0,198417185793446 
555	 0,198520254621561 
556	 0,198776129981288 
557	 0,198754478511651 
558	 0,198229929793398 
559	 0,197546176916871 
560	 0,197713504168827 
561	 0,197586419655184 
562	 0,196890537580217 
563	 0,196985256617061 
564	 0,197192201163821 
565	 0,196469587701722 
566	 0,196319827225886 
567	 0,196835705674858 
568	 0,196846633471466 
569	 0,197097063709192 
570	 0,198049730467119 
571	 0,198777862050218 
572	 0,199489623620759 
573	 0,200950101290004 
574	 0,202762496466367 
575	 0,204529633802863 
576	 0,205093984622132 
577	 0,205509580190383 
578	 0,207028224668657 
579	 0,208589156128988 
580	 0,210040449095532 
581	 0,211700739925493 
582	 0,213321702133879 
583	 0,214756275996863 
584	 0,216087859988505 
585	 0,217314812367022 
586	 0,218459830417215 
587	 0,21905144324247 
588	 0,219372311556016 
589	 0,22132067948608 
590	 0,223126126754234 
591	 0,223176675002567 
592	 0,224081097877673 
593	 0,225506864386708 
594	 0,225114145072024 
595	 0,224498777176478 
596	 0,224519102205937 
597	 0,225520912648513 
598	 0,226713040844608 
599	 0,226901563462396 
600	 0,226564924987067 
601	 0,225938883080625 
602	 0,225385270443282 
603	 0,225006777842726 
604	 0,224824105428123 
605	 0,224217216439061 
606	 0,223198044991091 
607	 0,222009397761749 
608	 0,221137712097377 
609	 0,220663092793325 
610	 0,219626732024689 
611	 0,218651655975371 
612	 0,218585950713094 
613	 0,218660662579463 
614	 0,218416631116171 
615	 0,216917557797258 
616	 0,216031197618749 
617	 0,216782551150381 
618	 0,216792882211642 
619	 0,216170094507446 
620	 0,215831301597439 
621	 0,215558908604316 
622	 0,215328708687785 
623	 0,215132688703752 
624	 0,215168215267927 
625	 0,215613317772295 
626	 0,215860882090107 
627	 0,215918457145298 
628	 0,216294358594279 
629	 0,216403282006888 
630	 0,216093195060987 
631	 0,216548837646764 
632	 0,217349480507148 
633	 0,217570457837115 
634	 0,218108173681921 
635	 0,219133459942784 
636	 0,220273518824839 
637	 0,22128350307155 
638	 0,2220003216124 
639	 0,223036936204594 
640	 0,224158509285583 
641	 0,224411539905867 
642	 0,22503611159659 
643	 0,226342160321836 
644	 0,226928902888861 
645	 0,227218178581648 
646	 0,227928325037514 
647	 0,227913806343178 
648	 0,227015572355762 
649	 0,225607656909321 
650	 0,224662552082052 
651	 0,224658559994295 
652	 0,223421307989347 
653	 0,221563545211116 
654	 0,221093224705071 
655	 0,220078318281451 
656	 0,21798037499302 
657	 0,215499676728482 
658	 0,213090824622573 
659	 0,21118113591337 
660	 0,209580110491486 
661	 0,208188356461971 
662	 0,206932910605478 
663	 0,205423465774362 
664	 0,203550888114502 
665	 0,202113353048262 
666	 0,201005067832709 
667	 0,199912556155201 
668	 0,198770855606526 
669	 0,197730449301999 
670	 0,197460600688805 
671	 0,197429748542993 
672	 0,197208717398573 
673	 0,197247979927589 
674	 0,197351805275763 
675	 0,196824532042518 
676	 0,19670153378985 
677	 0,19719436705978 
678	 0,197087924543571 
679	 0,196980160211291 
680	 0,197676468330608 
681	 0,197581677108929 
682	 0,196987179981497 
683	 0,197956303420125 
684	 0,199388067658474 
685	 0,200642669920348 
686	 0,201995305111866 
687	 0,203834834052659 
688	 0,206826980486713 
689	 0,209618271271676 
690	 0,212172802135776 
691	 0,216057402437014 
692	 0,221130827103926 
693	 0,227159873149515 
694	 0,233192260498897 
695	 0,239539045744441 
696	 0,247466772144462 
697	 0,256307593577129 
698	 0,265717178998786 
699	 0,275354425109363 
700	 0,285548423302035 
701	 0,296751431236005 
702	 0,307724792848288 
703	 0,318262823714782 
704	 0,328964369802595 
705	 0,339742107867762 
706	 0,350434521638631 
707	 0,360505850756128 
708	 0,37002940237851 
709	 0,379267218837813 
710	 0,387927526394324 
711	 0,396119788572796 
712	 0,404681848355843 
713	 0,412688939936779 
714	 0,419306008700768 
715	 0,425768525584359 
716	 0,432175406965848 
717	 0,438072859210544 
718	 0,443709014357472 
719	 0,449106185389167 
720	 0,453732499783978 
721	 0,457831704006939 
722	 0,461789104434174 
723	 0,465275143862617 
724	 0,468411909430456 
725	 0,471836601653768 
726	 0,474754829561181 
727	 0,476769568999747 
728	 0,478915140193816 
729	 0,481063627855647 
730	 0,482698393137122 
731	 0,484355670848915 
732	 0,486136120900797 
733	 0,487743381258718 
734	 0,489080360405467 
735	 0,490095349726811 
736	 0,491070752276968 
737	 0,492104665133011 
738	 0,493294976548568 
739	 0,494402623548413 
740	 0,495259399265935 
741	 0,495554126047908 
742	 0,495838927595098 
743	 0,496755754883801 
744	 0,497328227094518 
745	 0,497547473263382 
746	 0,498045365168984 
747	 0,498830435173862 
748	 0,499778566549147 
749	 0,499923756574309 
750	 0,499768504384555 
751	 0,500246169933257 
752	 0,500944481332222 
753	 0,501639949610487 
754	 0,501945170001153 
755	 0,502099759760027 
756	 0,502309122196199 
757	 0,502713419720816 
758	 0,503180622280688 
759	 0,503378451151085 
760	 0,503698466230336 
761	 0,504142060449302 
762	 0,50407584732957 
763	 0,504059675564709 
764	 0,50459612546203 
765	 0,504666018795921 
766	 0,504362696422219 
767	 0,504402639793511 
768	 0,504668533616028 
769	 0,505042088953978 
770	 0,504988863098739 
771	 0,504941383737799 
772	 0,505444593462731 
773	 0,505731919962824 
774	 0,505746489669234 
775	 0,505869768641259 
776	 0,506068933617891 
777	 0,506275791131547 
778	 0,506069337456097 
779	 0,505826158199926 
780	 0,506161192575465 
781	 0,506193774740122 
782	 0,505900039043303 
783	 0,506066033587492 
784	 0,506308750631518 
785	 0,506382205575557 
786	 0,506467165099211 
787	 0,506615989580724 
788	 0,50688490175766 
789	 0,507119382683109 
790	 0,50726338738718 
791	 0,507324290685565 
792	 0,507391564282834 
793	 0,507493307543007 
794	 0,507091672500864 
795	 0,506521650734398 
796	 0,506651161488168 
797	 0,506968507064068 
798	 0,507259372939061 
799	 0,507396292631434 
800	 0,507366054081623 
801	 0,5072012238529 
802	 0,507381482623294 
803	 0,507807275833582 
804	 0,508022681834799 
805	 0,50795445721445 
806	 0,507732436227455 
807	 0,508349684415959 
808	 0,508834169224837 
809	 0,508157904441542 
810	 0,508282198782014 
811	 0,509099539599631 
812	 0,50911905594839 
813	 0,509185357368198 
814	 0,5095535928234 
815	 0,509616312783866 
816	 0,509640508343547 
817	 0,509980106878175 
818	 0,509801746362722 
819	 0,509352760512182 
820	 0,509944166722962 
821	 0,510448298398583 
822	 0,510384296756912 
823	 0,510395204428957 
824	 0,510585269072967 
825	 0,511000103006595 
826	 0,511368338194185 
827	 0,511527692165592 
828	 0,511236021919406 
829	 0,510924186100764 
830	 0,51082450778669 
831	 0,510715105928357 
832	 0,510725240573389 
833	 0,511049836955232 
834	 0,510976444654251 
835	 0,510636167047818 
836	 0,511026656166717 
837	 0,51170177561433 
838	 0,512298380323085 
839	 0,51224509964284 
840	 0,511672172260796 
841	 0,510871604783706 
842	 0,511055329052182 
843	 0,511938023168486 
844	 0,511442701972388 
845	 0,510903740426622 
846	 0,511037818500697 
847	 0,511347599058754 
848	 0,511613460922053 
849	 0,511611101295691 
850	 0,511339451948772 
851	 0,510926822356135 
852	 0,510764856164502 
853	 0,510630804325141 
854	 0,510425753483058 
855	 0,510339286238892 
856	 0,510248082701913 
857	 0,509962296229295 
858	 0,510300607700084 
859	 0,511092178835466 
860	 0,511220142928885 
861	 0,510929071010565 
862	 0,510409308053356 
863	 0,510080426348232 
864	 0,509868996652007 
865	 0,5096121655736 
866	 0,510107995149783 
867	 0,511041811431754 
868	 0,510902146815497 
869	 0,510784869654947 
870	 0,511131617918734 
871	 0,511310135549334 
872	 0,511198742842473 
873	 0,510745792804063 
874	 0,51069489162486 
875	 0,510993013416967 
876	 0,510988165899035 
877	 0,510804935082359 
878	 0,51056773950035 
879	 0,510687091011038 
880	 0,511044888549643 
881	 0,511446222673786 
882	 0,511412951815869 
883	 0,511084408927059 
884	 0,511041052088706 
885	 0,511412013999974 
886	 0,511985048154539 
887	 0,511348567193493 
888	 0,510636262378175 
889	 0,510948964665781 
890	 0,511308045115987 
891	 0,511659620973616 
892	 0,512377209287447 
893	 0,512187160644043 
894	 0,511185750702102 
895	 0,511781040069691 
896	 0,512502686030835 
897	 0,51216183346396 
898	 0,511525076387671 
899	 0,511028268204581 
900	 0,511207688758789 
901	 0,511600864578184 
902	 0,511969288829615 
903	 0,512098717669045 
904	 0,51189316009906 
905	 0,511353019468299 
906	 0,51086196314158 
907	 0,510607966418072 
908	 0,510757200069145 
909	 0,511265988371544 
910	 0,511715831447025 
911	 0,51087592312477 
912	 0,510280952766099 
913	 0,510551587374691 
914	 0,510568804763123 
915	 0,510406589548091 
916	 0,510266066620979 
917	 0,510416960136184 
918	 0,510685642598264 
919	 0,510520856208995 
920	 0,51015073632764 
921	 0,509720475796962 
922	 0,509561156555722 
923	 0,509292242907251 
924	 0,508654019777199 
925	 0,508511613337735 
926	 0,508491735116463 
927	 0,507667121059518 
928	 0,507199216094577 
929	 0,507294385055601 
930	 0,507538740240677 
931	 0,507048494045292 
932	 0,505550528638835 
933	 0,505073703755347 
934	 0,504992156289712 
935	 0,50420537481174 
936	 0,502967688474956 
937	 0,501818084739358 
938	 0,502278210739654 
939	 0,501678622848724 
940	 0,499719689876418 
941	 0,500670278802996 
942	 0,501389328835344 
943	 0,49910599552561 
944	 0,497035327357122 
945	 0,496008376298712 
946	 0,496554575548576 
947	 0,495651268267793 
948	 0,493184540963112 
949	 0,492355357418233 
950	 0,491681502613846 
951	 0,490312092408058 
952	 0,488706162757702 
953	 0,48664458146748 
954	 0,483945090756881 
955	 0,483743117524207 
956	 0,484926106228644 
957	 0,482852828089569 
958	 0,481082354458448 
959	 0,480634712508182 
960	 0,48035384840168 
961	 0,479901697359502 
962	 0,479110065057911 
963	 0,478728476442201 
964	 0,478513258612215 
965	 0,477936806108693 
966	 0,477627200815238 
967	 0,477425186543813 
968	 0,476184663432148 
969	 0,476077527483932 
970	 0,477385641143286 
971	 0,476224118334947 
972	 0,474862338398066 
973	 0,475455542514706 
974	 0,47586755271674 
975	 0,475542206886807 
976	 0,474075914756852 
977	 0,474733816336381 
978	 0,477324760175283 
979	 0,47798019351576 
980	 0,477597113208753 
981	 0,476642954953673 
982	 0,474972395705536 
983	 0,474904521497185 
984	 0,478294157389894 
985	 0,478805160969947 
986	 0,477648227231793 
987	 0,479526293077665 
988	 0,48100635042322 
989	 0,481245377015428 
990	 0,480709508743128 
991	 0,48084623068636 
992	 0,482081117633649 
993	 0,48194048875913 
994	 0,480881712736848 
995	 0,479826424337088 
996	 0,481084941617653 
997	 0,484713824945551 
998	 0,490072432539017 
999	 0,491087422019624 
1000	 0,487609049880373 
1001	 0,48606912280736 
1002	 0,48501205746667 
1003	 0,484367244493492 
1004	 0,487358362744689 
1005	 0,490070478672445 
1006	 0,488812679783264 
1007	 0,488361876208015 
1008	 0,488669877937983 
1009	 0,4881336265074 
1010	 0,489755769554157 
1011	 0,49289928532583 
1012	 0,493035793528424 
1013	 0,492584917900005 
1014	 0,492784978042304 
1015	 0,493887782184342 
1016	 0,496723481694992 
1017	 0,501181488551678 
1018	 0,500690308784876 
1019	 0,496765896097294 
1020	 0,493400596154601 
1021	 0,493186268638625 
1022	 0,495939666334304 
1023	 0,499082269792919 
1024	 0,501198707529181 
1025	 0,501880384876495 
1026	 0,502684565551282 
1027	 0,505012907880463 
1028	 0,508724337150128 
1029	 0,506977596483936 
1030	 0,503324542416832 
1031	 0,502742245099501 
1032	 0,502663470001271 
1033	 0,50360686205769 
1034	 0,507594561318893 
1035	 0,505993477059571 
1036	 0,500559680974623 
1037	 0,507084305778202 
1038	 0,510086718324663 
1039	 0,505178172669356 
1040	 0,508662057348793 
1041	 0,513028623590316 
1042	 0,511542662175052 
1043	 0,507219539741648 
1044	 0,504986693149583 
1045	 0,510540059074617 
1046	 0,513824439082976 
1047	 0,512930395232756 
1048	 0,508322369771731 
1049	 0,511626716938163 
1050	 0,521354866123888 
1051	 0,517869792158848 
1052	 0,514567301994171 
1053	 0,517328353110421 
1054	 0,517162519694647 
1055	 0,514705478096877 
1056	 0,511285934602922 
1057	 0,50809949137958 
1058	 0,508635093015022 
1059	 0,516741705059834 
1060	 0,521410232320263 
1061	 0,522481162608626 
1062	 0,525677860992642 
1063	 0,519152374067338 
1064	 0,505083222656121 
1065	 0,503696679119177 
1066	 0,514232946891015 
1067	 0,529971506844649 
1068	 0,524613512873782 
1069	 0,513079598987348 
1070	 0,50880165517185 
1071	 0,517162823940493 
1072	 0,527835085724596 
1073	 0,527461987148885 
1074	 0,525315708293493 
1075	 0,524066437013066 
