Wavelength	GRA-VIE00498.asd
325	 0,242297969357258 
326	 0,359913255549705 
327	 0,403809852891303 
328	 0,326423739908357 
329	 0,420703347425813 
330	 0,443342293470546 
331	 0,224617643359253 
332	 0,247807325766046 
333	 0,437224820958654 
334	 0,332897460467037 
335	 0,318387546358633 
336	 0,44078233994561 
337	 0,461564347786183 
338	 0,411150211328188 
339	 0,313490021991987 
340	 0,238953349553886 
341	 0,209846328197879 
342	 0,268758554896512 
343	 0,327134605311835 
344	 0,352913921147078 
345	 0,35059781796443 
346	 0,325312589461177 
347	 0,284308931306545 
348	 0,254648535067201 
349	 0,255058120407939 
350	 0,323033948435887 
351	 0,334351336753331 
352	 0,272413468146952 
353	 0,286297582582217 
354	 0,334682369487057 
355	 0,355286938236172 
356	 0,34672549437258 
357	 0,318376461403079 
358	 0,297058482012137 
359	 0,291947166333897 
360	 0,304060485534328 
361	 0,30028828067538 
362	 0,302420399949879 
363	 0,344673271489183 
364	 0,375953929080232 
365	 0,373753084089469 
366	 0,298281376586326 
367	 0,261692462590265 
368	 0,321519176624459 
369	 0,323281521324806 
370	 0,291387469204104 
371	 0,300221431255048 
372	 0,310745575255259 
373	 0,314879462870479 
374	 0,32161181110607 
375	 0,331885105844895 
376	 0,345038634612593 
377	 0,337440251607378 
378	 0,320957875627082 
379	 0,329938152741726 
380	 0,338650574515556 
381	 0,339326251732777 
382	 0,332084139598286 
383	 0,321190317775279 
384	 0,312490724537309 
385	 0,328032619851387 
386	 0,352982513822748 
387	 0,347164423250204 
388	 0,334840992600761 
389	 0,327853719419575 
390	 0,3327539700271 
391	 0,338718042575406 
392	 0,332588252438195 
393	 0,332556865176314 
394	 0,338128496473123 
395	 0,334073322911176 
396	 0,334432683337221 
397	 0,343602339205208 
398	 0,341820407031971 
399	 0,33110080908411 
400	 0,316438513482475 
401	 0,316757585421169 
402	 0,330252171474806 
403	 0,331137198299393 
404	 0,326420249471174 
405	 0,322603649559936 
406	 0,330695353015734 
407	 0,342186651173135 
408	 0,336441374582625 
409	 0,331289390353633 
410	 0,329620177562882 
411	 0,317624023669359 
412	 0,314252087989993 
413	 0,335214245390891 
414	 0,339276537243736 
415	 0,3283414947782 
416	 0,328296012350298 
417	 0,326870992100428 
418	 0,321197923788747 
419	 0,321755979950712 
420	 0,326792093292764 
421	 0,333147006394706 
422	 0,331210010312435 
423	 0,323388952873985 
424	 0,324716818787022 
425	 0,328059381982314 
426	 0,329037370704037 
427	 0,329169354362635 
428	 0,329333601202902 
429	 0,330820572948029 
430	 0,332688379128852 
431	 0,334109051518224 
432	 0,333002245331176 
433	 0,332088626176822 
434	 0,333769815721663 
435	 0,337003891332109 
436	 0,339377623986265 
437	 0,335091566074319 
438	 0,332770723548762 
439	 0,335120588491087 
440	 0,334477325572762 
441	 0,333483011576644 
442	 0,33617692710705 
443	 0,337676617802858 
444	 0,337476870955628 
445	 0,337955547027475 
446	 0,339371342743794 
447	 0,341458620967181 
448	 0,340192818667642 
449	 0,337842042893675 
450	 0,33973234818229 
451	 0,340045897902587 
452	 0,338323852980762 
453	 0,340696738385797 
454	 0,344460473232241 
455	 0,346692843752848 
456	 0,345844985172798 
457	 0,343052491622771 
458	 0,341531102623941 
459	 0,343153343973887 
460	 0,347686364249035 
461	 0,347858642229657 
462	 0,345568564966112 
463	 0,344355892623776 
464	 0,343040820080499 
465	 0,34230590886677 
466	 0,345245599096588 
467	 0,34734948633552 
468	 0,345965596713272 
469	 0,346243660382756 
470	 0,346968971241835 
471	 0,343860079210198 
472	 0,343973614334685 
473	 0,347928090707472 
474	 0,346957850475978 
475	 0,345345750901292 
476	 0,34753228077885 
477	 0,347188224649 
478	 0,344998155889347 
479	 0,346440542702971 
480	 0,347559940239358 
481	 0,346665356994905 
482	 0,345440913246334 
483	 0,345068742455984 
484	 0,347030453657121 
485	 0,348295858785483 
486	 0,347925767047104 
487	 0,345705709681591 
488	 0,34437899108514 
489	 0,345846681830594 
490	 0,347124073634974 
491	 0,347432853466758 
492	 0,346049684370368 
493	 0,345535282178985 
494	 0,346571238196151 
495	 0,347259148172882 
496	 0,347197124012278 
497	 0,346146885166815 
498	 0,34617854286763 
499	 0,346848894453017 
500	 0,34479626640452 
501	 0,344722087579204 
502	 0,348546083226178 
503	 0,348599672999391 
504	 0,34689500234321 
505	 0,348649202916154 
506	 0,350579977341959 
507	 0,351638416834046 
508	 0,351609093704629 
509	 0,351628663861112 
510	 0,352668147028726 
511	 0,353227441286405 
512	 0,35322752813527 
513	 0,353146919488745 
514	 0,3533836362049 
515	 0,35399996888176 
516	 0,354088598669799 
517	 0,35373597705662 
518	 0,353127638668876 
519	 0,354280006552506 
520	 0,356621771805628 
521	 0,356156193961433 
522	 0,355335963157299 
523	 0,355911740744983 
524	 0,356024998759305 
525	 0,355914976624757 
526	 0,356929645709099 
527	 0,357014452320521 
528	 0,355723847222677 
529	 0,354640500680631 
530	 0,354459439494444 
531	 0,355762135140312 
532	 0,356348805610566 
533	 0,356059876362336 
534	 0,356286022537923 
535	 0,356249060327184 
536	 0,355639837455485 
537	 0,35588342004587 
538	 0,35629185194243 
539	 0,355134711999832 
540	 0,355029372946419 
541	 0,356438362559896 
542	 0,357542004912341 
543	 0,357857724192368 
544	 0,357092345426465 
545	 0,356934488825685 
546	 0,357480609575288 
547	 0,357839338142626 
548	 0,358531826839046 
549	 0,359548305339922 
550	 0,35909128106769 
551	 0,358417867506713 
552	 0,359802473895647 
553	 0,360630517574834 
554	 0,360283247763479 
555	 0,359531768743658 
556	 0,358838014760884 
557	 0,358577747647132 
558	 0,358546374347468 
559	 0,358561580240571 
560	 0,358272057069338 
561	 0,35796869788332 
562	 0,357846754643097 
563	 0,358321127254373 
564	 0,358746837614881 
565	 0,35823641880712 
566	 0,358520892925328 
567	 0,359730783235917 
568	 0,360789991986094 
569	 0,361216448636364 
570	 0,360825859385753 
571	 0,361316077351345 
572	 0,362665170195265 
573	 0,364292881213073 
574	 0,365358500663243 
575	 0,365725901604134 
576	 0,366730752013269 
577	 0,367873401244548 
578	 0,368513820324864 
579	 0,369686291890227 
580	 0,371340573886482 
581	 0,372689562507273 
582	 0,373628700148942 
583	 0,374159937300303 
584	 0,37499811975745 
585	 0,37594501909747 
586	 0,376438127408758 
587	 0,377249357035506 
588	 0,378417276703066 
589	 0,379063166611198 
590	 0,379431463371876 
591	 0,379800812033986 
592	 0,380400473509518 
593	 0,380982551580485 
594	 0,380660436486828 
595	 0,380508495943163 
596	 0,381089355548848 
597	 0,38250783759346 
598	 0,383679519304829 
599	 0,383019454912682 
600	 0,382369959348387 
601	 0,382183521929878 
602	 0,381963693760408 
603	 0,381702913980485 
604	 0,381368725562237 
605	 0,38058501853727 
606	 0,379691227140207 
607	 0,379701961223391 
608	 0,379458683524108 
609	 0,378628957408531 
610	 0,378068966688522 
611	 0,377558144838817 
612	 0,376741768138608 
613	 0,376325259972578 
614	 0,376283694586873 
615	 0,375954544150612 
616	 0,375551490711859 
617	 0,375222552500194 
618	 0,374930772001596 
619	 0,374923658172889 
620	 0,375777443088486 
621	 0,376013940059886 
622	 0,375350952277993 
623	 0,375086602082463 
624	 0,375075704624036 
625	 0,375099633590544 
626	 0,375489750675655 
627	 0,37613288740699 
628	 0,376628201177184 
629	 0,376730638629942 
630	 0,376398767873105 
631	 0,376361701363533 
632	 0,376709902387115 
633	 0,377442200501294 
634	 0,377865609685017 
635	 0,377952147913271 
636	 0,378444586260013 
637	 0,379525576160444 
638	 0,38120869905118 
639	 0,381879466837153 
640	 0,381775808358731 
641	 0,382241065056919 
642	 0,383046103868128 
643	 0,384009488003065 
644	 0,384330188216914 
645	 0,384591103381591 
646	 0,385646593627355 
647	 0,38590722541225 
648	 0,385108341568689 
649	 0,383738671058619 
650	 0,38277655911007 
651	 0,38273846478283 
652	 0,381794725045932 
653	 0,380205806640334 
654	 0,379038662145455 
655	 0,378052884125539 
656	 0,377142712765995 
657	 0,376037108215993 
658	 0,374805812866041 
659	 0,373529160920478 
660	 0,371719210033283 
661	 0,369612542025964 
662	 0,368041330925059 
663	 0,366931315063208 
664	 0,366189957696252 
665	 0,365350503976373 
666	 0,364335706862558 
667	 0,363102975799039 
668	 0,362447960325396 
669	 0,362383005433019 
670	 0,361956109430366 
671	 0,361523875209505 
672	 0,361360921487428 
673	 0,360972993696782 
674	 0,360531523653048 
675	 0,360694963968428 
676	 0,360618988942666 
677	 0,360175399125923 
678	 0,360478724090604 
679	 0,361147169466302 
680	 0,361616564360869 
681	 0,361591250344337 
682	 0,36146771448976 
683	 0,362678701623803 
684	 0,364303104373824 
685	 0,365763008720272 
686	 0,367109780737724 
687	 0,368666691090056 
688	 0,370924552450426 
689	 0,374063383453349 
690	 0,377993680638511 
691	 0,381966440612927 
692	 0,386404594774271 
693	 0,391697104855786 
694	 0,397457546495844 
695	 0,403709639924166 
696	 0,410743843178448 
697	 0,41823054472582 
698	 0,425972922010928 
699	 0,433816170664707 
700	 0,442064548888348 
701	 0,451110421033884 
702	 0,459932020473085 
703	 0,468391949122611 
704	 0,477173380069806 
705	 0,48541068319504 
706	 0,492661488375881 
707	 0,500301772327368 
708	 0,507927833170327 
709	 0,51439945501096 
710	 0,520450118138991 
711	 0,526417063453478 
712	 0,532777761364614 
713	 0,53847128953503 
714	 0,542608039772349 
715	 0,546933156780522 
716	 0,551503415665194 
717	 0,555523937804731 
718	 0,559260638784462 
719	 0,562748497140498 
720	 0,565556258642627 
721	 0,56811922598426 
722	 0,571043366365075 
723	 0,573582185506319 
724	 0,575688486484796 
725	 0,577838326171795 
726	 0,579934005597182 
727	 0,581871449369667 
728	 0,583290192597068 
729	 0,584509175396025 
730	 0,586216368636121 
731	 0,587316984050202 
732	 0,587793658786942 
733	 0,589057751616344 
734	 0,590431152954642 
735	 0,591268716909513 
736	 0,591671900905552 
737	 0,591955095951275 
738	 0,592839339090812 
739	 0,593748312855225 
740	 0,594452749333102 
741	 0,595046747741533 
742	 0,595417973644356 
743	 0,595447154732149 
744	 0,595622873301642 
745	 0,596054374110949 
746	 0,596653304877813 
747	 0,597289082057284 
748	 0,597877987847467 
749	 0,598499171614074 
750	 0,59899372838736 
751	 0,599107303142866 
752	 0,599323669448576 
753	 0,599714741817065 
754	 0,59997146452237 
755	 0,600189043666144 
756	 0,600441498502678 
757	 0,600705697282458 
758	 0,600992477073509 
759	 0,601330647770116 
760	 0,601668526301954 
761	 0,601943662440849 
762	 0,602000158316513 
763	 0,601959128005505 
764	 0,601951875340503 
765	 0,602086244165143 
766	 0,602263752123055 
767	 0,602168333432512 
768	 0,60201663127769 
769	 0,601982671124594 
770	 0,602504070663329 
771	 0,603074760700911 
772	 0,603069672790903 
773	 0,602861038839851 
774	 0,602670734374209 
775	 0,602872659677824 
776	 0,603134137818863 
777	 0,603275374519201 
778	 0,603390010794942 
779	 0,603453379949061 
780	 0,603426801760106 
781	 0,603134644585226 
782	 0,602782989166831 
783	 0,603202452401953 
784	 0,603829762318254 
785	 0,604211888414582 
786	 0,603979283742877 
787	 0,603493311296674 
788	 0,60347141648962 
789	 0,603712833876342 
790	 0,604075222388157 
791	 0,604225997733886 
792	 0,604158424404848 
793	 0,603930274114548 
794	 0,604122282562627 
795	 0,60454076202828 
796	 0,604590289634557 
797	 0,604326709437978 
798	 0,60392586624115 
799	 0,604109137331252 
800	 0,604615416770971 
801	 0,605107876316938 
802	 0,604900293464965 
803	 0,604350808410396 
804	 0,604728738948638 
805	 0,60508975672807 
806	 0,605132244160235 
807	 0,605152862235954 
808	 0,605298660490437 
809	 0,605689200429666 
810	 0,605913891850544 
811	 0,606042155725405 
812	 0,606593505363592 
813	 0,60677683680881 
814	 0,60641483642262 
815	 0,606614066060073 
816	 0,60703164927177 
817	 0,607148530081315 
818	 0,607182879091223 
819	 0,607293005782441 
820	 0,607863986960643 
821	 0,608223323229186 
822	 0,608090000965335 
823	 0,607989196123715 
824	 0,607919303679803 
825	 0,607811007990443 
826	 0,607933695245552 
827	 0,608096984676947 
828	 0,60743011883164 
829	 0,60714560872272 
830	 0,607728335086416 
831	 0,607766964656962 
832	 0,607599691822278 
833	 0,607889401794103 
834	 0,608321501275475 
835	 0,608655448542636 
836	 0,608403860439687 
837	 0,608000706389204 
838	 0,607733802276927 
839	 0,607700242196981 
840	 0,607856545735512 
841	 0,60811205060442 
842	 0,608392325671739 
843	 0,608664204635217 
844	 0,609040200654104 
845	 0,608879882212662 
846	 0,608037076514297 
847	 0,608120713436753 
848	 0,608548978930093 
849	 0,608245282618562 
850	 0,608498659858451 
851	 0,609220230093278 
852	 0,609086177801398 
853	 0,608878482925824 
854	 0,608983929343263 
855	 0,608967946916511 
856	 0,608842473257114 
857	 0,608684391994472 
858	 0,608679185973878 
859	 0,608917085541218 
860	 0,609581536738858 
861	 0,60986065152445 
862	 0,609451600658844 
863	 0,609434959151259 
864	 0,6097308723335 
865	 0,610069683822669 
866	 0,61003848727193 
867	 0,609867813710485 
868	 0,610689179659881 
869	 0,611050702271193 
870	 0,61043829609883 
871	 0,610359046603716 
872	 0,610466819577586 
873	 0,610181541042698 
874	 0,60958581464736 
875	 0,609043184749607 
876	 0,609487620362377 
877	 0,610191632746329 
878	 0,610714767525175 
879	 0,610667989092003 
880	 0,610200723136187 
881	 0,609567792905254 
882	 0,609539433830974 
883	 0,609967636731168 
884	 0,61003832716679 
885	 0,609897734440001 
886	 0,609677150385395 
887	 0,609885616646775 
888	 0,610184557229777 
889	 0,610233081079769 
890	 0,610258904405199 
891	 0,610342696035475 
892	 0,610592710169758 
893	 0,610698621152904 
894	 0,610620406300652 
895	 0,610679310179556 
896	 0,610781907497614 
897	 0,610838427743622 
898	 0,610746572851841 
899	 0,610770451937601 
900	 0,611425016853371 
901	 0,611533815056821 
902	 0,611080779220951 
903	 0,611329744330438 
904	 0,611880819473593 
905	 0,612365721428294 
906	 0,612082535947518 
907	 0,611620522589342 
908	 0,611930518083264 
909	 0,61175783899452 
910	 0,611153666520573 
911	 0,611290242497602 
912	 0,611202532018216 
913	 0,610624444426559 
914	 0,610713391986299 
915	 0,611418829374143 
916	 0,612472007815806 
917	 0,612195850751271 
918	 0,610962167331222 
919	 0,610485553939786 
920	 0,610918610372718 
921	 0,61196166036529 
922	 0,611798789550846 
923	 0,61087210370745 
924	 0,609741987441245 
925	 0,609251640785461 
926	 0,609367334982883 
927	 0,609742552957983 
928	 0,609464292229813 
929	 0,608834548616408 
930	 0,610153174650008 
931	 0,611068513533021 
932	 0,610293243688558 
933	 0,609238110907898 
934	 0,608821290285611 
935	 0,609907885892061 
936	 0,609736292766582 
937	 0,608350702765916 
938	 0,607582464190833 
939	 0,607866577074174 
940	 0,609037498238861 
941	 0,608955106212738 
942	 0,608771384435633 
943	 0,609512201009332 
944	 0,609756706149236 
945	 0,609351371338031 
946	 0,608473658684516 
947	 0,607379864654172 
948	 0,606234729596721 
949	 0,605186723522923 
950	 0,604204257734755 
951	 0,603286130957511 
952	 0,602372844375282 
953	 0,602084666981552 
954	 0,603040561584848 
955	 0,602295226562054 
956	 0,600278826829328 
957	 0,599553261989972 
958	 0,600592921447902 
959	 0,602531300047555 
960	 0,600405084284345 
961	 0,598031103058011 
962	 0,598348940370175 
963	 0,599069331695807 
964	 0,59959942973136 
965	 0,599526657362854 
966	 0,599173149854051 
967	 0,59861707106041 
968	 0,597773239044939 
969	 0,596959138584426 
970	 0,596762486634574 
971	 0,599400583044906 
972	 0,601301388132114 
973	 0,599417764779873 
974	 0,598955853107635 
975	 0,59931159327709 
976	 0,59783019251783 
977	 0,596698705772629 
978	 0,596608101327676 
979	 0,597860846534182 
980	 0,598317307351136 
981	 0,59754498472293 
982	 0,600295397713278 
983	 0,601973440193757 
984	 0,598127860887122 
985	 0,597158636097928 
986	 0,598775320117866 
987	 0,5992925048923 
988	 0,599256480851675 
989	 0,599373438371738 
990	 0,602052186228015 
991	 0,604421267516028 
992	 0,604716670521326 
993	 0,602461865993193 
994	 0,6006591205778 
995	 0,602265848847564 
996	 0,604856819091007 
997	 0,606651255184769 
998	 0,605131448430532 
999	 0,605766685172009 
1000	 0,608681518656379 
1001	 0,608542141661239 
1002	 0,606935029928251 
1003	 0,605518402635194 
1004	 0,608661536598777 
1005	 0,612227300191446 
1006	 0,611947644972722 
1007	 0,610189525163613 
1008	 0,608830531410813 
1009	 0,610378822082272 
1010	 0,611319397413315 
1011	 0,611370104655483 
1012	 0,613403878613238 
1013	 0,612806204756135 
1014	 0,609141021225103 
1015	 0,610872312562397 
1016	 0,614867710142322 
1017	 0,617455875454999 
1018	 0,615296532309521 
1019	 0,612641050755039 
1020	 0,61641004574328 
1021	 0,616660159725975 
1022	 0,614921720880672 
1023	 0,622666169440877 
1024	 0,626654793749131 
1025	 0,623394912318236 
1026	 0,619379561778401 
1027	 0,618086476474769 
1028	 0,621035384481843 
1029	 0,621425386962764 
1030	 0,621604793192821 
1031	 0,624760045897628 
1032	 0,624088376661914 
1033	 0,621290498866615 
1034	 0,62250628698353 
1035	 0,622577437204506 
1036	 0,621610730515995 
1037	 0,624911827931267 
1038	 0,627932641332879 
1039	 0,628546327641525 
1040	 0,628114492515141 
1041	 0,629059267962711 
1042	 0,632173029347307 
1043	 0,626641805022698 
1044	 0,620263420048741 
1045	 0,624304520680707 
1046	 0,624040273998049 
1047	 0,620659372401214 
1048	 0,62493965391804 
1049	 0,624656782908638 
1050	 0,618890797928099 
1051	 0,619281850621401 
1052	 0,621590053540377 
1053	 0,623470511087569 
1054	 0,624520890958993 
1055	 0,624163115412043 
1056	 0,622750549721541 
1057	 0,627585499237188 
1058	 0,631331804800028 
1059	 0,623077394197987 
1060	 0,623142502111175 
1061	 0,625358560079089 
1062	 0,60527471245026 
1063	 0,606196465285659 
1064	 0,630365712649627 
1065	 0,632975955287867 
1066	 0,634630307840581 
1067	 0,641529578615673 
1068	 0,637700053434171 
1069	 0,629116975728989 
1070	 0,621972325831517 
1071	 0,617815665406883 
1072	 0,619758387893432 
1073	 0,62992701356 
1074	 0,631741007049368 
1075	 0,62808044848496 
