Wavelength	GRA-VIE00835.asd
325	 0,180294850743624 
326	 0,217869218191392 
327	 0,310870302471861 
328	 0,361582987445052 
329	 0,443678792245945 
330	 0,423011579845585 
331	 0,22416192909416 
332	 0,257897508081586 
333	 0,46907814703023 
334	 0,462057884622511 
335	 0,504372475373822 
336	 0,59848541955386 
337	 0,510643758296183 
338	 0,359825202289077 
339	 0,235267627474099 
340	 0,233315218267018 
341	 0,307729403804044 
342	 0,268118406680769 
343	 0,284909509803562 
344	 0,356786357511349 
345	 0,294408266968422 
346	 0,205304926741385 
347	 0,220170849985455 
348	 0,254502148527443 
349	 0,268419156235803 
350	 0,204217450618923 
351	 0,166297861790339 
352	 0,179592082110008 
353	 0,21219128592618 
354	 0,240376434494479 
355	 0,246135320612097 
356	 0,247803720747382 
357	 0,241745677819755 
358	 0,204586703217924 
359	 0,171938565504531 
360	 0,161061205893399 
361	 0,171835510649389 
362	 0,192704527886694 
363	 0,209946508681967 
364	 0,211873240904826 
365	 0,200128352051341 
366	 0,192017888508705 
367	 0,187538439156232 
368	 0,186778386494478 
369	 0,189340461948195 
370	 0,191455669243924 
371	 0,187344407622084 
372	 0,184245352288104 
373	 0,182146976382065 
374	 0,171016152447865 
375	 0,163517080669822 
376	 0,168054516490429 
377	 0,165380206911029 
378	 0,164635442290214 
379	 0,194069546144368 
380	 0,20932991439388 
381	 0,199622286375603 
382	 0,174497069875946 
383	 0,156612124173963 
384	 0,167472730139688 
385	 0,17928228312244 
386	 0,180565849831319 
387	 0,155743238559962 
388	 0,148558133905701 
389	 0,170831108438357 
390	 0,178764504593884 
391	 0,174321312569212 
392	 0,164195182468516 
393	 0,149572859264657 
394	 0,138696908625502 
395	 0,15513438817372 
396	 0,168128446423217 
397	 0,163848163349622 
398	 0,155416660205177 
399	 0,147219511781825 
400	 0,141758923239469 
401	 0,14534448171856 
402	 0,153596538900898 
403	 0,143538975003722 
404	 0,141406037698806 
405	 0,161607522947921 
406	 0,157751953460515 
407	 0,14160213888788 
408	 0,151656107365194 
409	 0,152406534875572 
410	 0,139528709745187 
411	 0,140021794317649 
412	 0,146797487674194 
413	 0,151524435916816 
414	 0,1474813748817 
415	 0,138946870482975 
416	 0,141086217769525 
417	 0,140321010492969 
418	 0,133238046124774 
419	 0,133176928969834 
420	 0,136575871125867 
421	 0,137606471518067 
422	 0,135254688967601 
423	 0,13160377268881 
424	 0,134626683850013 
425	 0,135847776682943 
426	 0,131128165202239 
427	 0,132148521359264 
428	 0,135811963933874 
429	 0,133816914187806 
430	 0,133858143698087 
431	 0,136845562348833 
432	 0,137027445520096 
433	 0,135274862500245 
434	 0,132927633145823 
435	 0,136207325881881 
436	 0,141151476448849 
437	 0,134374190743572 
438	 0,130342527863498 
439	 0,134052205434926 
440	 0,136859641489171 
441	 0,137911723963544 
442	 0,137292181130408 
443	 0,133604881516075 
444	 0,129140793057389 
445	 0,131812201774854 
446	 0,136534513946192 
447	 0,139606566793326 
448	 0,13833457355752 
449	 0,135495578864797 
450	 0,136879710797473 
451	 0,139118693830347 
452	 0,140607144581862 
453	 0,139086811715483 
454	 0,137431524308406 
455	 0,138275551603264 
456	 0,1383079416611 
457	 0,137602628856865 
458	 0,137900374743369 
459	 0,139189237840368 
460	 0,140796620876807 
461	 0,138418430898955 
462	 0,135631705731422 
463	 0,137652516694285 
464	 0,139451432139796 
465	 0,14007576283283 
466	 0,141139184111013 
467	 0,140976060319011 
468	 0,138856679520296 
469	 0,138705458479047 
470	 0,139281042612521 
471	 0,136656808995674 
472	 0,136373535959733 
473	 0,139281863371333 
474	 0,140371284106789 
475	 0,140679150844994 
476	 0,141439324829967 
477	 0,140777449506992 
478	 0,139282429692788 
479	 0,139531160742368 
480	 0,139741835638257 
481	 0,138907187318545 
482	 0,13588741936471 
483	 0,133648671427954 
484	 0,136710032426238 
485	 0,139053180021559 
486	 0,139363863184354 
487	 0,139554179397399 
488	 0,139582376412174 
489	 0,13945549203468 
490	 0,139804090419987 
491	 0,139950631765657 
492	 0,137849597477966 
493	 0,137100668008987 
494	 0,138359470423164 
495	 0,137623257593516 
496	 0,136188369838063 
497	 0,135829890319831 
498	 0,136304090264565 
499	 0,13709530901173 
500	 0,136636240356974 
501	 0,136855837750026 
502	 0,13854238170676 
503	 0,138464252801711 
504	 0,138030554030757 
505	 0,140540923043315 
506	 0,141817701029822 
507	 0,14078220134617 
508	 0,138445479268633 
509	 0,137268687081512 
510	 0,139211672607918 
511	 0,13971028928395 
512	 0,139265732450855 
513	 0,141781635804895 
514	 0,14345458985262 
515	 0,14292332314283 
516	 0,14292772477815 
517	 0,143176853910022 
518	 0,142851576114071 
519	 0,143268885738041 
520	 0,144173973311662 
521	 0,143360901345214 
522	 0,142702238496093 
523	 0,143456291884836 
524	 0,143395220887027 
525	 0,143084531453289 
526	 0,144842353256075 
527	 0,145383961374923 
528	 0,143934127543386 
529	 0,142902082854566 
530	 0,142630003174305 
531	 0,143244233496984 
532	 0,143312320721061 
533	 0,142714283719918 
534	 0,142142991627803 
535	 0,142194898152688 
536	 0,143104283356827 
537	 0,143764543237309 
538	 0,143545426846412 
539	 0,141430566140419 
540	 0,140824830056726 
541	 0,142300001776903 
542	 0,142885346162811 
543	 0,142867140946624 
544	 0,142694197175295 
545	 0,142541139659448 
546	 0,142697040748892 
547	 0,143948143701765 
548	 0,144337584613742 
549	 0,143210410296294 
550	 0,143412419084152 
551	 0,144246814025369 
552	 0,144141870842369 
553	 0,143765513104097 
554	 0,143235574696975 
555	 0,14223145847165 
556	 0,141634461698475 
557	 0,142119974317796 
558	 0,14261673739443 
559	 0,142743876449645 
560	 0,142075198245671 
561	 0,141585058453737 
562	 0,141590533677613 
563	 0,141215424349689 
564	 0,140755590227131 
565	 0,140693260937553 
566	 0,140687874604583 
567	 0,140825679387201 
568	 0,141762547468834 
569	 0,142472826163449 
570	 0,14235786173152 
571	 0,143063269275739 
572	 0,144391297741095 
573	 0,1454069226652 
574	 0,145964304688417 
575	 0,146327506020743 
576	 0,148433605107037 
577	 0,150404154187318 
578	 0,150079897693201 
579	 0,151129304273793 
580	 0,153537162558998 
581	 0,154675346902884 
582	 0,155016169980784 
583	 0,154940685402011 
584	 0,155354013802947 
585	 0,156445781249497 
586	 0,158325995235881 
587	 0,159786085413031 
588	 0,160583360834398 
589	 0,161676842598455 
590	 0,162762645637563 
591	 0,16351412132383 
592	 0,164010271605437 
593	 0,164211654846452 
594	 0,163864511846316 
595	 0,163890173987709 
596	 0,164605649991018 
597	 0,164816484654718 
598	 0,164798217335835 
599	 0,165157766953699 
600	 0,165492242844039 
601	 0,16568038239553 
602	 0,16580767764294 
603	 0,165471666556733 
604	 0,164440636965992 
605	 0,163832969514778 
606	 0,16360078187119 
607	 0,163146093384898 
608	 0,162508675806414 
609	 0,161638439951611 
610	 0,160206220303662 
611	 0,159169946878162 
612	 0,159695496954051 
613	 0,159845931439354 
614	 0,159375780559894 
615	 0,159316666461763 
616	 0,158977403405798 
617	 0,158035763060526 
618	 0,15769680466148 
619	 0,157784956878724 
620	 0,157575453065749 
621	 0,157587006520719 
622	 0,157864870414962 
623	 0,15789835335066 
624	 0,157770090767124 
625	 0,157619778787309 
626	 0,158026992054764 
627	 0,158781488339733 
628	 0,158911054263943 
629	 0,158963685374807 
630	 0,159228340991579 
631	 0,159678833514898 
632	 0,160132681631638 
633	 0,160283747363275 
634	 0,16062817295915 
635	 0,161314055539102 
636	 0,162229699799054 
637	 0,16336329692604 
638	 0,164631388325699 
639	 0,165033956085379 
640	 0,165078327624237 
641	 0,166598609450026 
642	 0,167713924451032 
643	 0,167836362402102 
644	 0,168383709153336 
645	 0,169128980624138 
646	 0,169610000267735 
647	 0,169948997901943 
648	 0,169966328922265 
649	 0,168913381651019 
650	 0,168176420770057 
651	 0,168523975781066 
652	 0,167829516139756 
653	 0,166432734345159 
654	 0,165704308759201 
655	 0,164708340438676 
656	 0,163238315120497 
657	 0,161744876451708 
658	 0,160294854679673 
659	 0,158918285883379 
660	 0,157207265624413 
661	 0,155272722076806 
662	 0,153563626950447 
663	 0,152424216609756 
664	 0,151815585789639 
665	 0,150041572081811 
666	 0,147891139005608 
667	 0,146852497461893 
668	 0,146471899243907 
669	 0,146450364215693 
670	 0,14602691912203 
671	 0,145918772449326 
672	 0,146562259104134 
673	 0,145809483021825 
674	 0,144348429889225 
675	 0,144725149346633 
676	 0,145190544722123 
677	 0,145114996062811 
678	 0,144671024514181 
679	 0,144414857371342 
680	 0,144978138222191 
681	 0,145587634291509 
682	 0,146078403521576 
683	 0,146477446647692 
684	 0,147343187886619 
685	 0,148964788392288 
686	 0,150690307086326 
687	 0,152548641655375 
688	 0,154647873089299 
689	 0,158050630102388 
690	 0,162709859870416 
691	 0,166701474656268 
692	 0,171400852729191 
693	 0,178032666152389 
694	 0,185005331056957 
695	 0,192325727655794 
696	 0,200809330363901 
697	 0,210092180022857 
698	 0,220029393745613 
699	 0,230805173650125 
700	 0,241990421465865 
701	 0,253022304720108 
702	 0,264431972561219 
703	 0,276163218764298 
704	 0,287689437705302 
705	 0,299157138109831 
706	 0,310549788424811 
707	 0,321151514869864 
708	 0,331115811503027 
709	 0,340919374869839 
710	 0,350069228006066 
711	 0,358567057501189 
712	 0,367032281711124 
713	 0,3751823874917 
714	 0,382728527703554 
715	 0,389267839147996 
716	 0,39519201447568 
717	 0,401764440026331 
718	 0,407737641226291 
719	 0,412650367509961 
720	 0,41703547846558 
721	 0,421104740894326 
722	 0,425078917227017 
723	 0,429082313055623 
724	 0,432961273036715 
725	 0,436163835295627 
726	 0,438956920764575 
727	 0,441492898679461 
728	 0,443566011768518 
729	 0,445423441043367 
730	 0,447521210462525 
731	 0,449452015029581 
732	 0,451165592654764 
733	 0,453045287912751 
734	 0,454601370433654 
735	 0,455449000941778 
736	 0,456395878936421 
737	 0,457609776850638 
738	 0,459133604516222 
739	 0,460459829393608 
740	 0,461354892155747 
741	 0,461874256283317 
742	 0,462327787481184 
743	 0,463059462152523 
744	 0,463838098318758 
745	 0,464621833671576 
746	 0,465423807608471 
747	 0,466316573906642 
748	 0,467283201441645 
749	 0,467968643147932 
750	 0,468439179481933 
751	 0,468856865386317 
752	 0,469381338483836 
753	 0,470069691596911 
754	 0,470950726304953 
755	 0,471574939719307 
756	 0,47168054688673 
757	 0,472114094080116 
758	 0,472676361847702 
759	 0,472612113197519 
760	 0,47310072511794 
761	 0,474234482330133 
762	 0,474605216339291 
763	 0,474470986234937 
764	 0,474204274686737 
765	 0,474644155688938 
766	 0,475533625465378 
767	 0,475761968408452 
768	 0,475831577812053 
769	 0,47596479187858 
770	 0,476263209046275 
771	 0,476846343857554 
772	 0,477809640621607 
773	 0,47802691712825 
774	 0,47762311294877 
775	 0,477810202187683 
776	 0,47812704427977 
777	 0,478341750463149 
778	 0,478442172523818 
779	 0,478643723571029 
780	 0,479266179233981 
781	 0,479672617899538 
782	 0,479815840760905 
783	 0,480171334831318 
784	 0,480696735919214 
785	 0,481298436397488 
786	 0,481442286669344 
787	 0,481372619298172 
788	 0,481655987055985 
789	 0,481989546872451 
790	 0,482308604728821 
791	 0,482727311563211 
792	 0,483037644321152 
793	 0,483099948031431 
794	 0,483337595149159 
795	 0,483589295648877 
796	 0,483267796302864 
797	 0,483630431600549 
798	 0,484756479097116 
799	 0,484863957080433 
800	 0,484697472437086 
801	 0,484998337253755 
802	 0,484840716438409 
803	 0,484486567179574 
804	 0,48499854845566 
805	 0,48554364259761 
806	 0,485864288178079 
807	 0,486348005230035 
808	 0,486815087507079 
809	 0,487063997477332 
810	 0,487433282986088 
811	 0,487880959823587 
812	 0,488044777485036 
813	 0,488426690939143 
814	 0,489116708307716 
815	 0,489285783417338 
816	 0,489342805982074 
817	 0,489845878924261 
818	 0,49038273085033 
819	 0,490888702825741 
820	 0,49149192200937 
821	 0,491929945161046 
822	 0,49207309703851 
823	 0,492011054494582 
824	 0,491924446890207 
825	 0,492027110628198 
826	 0,492550412505082 
827	 0,493245569668175 
828	 0,493165405783382 
829	 0,493079685534147 
830	 0,493360040020369 
831	 0,493579590359368 
832	 0,493766713157412 
833	 0,494017130944146 
834	 0,494236754076073 
835	 0,494297924433539 
836	 0,49379177076157 
837	 0,493711045308665 
838	 0,494442557050558 
839	 0,494490454633283 
840	 0,494397912405182 
841	 0,495156140952772 
842	 0,495238833594514 
843	 0,494805321497925 
844	 0,495772544489577 
845	 0,496332477393799 
846	 0,495713849707701 
847	 0,49602059565122 
848	 0,4966885538262 
849	 0,496603784887656 
850	 0,496598430526373 
851	 0,496941882380869 
852	 0,497887954672014 
853	 0,498520647771485 
854	 0,498404370592683 
855	 0,498409585096063 
856	 0,498519106372005 
857	 0,498569358789101 
858	 0,498750228565949 
859	 0,499012756953942 
860	 0,499024317215524 
861	 0,499188026687357 
862	 0,4996768159626 
863	 0,50013775556196 
864	 0,50053448849652 
865	 0,500874074132717 
866	 0,50157793371725 
867	 0,50246360493772 
868	 0,502832747720368 
869	 0,502336481138389 
870	 0,501217665090913 
871	 0,501994079348157 
872	 0,503306482789847 
873	 0,503242804145924 
874	 0,502357396068478 
875	 0,501416970866813 
876	 0,502232074683147 
877	 0,503215315534812 
878	 0,503609862804528 
879	 0,503408598245909 
880	 0,503092249468622 
881	 0,503193981485208 
882	 0,503678368048542 
883	 0,504311830258122 
884	 0,504590487090845 
885	 0,504309151815669 
886	 0,503707738674647 
887	 0,504441601499153 
888	 0,505271796188833 
889	 0,505036420713392 
890	 0,505495851396381 
891	 0,5063110718705 
892	 0,506052270607953 
893	 0,505851512334214 
894	 0,506113696813758 
895	 0,506963305842794 
896	 0,507390021287237 
897	 0,506725153433533 
898	 0,506474454500735 
899	 0,506812289111747 
900	 0,507582152413657 
901	 0,508434653083957 
902	 0,509096112276821 
903	 0,509153530621593 
904	 0,509086789195454 
905	 0,509194766323492 
906	 0,509219672656058 
907	 0,509181828649671 
908	 0,509146789468782 
909	 0,509044035931843 
910	 0,50897639122908 
911	 0,509344850576897 
912	 0,509436124829335 
913	 0,50909972725525 
914	 0,50951409224298 
915	 0,510613860976302 
916	 0,51205928012745 
917	 0,511125336159024 
918	 0,508807440939905 
919	 0,50894918379619 
920	 0,509570200492615 
921	 0,51001535042954 
922	 0,510420568930226 
923	 0,510547693882595 
924	 0,510273784816889 
925	 0,510413069741868 
926	 0,510606500769308 
927	 0,510000932784563 
928	 0,50874376180774 
929	 0,507489398053513 
930	 0,508388621663884 
931	 0,509137926271387 
932	 0,508502617399354 
933	 0,50824189262416 
934	 0,508133405049575 
935	 0,507678977185526 
936	 0,507881488390616 
937	 0,508357547780856 
938	 0,5072545427755 
939	 0,507178925383814 
940	 0,508458340001724 
941	 0,50730292535406 
942	 0,505891542456253 
943	 0,506252778322504 
944	 0,506866466598203 
945	 0,506629114772378 
946	 0,503962838642907 
947	 0,502385952539419 
948	 0,50215562633578 
949	 0,499997729080431 
950	 0,498103248901101 
951	 0,497649865063376 
952	 0,49750813182534 
953	 0,497302120989161 
954	 0,496708264427936 
955	 0,495461274788495 
956	 0,493818491879241 
957	 0,492358073155428 
958	 0,492245889868734 
959	 0,493357949710937 
960	 0,493135954908453 
961	 0,492197454178804 
962	 0,491166185844748 
963	 0,490445551124337 
964	 0,490030391746638 
965	 0,489764209281315 
966	 0,490473083319302 
967	 0,491729750104223 
968	 0,491624291579805 
969	 0,491844806049844 
970	 0,492794116615322 
971	 0,492662072661403 
972	 0,491992836388618 
973	 0,491531693071434 
974	 0,492540901663263 
975	 0,493916076339183 
976	 0,49332232053611 
977	 0,492863148715822 
978	 0,492798685644441 
979	 0,491698443895692 
980	 0,491907896137443 
981	 0,494137664328663 
982	 0,495347105838638 
983	 0,495569277489486 
984	 0,495177005049506 
985	 0,494900452464664 
986	 0,494976648019985 
987	 0,49543125396475 
988	 0,496825882344625 
989	 0,499001855952789 
990	 0,500948336105344 
991	 0,502482019681276 
992	 0,503203470771959 
993	 0,501418912484525 
994	 0,500367392701055 
995	 0,503165298587412 
996	 0,504954339827845 
997	 0,505429379291573 
998	 0,505790772080237 
999	 0,507241942074272 
1000	 0,509385617942822 
1001	 0,509720622994961 
1002	 0,50813094029291 
1003	 0,50596521760478 
1004	 0,510810619565508 
1005	 0,516505463468667 
1006	 0,516549375630366 
1007	 0,513588891315896 
1008	 0,510934408318017 
1009	 0,513465857523922 
1010	 0,515438667261782 
1011	 0,516312779016028 
1012	 0,520528886671126 
1013	 0,52025135585639 
1014	 0,514648760059272 
1015	 0,518547202273599 
1016	 0,522490432676385 
1017	 0,518895178125771 
1018	 0,521126266872233 
1019	 0,526458321722557 
1020	 0,528014271005849 
1021	 0,527684171844101 
1022	 0,526726016482593 
1023	 0,527738960752117 
1024	 0,527816041128362 
1025	 0,526890108975468 
1026	 0,528766549781319 
1027	 0,532812664524566 
1028	 0,537369224502238 
1029	 0,535168919292643 
1030	 0,532645301819309 
1031	 0,537650984241581 
1032	 0,539434635291148 
1033	 0,538010512561886 
1034	 0,537715117824929 
1035	 0,535844258987258 
1036	 0,533903079090377 
1037	 0,539166446759342 
1038	 0,544265212857668 
1039	 0,545043529622828 
1040	 0,540690615329879 
1041	 0,537314792428808 
1042	 0,539928697422968 
1043	 0,544674514788795 
1044	 0,547057719081785 
1045	 0,542640216133974 
1046	 0,541655101546675 
1047	 0,544360354563292 
1048	 0,545520121188468 
1049	 0,545418958486204 
1050	 0,5448813810742 
1051	 0,546510128740194 
1052	 0,553086550507799 
1053	 0,563573947752785 
1054	 0,565678546743796 
1055	 0,56092643821506 
1056	 0,553270455917033 
1057	 0,556843258729995 
1058	 0,561781395268761 
1059	 0,552098833122862 
1060	 0,5510132058018 
1061	 0,555663135516571 
1062	 0,548081792930491 
1063	 0,553513486135269 
1064	 0,567876972546774 
1065	 0,54530694590363 
1066	 0,53856409093486 
1067	 0,563072165529419 
1068	 0,56958714394719 
1069	 0,567146418857661 
1070	 0,564791119077181 
1071	 0,560306793427365 
1072	 0,55622470929376 
1073	 0,555183907623001 
1074	 0,552997799379978 
1075	 0,555196332345935 
