Wavelength	GRA-VAN00827.asd
325	 0,185206770039104 
326	 0,145530851751608 
327	 0,127883318652022 
328	 0,19469040703254 
329	 0,258767526463863 
330	 0,233971212247275 
331	 9,56318723928784E-02 
332	 0,137832493604281 
333	 0,234102538707867 
334	 0,174367352955629 
335	 0,100917786563179 
336	 0,093995489152582 
337	 0,119178495029222 
338	 0,12855872542653 
339	 7,97614588467225E-02 
340	 0,042670118224188 
341	 4,30178959399332E-02 
342	 7,99080401126789E-02 
343	 0,101891028157505 
344	 0,086007267611112 
345	 4,78786657379679E-02 
346	 4,48296302984009E-02 
347	 0,131097064871228 
348	 9,74618495272013E-02 
349	-2,51418719170743E-02 
350	-5,18983004035455E-02 
351	-2,62865110057042E-02 
352	 1,69584609239782E-02 
353	 4,16755031219494E-02 
354	 5,68443236491343E-02 
355	 7,01608636396024E-02 
356	 8,74683628494211E-02 
357	 9,65085783084853E-02 
358	 5,57319371276399E-02 
359	 0,038576927990349 
360	 7,31849860200716E-02 
361	 6,63359642384808E-02 
362	 4,54059698001033E-02 
363	 5,83958820335351E-02 
364	 4,33104396372029E-02 
365	 8,85631666715949E-03 
366	 0,043311646591152 
367	 7,86111633684958E-02 
368	 7,44279012932282E-02 
369	 6,28291945079955E-02 
370	 4,75124113554853E-02 
371	 2,47857070695296E-02 
372	 2,62516102341085E-02 
373	 0,046957142610368 
374	 2,59246627037583E-02 
375	 1,35632356977312E-02 
376	 4,64415172606528E-02 
377	 5,54643457352615E-02 
378	 4,24573357827138E-02 
379	 3,23220448484458E-02 
380	 3,13876920643947E-02 
381	 4,12591553092731E-02 
382	 5,78528805679687E-02 
383	 6,03252269165651E-02 
384	 3,37145776088141E-02 
385	 4,40084564793749E-02 
386	 7,16157888008947E-02 
387	 3,65825347397894E-02 
388	 7,58795141390215E-03 
389	 1,31864736895127E-02 
390	 2,45374485559409E-02 
391	 3,62592317539448E-02 
392	 4,51169992094689E-02 
393	 4,82684825360382E-02 
394	 4,57372401348176E-02 
395	 4,09088605687911E-02 
396	 2,83021654997193E-02 
397	 1,09483253830065E-02 
398	 0,031248982501598 
399	 5,58038623978057E-02 
400	 2,98248528563159E-02 
401	 1,88009444245072E-02 
402	 3,10117238055116E-02 
403	 3,15030699044862E-02 
404	 2,30392662156468E-02 
405	 9,91659371980411E-03 
406	 1,29328771183378E-02 
407	 2,46941911016116E-02 
408	 2,62006481143505E-02 
409	 2,75950271551031E-02 
410	 3,00024384142574E-02 
411	 2,62593994956872E-02 
412	 2,25916088142078E-02 
413	 2,47815074884743E-02 
414	 2,73730110056005E-02 
415	 2,68097279892241E-02 
416	 1,54004583227381E-02 
417	 0,01000283418128 
418	 1,62605806909461E-02 
419	 0,020398473006472 
420	 2,26282650965799E-02 
421	 2,50774997501363E-02 
422	 2,59246462964631E-02 
423	 2,49516529659791E-02 
424	 0,022735462413251 
425	 1,99006682501837E-02 
426	 1,75369915111552E-02 
427	 2,12757728632295E-02 
428	 2,71724826845809E-02 
429	 2,76863056736184E-02 
430	 2,36550506501063E-02 
431	 0,017248925318041 
432	 1,64452724489859E-02 
433	 1,95867387563419E-02 
434	 2,42867512518858E-02 
435	 2,28848881359752E-02 
436	 1,74359883314119E-02 
437	 1,70672189353254E-02 
438	 1,68772585666213E-02 
439	 1,56243946742747E-02 
440	 1,69923974635369E-02 
441	 1,99329052717513E-02 
442	 2,27392037715563E-02 
443	 0,02244040257606 
444	 2,00214432205292E-02 
445	 2,15244397689448E-02 
446	 2,23324523975978E-02 
447	 1,99960939163329E-02 
448	 1,96388602191399E-02 
449	 2,04014048587611E-02 
450	 1,91767951670097E-02 
451	 2,00898219438232E-02 
452	 2,30438626813629E-02 
453	 2,20000075394979E-02 
454	 2,00502486201555E-02 
455	 2,03090633802006E-02 
456	 2,22391629875532E-02 
457	 2,43790781484131E-02 
458	 2,33837095680307E-02 
459	 2,16437627240934E-02 
460	 2,03608834534329E-02 
461	 1,94975431025575E-02 
462	 1,99405478922929E-02 
463	 2,28812196754273E-02 
464	 2,06347291494295E-02 
465	 1,47075560208893E-02 
466	 1,68327893784026E-02 
467	 2,18574371233121E-02 
468	 2,58914662526691E-02 
469	 2,69631855081402E-02 
470	 2,55299392145588E-02 
471	 2,29898427485416E-02 
472	 2,21957698471033E-02 
473	 2,32978098572412E-02 
474	 2,11477306428397E-02 
475	 1,92012271542682E-02 
476	 2,10012496724649E-02 
477	 2,23856513368145E-02 
478	 2,26919132427773E-02 
479	 2,27579705117153E-02 
480	 2,20318429438175E-02 
481	 2,08307866911798E-02 
482	 2,29601783332861E-02 
483	 2,54432486802593E-02 
484	 0,023435834350181 
485	 2,15225331018664E-02 
486	 2,11662026850766E-02 
487	 2,28852184774066E-02 
488	 2,38474785819003E-02 
489	 0,022168696679214 
490	 2,20079415257419E-02 
491	 2,30016979999703E-02 
492	 2,26715277347992E-02 
493	 2,27254590861458E-02 
494	 2,34184325985573E-02 
495	 2,31780432401114E-02 
496	 2,21849389886604E-02 
497	 2,08067340714406E-02 
498	 2,11619030568596E-02 
499	 2,27397542749178E-02 
500	 2,24091129972558E-02 
501	 2,20529986091814E-02 
502	 2,25109511331941E-02 
503	 2,12924192317647E-02 
504	 2,02413716327399E-02 
505	 2,32138282156736E-02 
506	 2,45546795694683E-02 
507	 2,32755561617997E-02 
508	 2,31891951801681E-02 
509	 2,31821277137312E-02 
510	 2,22172300442856E-02 
511	 2,27044338431724E-02 
512	 2,37225928757425E-02 
513	 2,14021724413152E-02 
514	 2,06427147023617E-02 
515	 2,30598311938115E-02 
516	 2,43515959227639E-02 
517	 2,45816101648241E-02 
518	 2,45114715803565E-02 
519	 2,38282737275847E-02 
520	 2,29107538107114E-02 
521	 2,32459127660338E-02 
522	 2,31406802026295E-02 
523	 2,15977761663041E-02 
524	 2,19015071194819E-02 
525	 2,34974617400832E-02 
526	 2,41901003331913E-02 
527	 2,38973775345535E-02 
528	 0,022791433529848 
529	 2,23955963669738E-02 
530	 2,24260000389815E-02 
531	 2,24028531686674E-02 
532	 2,22530130525316E-02 
533	 2,20024790262411E-02 
534	 2,17394948264042E-02 
535	 2,20130423870074E-02 
536	 2,29807889940335E-02 
537	 2,30362521550248E-02 
538	 2,27695584424687E-02 
539	 2,37173944594407E-02 
540	 2,43343290764825E-02 
541	 2,42182064820704E-02 
542	 0,023868435073759 
543	 2,36349158436172E-02 
544	 2,38143722582607E-02 
545	 2,39214391470996E-02 
546	 2,38322731960007E-02 
547	 2,34502598083488E-02 
548	 2,33305521696294E-02 
549	 2,36825900959295E-02 
550	 2,38472713775523E-02 
551	 2,38280368761784E-02 
552	 0,023755136824271 
553	 2,37939676773312E-02 
554	 2,37597643533886E-02 
555	 2,25243213487084E-02 
556	 2,19385048360148E-02 
557	 2,33932503907304E-02 
558	 0,024023324712997 
559	 2,38256165744821E-02 
560	 2,42890396072348E-02 
561	 2,41636483471876E-02 
562	 2,32686314270534E-02 
563	 2,36137773845357E-02 
564	 2,40744916010043E-02 
565	 2,29447392443366E-02 
566	 2,29744847659212E-02 
567	 2,41390135272122E-02 
568	 2,37128217072725E-02 
569	 2,33598364741807E-02 
570	 2,41349442391735E-02 
571	 2,43322071999967E-02 
572	 0,023993206730847 
573	 2,36650997947405E-02 
574	 2,40864479452681E-02 
575	 2,53783279370071E-02 
576	 2,66111461808473E-02 
577	 2,70910337960355E-02 
578	 2,61828902117771E-02 
579	 2,60086168013542E-02 
580	 2,66681267478941E-02 
581	 2,68073803218896E-02 
582	 2,65395534440681E-02 
583	 2,60470512552109E-02 
584	 2,63456214444163E-02 
585	 2,71135516580947E-02 
586	 2,75617271382226E-02 
587	 2,78256359427921E-02 
588	 2,79969436989416E-02 
589	 2,85190907789402E-02 
590	 2,86527103340656E-02 
591	 2,78021966532465E-02 
592	 2,81483471507045E-02 
593	 2,93016472400583E-02 
594	 2,89609303104729E-02 
595	 2,86349271833534E-02 
596	 2,89283620407817E-02 
597	 2,89939884850156E-02 
598	 2,89677638921351E-02 
599	 2,91881493818981E-02 
600	 2,91451045525624E-02 
601	 2,88153894950209E-02 
602	 2,86808466614859E-02 
603	 2,86134171916204E-02 
604	 2,84937293114933E-02 
605	 2,82259068264739E-02 
606	 2,79003353136237E-02 
607	 2,77778508009107E-02 
608	 2,76855429798726E-02 
609	 2,75510584542289E-02 
610	 2,72834387974778E-02 
611	 2,72241608373575E-02 
612	 2,77886947718139E-02 
613	 2,80486713167253E-02 
614	 2,77961048231189E-02 
615	 2,72223556488323E-02 
616	 2,65277205802228E-02 
617	 2,59724340390174E-02 
618	 2,65197715954194E-02 
619	 2,73909940267539E-02 
620	 2,68175527727541E-02 
621	 2,61270650380392E-02 
622	 2,58313281179732E-02 
623	 2,60765814626962E-02 
624	 2,66181098525585E-02 
625	 2,71636131473776E-02 
626	 2,71312466203782E-02 
627	 2,67099236068436E-02 
628	 2,68427790556836E-02 
629	 2,70514906878035E-02 
630	 2,70951677859125E-02 
631	 2,69977374738085E-02 
632	 2,70228777005962E-02 
633	 2,76122574344029E-02 
634	 2,77757352178193E-02 
635	 2,75664127413451E-02 
636	 2,85838486614464E-02 
637	 2,93435890700816E-02 
638	 2,86526263532379E-02 
639	 2,83870971201382E-02 
640	 2,87452781723127E-02 
641	 0,029368002799321 
642	 2,96831237484522E-02 
643	 0,02956069404439 
644	 2,99852441555838E-02 
645	 3,06216340375887E-02 
646	 3,09235122424331E-02 
647	 3,09237786953366E-02 
648	 3,05598805520628E-02 
649	 2,95564369731904E-02 
650	 2,88642363457829E-02 
651	 2,90713387408831E-02 
652	 2,91939262422657E-02 
653	 2,92043581469042E-02 
654	 2,94815618333363E-02 
655	 2,89832306268922E-02 
656	 2,76480909147452E-02 
657	 2,68983708453273E-02 
658	 2,67813166715862E-02 
659	 2,71954186251813E-02 
660	 2,69475581881395E-02 
661	 2,60531341349249E-02 
662	 2,53017445812406E-02 
663	 2,50825159777466E-02 
664	 2,54860094864028E-02 
665	 2,55086154565188E-02 
666	 0,025032538514471 
667	 2,40532416295107E-02 
668	 2,36218323488143E-02 
669	 2,38974878211942E-02 
670	 2,41316270604209E-02 
671	 2,41867446488851E-02 
672	 2,39826601901887E-02 
673	 2,37928312356756E-02 
674	 2,37361840568638E-02 
675	 2,40009152607439E-02 
676	 0,024039178190245 
677	 2,37945111521118E-02 
678	 0,024213675259076 
679	 2,48659430706745E-02 
680	 2,51500567594683E-02 
681	 2,46998888391943E-02 
682	 0,023951469063367 
683	 2,45332024927729E-02 
684	 2,53880741396901E-02 
685	 2,58224998003409E-02 
686	 2,56083199150046E-02 
687	 2,54195549387064E-02 
688	 2,65425715080452E-02 
689	 2,72268697279153E-02 
690	 2,71906305788894E-02 
691	 2,75503738296553E-02 
692	 2,87283124836482E-02 
693	 3,09736450172014E-02 
694	 3,27677564525395E-02 
695	 3,43720192741844E-02 
696	 3,72762393728631E-02 
697	 4,04058871965982E-02 
698	 4,33900913488743E-02 
699	 4,67600715044949E-02 
700	 5,05907234579096E-02 
701	 5,49060471310613E-02 
702	 5,93371192663087E-02 
703	 6,36993323864163E-02 
704	 6,77964911843322E-02 
705	 7,21064959242159E-02 
706	 7,68433423202379E-02 
707	 0,08113507937577 
708	 8,52181461610523E-02 
709	 0,089799341885353 
710	 9,38659043891956E-02 
711	 9,72319562618583E-02 
712	 0,100544896864508 
713	 0,103947818543282 
714	 0,107507911616283 
715	 0,11066339479775 
716	 0,113440446136593 
717	 0,116311723521167 
718	 0,118496248900835 
719	 0,119896710555247 
720	 0,121895331819217 
721	 0,124237607447531 
722	 0,126428740724645 
723	 0,127820054675346 
724	 0,128607994588264 
725	 0,130020914015266 
726	 0,13147973879664 
727	 0,132647962004854 
728	 0,133844078985978 
729	 0,13498132249422 
730	 0,135868804153704 
731	 0,136344108344412 
732	 0,136580688170736 
733	 0,137537822418829 
734	 0,13840331418644 
735	 0,138505157193442 
736	 0,139008173760831 
737	 0,139843763407631 
738	 0,140310285354019 
739	 0,140764188394461 
740	 0,141237353434851 
741	 0,141174387414413 
742	 0,141221832289817 
743	 0,142142165987328 
744	 0,142671278563151 
745	 0,142689995525214 
746	 0,142774709592264 
747	 0,142938991587511 
748	 0,143202984720078 
749	 0,143478417937672 
750	 0,143821421307878 
751	 0,144349856350428 
752	 0,14459637862262 
753	 0,144533785274754 
754	 0,144572683974271 
755	 0,144773972740117 
756	 0,145148828097382 
757	 0,145380582281297 
758	 0,145461694094955 
759	 0,145465017535702 
760	 0,145682124869576 
761	 0,146115638189426 
762	 0,14624833771145 
763	 0,14633413671104 
764	 0,146613126721998 
765	 0,146585231356443 
766	 0,146431604528161 
767	 0,146886353828038 
768	 0,147214816192338 
769	 0,147171934664277 
770	 0,147134128393091 
771	 0,147313199288658 
772	 0,14790026923832 
773	 0,148245217544256 
774	 0,148284736111079 
775	 0,148373837299064 
776	 0,148301396165567 
777	 0,148026830658319 
778	 0,14798854616665 
779	 0,148084909133542 
780	 0,148090055979987 
781	 0,148083402373798 
782	 0,148131712286206 
783	 0,148409366632776 
784	 0,148704456117352 
785	 0,148877786003626 
786	 0,149066247140951 
787	 0,14921815586107 
788	 0,149199750096798 
789	 0,149322967239825 
790	 0,149606216096503 
791	 0,149715064806412 
792	 0,149686345719807 
793	 0,149598493279984 
794	 0,14989854740734 
795	 0,150334045058145 
796	 0,150191718323793 
797	 0,150117385791302 
798	 0,150308978218675 
799	 0,150591446905488 
800	 0,150897798227838 
801	 0,151140839878323 
802	 0,150866175461505 
803	 0,150413061926844 
804	 0,150860343348033 
805	 0,151277652809666 
806	 0,151329668702133 
807	 0,151196724274824 
808	 0,151117984019991 
809	 0,151333118820835 
810	 0,151726699183863 
811	 0,152124035034873 
812	 0,152115621108147 
813	 0,152194391671697 
814	 0,152495458042952 
815	 0,152467596319547 
816	 0,152346634136946 
817	 0,15245825034046 
818	 0,152352749034371 
819	 0,152246475161785 
820	 0,153175420522867 
821	 0,153557740725378 
822	 0,15284330980122 
823	 0,152831673215086 
824	 0,153233807308797 
825	 0,15344421912773 
826	 0,154046524163386 
827	 0,154706360888421 
828	 0,153978332249877 
829	 0,153443889036558 
830	 0,15380327625447 
831	 0,153657545289299 
832	 0,153331359626908 
833	 0,153456698184862 
834	 0,15378144444417 
835	 0,15415272307701 
836	 0,154335677923835 
837	 0,154247238831671 
838	 0,153928372287426 
839	 0,154014082134359 
840	 0,15420038525478 
841	 0,15395886993474 
842	 0,154003147183949 
843	 0,154297674014359 
844	 0,154068017562067 
845	 0,154109410852056 
846	 0,154713372673068 
847	 0,154622401563919 
848	 0,154367796577231 
849	 0,154879881956267 
850	 0,155262503384006 
851	 0,155327340684948 
852	 0,155273944482648 
853	 0,155058171115784 
854	 0,154723552739571 
855	 0,154634778756739 
856	 0,154657625894222 
857	 0,154548459189164 
858	 0,154780889827304 
859	 0,155251134361765 
860	 0,155258013834203 
861	 0,155339861996832 
862	 0,155685026981508 
863	 0,155622744472092 
864	 0,155345328974242 
865	 0,155192495967294 
866	 0,155140427241839 
867	 0,155147332231389 
868	 0,155004527619873 
869	 0,155183267671948 
870	 0,155821596019824 
871	 0,156376309347603 
872	 0,156483742284226 
873	 0,155833229429506 
874	 0,156021741038909 
875	 0,156777113560415 
876	 0,156153046529067 
877	 0,155940385656094 
878	 0,156590370328849 
879	 0,156065641948109 
880	 0,155479827897267 
881	 0,15611885914967 
882	 0,156316139833404 
883	 0,156019153716142 
884	 0,155871067560598 
885	 0,156490857154798 
886	 0,157714901349459 
887	 0,157409715569816 
888	 0,156662935233197 
889	 0,156605606774293 
890	 0,156562736728132 
891	 0,156701994326093 
892	 0,157708573411041 
893	 0,157839000665576 
894	 0,156908662619128 
895	 0,156876694194178 
896	 0,157219315879156 
897	 0,157434819672762 
898	 0,157358789543889 
899	 0,157020544999491 
900	 0,156513546918832 
901	 0,156556967753513 
902	 0,157145473489437 
903	 0,157406913268558 
904	 0,157500254980467 
905	 0,157483702383623 
906	 0,157060102545407 
907	 0,15659323406896 
908	 0,156625157126028 
909	 0,156391937487693 
910	 0,156212230140372 
911	 0,157749730860212 
912	 0,158881269075212 
913	 0,158647677147603 
914	 0,158065258261766 
915	 0,157670333093773 
916	 0,157918857197519 
917	 0,157928228011187 
918	 0,15770252459915 
919	 0,157688429330553 
920	 0,157977078711756 
921	 0,158440846143214 
922	 0,158279603219425 
923	 0,158042128554688 
924	 0,158188105319876 
925	 0,158270813353255 
926	 0,158096378300244 
927	 0,157411704485143 
928	 0,157528795705861 
929	 0,158260530521319 
930	 0,157553604300226 
931	 0,156177158867477 
932	 0,154854861863548 
933	 0,155099332933171 
934	 0,155744132234872 
935	 0,15510759475463 
936	 0,154738792863699 
937	 0,154789979299808 
938	 0,154841103516384 
939	 0,154069677894596 
940	 0,152769651824964 
941	 0,154224841599792 
942	 0,155674822784578 
943	 0,154688587859045 
944	 0,15413707333709 
945	 0,154143397313005 
946	 0,154077575875045 
947	 0,153316969422616 
948	 0,152095279594044 
949	 0,15206252073666 
950	 0,151810710298169 
951	 0,150760097940778 
952	 0,150885872812799 
953	 0,150967516709399 
954	 0,149393641935056 
955	 0,148314487309857 
956	 0,147955950327819 
957	 0,147543919803261 
958	 0,148008482773397 
959	 0,148978200275058 
960	 0,147551137159918 
961	 0,145732816430936 
962	 0,145246625361725 
963	 0,146069286181359 
964	 0,147400041532542 
965	 0,148032262990147 
966	 0,146976971183029 
967	 0,144934132107761 
968	 0,144596376879369 
969	 0,145837136899413 
970	 0,148072334889409 
971	 0,148681614736169 
972	 0,147506133028926 
973	 0,144976947570382 
974	 0,145120506322681 
975	 0,146624416940645 
976	 0,145806095171311 
977	 0,145855568095183 
978	 0,147133418543359 
979	 0,147880960603078 
980	 0,148700704367425 
981	 0,149506713378741 
982	 0,148186160584077 
983	 0,146846194683498 
984	 0,147652397122591 
985	 0,148149326398756 
986	 0,147943656916037 
987	 0,147076285791885 
988	 0,147840285852719 
989	 0,149978569185973 
990	 0,150139500083262 
991	 0,148823907239382 
992	 0,147375060224614 
993	 0,152419285090578 
994	 0,156016377235288 
995	 0,15033426451079 
996	 0,148413633144988 
997	 0,150733669699104 
998	 0,15337880961246 
999	 0,154184750137611 
1000	 0,152834471529002 
1001	 0,151154864286224 
1002	 0,1507981653487 
1003	 0,152508435798442 
1004	 0,15497083586002 
1005	 0,156107709983129 
1006	 0,154422418423562 
1007	 0,154453606030789 
1008	 0,155747846747251 
1009	 0,156038140074851 
1010	 0,156685611001444 
1011	 0,157473303736169 
1012	 0,156716220575714 
1013	 0,155977426778856 
1014	 0,155692512906186 
1015	 0,153485319810253 
1016	 0,154783513639369 
1017	 0,162583136174332 
1018	 0,161158916700467 
1019	 0,156195297093789 
1020	 0,159538314446615 
1021	 0,160316270384699 
1022	 0,158122864505663 
1023	 0,158106505349651 
1024	 0,162928349103131 
1025	 0,170327324796117 
1026	 0,166371178941381 
1027	 0,162027347455079 
1028	 0,164291054013015 
1029	 0,16535001782962 
1030	 0,165615761855664 
1031	 0,166345068274604 
1032	 0,166008308470226 
1033	 0,164989623912401 
1034	 0,164567100158742 
1035	 0,164509921503837 
1036	 0,165709311296312 
1037	 0,172342064350395 
1038	 0,171624820590106 
1039	 0,161242189033975 
1040	 0,162179763397054 
1041	 0,165634359987377 
1042	 0,163535095783012 
1043	 0,159835567174363 
1044	 0,157859423813122 
1045	 0,16121815093361 
1046	 0,162767704358732 
1047	 0,164286519531791 
1048	 0,173319987693062 
1049	 0,185632861550705 
1050	 0,194653407289277 
1051	 0,183472015331638 
1052	 0,174015062455643 
1053	 0,176211363311966 
1054	 0,170507208797478 
1055	 0,169111131549056 
1056	 0,180217643695091 
1057	 0,171793717405989 
1058	 0,163013036945427 
1059	 0,185016981841801 
1060	 0,180794904922973 
1061	 0,160124822315824 
1062	 0,173634228401199 
1063	 0,181463935449986 
1064	 0,174947304431714 
1065	 0,164700856718363 
1066	 0,163241524727583 
1067	 0,173205080230727 
1068	 0,175219740359007 
1069	 0,170003883261812 
1070	 0,161452289702061 
1071	 0,170295153135506 
1072	 0,184515767173453 
1073	 0,185682694893026 
1074	 0,173105715342579 
1075	 0,160596129877751 
