Wavelength	GRA-BER00128.asd
325	 0,187255542102227 
326	 0,492632480106061 
327	 0,549736793630121 
328	 0,325586756313916 
329	 0,25773460151333 
330	 0,270928452504665 
331	 0,310427722789463 
332	 0,374865105247554 
333	 0,406875344807315 
334	 0,303920815209874 
335	 0,242755356678452 
336	 0,29043680943096 
337	 0,312003702890032 
338	 0,301183537864419 
339	 0,258463229400221 
340	 0,2419539313722 
341	 0,245743890310541 
342	 0,218927823533744 
343	 0,183772609268418 
344	 0,163508459547632 
345	 0,192182186380898 
346	 0,236694530466796 
347	 0,260986731394095 
348	 0,232442505100073 
349	 0,187248902784069 
350	 0,247813512793911 
351	 0,279571153450239 
352	 0,237965441327864 
353	 0,195982327603339 
354	 0,185490430519985 
355	 0,240710188543539 
356	 0,268688303455245 
357	 0,258470200153111 
358	 0,221917776380368 
359	 0,207667733601662 
360	 0,23296088958453 
361	 0,249450553238031 
362	 0,244136769849942 
363	 0,204305385175145 
364	 0,194491498839325 
365	 0,215075102934777 
366	 0,205055748315136 
367	 0,198365608790403 
368	 0,213141013409374 
369	 0,210288482430324 
370	 0,200626957727395 
371	 0,209965999000117 
372	 0,225979705923571 
373	 0,237809723086703 
374	 0,225576924305232 
375	 0,2174365031531 
376	 0,232686934109563 
377	 0,234159669943084 
378	 0,227180291452755 
379	 0,237400823340016 
380	 0,237171965861913 
381	 0,223464518444194 
382	 0,227636561745945 
383	 0,239050611740373 
384	 0,245443834588675 
385	 0,229061119410684 
386	 0,204643580547316 
387	 0,223960451212924 
388	 0,227895255871039 
389	 0,202761205423224 
390	 0,206031501378076 
391	 0,223601941998589 
392	 0,232127479682625 
393	 0,23693420351884 
394	 0,237371984719924 
395	 0,229525027939136 
396	 0,219870050765731 
397	 0,212936886332095 
398	 0,208157023998187 
399	 0,206227894378567 
400	 0,207811398461102 
401	 0,214125480341942 
402	 0,223000947487506 
403	 0,228368515264079 
404	 0,230238787021591 
405	 0,228491293229813 
406	 0,220713502541619 
407	 0,212434672542931 
408	 0,214174760431654 
409	 0,215440395946203 
410	 0,213680156371081 
411	 0,213063731431078 
412	 0,212957026728718 
413	 0,212771508004545 
414	 0,216862373095094 
415	 0,222245037187822 
416	 0,219957748693696 
417	 0,218328176669305 
418	 0,219649313081142 
419	 0,215536242629529 
420	 0,20939918435925 
421	 0,206263537096591 
422	 0,205624593282531 
423	 0,207720892182518 
424	 0,213946664448517 
425	 0,218782739718502 
426	 0,218697289636744 
427	 0,213535380950333 
428	 0,208710991012899 
429	 0,213892805652547 
430	 0,217050419294565 
431	 0,215434744348315 
432	 0,213724250290818 
433	 0,214145475397629 
434	 0,217976556711863 
435	 0,21689621982016 
436	 0,212459289189489 
437	 0,212456241670466 
438	 0,213506121280701 
439	 0,214345311371647 
440	 0,215181744136131 
441	 0,216127580136677 
442	 0,217358989952181 
443	 0,2189000838872 
444	 0,219931105563832 
445	 0,217501078947513 
446	 0,217048378579635 
447	 0,221059309742437 
448	 0,219566773728383 
449	 0,215074917006891 
450	 0,214381201497255 
451	 0,216813122283743 
452	 0,220866787189332 
453	 0,220138119941753 
454	 0,218670381740371 
455	 0,220387519755765 
456	 0,221470432790978 
457	 0,221900205297093 
458	 0,224121089229141 
459	 0,223241544486842 
460	 0,218397311141305 
461	 0,218023155500312 
462	 0,220182522687757 
463	 0,221180680435301 
464	 0,221276691313425 
465	 0,220674420829204 
466	 0,22034709936 
467	 0,219923436271521 
468	 0,219235037550153 
469	 0,218746480573532 
470	 0,219061726352302 
471	 0,221387179737952 
472	 0,222475283792735 
473	 0,221742656212143 
474	 0,221803099421738 
475	 0,223249903065822 
476	 0,226223126510149 
477	 0,224915134489029 
478	 0,220695020238454 
479	 0,220470637922038 
480	 0,221192223276222 
481	 0,221357003046519 
482	 0,220564528780527 
483	 0,219704715305774 
484	 0,220180703173798 
485	 0,220578625701042 
486	 0,220539692027469 
487	 0,220133581621767 
488	 0,220292974842277 
489	 0,221562285663733 
490	 0,221977698526812 
491	 0,221584408699921 
492	 0,22109364912901 
493	 0,221461746444464 
494	 0,222568626766478 
495	 0,221707825872624 
496	 0,22026015547603 
497	 0,219990593995609 
498	 0,217485671351245 
499	 0,21436692371384 
500	 0,217995726089496 
501	 0,220894644767137 
502	 0,219295174418167 
503	 0,219709355229246 
504	 0,221332045893011 
505	 0,221268149953681 
506	 0,221955497287748 
507	 0,223551978772578 
508	 0,22361353924242 
509	 0,223666552492319 
510	 0,225037846046299 
511	 0,225089090532122 
512	 0,223897237779417 
513	 0,22275573390934 
514	 0,222545531031849 
515	 0,223423433606368 
516	 0,223204406569958 
517	 0,223052877463906 
518	 0,224954834657153 
519	 0,224654478751814 
520	 0,222403836127061 
521	 0,223306814405555 
522	 0,224449914360454 
523	 0,223704368151569 
524	 0,22241771283499 
525	 0,221608731589092 
526	 0,223258589259896 
527	 0,223935098252558 
528	 0,222799446081061 
529	 0,222580741158438 
530	 0,222654489384897 
531	 0,222088533262076 
532	 0,221994570042842 
533	 0,22216330167149 
534	 0,221016811865519 
535	 0,220527446325477 
536	 0,221600238062781 
537	 0,221301063058373 
538	 0,220406981737947 
539	 0,221136610476543 
540	 0,221290683207276 
541	 0,220640255102831 
542	 0,221320485974473 
543	 0,222352229816105 
544	 0,222714225693025 
545	 0,223542067258317 
546	 0,224669410507815 
547	 0,225163536233619 
548	 0,225063453823553 
549	 0,2244716376868 
550	 0,224040034202639 
551	 0,223840920124082 
552	 0,223823231954219 
553	 0,224089060990915 
554	 0,224379106248707 
555	 0,223500259043056 
556	 0,223108500017275 
557	 0,224433065713818 
558	 0,224746682205397 
559	 0,224013726523832 
560	 0,223393724516312 
561	 0,222815119881042 
562	 0,222520219455722 
563	 0,223595357884737 
564	 0,224989019442733 
565	 0,225223836906147 
566	 0,225878716456862 
567	 0,227015627764414 
568	 0,227373645170021 
569	 0,227826794503257 
570	 0,228988210263682 
571	 0,230472592491982 
572	 0,23198049173203 
573	 0,23294404641888 
574	 0,234439991513127 
575	 0,236686556765443 
576	 0,238705507743533 
577	 0,240415583287764 
578	 0,241811862924005 
579	 0,242741256960406 
580	 0,243334417957633 
581	 0,244023349051098 
582	 0,244765015716927 
583	 0,245584358150155 
584	 0,246802024373404 
585	 0,247982566411629 
586	 0,248301164607606 
587	 0,248669435402149 
588	 0,249349838187413 
589	 0,250212345215456 
590	 0,25071466114899 
591	 0,250414315458001 
592	 0,25052567078935 
593	 0,250947518443924 
594	 0,250668540048021 
595	 0,250508763639293 
596	 0,250649795538473 
597	 0,249564370439713 
598	 0,24838419909048 
599	 0,249024951554281 
600	 0,249336103333032 
601	 0,248787554901941 
602	 0,24779078774608 
603	 0,247150911727386 
604	 0,247382666995397 
605	 0,246630842039445 
606	 0,24530079316605 
607	 0,245260522010778 
608	 0,244887532110399 
609	 0,243654373343795 
610	 0,242187980576649 
611	 0,240983374625926 
612	 0,240560096414301 
613	 0,24030025397711 
614	 0,239998551722826 
615	 0,239544568573086 
616	 0,239251474972942 
617	 0,239270753436781 
618	 0,239022733919507 
619	 0,238661446500558 
620	 0,23863622829848 
621	 0,238825945267742 
622	 0,239095301117856 
623	 0,238942203770535 
624	 0,238883288464972 
625	 0,23945780060987 
626	 0,240023856389931 
627	 0,240522148881975 
628	 0,241213050137069 
629	 0,242001326897339 
630	 0,242770559700082 
631	 0,243079329505133 
632	 0,243277092090865 
633	 0,244003978055712 
634	 0,244692855494918 
635	 0,24532513099817 
636	 0,246522361628114 
637	 0,24771363227199 
638	 0,248448169943699 
639	 0,249655775158191 
640	 0,251053200785911 
641	 0,251472731662763 
642	 0,252090863164046 
643	 0,253191754908858 
644	 0,253448477530863 
645	 0,25337929445004 
646	 0,25380708015807 
647	 0,254139594124606 
648	 0,25400621585938 
649	 0,252602860169761 
650	 0,251454590480357 
651	 0,251400708774541 
652	 0,249936332778865 
653	 0,247720084933598 
654	 0,246792891305646 
655	 0,246229215718857 
656	 0,245530668531306 
657	 0,243780986313626 
658	 0,241735318733032 
659	 0,240231554224143 
660	 0,238795925461188 
661	 0,237258402203857 
662	 0,235246008326895 
663	 0,233910805724322 
664	 0,233706296264161 
665	 0,233303055483314 
666	 0,232488534315811 
667	 0,231182238303453 
668	 0,230401807381137 
669	 0,23029644235594 
670	 0,230137071128304 
671	 0,229839906127788 
672	 0,22938175240844 
673	 0,229188701204754 
674	 0,22925958678557 
675	 0,229419666299044 
676	 0,229543091125663 
677	 0,229544982739565 
678	 0,229355754487114 
679	 0,229175191674068 
680	 0,229241929197096 
681	 0,229749859666121 
682	 0,230531785154132 
683	 0,230881611746005 
684	 0,23137095652191 
685	 0,232374425466792 
686	 0,233895530907044 
687	 0,23581273570858 
688	 0,237844338916664 
689	 0,240767745420029 
690	 0,244687764976336 
691	 0,248783704477686 
692	 0,253733639437507 
693	 0,260094468472651 
694	 0,266468789403013 
695	 0,273055141400751 
696	 0,281001765178562 
697	 0,290000416502849 
698	 0,299780456941285 
699	 0,30943283385219 
700	 0,319405233832855 
701	 0,330403113768952 
702	 0,34167252553618 
703	 0,352804959725815 
704	 0,363403959492742 
705	 0,37375829238479 
706	 0,384003536949649 
707	 0,394017800932088 
708	 0,403561246182759 
709	 0,412243448077168 
710	 0,420322575305492 
711	 0,428045288342673 
712	 0,436076613466647 
713	 0,443721385136752 
714	 0,450365163891724 
715	 0,456945629657878 
716	 0,463372973728419 
717	 0,468983058105633 
718	 0,474139490646854 
719	 0,478970232507645 
720	 0,483338576878343 
721	 0,487411964452712 
722	 0,491408342603054 
723	 0,495375098243157 
724	 0,499132722441905 
725	 0,502071308563971 
726	 0,504696528033461 
727	 0,50733413339824 
728	 0,509857710700491 
729	 0,512292002413595 
730	 0,514740437197071 
731	 0,516462310230187 
732	 0,517487734575512 
733	 0,518901113432568 
734	 0,520594000355752 
735	 0,522382382217536 
736	 0,523605696263172 
737	 0,524375461695827 
738	 0,525332786134752 
739	 0,52596893311247 
740	 0,526358090693031 
741	 0,527916941798159 
742	 0,529476205097974 
743	 0,529595455244114 
744	 0,529744659080092 
745	 0,530309728218875 
746	 0,531375156840415 
747	 0,532327078585498 
748	 0,532856531283139 
749	 0,533505597360621 
750	 0,534073504437462 
751	 0,534144572007298 
752	 0,534592585285361 
753	 0,535366843781948 
754	 0,535226521493992 
755	 0,535293458088376 
756	 0,536287302765783 
757	 0,536726796943361 
758	 0,536747121541068 
759	 0,537107898263042 
760	 0,537427022541944 
761	 0,537612882006657 
762	 0,537773687030316 
763	 0,53790804726068 
764	 0,538011160609468 
765	 0,538082125410777 
766	 0,538135923378853 
767	 0,53824538901896 
768	 0,538149922872537 
769	 0,537807837464959 
770	 0,537538203545572 
771	 0,537666075488054 
772	 0,538501166774088 
773	 0,53888840083327 
774	 0,538692759723447 
775	 0,538394520278583 
776	 0,538261670863112 
777	 0,538432736298896 
778	 0,538595693088029 
779	 0,538777066968895 
780	 0,539074751640498 
781	 0,539262561881056 
782	 0,539352970013853 
783	 0,539653512299656 
784	 0,539841474129633 
785	 0,539738991501791 
786	 0,539730056653529 
787	 0,539886927021272 
788	 0,540259936147213 
789	 0,540268334770068 
790	 0,539908565263131 
791	 0,539976207134948 
792	 0,540153134987395 
793	 0,540170588730953 
794	 0,540199668900747 
795	 0,540197926683447 
796	 0,54000755376137 
797	 0,539948751031033 
798	 0,540088113362143 
799	 0,540194993512936 
800	 0,540126764906954 
801	 0,539797015138097 
802	 0,539742557849575 
803	 0,539913933455772 
804	 0,539856416449571 
805	 0,540072503930686 
806	 0,540647352513062 
807	 0,54108296434734 
808	 0,541165369943685 
809	 0,540751822324738 
810	 0,540699847729301 
811	 0,541064537665156 
812	 0,541448911766246 
813	 0,541768095814195 
814	 0,541934100277676 
815	 0,541828490930031 
816	 0,541739456124269 
817	 0,5420120402073 
818	 0,54250309391719 
819	 0,543054045883578 
820	 0,543338682432033 
821	 0,543507844753928 
822	 0,543624982821989 
823	 0,543642416144617 
824	 0,543568855320717 
825	 0,543422924448302 
826	 0,543692987910365 
827	 0,54423154204931 
828	 0,544203051736447 
829	 0,544082530518152 
830	 0,544091782505079 
831	 0,544002667621252 
832	 0,543795239248835 
833	 0,54347308612898 
834	 0,543363677126118 
835	 0,543577486924692 
836	 0,544301764223802 
837	 0,54426832258287 
838	 0,543133054454826 
839	 0,543819906802033 
840	 0,544898965026625 
841	 0,543933445151411 
842	 0,543307356202033 
843	 0,543449973625455 
844	 0,543708466817427 
845	 0,543844332683261 
846	 0,543774072477135 
847	 0,544137618371224 
848	 0,54441652885084 
849	 0,543802865207298 
850	 0,54367379852208 
851	 0,544164272344324 
852	 0,544554618171853 
853	 0,544557169721845 
854	 0,544132293964103 
855	 0,544285047462944 
856	 0,544717761108993 
857	 0,544869281468916 
858	 0,544592028381541 
859	 0,544155894554043 
860	 0,544559347359575 
861	 0,545015522685653 
862	 0,545075454516439 
863	 0,544679930127641 
864	 0,544430578389489 
865	 0,545089612139623 
866	 0,545670710926692 
867	 0,545939560066859 
868	 0,546016271672763 
869	 0,54591830699044 
870	 0,545751139395474 
871	 0,546017863318423 
872	 0,546294645795202 
873	 0,546032525931178 
874	 0,545791080361763 
875	 0,545571761825181 
876	 0,544889142366065 
877	 0,544847518613443 
878	 0,545637519503287 
879	 0,54547331982477 
880	 0,544880561558597 
881	 0,544609019905791 
882	 0,545117700734375 
883	 0,545926256099536 
884	 0,545489202515598 
885	 0,545111931438798 
886	 0,545167583361171 
887	 0,544947354946311 
888	 0,544921708691106 
889	 0,545484680975319 
890	 0,545442652783523 
891	 0,54517439252538 
892	 0,54605703010171 
893	 0,546411411743867 
894	 0,545819958553192 
895	 0,544972525663576 
896	 0,544736044562087 
897	 0,545615760947406 
898	 0,545747245274193 
899	 0,545500623038756 
900	 0,546098573825061 
901	 0,546305122988592 
902	 0,545891562797999 
903	 0,545403829759776 
904	 0,544887627743719 
905	 0,544434044492468 
906	 0,544235791645975 
907	 0,544522443767049 
908	 0,545554783416721 
909	 0,54549662249125 
910	 0,544631928794803 
911	 0,545435316986132 
912	 0,546046387195831 
913	 0,54568201176796 
914	 0,545397263170578 
915	 0,544806011961817 
916	 0,543491764495803 
917	 0,543369553845872 
918	 0,544070721781383 
919	 0,543592506610821 
920	 0,543583998095968 
921	 0,544206356462059 
922	 0,543561071953858 
923	 0,542630994974229 
924	 0,542314997770876 
925	 0,542394855467131 
926	 0,542544606423021 
927	 0,542253104041529 
928	 0,541622496285886 
929	 0,540789393254077 
930	 0,540061812183483 
931	 0,539773588731512 
932	 0,539990212537077 
933	 0,539880776421531 
934	 0,539069322190268 
935	 0,537282790943143 
936	 0,536491312605435 
937	 0,536664559547959 
938	 0,536439588832018 
939	 0,535408390878558 
940	 0,533786514832956 
941	 0,533701849577918 
942	 0,534154595625493 
943	 0,534075679185484 
944	 0,533344260428376 
945	 0,531793416552894 
946	 0,529136860265141 
947	 0,528038357639004 
948	 0,528659790546019 
949	 0,528536654057836 
950	 0,527524960504489 
951	 0,525581158319829 
952	 0,523152770500421 
953	 0,521320342063274 
954	 0,521211340134972 
955	 0,521856892300694 
956	 0,521853675679042 
957	 0,518084469325898 
958	 0,516041052048614 
959	 0,5166774796719 
960	 0,51441627516308 
961	 0,512832716102435 
962	 0,51436276890652 
963	 0,51438439830296 
964	 0,513335396482711 
965	 0,51290243526861 
966	 0,511557295723203 
967	 0,509768699446241 
968	 0,51005548512633 
969	 0,510097749527634 
970	 0,509292902260903 
971	 0,510280874360906 
972	 0,510784966905544 
973	 0,50891828542072 
974	 0,508888678306148 
975	 0,509836518129947 
976	 0,508924823955718 
977	 0,509295132120878 
978	 0,510601168335913 
979	 0,508596784436551 
980	 0,507225455311412 
981	 0,508271735204724 
982	 0,509643043014868 
983	 0,510652586198948 
984	 0,51074550678975 
985	 0,509930025345766 
986	 0,508869910826826 
987	 0,508728014377989 
988	 0,509624252282295 
989	 0,511143307807668 
990	 0,511811969235732 
991	 0,511512986221715 
992	 0,510645732626951 
993	 0,511925386708997 
994	 0,513579051147124 
995	 0,513497810637426 
996	 0,512030481908067 
997	 0,510530359106203 
998	 0,511439449866755 
999	 0,512262418691891 
1000	 0,513238013632131 
1001	 0,518463660877263 
1002	 0,52025004965594 
1003	 0,516123291816537 
1004	 0,516443846413599 
1005	 0,519354792473541 
1006	 0,521943384939219 
1007	 0,522214518615463 
1008	 0,520711754664861 
1009	 0,519157897570526 
1010	 0,519665731543836 
1011	 0,522566766920959 
1012	 0,527212145151312 
1013	 0,527618614998344 
1014	 0,523035189693156 
1015	 0,524668718894766 
1016	 0,527528866502274 
1017	 0,527191137132399 
1018	 0,528298878744797 
1019	 0,529126295574956 
1020	 0,52646439443177 
1021	 0,529845676267311 
1022	 0,536537605307321 
1023	 0,532327123129342 
1024	 0,531469753714175 
1025	 0,536608864249777 
1026	 0,536485424270432 
1027	 0,534156890997456 
1028	 0,532310017585883 
1029	 0,533380066294312 
1030	 0,535253202738701 
1031	 0,535236655216192 
1032	 0,535244911760174 
1033	 0,535817450819999 
1034	 0,53729614250175 
1035	 0,538824314543238 
1036	 0,540300421711134 
1037	 0,542804547005356 
1038	 0,543082871989508 
1039	 0,540672719555247 
1040	 0,541791235501284 
1041	 0,542246908055045 
1042	 0,53909815585512 
1043	 0,539429339029253 
1044	 0,543195869432395 
1045	 0,548633239117452 
1046	 0,549890780119377 
1047	 0,547580916512655 
1048	 0,546546670941577 
1049	 0,546315967976479 
1050	 0,546393331881121 
1051	 0,544361192629033 
1052	 0,544095649304346 
1053	 0,54727626175697 
1054	 0,552093918685471 
1055	 0,552976148796828 
1056	 0,546306397004452 
1057	 0,543780506448471 
1058	 0,546801826934731 
1059	 0,553881179774233 
1060	 0,551131859771278 
1061	 0,541420379696297 
1062	 0,537263760036378 
1063	 0,542498081488999 
1064	 0,552810545480832 
1065	 0,547313424663535 
1066	 0,542954535716496 
1067	 0,547832193235963 
1068	 0,559199117211094 
1069	 0,562893145767178 
1070	 0,552049178405986 
1071	 0,557570460615556 
1072	 0,563075530529145 
1073	 0,547411136765594 
1074	 0,54706828878603 
1075	 0,555637307785962 
