Wavelength	GRA-VAN00602.asd
325	 0,283940029894463 
326	 0,312553647676759 
327	 0,420155751826069 
328	 0,487463372189735 
329	 0,349269547757109 
330	 0,160541642399534 
331	 0,262468605698457 
332	 0,305294203076648 
333	 0,324866572029096 
334	 0,404628765171245 
335	 0,381611343657928 
336	 0,257463273713218 
337	 0,249343176897576 
338	 0,24638961863156 
339	 0,159905372104485 
340	 0,201946506817601 
341	 0,295422667586653 
342	 0,26251343544531 
343	 0,235873993492048 
344	 0,247935501451962 
345	 0,207888282720427 
346	 0,164129405657251 
347	 0,182432760846916 
348	 0,186856307588854 
349	 0,175631387363496 
350	 0,174021696323082 
351	 0,198563346977612 
352	 0,231468845692984 
353	 0,176984072140424 
354	 0,118279409595486 
355	 0,16030044252282 
356	 0,199579911562587 
357	 0,211431597975367 
358	 0,197683033110495 
359	 0,181665110410759 
360	 0,179559808985669 
361	 0,194739781487148 
362	 0,20383190074487 
363	 0,174254960612147 
364	 0,159527894357421 
365	 0,169508584333904 
366	 0,183679398175224 
367	 0,202451531129695 
368	 0,222112111658894 
369	 0,214995255707867 
370	 0,192834242808704 
371	 0,179443939311517 
372	 0,179154173875112 
373	 0,189556474289213 
374	 0,191062246705379 
375	 0,197481474140034 
376	 0,215775740743616 
377	 0,209961045032881 
378	 0,189117761297677 
379	 0,186210437624071 
380	 0,18221365518332 
381	 0,174556819769928 
382	 0,177145251323293 
383	 0,187330534980498 
384	 0,20156434850145 
385	 0,203803284327254 
386	 0,193515603183284 
387	 0,174538290505293 
388	 0,166262085444059 
389	 0,175614694919238 
390	 0,180031062274098 
391	 0,182677456870455 
392	 0,189316727528865 
393	 0,187362680661673 
394	 0,179567987035283 
395	 0,182371994603812 
396	 0,182304130107241 
397	 0,174848631880024 
398	 0,180966971726458 
399	 0,186381072284831 
400	 0,166484882111521 
401	 0,159302022261562 
402	 0,168572559944234 
403	 0,170249844020371 
404	 0,163827146428341 
405	 0,15136029898679 
406	 0,156843794547868 
407	 0,170975099471915 
408	 0,171323082090486 
409	 0,166348668184 
410	 0,160348385477783 
411	 0,160561371392077 
412	 0,163946381926948 
413	 0,167086456251027 
414	 0,169107488256424 
415	 0,168065560114712 
416	 0,158276748991357 
417	 0,154684786475135 
418	 0,161870606931875 
419	 0,165560765588474 
420	 0,165816411456362 
421	 0,164547654262507 
422	 0,164372726658282 
423	 0,165842829163738 
424	 0,168431803689339 
425	 0,169375279656532 
426	 0,167342065743612 
427	 0,166186350003336 
428	 0,165872826284716 
429	 0,165310552246562 
430	 0,16452702259871 
431	 0,163410411246543 
432	 0,160933616525995 
433	 0,161593801322325 
434	 0,168412277071279 
435	 0,166957926154518 
436	 0,160174620932189 
437	 0,162484331097544 
438	 0,165485607755449 
439	 0,165929087909461 
440	 0,164864322400363 
441	 0,164289048317949 
442	 0,166603899244816 
443	 0,165535205032241 
444	 0,161973225264 
445	 0,164019724928676 
446	 0,166490649332192 
447	 0,166125492450633 
448	 0,164475237248515 
449	 0,163156258566671 
450	 0,164660071986055 
451	 0,167199213963709 
452	 0,169672083907125 
453	 0,170588616631304 
454	 0,16959674968806 
455	 0,166777439216449 
456	 0,167814576817128 
457	 0,171116161858324 
458	 0,169364493079473 
459	 0,168214650447835 
460	 0,169621496192099 
461	 0,169751781027548 
462	 0,169401034700715 
463	 0,170081534972623 
464	 0,169870167674618 
465	 0,168889470048774 
466	 0,16883707259348 
467	 0,170673963855803 
468	 0,174413294645609 
469	 0,174590119003838 
470	 0,171635364957859 
471	 0,167522404819682 
472	 0,166680739207809 
473	 0,169840403187999 
474	 0,171964647302785 
475	 0,173133273415233 
476	 0,173715608812206 
477	 0,174486165857123 
478	 0,17499943326647 
479	 0,173633905713418 
480	 0,171508785419361 
481	 0,169474515373016 
482	 0,168835710135018 
483	 0,169135379009157 
484	 0,169484354180791 
485	 0,169636959893292 
486	 0,169599623475705 
487	 0,169969406359089 
488	 0,170102251111876 
489	 0,169562324694286 
490	 0,169065237944426 
491	 0,169077693274459 
492	 0,170678860380943 
493	 0,170564227302216 
494	 0,168183089635242 
495	 0,167520404779124 
496	 0,167723003894083 
497	 0,167477283602431 
498	 0,16730146408179 
499	 0,167684927393181 
500	 0,170101112277555 
501	 0,171475659282132 
502	 0,170340523230449 
503	 0,170129838067039 
504	 0,170706138172447 
505	 0,170951921368108 
506	 0,171800756259949 
507	 0,173130024320974 
508	 0,173441539514759 
509	 0,173284333390793 
510	 0,173234748157916 
511	 0,173473396535058 
512	 0,17370612696694 
513	 0,172831366781637 
514	 0,172930716388274 
515	 0,174559459407707 
516	 0,175068760080976 
517	 0,174769283457829 
518	 0,174465095456137 
519	 0,174531028647698 
520	 0,175006024715895 
521	 0,17569392903724 
522	 0,175506606461627 
523	 0,173932865883417 
524	 0,174329976890792 
525	 0,176073833202087 
526	 0,176766243619894 
527	 0,176407796505956 
528	 0,175105288341364 
529	 0,173780048109207 
530	 0,173275472813623 
531	 0,174384623234652 
532	 0,174875297333481 
533	 0,174400273124331 
534	 0,173634166288632 
535	 0,173251795279094 
536	 0,173595900433402 
537	 0,173618282600847 
538	 0,173702889113876 
539	 0,174907622991734 
540	 0,175522855980272 
541	 0,175199468979158 
542	 0,175023311829342 
543	 0,175132304191586 
544	 0,175556634200875 
545	 0,175117362257827 
546	 0,174236410668896 
547	 0,174751954480562 
548	 0,17542373443003 
549	 0,175689327258548 
550	 0,176106230707891 
551	 0,176602732012162 
552	 0,177035253834719 
553	 0,17673352900765 
554	 0,175717511066406 
555	 0,17477291793354 
556	 0,174383963619155 
557	 0,17484256846593 
558	 0,174722196332604 
559	 0,174213436965329 
560	 0,174608136755852 
561	 0,17441502160156 
562	 0,173391684010712 
563	 0,173955397548909 
564	 0,174746823334108 
565	 0,17372038116096 
566	 0,173443690459372 
567	 0,17412778032655 
568	 0,174106006389709 
569	 0,173867246172445 
570	 0,173819919642559 
571	 0,174349887920241 
572	 0,175432188697862 
573	 0,176949892290904 
574	 0,178087736496856 
575	 0,178699958117775 
576	 0,180001909532538 
577	 0,181274349874719 
578	 0,181640868241573 
579	 0,1824910232643 
580	 0,183871397493307 
581	 0,184910985610192 
582	 0,185711610284871 
583	 0,186406480461352 
584	 0,187706859108905 
585	 0,189086625851655 
586	 0,189460405044047 
587	 0,189876281946566 
588	 0,190670834187517 
589	 0,191777914905882 
590	 0,192808782977662 
591	 0,193415462318423 
592	 0,193927247130995 
593	 0,194412350794378 
594	 0,19490528058391 
595	 0,195137207000968 
596	 0,195046422082594 
597	 0,195175406891556 
598	 0,195283562393537 
599	 0,194924755928653 
600	 0,194493686057754 
601	 0,194161456737475 
602	 0,194123033356152 
603	 0,193991467605199 
604	 0,193456557094362 
605	 0,192631062518261 
606	 0,191843075036937 
607	 0,191864059586596 
608	 0,191722128968287 
609	 0,191096182199654 
610	 0,190533832012769 
611	 0,189951409132063 
612	 0,189193686893013 
613	 0,188345239086404 
614	 0,187623445842441 
615	 0,187620401429873 
616	 0,187701248628522 
617	 0,187476989711414 
618	 0,187417978321515 
619	 0,18752250011536 
620	 0,187736059071474 
621	 0,187420765985653 
622	 0,186532884124507 
623	 0,185923885901404 
624	 0,185816444408395 
625	 0,186348072799836 
626	 0,186792947381769 
627	 0,187052773152767 
628	 0,187350976867269 
629	 0,187977057679622 
630	 0,188916735235494 
631	 0,188897138424516 
632	 0,18845010226476 
633	 0,188654603641082 
634	 0,189060589177953 
635	 0,189672556050019 
636	 0,190987494414298 
637	 0,192157371673393 
638	 0,19251323262066 
639	 0,193157718215625 
640	 0,194164797307193 
641	 0,195193116312958 
642	 0,196265856332684 
643	 0,197263165958028 
644	 0,197656356215409 
645	 0,197779390888584 
646	 0,198126578340592 
647	 0,19818140193011 
648	 0,197844868890741 
649	 0,19719773940805 
650	 0,196589168308062 
651	 0,196200986670876 
652	 0,195277830480023 
653	 0,194218980977924 
654	 0,194149807776305 
655	 0,193475605483078 
656	 0,191767271935671 
657	 0,189785068886846 
658	 0,187975399302111 
659	 0,186731546056219 
660	 0,185479482693433 
661	 0,184019831678548 
662	 0,18205803950495 
663	 0,180709286967021 
664	 0,180410820048989 
665	 0,179884519049217 
666	 0,178924183456618 
667	 0,177452353074568 
668	 0,17636647357728 
669	 0,175925945771495 
670	 0,175942510612711 
671	 0,175881027819973 
672	 0,1753644072826 
673	 0,175277987827797 
674	 0,175500481506692 
675	 0,175401874319729 
676	 0,175134382468986 
677	 0,174858995023936 
678	 0,175135965023973 
679	 0,175815101699672 
680	 0,176645224200864 
681	 0,176394688370002 
682	 0,17555303990521 
683	 0,176563902130694 
684	 0,1781294327564 
685	 0,179451426809334 
686	 0,180561806021392 
687	 0,181963914917662 
688	 0,184544395054581 
689	 0,187341732354853 
690	 0,190277479558135 
691	 0,194097484299906 
692	 0,199077095207144 
693	 0,205401612134328 
694	 0,212281564071466 
695	 0,219619895727509 
696	 0,227565940633455 
697	 0,23641774392499 
698	 0,246308714991263 
699	 0,257143399840447 
700	 0,268547104827121 
701	 0,280058171883585 
702	 0,291205550177652 
703	 0,302025744602522 
704	 0,313273738341232 
705	 0,324392891881601 
706	 0,334985227754927 
707	 0,345255767687926 
708	 0,355164090660907 
709	 0,364566662240227 
710	 0,373366596844765 
711	 0,381507750152208 
712	 0,388797384236333 
713	 0,39584643697069 
714	 0,403150161904123 
715	 0,409450736540413 
716	 0,414884964437153 
717	 0,42038566179117 
718	 0,425712496998898 
719	 0,430773211730888 
720	 0,4354496959003 
721	 0,439532817928604 
722	 0,442803180546481 
723	 0,445710009213249 
724	 0,448537501188632 
725	 0,451723795991136 
726	 0,454541227478273 
727	 0,456607756479 
728	 0,458787954368621 
729	 0,460900454244766 
730	 0,462398970455518 
731	 0,463780769797181 
732	 0,465221126790188 
733	 0,46672905606309 
734	 0,468145003552523 
735	 0,469327179835818 
736	 0,470261926370338 
737	 0,471141248379278 
738	 0,472531909867878 
739	 0,473365378948457 
740	 0,473423651230245 
741	 0,473974477776731 
742	 0,474785394293887 
743	 0,475460526988244 
744	 0,476031596638427 
745	 0,47654400485161 
746	 0,477187766168454 
747	 0,477641310043579 
748	 0,477805606897815 
749	 0,478303235172734 
750	 0,478910216291545 
751	 0,479167869398107 
752	 0,479434305155897 
753	 0,479813190097511 
754	 0,480330149560497 
755	 0,480746259343285 
756	 0,480905622605103 
757	 0,481051721261331 
758	 0,481350800627525 
759	 0,482084448953931 
760	 0,482557493753592 
761	 0,48260456575196 
762	 0,482721781751761 
763	 0,482769003945595 
764	 0,482621723625616 
765	 0,482761281014342 
766	 0,483099215317158 
767	 0,483151119502986 
768	 0,483213477747877 
769	 0,483422370846435 
770	 0,483873406631693 
771	 0,484315691814728 
772	 0,484450876574079 
773	 0,48445496102374 
774	 0,48438030939498 
775	 0,484202484966302 
776	 0,48423732831062 
777	 0,48459314646088 
778	 0,48479449360253 
779	 0,484716868372435 
780	 0,484262222713957 
781	 0,484254856579767 
782	 0,4847314198935 
783	 0,484930276226135 
784	 0,485065945763277 
785	 0,485261309875646 
786	 0,485363029069434 
787	 0,485351309012582 
788	 0,485221332230774 
789	 0,485137451254925 
790	 0,485122843550642 
791	 0,485045224784614 
792	 0,484827023075176 
793	 0,48444742881855 
794	 0,484317408210893 
795	 0,484391055774094 
796	 0,484456031099469 
797	 0,484162373808649 
798	 0,483582592706827 
799	 0,483757206896478 
800	 0,483878650843302 
801	 0,483209524613281 
802	 0,482946864218726 
803	 0,483216285119867 
804	 0,483779734725938 
805	 0,484191441548704 
806	 0,484329407659232 
807	 0,484805931210319 
808	 0,485050635494549 
809	 0,484478921535372 
810	 0,484492437678628 
811	 0,48515182687152 
812	 0,485774967132348 
813	 0,486285861441627 
814	 0,486599029903473 
815	 0,486684803941226 
816	 0,486742261780402 
817	 0,487003405461906 
818	 0,487298468283644 
819	 0,487649779931694 
820	 0,488265385394852 
821	 0,488763033912779 
822	 0,488972646934939 
823	 0,4891360392527 
824	 0,4893669700507 
825	 0,489775212439723 
826	 0,490534130067488 
827	 0,491317922973991 
828	 0,49099181001289 
829	 0,490766970209025 
830	 0,49120078867671 
831	 0,4913600435247 
832	 0,491418936299846 
833	 0,49174052027817 
834	 0,492224648575146 
835	 0,492710256763152 
836	 0,49271586863782 
837	 0,493026798299275 
838	 0,493842680168135 
839	 0,493350855814337 
840	 0,49251055483177 
841	 0,492925590712428 
842	 0,493368764367407 
843	 0,493550221786986 
844	 0,493560508500443 
845	 0,493592706378469 
846	 0,493745355050423 
847	 0,49380383592476 
848	 0,493966010434649 
849	 0,494536328706142 
850	 0,494436195496739 
851	 0,493723883590652 
852	 0,493473611877378 
853	 0,493578338914353 
854	 0,493905539425101 
855	 0,49386487716261 
856	 0,493655367549254 
857	 0,493648497077884 
858	 0,493809212945377 
859	 0,494165989514109 
860	 0,494909186732848 
861	 0,495158521694325 
862	 0,494588166698176 
863	 0,494421690011673 
864	 0,494422317710361 
865	 0,494118582166541 
866	 0,494564862213448 
867	 0,495625845933142 
868	 0,496252605932852 
869	 0,496221311551079 
870	 0,495671555324725 
871	 0,496307021466062 
872	 0,497199697179371 
873	 0,497077471618466 
874	 0,497359800567733 
875	 0,498022024723188 
876	 0,498134584682722 
877	 0,498032582654151 
878	 0,497954200547069 
879	 0,498428624957564 
880	 0,498958049232499 
881	 0,498975445336562 
882	 0,498857941886566 
883	 0,498873124159628 
884	 0,499471376998453 
885	 0,500295036126332 
886	 0,501106040558138 
887	 0,501536980950793 
888	 0,501791237131239 
889	 0,502058536978139 
890	 0,501826748707536 
891	 0,501555386428886 
892	 0,502427370436087 
893	 0,503139146529052 
894	 0,503333414166401 
895	 0,50356721058051 
896	 0,503647382980151 
897	 0,503472993629581 
898	 0,503569681248788 
899	 0,504018289085271 
900	 0,504840615787811 
901	 0,504922418955844 
902	 0,504314025176778 
903	 0,504472274166764 
904	 0,505111103125958 
905	 0,505873795787319 
906	 0,505664372908291 
907	 0,504985792832998 
908	 0,504752500277281 
909	 0,504937917438187 
910	 0,505325268135412 
911	 0,505105827856536 
912	 0,505350529956667 
913	 0,50637915069911 
914	 0,506944122168402 
915	 0,507014589433113 
916	 0,506704834781655 
917	 0,506191405424617 
918	 0,505797667004582 
919	 0,506105695972678 
920	 0,506774821887428 
921	 0,507442012262811 
922	 0,507152384069121 
923	 0,50662492031 
924	 0,50644158990593 
925	 0,50566674322644 
926	 0,504777946949985 
927	 0,504830901791515 
928	 0,505181152934432 
929	 0,505384740812427 
930	 0,504507964972766 
931	 0,503991157383705 
932	 0,504596072140867 
933	 0,505282073613735 
934	 0,505461118231885 
935	 0,504615606281934 
936	 0,50480059126211 
937	 0,505671770523583 
938	 0,504957312617488 
939	 0,503641222460323 
940	 0,502400295545933 
941	 0,502661930206402 
942	 0,503012860791116 
943	 0,502199326133426 
944	 0,501658832774829 
945	 0,501204694685428 
946	 0,500065961429798 
947	 0,498815668242761 
948	 0,498028965215521 
949	 0,499224740996201 
950	 0,499598004362255 
951	 0,49773830749636 
952	 0,495965341812093 
953	 0,494676340886627 
954	 0,494026121842095 
955	 0,494124805311614 
956	 0,494306046634891 
957	 0,492802689172788 
958	 0,492025922590012 
959	 0,492414275673171 
960	 0,491796212576553 
961	 0,491299068940415 
962	 0,491667027953531 
963	 0,491078265143792 
964	 0,49036155111458 
965	 0,491125712052272 
966	 0,490335098574165 
967	 0,488479201490713 
968	 0,489477590770942 
969	 0,490320422622816 
970	 0,489900026317204 
971	 0,489738746204479 
972	 0,489508917288936 
973	 0,48897853281225 
974	 0,489732621003731 
975	 0,491088168985311 
976	 0,491367049368017 
977	 0,491943866472261 
978	 0,492699633430319 
979	 0,491803942837805 
980	 0,492081645593739 
981	 0,494029947893511 
982	 0,491573239343701 
983	 0,489340268178048 
984	 0,492154455856745 
985	 0,494230944171852 
986	 0,494473079858672 
987	 0,492810309043598 
988	 0,493001955593118 
989	 0,495011732120952 
990	 0,494103675977687 
991	 0,493507583939237 
992	 0,494885153709439 
993	 0,497433098690847 
994	 0,498969767432958 
995	 0,49769426736231 
996	 0,498575530354485 
997	 0,50096072348501 
998	 0,501841623119258 
999	 0,500594860789587 
1000	 0,498321317396958 
1001	 0,499699716719417 
1002	 0,500547469047555 
1003	 0,499719699071942 
1004	 0,503917220667951 
1005	 0,507214929599976 
1006	 0,504044136059136 
1007	 0,502957638298996 
1008	 0,504046293180043 
1009	 0,504760799439915 
1010	 0,505889069309285 
1011	 0,507204909015003 
1012	 0,507566021797566 
1013	 0,508462009012258 
1014	 0,51038307408001 
1015	 0,512129229547082 
1016	 0,513853520618496 
1017	 0,515294205104068 
1018	 0,511935081851873 
1019	 0,508330113543477 
1020	 0,511932111807108 
1021	 0,514770780812805 
1022	 0,515923003319731 
1023	 0,518153636884089 
1024	 0,520978274522578 
1025	 0,523456003582887 
1026	 0,522472839239432 
1027	 0,521466736758516 
1028	 0,522564103998299 
1029	 0,522836235898194 
1030	 0,52323728902045 
1031	 0,524829898296209 
1032	 0,521224426467922 
1033	 0,517448931342199 
1034	 0,526156921838872 
1035	 0,527314435863016 
1036	 0,519751425303688 
1037	 0,520550706548342 
1038	 0,523927471320514 
1039	 0,526988974515701 
1040	 0,527974526830548 
1041	 0,528370856787682 
1042	 0,529125974616037 
1043	 0,526205227720516 
1044	 0,522505596112759 
1045	 0,52255918911026 
1046	 0,519556235186583 
1047	 0,51674776980063 
1048	 0,52481510063509 
1049	 0,534124616320061 
1050	 0,539588258677933 
1051	 0,535835224451492 
1052	 0,533451633628279 
1053	 0,536978796631453 
1054	 0,536632992357941 
1055	 0,536105646223481 
1056	 0,538453967318789 
1057	 0,537753540963323 
1058	 0,535844590009732 
1059	 0,536491035242078 
1060	 0,53802818762447 
1061	 0,539483281028776 
1062	 0,538854248007908 
1063	 0,545477778172745 
1064	 0,555788803650916 
1065	 0,545923683932503 
1066	 0,530116308216304 
1067	 0,520931801398497 
1068	 0,539148280751047 
1069	 0,553527082734654 
1070	 0,542783036020723 
1071	 0,539508695767266 
1072	 0,53977772367038 
1073	 0,534399503953556 
1074	 0,526170532031463 
1075	 0,524616476491016 
