Wavelength	GRA-VIE-00008.asd
325	 0,240648346049245 
326	 4,28117993301447E-02 
327	 3,8921223872161E-03 
328	 0,181608743706251 
329	 0,213690703293908 
330	 0,193742123664953 
331	 0,16404830254446 
332	 0,169407491311765 
333	 0,206828826106663 
334	 0,240738592765752 
335	 0,248544845582915 
336	 0,243688688647464 
337	 0,305393421627068 
338	 0,338901788017702 
339	 0,261623774651701 
340	 0,160633437974556 
341	 8,78676961638253E-02 
342	 0,102837604427368 
343	 0,122118684934615 
344	 0,118368829929746 
345	 0,131818463958937 
346	 0,131524339561689 
347	 9,44735007354532E-02 
348	 0,12633098006423 
349	 0,19629995632065 
350	 0,170729664832234 
351	 0,131825589144513 
352	 0,102713720059718 
353	 8,27841585545206E-02 
354	 8,99452677042222E-02 
355	 0,135689075109909 
356	 0,152443091611052 
357	 0,146300196602932 
358	 0,164389269866608 
359	 0,176029902539032 
360	 0,165859505179151 
361	 0,142770495627557 
362	 0,127943720504289 
363	 0,148895083082995 
364	 0,13523211264908 
365	 9,31012600313493E-02 
366	 0,107870758346722 
367	 0,132162722711979 
368	 0,136867685845105 
369	 0,140621607585908 
370	 0,142404952962364 
371	 0,13502851388005 
372	 0,141837504556749 
373	 0,162780909560434 
374	 0,16998872348912 
375	 0,166988280743953 
376	 0,159407163402843 
377	 0,169475710746854 
378	 0,185973785128467 
379	 0,181845815384874 
380	 0,178179197406927 
381	 0,17973783722281 
382	 0,17475818964322 
383	 0,172656225633988 
384	 0,182210485887373 
385	 0,182194043714141 
386	 0,177563348360938 
387	 0,190970069572068 
388	 0,199756276938698 
389	 0,197240255610776 
390	 0,196768907324732 
391	 0,199270136168961 
392	 0,204196223986335 
393	 0,208563041859673 
394	 0,21057360749674 
395	 0,206998452377711 
396	 0,204720518720536 
397	 0,207020282010875 
398	 0,207179661530315 
399	 0,207085830294298 
400	 0,21069381060014 
401	 0,211498985949708 
402	 0,208893525752858 
403	 0,206364371044613 
404	 0,206869969631541 
405	 0,212079457674776 
406	 0,221421200644622 
407	 0,226717898693479 
408	 0,210807622359828 
409	 0,204634764454624 
410	 0,214432603176714 
411	 0,221025935525547 
412	 0,224416655322305 
413	 0,225730336269195 
414	 0,22515121372096 
415	 0,223672600564634 
416	 0,223441477459353 
417	 0,22212475884308 
418	 0,219589614687323 
419	 0,220973576015152 
420	 0,222761004866548 
421	 0,220146012792005 
422	 0,217282678943577 
423	 0,215893994528281 
424	 0,218879721748089 
425	 0,218817634415915 
426	 0,212617130716762 
427	 0,214455517017449 
428	 0,220775698375743 
429	 0,222104875509925 
430	 0,221206721985694 
431	 0,219323998378485 
432	 0,218234274404076 
433	 0,220045982081639 
434	 0,22581589958159 
435	 0,225326049590839 
436	 0,220652929560499 
437	 0,221406655621355 
438	 0,224472897436035 
439	 0,228149522420499 
440	 0,22981959264983 
441	 0,228310151920682 
442	 0,222603886810265 
443	 0,219747337814357 
444	 0,220388526459112 
445	 0,219407316449644 
446	 0,219980550308887 
447	 0,2236498816644 
448	 0,226217305640118 
449	 0,227777780655709 
450	 0,230006694797288 
451	 0,228996375942254 
452	 0,225381644572532 
453	 0,22721257187033 
454	 0,23014506741849 
455	 0,229924948567299 
456	 0,229882235938463 
457	 0,229965549380678 
458	 0,228039313122391 
459	 0,228067726725151 
460	 0,230898953994665 
461	 0,230159617687103 
462	 0,228948776078939 
463	 0,23216258915442 
464	 0,232657468069757 
465	 0,230552336612894 
466	 0,233066097778887 
467	 0,234225746506844 
468	 0,230713259240439 
469	 0,230358068621375 
470	 0,232231898882697 
471	 0,232396348094085 
472	 0,231117570331697 
473	 0,229209364431871 
474	 0,230562839223065 
475	 0,231985103433323 
476	 0,230309141396656 
477	 0,230022015352612 
478	 0,231082216312415 
479	 0,230845179423708 
480	 0,230241539319589 
481	 0,229994831551028 
482	 0,232091406068181 
483	 0,234420804522295 
484	 0,233730040542494 
485	 0,231080539898468 
486	 0,228105923515258 
487	 0,229601573013566 
488	 0,231719878119463 
489	 0,231610290303408 
490	 0,232185414796677 
491	 0,232758983422571 
492	 0,230489423046094 
493	 0,229548555445715 
494	 0,231052609125464 
495	 0,232471525466407 
496	 0,232468170394544 
497	 0,229880372125095 
498	 0,22788255369754 
499	 0,227504110740343 
500	 0,229201642055365 
501	 0,231223423821812 
502	 0,232329329716197 
503	 0,231844384314741 
504	 0,230841125448608 
505	 0,231326417169588 
506	 0,231765352733508 
507	 0,231665960098607 
508	 0,230703994772012 
509	 0,230622276386057 
510	 0,232796309930621 
511	 0,233614293448121 
512	 0,233135689203276 
513	 0,233493163821218 
514	 0,233561985734629 
515	 0,233014998491843 
516	 0,232734175275237 
517	 0,232688955563134 
518	 0,232710920332917 
519	 0,232567432889543 
520	 0,232429033640812 
521	 0,233237414296119 
522	 0,233795569790129 
523	 0,233281533401224 
524	 0,23282073569851 
525	 0,232406176463322 
526	 0,231309131527704 
527	 0,231689462530467 
528	 0,233675960065822 
529	 0,233711349606122 
530	 0,232805565681951 
531	 0,232434630646133 
532	 0,232814451332518 
533	 0,233563080858532 
534	 0,233181876546149 
535	 0,232918504317256 
536	 0,233430487395387 
537	 0,233583287859915 
538	 0,233641628899967 
539	 0,23448518075834 
540	 0,234331364107403 
541	 0,233052695633011 
542	 0,232623646295647 
543	 0,233083715856925 
544	 0,234312714587671 
545	 0,235476631714066 
546	 0,236132132397682 
547	 0,235669370308599 
548	 0,235299059183796 
549	 0,23560807531516 
550	 0,235993682657199 
551	 0,23619989815541 
552	 0,235963752474354 
553	 0,235288643664214 
554	 0,234542593310125 
555	 0,235020259332442 
556	 0,235760578482096 
557	 0,235964675624217 
558	 0,236555052303211 
559	 0,237095005731813 
560	 0,23606418934348 
561	 0,235170071555596 
562	 0,235218017289257 
563	 0,236292039009488 
564	 0,237497217016208 
565	 0,2376775341853 
566	 0,237679243282904 
567	 0,237725250371131 
568	 0,237805623946224 
569	 0,237846926416884 
570	 0,237850957978704 
571	 0,238287706944089 
572	 0,23910439713487 
573	 0,240112568778867 
574	 0,240613836455512 
575	 0,240610264696164 
576	 0,241598331657012 
577	 0,243079029608487 
578	 0,244340243802964 
579	 0,244319480539209 
580	 0,24350223189932 
581	 0,244121722135041 
582	 0,245239478779089 
583	 0,246264068189632 
584	 0,246957372824717 
585	 0,247502619019635 
586	 0,248351793127889 
587	 0,248641383799972 
588	 0,248473040014912 
589	 0,249573121580175 
590	 0,250407038324232 
591	 0,249606483433311 
592	 0,249868074593328 
593	 0,250924303975102 
594	 0,250505754964901 
595	 0,250245425712148 
596	 0,250655090534653 
597	 0,249875762391898 
598	 0,24870105885986 
599	 0,248558190733731 
600	 0,248951903382013 
601	 0,249463631182893 
602	 0,248979320212557 
603	 0,248655276208536 
604	 0,249277772007917 
605	 0,248574429530934 
606	 0,247132971471751 
607	 0,247306458766095 
608	 0,247568959533383 
609	 0,247431431011428 
610	 0,247484935375026 
611	 0,247443403445281 
612	 0,246917163741507 
613	 0,246347547424653 
614	 0,245946340523963 
615	 0,245965929778773 
616	 0,246102084506418 
617	 0,24614213450189 
618	 0,246116520643181 
619	 0,246069421456908 
620	 0,246052986552584 
621	 0,246384025783294 
622	 0,246892583880516 
623	 0,24620203333725 
624	 0,245496220133016 
625	 0,246046279332591 
626	 0,247206490183283 
627	 0,248317664814928 
628	 0,247976061616313 
629	 0,247392502161493 
630	 0,247298097637858 
631	 0,24792706219117 
632	 0,248926043137736 
633	 0,249657795304046 
634	 0,250718815404455 
635	 0,251898253588574 
636	 0,251735892918486 
637	 0,251462474607043 
638	 0,252134371050482 
639	 0,252861585653132 
640	 0,253468250736707 
641	 0,253947579063813 
642	 0,254383809402906 
643	 0,25474409523855 
644	 0,254529793515394 
645	 0,254542112336205 
646	 0,255857884019448 
647	 0,25613561021296 
648	 0,255294448091878 
649	 0,255253693118346 
650	 0,255444444832135 
651	 0,255438316668811 
652	 0,254965813112532 
653	 0,254219289521242 
654	 0,253633794455852 
655	 0,253400868632804 
656	 0,253361785145313 
657	 0,25238171170747 
658	 0,251066271690682 
659	 0,250130712744081 
660	 0,24977529602125 
661	 0,249709485337642 
662	 0,248966122594576 
663	 0,24811335292819 
664	 0,247426440260917 
665	 0,246658821285399 
666	 0,24608904649632 
667	 0,246208633290728 
668	 0,245749088904207 
669	 0,244634532439948 
670	 0,244082903141114 
671	 0,24384264883513 
672	 0,24369871406053 
673	 0,243843158101477 
674	 0,244164038687964 
675	 0,244374923715465 
676	 0,244548638449609 
677	 0,244695168005966 
678	 0,244786138205906 
679	 0,244890176336077 
680	 0,245088194648132 
681	 0,245507922612158 
682	 0,24603839043994 
683	 0,246113696442625 
684	 0,246697745257473 
685	 0,24830045315932 
686	 0,250027229140063 
687	 0,251736793621354 
688	 0,253405568727349 
689	 0,255341096365397 
690	 0,257726802899797 
691	 0,260712984386538 
692	 0,264314096462303 
693	 0,268490987599261 
694	 0,272724820370948 
695	 0,277011469600929 
696	 0,281570377050434 
697	 0,286805230312019 
698	 0,2927684766739 
699	 0,29866126592247 
700	 0,304501824292481 
701	 0,310404290050486 
702	 0,316832081768047 
703	 0,323501561300444 
704	 0,32912091378241 
705	 0,334409478640822 
706	 0,339856151083628 
707	 0,345447779110682 
708	 0,351005855048025 
709	 0,356265892692527 
710	 0,360682269624459 
711	 0,364345247297832 
712	 0,368503828282903 
713	 0,372732053446671 
714	 0,37656844911341 
715	 0,380084967819464 
716	 0,383208773288998 
717	 0,38565701315017 
718	 0,388284773726812 
719	 0,391399273288052 
720	 0,394394756323572 
721	 0,397085637873829 
722	 0,399318135318732 
723	 0,401060398956185 
724	 0,402522804950185 
725	 0,404327450139559 
726	 0,406165189954238 
727	 0,407852265144166 
728	 0,409597726712034 
729	 0,411162304468818 
730	 0,41208277965397 
731	 0,412928707212472 
732	 0,41395422830626 
733	 0,415355886940805 
734	 0,416702640704301 
735	 0,417631868705437 
736	 0,418573752844864 
737	 0,4195199292815 
738	 0,420209016547599 
739	 0,421077108090611 
740	 0,422211353694588 
741	 0,423115436936435 
742	 0,423781301022362 
743	 0,42425456120965 
744	 0,424533958992394 
745	 0,42478861014832 
746	 0,425438598500737 
747	 0,426262840409795 
748	 0,427089878010456 
749	 0,427644386299116 
750	 0,428002133080402 
751	 0,428323966739312 
752	 0,429065102638498 
753	 0,430082837401426 
754	 0,43032898865152 
755	 0,430421832688973 
756	 0,430824183834953 
757	 0,431257681197331 
758	 0,431778244561681 
759	 0,432607864254217 
760	 0,433170944817262 
761	 0,433339467213493 
762	 0,433516193792029 
763	 0,433794074873703 
764	 0,434238870407078 
765	 0,434819402020947 
766	 0,435364435460262 
767	 0,435409246705288 
768	 0,435763510231402 
769	 0,436625867467461 
770	 0,437148013866148 
771	 0,437276029843899 
772	 0,437058964516813 
773	 0,437387672772009 
774	 0,438213273057363 
775	 0,438715233819851 
776	 0,439040664927041 
777	 0,439256281162888 
778	 0,439344320643258 
779	 0,43962723012513 
780	 0,440570531989641 
781	 0,440920025690547 
782	 0,44065742214362 
783	 0,44097530591183 
784	 0,441633225610893 
785	 0,44236735140624 
786	 0,44238484095864 
787	 0,442049943680521 
788	 0,44216827743852 
789	 0,443003566403335 
790	 0,444246636441435 
791	 0,444246041031017 
792	 0,444035906323184 
793	 0,444469662946764 
794	 0,445004548471087 
795	 0,445508449099242 
796	 0,44588340505633 
797	 0,446215874772712 
798	 0,446508719844187 
799	 0,446606312550906 
800	 0,446801917141712 
801	 0,447357128877656 
802	 0,4479134085509 
803	 0,448378039479648 
804	 0,44875290389666 
805	 0,448851316642645 
806	 0,448800006369839 
807	 0,449645227055504 
808	 0,450536882076428 
809	 0,450527660764019 
810	 0,450617406370169 
811	 0,451023916697322 
812	 0,451740321472651 
813	 0,452504355217328 
814	 0,45311033553527 
815	 0,45325450434144 
816	 0,453181334816103 
817	 0,453219880370514 
818	 0,453419659634561 
819	 0,453873572832678 
820	 0,454851696442279 
821	 0,455470416539873 
822	 0,455424256922807 
823	 0,455854372141623 
824	 0,456422283979244 
825	 0,456556237448565 
826	 0,456945285151457 
827	 0,457535041442094 
828	 0,457589967496219 
829	 0,457837491772994 
830	 0,458578976103742 
831	 0,459148955186476 
832	 0,459448956261366 
833	 0,459454920574769 
834	 0,46001322589061 
835	 0,460961310915909 
836	 0,461027569722538 
837	 0,460984121333957 
838	 0,461263485591467 
839	 0,461749420340959 
840	 0,462200149766324 
841	 0,46229537648958 
842	 0,462654223203787 
843	 0,463190497842252 
844	 0,463013049984976 
845	 0,463136789954137 
846	 0,464017260887347 
847	 0,464680823260696 
848	 0,464893050169978 
849	 0,464506919517396 
850	 0,464700590907734 
851	 0,465529117942175 
852	 0,466149484209839 
853	 0,466269993007676 
854	 0,465850542853922 
855	 0,465869053795962 
856	 0,466285787557543 
857	 0,466867955503412 
858	 0,467236401275472 
859	 0,467433430846142 
860	 0,468022338012363 
861	 0,468365770378974 
862	 0,468247221419439 
863	 0,468597710880317 
864	 0,468999370082408 
865	 0,468802163632753 
866	 0,469102815793061 
867	 0,469918873372452 
868	 0,470515537403162 
869	 0,470945803669719 
870	 0,471205729403488 
871	 0,471295881339257 
872	 0,47126302441806 
873	 0,471183012605979 
874	 0,471859023781131 
875	 0,472968881985001 
876	 0,473124882606261 
877	 0,47296711319477 
878	 0,472856490781637 
879	 0,473203571109528 
880	 0,473766288877426 
881	 0,474246564877544 
882	 0,474890106030363 
883	 0,475523572222191 
884	 0,47564459892846 
885	 0,475471100294375 
886	 0,475272348699582 
887	 0,475929221907611 
888	 0,476591661250753 
889	 0,476475145378529 
890	 0,476701316042107 
891	 0,477329840983039 
892	 0,478129409236222 
893	 0,478136617642571 
894	 0,477447547265779 
895	 0,478067168669311 
896	 0,478811698189019 
897	 0,478760772744437 
898	 0,478901659145004 
899	 0,479174492021555 
900	 0,479202529491961 
901	 0,479495566200807 
902	 0,479991527975211 
903	 0,479926660939728 
904	 0,479745879573075 
905	 0,479790138399369 
906	 0,480281124418123 
907	 0,480949439778493 
908	 0,481372206860762 
909	 0,481737684177797 
910	 0,481900566966003 
911	 0,481249794388887 
912	 0,48086733228793 
913	 0,481218410190287 
914	 0,481617300045325 
915	 0,481798357076148 
916	 0,481579930847179 
917	 0,481900975971214 
918	 0,482425321695857 
919	 0,481767255128026 
920	 0,481367234992298 
921	 0,481626916422669 
922	 0,481835092918786 
923	 0,481990274827092 
924	 0,482154092540795 
925	 0,482938544020624 
926	 0,483399388346131 
927	 0,48164404640746 
928	 0,481358172014463 
929	 0,482710727489983 
930	 0,482195862072372 
931	 0,481215394681088 
932	 0,480702490559754 
933	 0,480924078900295 
934	 0,481514364699266 
935	 0,481950334011862 
936	 0,482728688931205 
937	 0,483228603060948 
938	 0,481394536503313 
939	 0,480127291517773 
940	 0,480246240828484 
941	 0,479443500246654 
942	 0,478782103294188 
943	 0,479194814953311 
944	 0,479168090217596 
945	 0,478781706765104 
946	 0,478693378665754 
947	 0,478109256595468 
948	 0,477068895553872 
949	 0,476608960812246 
950	 0,475685028816717 
951	 0,474041021316232 
952	 0,474217502881604 
953	 0,474506229728862 
954	 0,472647800337147 
955	 0,471119752608666 
956	 0,470352861756731 
957	 0,470032643456362 
958	 0,469744044221721 
959	 0,469466299536678 
960	 0,47012016469055 
961	 0,470251755835119 
962	 0,468916140797215 
963	 0,468122729279008 
964	 0,467754853909809 
965	 0,467177327288297 
966	 0,467021083879714 
967	 0,467166135572208 
968	 0,466594136306157 
969	 0,467277699875086 
970	 0,469361244261363 
971	 0,468953804705169 
972	 0,467714912517027 
973	 0,467434998366322 
974	 0,467772258153949 
975	 0,46809385210632 
976	 0,46731740393765 
977	 0,467075765208867 
978	 0,467599513764827 
979	 0,46813334852174 
980	 0,46787921266223 
981	 0,466758992256535 
982	 0,466889466259704 
983	 0,467640502749947 
984	 0,46811741020692 
985	 0,467502107832056 
986	 0,466764530122442 
987	 0,468083413001345 
988	 0,469303065479753 
989	 0,469978520275093 
990	 0,470996964176284 
991	 0,471323562292704 
992	 0,470820780504391 
993	 0,472078054642305 
994	 0,473417163443328 
995	 0,473020356888101 
996	 0,472868219533066 
997	 0,472770738819682 
998	 0,471626236118501 
999	 0,471385415804649 
1000	 0,472157955528361 
1001	 0,47221080741746 
1002	 0,471904464636703 
1003	 0,47188205787287 
1004	 0,474516591947809 
1005	 0,478143717556768 
1006	 0,480619525715058 
1007	 0,479355089197216 
1008	 0,476186013243545 
1009	 0,475144405573096 
1010	 0,476516275348288 
1011	 0,47865046569545 
1012	 0,475053254455172 
1013	 0,475251076574445 
1014	 0,481416916171264 
1015	 0,48155080490441 
1016	 0,480477674840018 
1017	 0,482402235030637 
1018	 0,482158228525431 
1019	 0,480259882439064 
1020	 0,478573397109318 
1021	 0,481711641190612 
1022	 0,487281740270548 
1023	 0,48545783497104 
1024	 0,484000371634846 
1025	 0,484777086255726 
1026	 0,483567922448811 
1027	 0,482644577628742 
1028	 0,483175343349324 
1029	 0,481359120160294 
1030	 0,481190287623064 
1031	 0,487107463123924 
1032	 0,489064210698011 
1033	 0,486783569418336 
1034	 0,483753406273392 
1035	 0,4847651412333 
1036	 0,489515749738097 
1037	 0,491973915118098 
1038	 0,490701196256078 
1039	 0,486849533067634 
1040	 0,491309035028524 
1041	 0,495650913582419 
1042	 0,492790718160046 
1043	 0,48701747067064 
1044	 0,483945635207675 
1045	 0,48959053452966 
1046	 0,493192280245837 
1047	 0,49384212753683 
1048	 0,496238394201862 
1049	 0,490116245533887 
1050	 0,479117797485469 
1051	 0,48715550998314 
1052	 0,492418852620962 
1053	 0,48672347403905 
1054	 0,491894360670784 
1055	 0,493997173312283 
1056	 0,483053121623787 
1057	 0,491698619987203 
1058	 0,505802854385127 
1059	 0,500737755768225 
1060	 0,49645404647793 
1061	 0,494812578687186 
1062	 0,489925749179003 
1063	 0,488379997926114 
1064	 0,489182345842878 
1065	 0,480321477350972 
1066	 0,476587010648111 
1067	 0,48354654876579 
1068	 0,494525864327996 
1069	 0,493128958943026 
1070	 0,471455390399706 
1071	 0,466281276976637 
1072	 0,472105789903884 
1073	 0,475748758124586 
1074	 0,475328681394434 
1075	 0,47769708331124 
