Wavelength	GRA-BER00237.asd
325	-6,34275136769637E-02 
326	 6,86277715518907E-02 
327	 0,1444249284582 
328	 9,42426125769817E-02 
329	 7,61747754755675E-03 
330	-3,90399249103282E-02 
331	 2,89994055186958E-02 
332	 0,097849589880423 
333	 0,118105436424314 
334	 3,73176767133394E-02 
335	-2,42874471181239E-02 
336	 2,77908514310047E-03 
337	 0,11170217226153 
338	 0,146505595819778 
339	 3,99484263701888E-03 
340	-2,80287189900375E-03 
341	 9,03798232184961E-02 
342	 7,02366047420999E-02 
343	 3,48361556484709E-02 
344	 2,93459493638991E-02 
345	 9,01088319396711E-02 
346	 0,147954546179385 
347	 0,136251366798241 
348	 0,100961462501104 
349	 5,86759889795706E-02 
350	 3,28115388499711E-02 
351	 4,10830269088875E-02 
352	 7,43304455249529E-02 
353	 0,062772234479566 
354	 3,89796483294603E-02 
355	 0,04923451423479 
356	 5,15314463845663E-02 
357	 3,95135722273363E-02 
358	 1,11614838420606E-02 
359	 1,48446976828888E-02 
360	 6,20003304426462E-02 
361	 7,79639967326156E-02 
362	 0,068318237442938 
363	 0,050064837077437 
364	 5,11263886549928E-02 
365	 6,28851917915726E-02 
366	 2,75290840190969E-02 
367	-5,45856648403702E-03 
368	-2,76807171748164E-03 
369	 2,08742370671776E-02 
370	 4,08293610976804E-02 
371	 1,91196551646947E-02 
372	 1,65187106908117E-02 
373	 4,09869328404376E-02 
374	 4,65390016433366E-02 
375	 3,50304028894093E-02 
376	 1,04947056904697E-02 
377	 1,06940280912867E-02 
378	 2,40997946955835E-02 
379	 1,12039521656397E-02 
380	 1,05478936378529E-02 
381	 2,86101733373178E-02 
382	 0,031814726123822 
383	 3,15497180105056E-02 
384	 0,039309486126184 
385	 0,034020621206219 
386	 1,97667798110765E-02 
387	 1,70431006505083E-02 
388	 1,91141219804029E-02 
389	 2,23599010901647E-02 
390	 2,03512999238419E-02 
391	 1,82845889333322E-02 
392	 2,28174430045344E-02 
393	 4,08638816382964E-02 
394	 5,96919389027039E-02 
395	 4,06063163343853E-02 
396	 2,21962120954871E-02 
397	 2,37502870998522E-02 
398	 1,30126121517831E-02 
399	 3,91938915890342E-03 
400	 2,18798660597793E-02 
401	 3,28170633314973E-02 
402	 3,00663156543826E-02 
403	 2,40270092844415E-02 
404	 0,022734097033078 
405	 0,029935913951892 
406	 2,51418967422721E-02 
407	 1,58000520403318E-02 
408	 2,21427294348746E-02 
409	 2,70285731701692E-02 
410	 2,50692625983219E-02 
411	 1,73743112518623E-02 
412	 1,00264982794434E-02 
413	 8,81279898192463E-03 
414	 1,63411952347385E-02 
415	 2,60192610882661E-02 
416	 2,10837856313161E-02 
417	 1,82621487961099E-02 
418	 2,23400677125717E-02 
419	 1,63219352425047E-02 
420	 9,96895466847239E-03 
421	 1,70262049170164E-02 
422	 1,92639390333837E-02 
423	 1,57457207554052E-02 
424	 1,78538171497542E-02 
425	 2,01401528549548E-02 
426	 1,94824566869345E-02 
427	 0,018434133028386 
428	 0,018102180351346 
429	 1,97276764701519E-02 
430	 2,28312775750546E-02 
431	 2,58301348556519E-02 
432	 2,29427967377626E-02 
433	 2,01709278268064E-02 
434	 2,24803473365693E-02 
435	 1,92692171242012E-02 
436	 0,012853522169002 
437	 1,39714166387426E-02 
438	 1,52831929001097E-02 
439	 1,49080099116277E-02 
440	 2,03104346412687E-02 
441	 2,47390472260799E-02 
442	 1,92937844053725E-02 
443	 0,016929822183898 
444	 1,89847069674791E-02 
445	 1,83552096983952E-02 
446	 1,80492114789905E-02 
447	 1,92968730315527E-02 
448	 1,54665574040724E-02 
449	 1,16960169395226E-02 
450	 1,92473854240643E-02 
451	 2,35762456950745E-02 
452	 2,13720982703023E-02 
453	 1,98150785128324E-02 
454	 0,019846451276612 
455	 2,17984617498945E-02 
456	 2,11852098301769E-02 
457	 1,83558087080812E-02 
458	 0,016334769470145 
459	 1,55931029130195E-02 
460	 1,63593316623513E-02 
461	 1,79081878778702E-02 
462	 1,86477330492934E-02 
463	 0,016670660263421 
464	 1,69821632678095E-02 
465	 1,91205017984193E-02 
466	 1,63984827823648E-02 
467	 1,53614796523436E-02 
468	 1,94969863011275E-02 
469	 1,79277463729865E-02 
470	 1,43052880549391E-02 
471	 1,91049489617896E-02 
472	 2,27421161303765E-02 
473	 2,20512060020218E-02 
474	 1,71699125788992E-02 
475	 1,40594477761232E-02 
476	 1,82681914207945E-02 
477	 2,20557170460529E-02 
478	 2,32807410611043E-02 
479	 0,020652556675452 
480	 1,85616008561643E-02 
481	 1,89788224487756E-02 
482	 1,90117748011495E-02 
483	 1,85969341342079E-02 
484	 0,018113763467383 
485	 1,76911374836213E-02 
486	 1,69778698395842E-02 
487	 1,38035361022208E-02 
488	 1,34146507400845E-02 
489	 1,90662357640891E-02 
490	 2,14501130224525E-02 
491	 2,03697440331007E-02 
492	 0,018906209841568 
493	 1,80003364772427E-02 
494	 1,79319631748849E-02 
495	 1,68980858969837E-02 
496	 1,59733922945864E-02 
497	 1,64847781066273E-02 
498	 1,55377888657723E-02 
499	 1,37210525081141E-02 
500	 1,47644439789575E-02 
501	 1,64625624996421E-02 
502	 1,75218677251611E-02 
503	 1,86896095461052E-02 
504	 1,90995436895066E-02 
505	 1,70097598089394E-02 
506	 1,60354787941757E-02 
507	 1,70207828865188E-02 
508	 1,82944369952839E-02 
509	 0,018893875948326 
510	 1,80884617382967E-02 
511	 1,70486671091624E-02 
512	 1,63455608512714E-02 
513	 0,0166822204294 
514	 1,74799501140067E-02 
515	 0,018180636740928 
516	 1,71409241208032E-02 
517	 1,59271499532211E-02 
518	 1,69444056515744E-02 
519	 1,64663871995659E-02 
520	 1,46747496997975E-02 
521	 1,58000764047986E-02 
522	 1,73154525283732E-02 
523	 1,73255856622354E-02 
524	 1,66745357939343E-02 
525	 1,59395323242253E-02 
526	 0,016130946779525 
527	 1,60811996892376E-02 
528	 1,57188418488036E-02 
529	 1,71148648894749E-02 
530	 1,80624455802951E-02 
531	 1,59887058307739E-02 
532	 1,51862570092597E-02 
533	 1,58611012318686E-02 
534	 1,51980970342536E-02 
535	 1,50259608608372E-02 
536	 0,016184816733546 
537	 1,62659774719168E-02 
538	 1,57931593159834E-02 
539	 1,63876680562828E-02 
540	 1,64585675806747E-02 
541	 0,01579734434788 
542	 0,015648843448362 
543	 1,60675103086032E-02 
544	 1,69777013172964E-02 
545	 1,69668426067401E-02 
546	 1,64678878427034E-02 
547	 1,77576671432679E-02 
548	 0,018165084461007 
549	 1,66746278986165E-02 
550	 1,59586579520275E-02 
551	 1,60528533930373E-02 
552	 1,65342714736692E-02 
553	 1,64847422990375E-02 
554	 1,58726033801206E-02 
555	 1,57185298434488E-02 
556	 1,63227448629965E-02 
557	 1,77458482314878E-02 
558	 1,77736639354397E-02 
559	 1,69318673935045E-02 
560	 1,76312532902647E-02 
561	 1,81554188614562E-02 
562	 1,79996502484011E-02 
563	 1,83633535586549E-02 
564	 1,88961273541452E-02 
565	 1,90004187893527E-02 
566	 1,96427120843806E-02 
567	 2,07068317865307E-02 
568	 2,08904538011819E-02 
569	 2,11187269918829E-02 
570	 2,19644066870757E-02 
571	 2,22622043160941E-02 
572	 2,22957655274204E-02 
573	 2,31016896584353E-02 
574	 2,36468519150555E-02 
575	 2,37843359385242E-02 
576	 2,47492074687796E-02 
577	 2,58171106791529E-02 
578	 2,61008588742343E-02 
579	 2,65459658837494E-02 
580	 2,69589660877387E-02 
581	 0,025939053782768 
582	 2,54396763654568E-02 
583	 2,64372981460117E-02 
584	 0,027143932682212 
585	 2,71051586507968E-02 
586	 2,59223291107861E-02 
587	 2,51948967469705E-02 
588	 2,54005554470198E-02 
589	 2,61932330919671E-02 
590	 2,62244882429542E-02 
591	 2,44063307884957E-02 
592	 2,38047549846021E-02 
593	 2,44480217366828E-02 
594	 2,47170163896682E-02 
595	 2,45127423896303E-02 
596	 2,37781996397685E-02 
597	 2,28801799791776E-02 
598	 2,23758397287083E-02 
599	 2,30172479188645E-02 
600	 2,32393630354693E-02 
601	 2,26720403111381E-02 
602	 2,16739240543559E-02 
603	 2,14083263637208E-02 
604	 2,26043322922945E-02 
605	 2,26030756273486E-02 
606	 2,15764645144994E-02 
607	 0,02110102124485 
608	 2,07336671726503E-02 
609	 2,03719421785582E-02 
610	 2,00342011576691E-02 
611	 1,97485114937397E-02 
612	 0,019548589888119 
613	 1,97036947436242E-02 
614	 2,01529277393559E-02 
615	 2,05853279090399E-02 
616	 2,06040640322359E-02 
617	 2,00348027491222E-02 
618	 1,98375316879979E-02 
619	 1,98394591561248E-02 
620	 1,92986690277052E-02 
621	 1,95357820370766E-02 
622	 2,06391583316994E-02 
623	 2,07958753704435E-02 
624	 2,07690738289202E-02 
625	 2,14148713684435E-02 
626	 2,15104890139094E-02 
627	 2,12139391407081E-02 
628	 2,16995496641685E-02 
629	 2,23662260588851E-02 
630	 2,28545536607876E-02 
631	 2,28774289408784E-02 
632	 2,29062762203804E-02 
633	 0,023776546104942 
634	 2,42684809986245E-02 
635	 2,42265992526244E-02 
636	 2,45869014080798E-02 
637	 2,50716221469726E-02 
638	 0,02544445027139 
639	 2,61446229179056E-02 
640	 2,68867055039259E-02 
641	 2,67372775190955E-02 
642	 0,026765270360133 
643	 2,73044087841694E-02 
644	 2,74911925846041E-02 
645	 2,75756575562384E-02 
646	 2,79811821092772E-02 
647	 2,81800114740913E-02 
648	 2,81138193059383E-02 
649	 2,80502289641985E-02 
650	 2,80363842351364E-02 
651	 2,80864063128745E-02 
652	 2,80015032575832E-02 
653	 2,77758155429273E-02 
654	 2,73908723739607E-02 
655	 2,75772459691064E-02 
656	 2,82193562393354E-02 
657	 0,027428721571846 
658	 2,65529214893198E-02 
659	 2,70233823029517E-02 
660	 2,65657307905533E-02 
661	 2,51296386323124E-02 
662	 2,38726358604646E-02 
663	 2,31877633834116E-02 
664	 2,32443649379969E-02 
665	 2,33349825458344E-02 
666	 2,32942111425097E-02 
667	 2,30440769944857E-02 
668	 2,25052597628124E-02 
669	 2,18916919769173E-02 
670	 2,20752410708298E-02 
671	 2,23357728380034E-02 
672	 2,20914467867962E-02 
673	 2,18394683602554E-02 
674	 2,15944682698413E-02 
675	 2,11271384999417E-02 
676	 2,09207104168584E-02 
677	 0,021136442962756 
678	 2,15393983890144E-02 
679	 2,18647425146253E-02 
680	 2,18354580434123E-02 
681	 2,16625047098357E-02 
682	 2,14212242874906E-02 
683	 2,11238058205487E-02 
684	 2,09547573004391E-02 
685	 2,10481318934413E-02 
686	 2,14407076975605E-02 
687	 2,20050047562343E-02 
688	 2,24895776352962E-02 
689	 2,33852602626437E-02 
690	 2,46399817524773E-02 
691	 0,025287230554745 
692	 2,62704230931611E-02 
693	 2,83910813450988E-02 
694	 3,01091335543976E-02 
695	 3,16708241097791E-02 
696	 3,44703522924349E-02 
697	 3,74574255120295E-02 
698	 4,04003584382144E-02 
699	 4,45179719607354E-02 
700	 4,93197777427567E-02 
701	 5,40436712164879E-02 
702	 5,93599601121371E-02 
703	 6,51721904308385E-02 
704	 7,07107979561327E-02 
705	 7,65738956518382E-02 
706	 8,30478619729039E-02 
707	 8,93310188926282E-02 
708	 9,54959362306978E-02 
709	 0,101941598936256 
710	 0,108028014775641 
711	 0,113772913537398 
712	 0,120273090080293 
713	 0,126605106456869 
714	 0,131942618126459 
715	 0,137502058639255 
716	 0,143291895578589 
717	 0,1488332042602 
718	 0,153745857291016 
719	 0,157983485620657 
720	 0,162580841738512 
721	 0,167023480300149 
722	 0,170537960784581 
723	 0,1745321604587 
724	 0,178877758381785 
725	 0,182012305361901 
726	 0,184664951982424 
727	 0,18733011620391 
728	 0,190166055791016 
729	 0,192906264422931 
730	 0,194997400439665 
731	 0,197072598006799 
732	 0,19924582554437 
733	 0,201083693961194 
734	 0,202751813344401 
735	 0,204411972263435 
736	 0,206038769822664 
737	 0,207595687849003 
738	 0,209018625921772 
739	 0,210199637044413 
740	 0,211206978947524 
741	 0,212698220253148 
742	 0,213994239939427 
743	 0,214285580198051 
744	 0,214877574645201 
745	 0,215901456573089 
746	 0,216749124602424 
747	 0,217583126014648 
748	 0,218497873821225 
749	 0,21966197877976 
750	 0,220694601382913 
751	 0,220993213051446 
752	 0,221384774522904 
753	 0,221982216531687 
754	 0,222223824717703 
755	 0,222513997195089 
756	 0,223113755620621 
757	 0,223459789897293 
758	 0,223752159414737 
759	 0,224625003727044 
760	 0,225063214336453 
761	 0,224965533567906 
762	 0,225580167319926 
763	 0,226169415658618 
764	 0,226038612705189 
765	 0,22629516914754 
766	 0,226885258203242 
767	 0,227120380887986 
768	 0,227272003444057 
769	 0,227441763886257 
770	 0,227609991495828 
771	 0,227897862469151 
772	 0,22843400854731 
773	 0,228854742882711 
774	 0,229031422425513 
775	 0,228811955325027 
776	 0,228873959677107 
777	 0,229495591364346 
778	 0,229849766968477 
779	 0,230030635175623 
780	 0,230324137696792 
781	 0,230498595474934 
782	 0,230577563480106 
783	 0,230838965441875 
784	 0,231107764451339 
785	 0,231297123453232 
786	 0,231708499527651 
787	 0,232206597844058 
788	 0,232498431675919 
789	 0,232645662507226 
790	 0,232591973867636 
791	 0,231991785372968 
792	 0,231689927457186 
793	 0,232296446655845 
794	 0,232727657605382 
795	 0,232803639951683 
796	 0,232515865960895 
797	 0,232549586546247 
798	 0,23309361071283 
799	 0,23380054007193 
800	 0,234090227801584 
801	 0,233517516300987 
802	 0,233368772865214 
803	 0,23371954122429 
804	 0,234074664816902 
805	 0,234518319232544 
806	 0,234941547132983 
807	 0,234774458245256 
808	 0,234629283525354 
809	 0,235159226753 
810	 0,23528772503727 
811	 0,235148147518845 
812	 0,235737989931728 
813	 0,236374564673525 
814	 0,23681303664896 
815	 0,237486589248608 
816	 0,237971981561975 
817	 0,237765192120895 
818	 0,23783882571041 
819	 0,238310604279332 
820	 0,238792880118256 
821	 0,239304151540912 
822	 0,239793243946414 
823	 0,240003069581415 
824	 0,240182005327324 
825	 0,240672543379887 
826	 0,240935067603849 
827	 0,241016517325218 
828	 0,241481457074074 
829	 0,241972998270474 
830	 0,242268308135756 
831	 0,242261692208283 
832	 0,242089096491255 
833	 0,2419533955205 
834	 0,241844081268944 
835	 0,241909145391183 
836	 0,242616999185932 
837	 0,243191298672476 
838	 0,243215515277092 
839	 0,243092371823362 
840	 0,243070064599009 
841	 0,243422165710998 
842	 0,243408954278335 
843	 0,243067785526942 
844	 0,243128041578776 
845	 0,243448300907737 
846	 0,243936767893886 
847	 0,244579774317559 
848	 0,24487192348603 
849	 0,244148506960136 
850	 0,244057470878568 
851	 0,244717989698084 
852	 0,245049771041219 
853	 0,245119852310898 
854	 0,244998874482568 
855	 0,245033087029581 
856	 0,24527041557251 
857	 0,245707826710002 
858	 0,245602581941532 
859	 0,245159028013218 
860	 0,245680993909825 
861	 0,246107548846949 
862	 0,245991726776426 
863	 0,246336623240751 
864	 0,246650091063684 
865	 0,246192350192098 
866	 0,246556255665516 
867	 0,247563218085714 
868	 0,247488341142349 
869	 0,247356931416447 
870	 0,247638231541344 
871	 0,248068957213796 
872	 0,248506706277005 
873	 0,248787051505924 
874	 0,24821316906528 
875	 0,247334278048439 
876	 0,248096296143869 
877	 0,249060344157237 
878	 0,249564337976208 
879	 0,249710740402107 
880	 0,249496189648172 
881	 0,248978983523389 
882	 0,24906649110348 
883	 0,249711470702257 
884	 0,250377853747446 
885	 0,250338785399366 
886	 0,249527511663256 
887	 0,249115617341361 
888	 0,249607883541838 
889	 0,251205530583159 
890	 0,251317140344546 
891	 0,250450714265723 
892	 0,250840853343009 
893	 0,250984661456027 
894	 0,250690426960568 
895	 0,251272813160354 
896	 0,25151584167521 
897	 0,250626187700748 
898	 0,250784795276403 
899	 0,251552666409818 
900	 0,251529860226633 
901	 0,251828188050701 
902	 0,252400922087152 
903	 0,251896288123741 
904	 0,251692670247059 
905	 0,252446512450467 
906	 0,252177759220933 
907	 0,251414663107573 
908	 0,251248043768163 
909	 0,251136920845355 
910	 0,251158174823231 
911	 0,25194090844899 
912	 0,252585208620895 
913	 0,252567121094617 
914	 0,251779480937598 
915	 0,250674427318612 
916	 0,249804909248783 
917	 0,24968921910077 
918	 0,250014801758517 
919	 0,249658530134445 
920	 0,249614905921922 
921	 0,250069912954699 
922	 0,250315544732582 
923	 0,250219798871062 
924	 0,249691934474947 
925	 0,248690024025216 
926	 0,247559221591483 
927	 0,246859062010467 
928	 0,246497881200979 
929	 0,246376742502966 
930	 0,24635761589404 
931	 0,24552534741664 
932	 0,243723228798201 
933	 0,243895694051546 
934	 0,244236249943466 
935	 0,242132648362777 
936	 0,241364382572204 
937	 0,241823184598296 
938	 0,240715892172335 
939	 0,239796559315929 
940	 0,239418251841952 
941	 0,238040671247105 
942	 0,236399976035844 
943	 0,235223513661704 
944	 0,234374239445191 
945	 0,233232508802115 
946	 0,230631195338426 
947	 0,229565872382201 
948	 0,230008544308289 
949	 0,228597393116104 
950	 0,226352562480064 
951	 0,223933828002156 
952	 0,221582825569835 
953	 0,219764760978246 
954	 0,218910838123651 
955	 0,218388201715315 
956	 0,217329052596588 
957	 0,213778241148778 
958	 0,211805038302027 
959	 0,212028219323382 
960	 0,209886469270686 
961	 0,208279160040401 
962	 0,209127169584373 
963	 0,208144119732185 
964	 0,206298211012295 
965	 0,205944983989766 
966	 0,206729972471133 
967	 0,207718009774523 
968	 0,206276688581621 
969	 0,204748051838185 
970	 0,204211700734286 
971	 0,204487516302677 
972	 0,204796363342291 
973	 0,204438860041445 
974	 0,203733235290787 
975	 0,203476678606517 
976	 0,204997495024685 
977	 0,205276766505317 
978	 0,203956989725887 
979	 0,202739735074689 
980	 0,203203843190824 
981	 0,205284533550477 
982	 0,20316882403383 
983	 0,201695280254422 
984	 0,205678676932229 
985	 0,206861875803338 
986	 0,205281813296351 
987	 0,203979851394456 
988	 0,202943896347674 
989	 0,202805848716706 
990	 0,205388215860149 
991	 0,206631068491064 
992	 0,20507618745869 
993	 0,20602826611983 
994	 0,207829353067459 
995	 0,20831768854348 
996	 0,208634143399867 
997	 0,208794988831451 
998	 0,208441421906218 
999	 0,208898316233807 
1000	 0,210759365712245 
1001	 0,215370529447099 
1002	 0,215612839627286 
1003	 0,209589544434515 
1004	 0,209054230461962 
1005	 0,211884589056108 
1006	 0,21470122165005 
1007	 0,214227079389563 
1008	 0,213923412436692 
1009	 0,221023173071477 
1010	 0,222849127845565 
1011	 0,219187333176452 
1012	 0,22134155072607 
1013	 0,222445389338777 
1014	 0,220654543605914 
1015	 0,222259841139224 
1016	 0,223386592080526 
1017	 0,221152698705378 
1018	 0,222435468795107 
1019	 0,225221524590387 
1020	 0,225216277748752 
1021	 0,225559886157916 
1022	 0,226188284863364 
1023	 0,224659197985682 
1024	 0,225586767391027 
1025	 0,229422533417371 
1026	 0,230386844767616 
1027	 0,231326474686366 
1028	 0,233612076700925 
1029	 0,231931631995096 
1030	 0,232326460083015 
1031	 0,241186076888498 
1032	 0,239610635830471 
1033	 0,232248630563698 
1034	 0,236208547385361 
1035	 0,236669647021081 
1036	 0,23320033824158 
1037	 0,239007121785758 
1038	 0,242886640656429 
1039	 0,240780442300766 
1040	 0,240386128139901 
1041	 0,239820413972339 
1042	 0,237959296110488 
1043	 0,240912718702444 
1044	 0,245707487741495 
1045	 0,247234879782717 
1046	 0,24932306189528 
1047	 0,249934492346818 
1048	 0,242035840203428 
1049	 0,245279899546507 
1050	 0,257544076893634 
1051	 0,245389777914493 
1052	 0,239966492281917 
1053	 0,253291184036698 
1054	 0,259039296212836 
1055	 0,2539351067725 
1056	 0,239225795126493 
1057	 0,240585830717965 
1058	 0,248499482994505 
1059	 0,244856108266549 
1060	 0,24563926276753 
1061	 0,251007103634368 
1062	 0,254410132315957 
1063	 0,257610059318898 
1064	 0,259306295789635 
1065	 0,255011881686871 
1066	 0,245984981640222 
1067	 0,238029440970016 
1068	 0,25424005617064 
1069	 0,265976004833228 
1070	 0,255085708531512 
1071	 0,259220482031161 
1072	 0,265137901679026 
1073	 0,253554371087633 
1074	 0,245291520352626 
1075	 0,241764394940742 
