Wavelength	GRA-VAN00752.asd
325	 0,329917110805792 
326	 0,171716396921582 
327	 0,235377803415938 
328	 0,489533083389848 
329	 0,327323532892301 
330	 9,77452367085448E-02 
331	 0,321442273940621 
332	 0,431702657714522 
333	 0,4496208994971 
334	 0,286342194486757 
335	 0,189212679060376 
336	 0,25883912252317 
337	 0,283002471984484 
338	 0,262517341637641 
339	 0,198511582060128 
340	 0,307781557884801 
341	 0,443457858556699 
342	 0,346451720281417 
343	 0,235559936839718 
344	 0,215306880701455 
345	 0,201717385642175 
346	 0,213913971111457 
347	 0,269744864211463 
348	 0,22649135513283 
349	 0,127012371314562 
350	 0,173136862779196 
351	 0,221770239143849 
352	 0,21614215816802 
353	 0,203578426817073 
354	 0,186717938417407 
355	 0,167489353831787 
356	 0,194226179791272 
357	 0,239709428433561 
358	 0,210258582718318 
359	 0,187419086765328 
360	 0,211253537640988 
361	 0,24610154133033 
362	 0,257727276617475 
363	 0,201016464341485 
364	 0,183398624142883 
365	 0,215448844087206 
366	 0,226364869327359 
367	 0,225028297811741 
368	 0,217961429535825 
369	 0,208750350459014 
370	 0,196438691174319 
371	 0,174132013252616 
372	 0,187354797666637 
373	 0,227672564859973 
374	 0,217809489961842 
375	 0,1981547519212 
376	 0,201959546900444 
377	 0,210501685100176 
378	 0,212944444394145 
379	 0,187247782924409 
380	 0,18454332710293 
381	 0,212060406641687 
382	 0,225525089754766 
383	 0,226393553983621 
384	 0,219656709247278 
385	 0,215750100965484 
386	 0,212048488066911 
387	 0,189643298411845 
388	 0,190301375436345 
389	 0,222209946606669 
390	 0,222997736040589 
391	 0,209629996908523 
392	 0,207004785048952 
393	 0,193981943242124 
394	 0,176527815660498 
395	 0,182292284409261 
396	 0,193401472084003 
397	 0,20045200724823 
398	 0,20861404048646 
399	 0,212078296447176 
400	 0,201453227535802 
401	 0,202982880913541 
402	 0,214447257213149 
403	 0,203446407038702 
404	 0,18694939901192 
405	 0,179355437081666 
406	 0,19237638372111 
407	 0,211496821120851 
408	 0,208879954895902 
409	 0,20379561401812 
410	 0,201609037757543 
411	 0,197941491971931 
412	 0,196730659095303 
413	 0,201286871159718 
414	 0,203774927718882 
415	 0,201696734426749 
416	 0,191113854747629 
417	 0,187361806092742 
418	 0,194681403294486 
419	 0,194569318848468 
420	 0,193404152209436 
421	 0,201012011096469 
422	 0,204301454019816 
423	 0,201764742551982 
424	 0,19864379852126 
425	 0,197258418950896 
426	 0,198923323084508 
427	 0,201837681282138 
428	 0,204003639467073 
429	 0,202955109870435 
430	 0,198386178584578 
431	 0,19206600916162 
432	 0,19108825666786 
433	 0,193897030067172 
434	 0,198278803407939 
435	 0,197097700736009 
436	 0,192619732995947 
437	 0,193985678812727 
438	 0,197475446300068 
439	 0,200456972936772 
440	 0,196050572704356 
441	 0,191573098403235 
442	 0,196866845763647 
443	 0,199325117201778 
444	 0,197971083200107 
445	 0,200451030545841 
446	 0,201806780383662 
447	 0,19958592665752 
448	 0,200869080397237 
449	 0,203105561478508 
450	 0,199346824233858 
451	 0,199752880287231 
452	 0,205131069717755 
453	 0,204386084336452 
454	 0,202202880418235 
455	 0,203254494652891 
456	 0,204735776962724 
457	 0,205475612609242 
458	 0,20359191898259 
459	 0,202544462066371 
460	 0,203713484664339 
461	 0,205166142346936 
462	 0,205792139775859 
463	 0,204435637173725 
464	 0,202412901716835 
465	 0,201055870608392 
466	 0,20343788464035 
467	 0,205278895749151 
468	 0,204000438641679 
469	 0,203654521979851 
470	 0,204257190482786 
471	 0,204705858285178 
472	 0,204709336165216 
473	 0,20436640137504 
474	 0,205037083598201 
475	 0,205142479317387 
476	 0,203222240138673 
477	 0,20333118879686 
478	 0,205164883458668 
479	 0,205713331102698 
480	 0,205739678275261 
481	 0,205606125022702 
482	 0,205702326665964 
483	 0,20591519716561 
484	 0,20602467292859 
485	 0,20558330086257 
486	 0,204637222661616 
487	 0,203612691379488 
488	 0,203520375137313 
489	 0,204942182070906 
490	 0,205368902469055 
491	 0,205516282412162 
492	 0,208699732681112 
493	 0,208452841182133 
494	 0,203738042411851 
495	 0,20203235447814 
496	 0,202350625122709 
497	 0,202874152671917 
498	 0,203468077675431 
499	 0,203993348024974 
500	 0,204573357757821 
501	 0,204819023115142 
502	 0,204559885301235 
503	 0,204179742674629 
504	 0,204234444434198 
505	 0,205529183923049 
506	 0,207289299704912 
507	 0,208882922177621 
508	 0,209177257045863 
509	 0,208340766345901 
510	 0,206730666978604 
511	 0,206700430435869 
512	 0,207867230419356 
513	 0,207772492713396 
514	 0,208600638456291 
515	 0,210830560849848 
516	 0,211433828166851 
517	 0,211230275526116 
518	 0,211803189540988 
519	 0,211611331974295 
520	 0,210746061538494 
521	 0,210814681076302 
522	 0,211055777768751 
523	 0,210968942980485 
524	 0,211668900174774 
525	 0,21262730053334 
526	 0,212381751534383 
527	 0,211726203076157 
528	 0,211070470776836 
529	 0,211030095734926 
530	 0,211186728084252 
531	 0,211005346439839 
532	 0,21022662337173 
533	 0,209328664199032 
534	 0,210028652378217 
535	 0,210552631944244 
536	 0,209981912808204 
537	 0,210040721973616 
538	 0,210616934417656 
539	 0,211083208120493 
540	 0,211656552733305 
541	 0,212145095128707 
542	 0,211552020845059 
543	 0,210829405351336 
544	 0,210939900566611 
545	 0,211367800611144 
546	 0,211890638489935 
547	 0,212209122032804 
548	 0,212510671458324 
549	 0,212813068426565 
550	 0,212565286021674 
551	 0,212367807587151 
552	 0,213281563306853 
553	 0,213301792814119 
554	 0,212201440945681 
555	 0,211447562994687 
556	 0,211273036392816 
557	 0,211783666011196 
558	 0,212191435536844 
559	 0,212251975279005 
560	 0,211846291625277 
561	 0,211130578027906 
562	 0,210337442217882 
563	 0,210242890854389 
564	 0,210470679307594 
565	 0,210431106983052 
566	 0,210462187608304 
567	 0,210423736397647 
568	 0,209372152907443 
569	 0,209206692862558 
570	 0,211072796408448 
571	 0,212193963467412 
572	 0,212775887494892 
573	 0,214380506977762 
574	 0,215510632154149 
575	 0,215931343591349 
576	 0,217240801396353 
577	 0,219015486146067 
578	 0,220622082160877 
579	 0,221192147084637 
580	 0,221193519784714 
581	 0,222795168512192 
582	 0,224239479982029 
583	 0,224659838827964 
584	 0,225661510152121 
585	 0,226990506681058 
586	 0,227868383307769 
587	 0,228418127203613 
588	 0,228905219606598 
589	 0,230383092537295 
590	 0,231827811246307 
591	 0,232277288360197 
592	 0,232582251319733 
593	 0,233027633175441 
594	 0,23403895216815 
595	 0,234299296505718 
596	 0,23345501870646 
597	 0,233726747332815 
598	 0,234361205397329 
599	 0,233888631211436 
600	 0,233180403154809 
601	 0,232653231428786 
602	 0,232961240780131 
603	 0,233184720892307 
604	 0,232589718171398 
605	 0,231653251538143 
606	 0,230644317765256 
607	 0,229994635078051 
608	 0,229331555003568 
609	 0,228557543249462 
610	 0,227843532661572 
611	 0,227480985484155 
612	 0,227795272472013 
613	 0,227480720543848 
614	 0,226377678326038 
615	 0,225017560499655 
616	 0,224284021392121 
617	 0,224667527427962 
618	 0,225020662684637 
619	 0,22496801254318 
620	 0,224092830871708 
621	 0,223745963378162 
622	 0,224192618110507 
623	 0,224178524292234 
624	 0,224143596174431 
625	 0,224582060421115 
626	 0,224556608586989 
627	 0,224210527733452 
628	 0,22454238560251 
629	 0,224924813527328 
630	 0,225072703276055 
631	 0,225319511165137 
632	 0,225781703260285 
633	 0,226601705878778 
634	 0,227146238153257 
635	 0,227436824549838 
636	 0,228455204897702 
637	 0,22941043174815 
638	 0,229663111010971 
639	 0,230178376543026 
640	 0,2310604091747 
641	 0,232160383056388 
642	 0,233056084336546 
643	 0,233595561925664 
644	 0,234238778198961 
645	 0,234778158961145 
646	 0,234897613732021 
647	 0,234805711258843 
648	 0,234456656354082 
649	 0,233414573413298 
650	 0,232660647532407 
651	 0,23269762523849 
652	 0,231572592710529 
653	 0,229963718803814 
654	 0,229946492258392 
655	 0,229240954012293 
656	 0,227258989096394 
657	 0,22511121754809 
658	 0,223143138264644 
659	 0,221629080300024 
660	 0,220095437241971 
661	 0,218464366914989 
662	 0,216833734239393 
663	 0,215276807885952 
664	 0,213902429814069 
665	 0,213114745797342 
666	 0,212554876479552 
667	 0,211625033852056 
668	 0,210393139797274 
669	 0,209204102317219 
670	 0,209326195756752 
671	 0,209552950909509 
672	 0,208939523487232 
673	 0,20859144642301 
674	 0,208624875019247 
675	 0,208933719642414 
676	 0,208935001643967 
677	 0,208530777484265 
678	 0,208597046866707 
679	 0,208978727184926 
680	 0,209396498154883 
681	 0,209407107847462 
682	 0,209329781425751 
683	 0,210532973619147 
684	 0,211878276123033 
685	 0,212701590095233 
686	 0,213348373183126 
687	 0,214505664401656 
688	 0,217282181654183 
689	 0,220231242400557 
690	 0,223087822920958 
691	 0,226613608535313 
692	 0,231182756733709 
693	 0,237070816200596 
694	 0,24340592661943 
695	 0,250255442911164 
696	 0,2582480114356 
697	 0,267017619913094 
698	 0,276360069528361 
699	 0,286060312061357 
700	 0,29627107756456 
701	 0,307202346510502 
702	 0,318131545369254 
703	 0,328778453403967 
704	 0,339059543254287 
705	 0,34929241044527 
706	 0,359588974164554 
707	 0,369362878418334 
708	 0,378603637171462 
709	 0,387389137570213 
710	 0,396015553796733 
711	 0,404416667552067 
712	 0,411801066864556 
713	 0,418543905667948 
714	 0,425022111502748 
715	 0,431181228734269 
716	 0,436879955221981 
717	 0,441613069664811 
718	 0,446496477839414 
719	 0,451826907711246 
720	 0,456156975636675 
721	 0,459815984545182 
722	 0,46341524849954 
723	 0,466526997840173 
724	 0,469304557004383 
725	 0,472550392411157 
726	 0,475299500317819 
727	 0,477047173377924 
728	 0,478849946425157 
729	 0,48077282305055 
730	 0,482666908596384 
731	 0,484213090214411 
732	 0,485438683720974 
733	 0,487000358202696 
734	 0,48832770623125 
735	 0,488959861789439 
736	 0,489771714330581 
737	 0,49083653715137 
738	 0,491921281808574 
739	 0,492942007159927 
740	 0,49378907513274 
741	 0,494209581735591 
742	 0,494516276826567 
743	 0,495084002166919 
744	 0,495429374297532 
745	 0,495656729140049 
746	 0,4964407213592 
747	 0,497063526841166 
748	 0,497204867524198 
749	 0,497553912985785 
750	 0,498067053701146 
751	 0,498559805001128 
752	 0,498779270750271 
753	 0,498789813720807 
754	 0,499122712878785 
755	 0,499558241479058 
756	 0,499923897727899 
757	 0,500247594683277 
758	 0,500501864353298 
759	 0,500605194333946 
760	 0,500932037236216 
761	 0,501496663400252 
762	 0,501753406999138 
763	 0,501821686902774 
764	 0,501855093351121 
765	 0,502014069841292 
766	 0,502260365943584 
767	 0,502418871329683 
768	 0,50240158681856 
769	 0,50227439023447 
770	 0,502641829274857 
771	 0,503142521946412 
772	 0,503293139643197 
773	 0,503211229741504 
774	 0,503037367857055 
775	 0,50310059116588 
776	 0,503276403016687 
777	 0,503442721292266 
778	 0,503199763468912 
779	 0,502951370613394 
780	 0,503349968086238 
781	 0,503442378839301 
782	 0,503170374583404 
783	 0,503319659975363 
784	 0,503370633925074 
785	 0,503067300504209 
786	 0,503296278883274 
787	 0,503782452081806 
788	 0,503815306913798 
789	 0,503870379590381 
790	 0,50408498668308 
791	 0,504516243745079 
792	 0,504589082044556 
793	 0,503953145765847 
794	 0,504001668203129 
795	 0,504483385868007 
796	 0,504326620201335 
797	 0,504263604648579 
798	 0,504464839772775 
799	 0,504590843462498 
800	 0,504655579622165 
801	 0,504683414021794 
802	 0,504606092362596 
803	 0,504534848478116 
804	 0,504811553234548 
805	 0,50483739193581 
806	 0,504590138497624 
807	 0,505277127577798 
808	 0,505949905351876 
809	 0,505563175860686 
810	 0,505417376641621 
811	 0,505714707480372 
812	 0,506242051338687 
813	 0,506681902844497 
814	 0,506855817871657 
815	 0,506746159620643 
816	 0,50673458105442 
817	 0,507240000884845 
818	 0,50701412949722 
819	 0,506370590695617 
820	 0,507087651151794 
821	 0,507922274815194 
822	 0,508247608488672 
823	 0,50817584027313 
824	 0,508078222520111 
825	 0,508414644470741 
826	 0,508817317245933 
827	 0,509016483023047 
828	 0,508413967637968 
829	 0,508130067199633 
830	 0,508610121059983 
831	 0,508491370232715 
832	 0,508093242326504 
833	 0,508046335696485 
834	 0,508439521536884 
835	 0,509109878942933 
836	 0,509463169684137 
837	 0,509642918831573 
838	 0,509710602230566 
839	 0,509634272227685 
840	 0,509412357469217 
841	 0,509042231762735 
842	 0,509026251714596 
843	 0,509281967618113 
844	 0,509045602333171 
845	 0,508930020897922 
846	 0,509231789163662 
847	 0,509518253438881 
848	 0,509667265283739 
849	 0,509588019279321 
850	 0,509508600773629 
851	 0,50959883008834 
852	 0,510239159906496 
853	 0,510561428407936 
854	 0,510161125589674 
855	 0,509826495901093 
856	 0,509746075446533 
857	 0,510035454992193 
858	 0,510084813756571 
859	 0,509930214792091 
860	 0,510203997154175 
861	 0,510634334164726 
862	 0,51102656125785 
863	 0,511214389522347 
864	 0,510953343774391 
865	 0,5099962934708 
866	 0,509894705118512 
867	 0,510702077579051 
868	 0,51143488438333 
869	 0,51154755440598 
870	 0,510974983006236 
871	 0,511336950219155 
872	 0,511861661404459 
873	 0,511477058848353 
874	 0,511580402805921 
875	 0,512082815240234 
876	 0,511860973107727 
877	 0,511464330952203 
878	 0,511243147921265 
879	 0,511749528537752 
880	 0,512402911410238 
881	 0,512537548905628 
882	 0,512517270233919 
883	 0,512394508289483 
884	 0,512031665807117 
885	 0,512181155924098 
886	 0,512892090461179 
887	 0,512815954187534 
888	 0,512681816212022 
889	 0,513182548948562 
890	 0,513180719486913 
891	 0,51299765225924 
892	 0,513864587214013 
893	 0,513922767517252 
894	 0,512938841142124 
895	 0,512626898465912 
896	 0,513113108886156 
897	 0,514285344555507 
898	 0,514613411459535 
899	 0,51428451207021 
900	 0,514095396797907 
901	 0,514187707186794 
902	 0,514475113661195 
903	 0,51429725800376 
904	 0,51431617021395 
905	 0,514830226142737 
906	 0,514767602352872 
907	 0,514482794712011 
908	 0,514655936466128 
909	 0,514797121875793 
910	 0,514903262756495 
911	 0,515425344812696 
912	 0,515418142761831 
913	 0,514655887969912 
914	 0,514685449060902 
915	 0,514992290515648 
916	 0,514869657732395 
917	 0,514833224885059 
918	 0,514874595391443 
919	 0,51468863271051 
920	 0,514861771105205 
921	 0,515306772638328 
922	 0,514576681860944 
923	 0,51393641983211 
924	 0,51435957414706 
925	 0,514099265789109 
926	 0,513270341305783 
927	 0,512523916289325 
928	 0,512842243891902 
929	 0,513897177996176 
930	 0,513304152095851 
931	 0,512787069177907 
932	 0,513197162129409 
933	 0,512940846252317 
934	 0,512316607633242 
935	 0,511922628335752 
936	 0,511559161238718 
937	 0,511398166554404 
938	 0,5121899342706 
939	 0,511817325721556 
940	 0,509997643144698 
941	 0,50983797685955 
942	 0,510149406391811 
943	 0,509695327398346 
944	 0,508604924725443 
945	 0,507455271358291 
946	 0,507306830012793 
947	 0,506417372452627 
948	 0,504849231879821 
949	 0,504700527587351 
950	 0,50479421746409 
951	 0,504467092802486 
952	 0,50442035715773 
953	 0,50347165339765 
954	 0,500352207624483 
955	 0,499916935636985 
956	 0,501174960527636 
957	 0,49862246391051 
958	 0,497315851220725 
959	 0,498257513913097 
960	 0,497797978666351 
961	 0,496818625858992 
962	 0,49628843435352 
963	 0,497817089574023 
964	 0,499388810890516 
965	 0,49769567976991 
966	 0,496180245347534 
967	 0,495523884275576 
968	 0,49461902419867 
969	 0,495666428647064 
970	 0,498554961207417 
971	 0,497651860025847 
972	 0,495812162164191 
973	 0,495896581718932 
974	 0,4959135767746 
975	 0,495694675278427 
976	 0,495445579518258 
977	 0,495588939148216 
978	 0,496300204164096 
979	 0,498034250167047 
980	 0,497849988343669 
981	 0,495126709466309 
982	 0,495288678998514 
983	 0,497082446073212 
984	 0,498570984446529 
985	 0,498151337420062 
986	 0,496717204232635 
987	 0,49656252503755 
988	 0,49854339759896 
989	 0,501576833822178 
990	 0,500698768152759 
991	 0,500020430244336 
992	 0,501523000437183 
993	 0,503236859422199 
994	 0,503504113100431 
995	 0,501216373827228 
996	 0,502000164380988 
997	 0,504656979957249 
998	 0,504749960134188 
999	 0,504958595337854 
1000	 0,50568295734584 
1001	 0,505857038579513 
1002	 0,505404619616832 
1003	 0,50492145607995 
1004	 0,507963969713419 
1005	 0,511387951937981 
1006	 0,511830633445367 
1007	 0,509661990287647 
1008	 0,507169175091873 
1009	 0,508158177977918 
1010	 0,509317430275295 
1011	 0,509884259417506 
1012	 0,510156219575693 
1013	 0,512543187040641 
1014	 0,516718046630453 
1015	 0,514793720683834 
1016	 0,513691182047411 
1017	 0,518622782818864 
1018	 0,519211304054438 
1019	 0,516610807056609 
1020	 0,514981435164208 
1021	 0,517609667192413 
1022	 0,522574892941389 
1023	 0,521873355359669 
1024	 0,5219803415381 
1025	 0,52408978979713 
1026	 0,523181815495689 
1027	 0,522662209418955 
1028	 0,524684582895504 
1029	 0,527165604354663 
1030	 0,528664634198945 
1031	 0,527905347255543 
1032	 0,527080244305162 
1033	 0,527291849726839 
1034	 0,52985865632642 
1035	 0,529213925932661 
1036	 0,525908122358538 
1037	 0,528300577341767 
1038	 0,527969003049739 
1039	 0,523309708616163 
1040	 0,527040190251653 
1041	 0,531391980125147 
1042	 0,529990365505628 
1043	 0,530588493169685 
1044	 0,530903077314253 
1045	 0,526856869444889 
1046	 0,527655919521294 
1047	 0,531548681307917 
1048	 0,529340065775745 
1049	 0,53268535965936 
1050	 0,540597079999254 
1051	 0,536579802295028 
1052	 0,532688741918343 
1053	 0,534973770433963 
1054	 0,538261330554303 
1055	 0,5412648319803 
1056	 0,541967803982048 
1057	 0,531005944161518 
1058	 0,523231791139692 
1059	 0,539850677920122 
1060	 0,54034849496755 
1061	 0,530081747303056 
1062	 0,541821617367531 
1063	 0,544439763269501 
1064	 0,533968983950152 
1065	 0,530037394199304 
1066	 0,52995060961127 
1067	 0,532802136016853 
1068	 0,540083080508489 
1069	 0,540547089289659 
1070	 0,529573530733653 
1071	 0,540455303491542 
1072	 0,554683466288978 
1073	 0,545882649897663 
1074	 0,532513313000328 
1075	 0,526445093998582 
