Wavelength	GRA-BER00443.asd
325	 1,30479282601181E-03 
326	 7,61902876356593E-02 
327	 0,123247002075133 
328	 0,107030127533048 
329	 6,10075190541611E-02 
330	-1,86662141523842E-03 
331	-0,047219025352436 
332	 8,01648387713575E-03 
333	 8,49141309030138E-02 
334	 2,86371547063616E-02 
335	-4,66665395849086E-02 
336	-0,106178734034409 
337	-0,136903971902912 
338	-7,99397096710168E-02 
339	 0,101713604129832 
340	 0,105895387486151 
341	 1,20022861497428E-03 
342	 2,34049742268425E-02 
343	 2,87638256158392E-02 
344	-6,50763988127954E-03 
345	 2,36066169010775E-02 
346	 4,27295611804739E-02 
347	-2,01340211486058E-02 
348	 2,78872372840603E-03 
349	 6,75016304261377E-02 
350	 5,57545853916691E-03 
351	-1,20890264483405E-02 
352	 5,74660741413359E-02 
353	 0,080621316521155 
354	 5,98362170184107E-02 
355	 6,20381000015584E-04 
356	-1,56872982902199E-02 
357	 1,86364452947637E-02 
358	 4,85011491939755E-02 
359	 4,63264543343033E-02 
360	 1,14943883440823E-02 
361	 6,83538189373879E-03 
362	 2,40310495456393E-02 
363	 3,64515690771597E-02 
364	 3,47628531253131E-02 
365	 2,22009824497714E-02 
366	 0,019217373535299 
367	 2,68813019124118E-02 
368	 4,33513575614509E-02 
369	 5,35129020768346E-02 
370	 5,32424250853668E-02 
371	 3,88051462553513E-02 
372	 3,74107815508935E-02 
373	 0,049214904051455 
374	 3,37148707211749E-02 
375	 0,017291811315572 
376	 0,018617219423574 
377	-9,66527357225195E-05 
378	-2,24439120779198E-02 
379	-2,15936663202087E-03 
380	 0,016036032856156 
381	 2,05846832086212E-02 
382	 1,81365539518759E-02 
383	 1,79572503522499E-02 
384	 2,76704260437274E-02 
385	 2,80559628144353E-02 
386	 2,11507491736531E-02 
387	 1,92929162713878E-02 
388	 2,57639317800116E-02 
389	 3,62979159864518E-02 
390	 2,33715726381276E-02 
391	 1,07174231704231E-02 
392	 2,87949683940407E-02 
393	 3,77719120404658E-02 
394	 3,23286389948812E-02 
395	 2,28197584497893E-02 
396	 2,31496874812799E-02 
397	 3,57939910517677E-02 
398	 2,43251315990512E-02 
399	 5,93368894702458E-03 
400	 1,05851998791151E-02 
401	 1,72916251764139E-02 
402	 2,02967320367228E-02 
403	 1,95746149819219E-02 
404	 1,65870912784168E-02 
405	 1,31347204804957E-02 
406	 1,65216897373337E-02 
407	 2,12078124691431E-02 
408	 1,33750469758045E-02 
409	 0,01509538346194 
410	 2,78252293201207E-02 
411	 2,80004570327912E-02 
412	 2,10241626481544E-02 
413	 0,013230524803868 
414	 0,012869921505441 
415	 1,83254333839215E-02 
416	 2,16056581245955E-02 
417	 2,26904712579288E-02 
418	 2,10503989467352E-02 
419	 1,46889308221213E-02 
420	 1,00776968063847E-02 
421	 1,55877346955122E-02 
422	 0,018022664532755 
423	 1,63842169645054E-02 
424	 1,83686945094764E-02 
425	 1,99479588545213E-02 
426	 1,93651712705377E-02 
427	 2,32937236052027E-02 
428	 2,82477671811401E-02 
429	 0,027072622329428 
430	 0,021285808262633 
431	 0,014020784620156 
432	 1,60861251169424E-02 
433	 2,02318111775393E-02 
434	 1,99245931356855E-02 
435	 2,00037350816781E-02 
436	 2,08980485749964E-02 
437	 2,21174299171371E-02 
438	 2,06782755562437E-02 
439	 1,65951184938581E-02 
440	 1,79422784766912E-02 
441	 2,10159719116228E-02 
442	 0,020301700145068 
443	 2,00003815705265E-02 
444	 1,98166594613434E-02 
445	 1,48642587859785E-02 
446	 1,28504047014948E-02 
447	 1,78944898950594E-02 
448	 2,10841726497011E-02 
449	 2,22105150893656E-02 
450	 2,37730267181936E-02 
451	 0,021704499956251 
452	 1,66671643288373E-02 
453	 1,66845554625766E-02 
454	 1,93402102958226E-02 
455	 0,021876370640469 
456	 2,24230014757059E-02 
457	 2,14309224823749E-02 
458	 2,12564341067124E-02 
459	 2,16369454890387E-02 
460	 2,21911559465727E-02 
461	 2,08852636487951E-02 
462	 1,88343550399593E-02 
463	 1,77347398743019E-02 
464	 0,017484700938198 
465	 1,79882708395154E-02 
466	 0,01885096794716 
467	 0,019782092557406 
468	 2,04385433684328E-02 
469	 1,99006767356533E-02 
470	 1,89779456832803E-02 
471	 1,95027795948639E-02 
472	 1,97273158042546E-02 
473	 1,93236101474875E-02 
474	 1,95975322584495E-02 
475	 1,97716973211557E-02 
476	 1,91005449064387E-02 
477	 1,97833612600399E-02 
478	 2,09414950540869E-02 
479	 1,86237715518629E-02 
480	 1,77598975563741E-02 
481	 2,03327103418921E-02 
482	 0,022946092330048 
483	 2,40595334868153E-02 
484	 2,21101540770151E-02 
485	 1,91978850921485E-02 
486	 1,69541990911509E-02 
487	 1,83953950634047E-02 
488	 2,11601629065469E-02 
489	 0,023110075880252 
490	 2,20715747092296E-02 
491	 1,93297704812581E-02 
492	 0,018584163240258 
493	 1,84323631833661E-02 
494	 1,82959169897201E-02 
495	 1,70913003777694E-02 
496	 1,64977280671094E-02 
497	 1,84202235941168E-02 
498	 2,00313091450892E-02 
499	 2,02161931308118E-02 
500	 1,74802914695959E-02 
501	 1,60153655518504E-02 
502	 1,79136325102948E-02 
503	 1,90910455823297E-02 
504	 1,93083943525076E-02 
505	 1,92221368894286E-02 
506	 1,82824887470185E-02 
507	 1,70794194911965E-02 
508	 1,86454659331398E-02 
509	 2,01392513719561E-02 
510	 1,90748384482566E-02 
511	 1,94140530936572E-02 
512	 2,06198652629605E-02 
513	 1,92197048660239E-02 
514	 1,81807862479473E-02 
515	 1,87186553625909E-02 
516	 1,98024599876486E-02 
517	 2,02842359078037E-02 
518	 1,87188731743895E-02 
519	 1,87008561364932E-02 
520	 2,02914704733653E-02 
521	 2,01743049616196E-02 
522	 1,93845254933838E-02 
523	 1,87949036763042E-02 
524	 1,89705153021381E-02 
525	 1,95463506671188E-02 
526	 1,95379297197505E-02 
527	 1,91459154376571E-02 
528	 0,018573803043774 
529	 1,85679614945616E-02 
530	 1,89073759061091E-02 
531	 1,92618232330713E-02 
532	 0,019183918284272 
533	 1,88531926572108E-02 
534	 1,91839154092239E-02 
535	 1,95987679131564E-02 
536	 1,97852803768437E-02 
537	 2,01778890401946E-02 
538	 2,06094115563019E-02 
539	 2,07590390414058E-02 
540	 2,01575338642273E-02 
541	 1,91227903379003E-02 
542	 1,98432221387872E-02 
543	 2,04603223887225E-02 
544	 1,92028184909619E-02 
545	 1,96951741716228E-02 
546	 2,13506713836455E-02 
547	 2,05192085937166E-02 
548	 1,92586775906509E-02 
549	 1,87286594952962E-02 
550	 1,97337822576049E-02 
551	 2,08890844026279E-02 
552	 1,98923419371015E-02 
553	 1,96298582042536E-02 
554	 2,05601224225292E-02 
555	 2,10698103003879E-02 
556	 2,11392698727639E-02 
557	 2,08106839473009E-02 
558	 2,04505589433663E-02 
559	 0,020223313148159 
560	 0,020269060650321 
561	 0,020527756584062 
562	 2,09517570833884E-02 
563	 2,14744908860901E-02 
564	 2,18733498756785E-02 
565	 2,18801366457183E-02 
566	 2,20842765562594E-02 
567	 2,24525425259067E-02 
568	 2,21676300128992E-02 
569	 2,23159817787781E-02 
570	 2,35702970129327E-02 
571	 2,46542591798917E-02 
572	 2,52735233727614E-02 
573	 2,53226852324641E-02 
574	 2,50321640216056E-02 
575	 2,46489250317929E-02 
576	 2,46995406823402E-02 
577	 2,52507578549276E-02 
578	 0,026293016778076 
579	 2,68324577251632E-02 
580	 2,68208934308221E-02 
581	 2,69759125994764E-02 
582	 2,70174177498769E-02 
583	 2,68430247824908E-02 
584	 2,69281104331107E-02 
585	 2,68867940481597E-02 
586	 2,58532061052604E-02 
587	 2,56586380569263E-02 
588	 2,64885105920477E-02 
589	 2,65346763843831E-02 
590	 2,59745438476461E-02 
591	 2,51161098676477E-02 
592	 2,51509900029745E-02 
593	 2,55963925093533E-02 
594	 2,43496443109279E-02 
595	 0,023441852849804 
596	 2,37227569143347E-02 
597	 2,39318408988508E-02 
598	 2,40478748506421E-02 
599	 2,42455346165316E-02 
600	 0,024617545808549 
601	 2,48564477133873E-02 
602	 2,37116785301433E-02 
603	 2,25017094648813E-02 
604	 2,23101554203439E-02 
605	 2,27923029766555E-02 
606	 2,33125275594796E-02 
607	 2,25024690106751E-02 
608	 2,15498123470871E-02 
609	 2,10699427729028E-02 
610	 2,16579625156366E-02 
611	 2,25645040623565E-02 
612	 2,28105999949893E-02 
613	 0,022577849759226 
614	 2,22232785106594E-02 
615	 2,29478787489928E-02 
616	 2,30502688814087E-02 
617	 2,16940618413287E-02 
618	 2,17641230663152E-02 
619	 2,27914332517933E-02 
620	 2,30342029308619E-02 
621	 2,31014555509119E-02 
622	 2,31621427136036E-02 
623	 2,32922706643526E-02 
624	 2,34220500764251E-02 
625	 2,34703211357447E-02 
626	 2,33077398383354E-02 
627	 2,32538661839113E-02 
628	 2,43558062509703E-02 
629	 2,52607331484577E-02 
630	 0,025246404306715 
631	 2,46582076097577E-02 
632	 2,42410882745816E-02 
633	 2,50909525198844E-02 
634	 2,60708208088885E-02 
635	 2,67398511457307E-02 
636	 2,69066018733158E-02 
637	 2,69361575404168E-02 
638	 2,71976407896566E-02 
639	 2,82145736471816E-02 
640	 2,95759566862063E-02 
641	 3,00639870622184E-02 
642	 3,02593637528601E-02 
643	 3,04604392360654E-02 
644	 3,10708642864413E-02 
645	 3,17070356741103E-02 
646	 3,18200210260034E-02 
647	 3,23614518109087E-02 
648	 3,31649533432031E-02 
649	 3,27657846518363E-02 
650	 3,25075226101232E-02 
651	 3,31955017058729E-02 
652	 3,34234751817197E-02 
653	 3,31373467409467E-02 
654	 3,25654890324161E-02 
655	 3,26397435956508E-02 
656	 3,35140373343066E-02 
657	 3,41585863273659E-02 
658	 3,44361977475225E-02 
659	 0,034269310548051 
660	 3,32943926782582E-02 
661	 3,19917585028052E-02 
662	 3,18978650805476E-02 
663	 3,16466815113252E-02 
664	 3,06981651924337E-02 
665	 3,04539259531142E-02 
666	 3,04806417984226E-02 
667	 2,98489501122318E-02 
668	 2,94920109588412E-02 
669	 2,95004136200517E-02 
670	 2,92051313549611E-02 
671	 2,87415327380903E-02 
672	 2,82365992155172E-02 
673	 2,76692857127644E-02 
674	 2,72162414862087E-02 
675	 2,72590839976442E-02 
676	 2,75009759955255E-02 
677	 2,77150481874106E-02 
678	 2,74013895824911E-02 
679	 2,69481435906294E-02 
680	 2,68610642032162E-02 
681	 0,026778210716491 
682	 2,65788118792098E-02 
683	 2,60067752615939E-02 
684	 2,60827005027532E-02 
685	 2,72054450275654E-02 
686	 2,72277354205808E-02 
687	 2,69317745016426E-02 
688	 2,82666872484761E-02 
689	 2,91353251267094E-02 
690	 0,029283378654907 
691	 0,03046586331597 
692	 3,20957627343405E-02 
693	 3,36052184031507E-02 
694	 3,54734483126547E-02 
695	 0,037674491635156 
696	 3,98764618190698E-02 
697	 4,26353404945851E-02 
698	 4,61291816115951E-02 
699	 5,00113531083946E-02 
700	 5,36308148807594E-02 
701	 5,62279564252544E-02 
702	 6,01549122517072E-02 
703	 6,54443629999152E-02 
704	 7,01583718956327E-02 
705	 7,45763878267815E-02 
706	 7,89185074769727E-02 
707	 8,36061007313176E-02 
708	 8,85760971259787E-02 
709	 9,36479329985427E-02 
710	 9,82601670003303E-02 
711	 0,102280994097699 
712	 0,106122539853759 
713	 0,109933615631309 
714	 0,113820978747105 
715	 0,117620629141078 
716	 0,121327014443917 
717	 0,125041660268746 
718	 0,128487539672633 
719	 0,131574307557732 
720	 0,134559013788555 
721	 0,137524159814037 
722	 0,140537660327101 
723	 0,142953388479225 
724	 0,144961275521911 
725	 0,147695777993342 
726	 0,15042803703004 
727	 0,152666086882883 
728	 0,15431010933183 
729	 0,155671146671601 
730	 0,157316474109276 
731	 0,158931053510602 
732	 0,160478213695053 
733	 0,162154455397434 
734	 0,163837506739676 
735	 0,165394354448944 
736	 0,166584751455703 
737	 0,167560108492767 
738	 0,168796573656552 
739	 0,170025735483592 
740	 0,171134981921211 
741	 0,172029167994365 
742	 0,172948374958569 
743	 0,174165920402591 
744	 0,175100244520688 
745	 0,17565779431532 
746	 0,175956833598249 
747	 0,176373945449142 
748	 0,177133596847416 
749	 0,178143382334095 
750	 0,179103761767642 
751	 0,179586718863656 
752	 0,180083108925077 
753	 0,180726954210422 
754	 0,18147856851988 
755	 0,182075607659948 
756	 0,182377659641541 
757	 0,182966430774365 
758	 0,183738778087269 
759	 0,184316983930452 
760	 0,184719451430225 
761	 0,185006299104395 
762	 0,18547173588136 
763	 0,185992477213013 
764	 0,1864312502128 
765	 0,186716826414225 
766	 0,186983561922684 
767	 0,187598143194925 
768	 0,188318673990833 
769	 0,188988685956061 
770	 0,18938218491743 
771	 0,189571054583168 
772	 0,189677041923839 
773	 0,190112470585715 
774	 0,190803797358167 
775	 0,19121642247494 
776	 0,191548034653991 
777	 0,191885576934809 
778	 0,19213347568311 
779	 0,192356694751446 
780	 0,192658524461638 
781	 0,19298727816184 
782	 0,193301079706313 
783	 0,193481940762121 
784	 0,193775701104537 
785	 0,194270951407203 
786	 0,194215951957372 
787	 0,194073172332838 
788	 0,194882269044654 
789	 0,195121169972169 
790	 0,194720301849823 
791	 0,195450854715249 
792	 0,196139379868342 
793	 0,195889240256119 
794	 0,195967011830932 
795	 0,196326958770994 
796	 0,196388924236999 
797	 0,196699485810891 
798	 0,19721723601352 
799	 0,196853436772484 
800	 0,196586995429233 
801	 0,197320426491341 
802	 0,197822616924819 
803	 0,197949606348005 
804	 0,197947996319216 
805	 0,197974126511411 
806	 0,198112219034436 
807	 0,198298811826385 
808	 0,198566739857788 
809	 0,198955361901871 
810	 0,199502757038493 
811	 0,200134131839102 
812	 0,200636040404248 
813	 0,20116831826913 
814	 0,201782162080813 
815	 0,202365919551404 
816	 0,202941532932915 
817	 0,203543793860412 
818	 0,204117820716778 
819	 0,20460345756709 
820	 0,204807706954043 
821	 0,205293287219561 
822	 0,206229552061868 
823	 0,206772647707815 
824	 0,207225310178564 
825	 0,208073729416523 
826	 0,208308847067902 
827	 0,208111640021908 
828	 0,208841027995593 
829	 0,209498199915979 
830	 0,209624895056836 
831	 0,209817778723454 
832	 0,210235704314394 
833	 0,210995254534096 
834	 0,211476543106781 
835	 0,211579710328623 
836	 0,211504711964575 
837	 0,211637109074119 
838	 0,212197500598344 
839	 0,21302490801296 
840	 0,21372403412248 
841	 0,213791481503584 
842	 0,214097166816279 
843	 0,214668446116344 
844	 0,214811209916378 
845	 0,214903324750073 
846	 0,21513597064772 
847	 0,215279992848276 
848	 0,215449829115398 
849	 0,215833099528622 
850	 0,215968438396896 
851	 0,215921719099613 
852	 0,216327681978214 
853	 0,216630352260162 
854	 0,216604561682216 
855	 0,216935372386236 
856	 0,217307374866171 
857	 0,217199557222984 
858	 0,21792300878739 
859	 0,219226406243933 
860	 0,219316658572422 
861	 0,219108819511061 
862	 0,219124915189381 
863	 0,219496947317407 
864	 0,219850681141075 
865	 0,219692862057482 
866	 0,220026030744514 
867	 0,220850883180602 
868	 0,221492809073956 
869	 0,221710923818698 
870	 0,221594611589228 
871	 0,222593071977018 
872	 0,2237531857296 
873	 0,223798255494891 
874	 0,223559464071161 
875	 0,223369759522325 
876	 0,223530435963673 
877	 0,224169538693707 
878	 0,225173236503254 
879	 0,225654862327998 
880	 0,225701797548614 
881	 0,225548381859847 
882	 0,226138037963446 
883	 0,227165596467941 
884	 0,227293214201833 
885	 0,227339629832025 
886	 0,227641987646317 
887	 0,22839485470156 
888	 0,229039262757935 
889	 0,229091630045054 
890	 0,229421781018652 
891	 0,229975445648185 
892	 0,230241719068316 
893	 0,230882350019328 
894	 0,231808716207969 
895	 0,231733501198877 
896	 0,231485478230618 
897	 0,231683421284071 
898	 0,231250941774883 
899	 0,230925517827823 
900	 0,232299094680143 
901	 0,233007965570339 
902	 0,232638139629197 
903	 0,232289798382562 
904	 0,232716860676682 
905	 0,234172214929866 
906	 0,234768153446732 
907	 0,23484283068349 
908	 0,23523344041578 
909	 0,235003634456589 
910	 0,234228942364786 
911	 0,233636839971072 
912	 0,233911311694367 
913	 0,235140278234409 
914	 0,235730378111111 
915	 0,235593100428032 
916	 0,234890537556032 
917	 0,235122634111607 
918	 0,236053783845523 
919	 0,23632367674297 
920	 0,235958016429694 
921	 0,235222666794867 
922	 0,23552520708469 
923	 0,23583500692566 
924	 0,235336794510682 
925	 0,235388503585283 
926	 0,235667501928156 
927	 0,235205056496707 
928	 0,235104346599166 
929	 0,235344384521181 
930	 0,234652693784234 
931	 0,234103338937649 
932	 0,234147457325621 
933	 0,233089496040205 
934	 0,232151605739645 
935	 0,23303727807166 
936	 0,233775753565854 
937	 0,233577780560058 
938	 0,231508946563109 
939	 0,229877159622737 
940	 0,22965255179009 
941	 0,230534590972298 
942	 0,230650328887327 
943	 0,228659125613957 
944	 0,228453340726115 
945	 0,229245318512891 
946	 0,228409979169412 
947	 0,226693227002094 
948	 0,224704454526036 
949	 0,223902017414723 
950	 0,223428559592669 
951	 0,222641361703408 
952	 0,220920006234367 
953	 0,218947438596876 
954	 0,21764620100656 
955	 0,217369431126667 
956	 0,217732667975863 
957	 0,217763036946618 
958	 0,2163105563296 
959	 0,213627613579618 
960	 0,212779430114534 
961	 0,213198709313087 
962	 0,214078372121893 
963	 0,213230333937798 
964	 0,212195312006774 
965	 0,213779644426345 
966	 0,214522515898426 
967	 0,213990203800031 
968	 0,213662376871855 
969	 0,213334337554987 
970	 0,212698358124983 
971	 0,209931182201716 
972	 0,209063618516264 
973	 0,213171125017831 
974	 0,213692140635996 
975	 0,212116481641347 
976	 0,213749073053152 
977	 0,215042052777529 
978	 0,215174274008003 
979	 0,214684111908941 
980	 0,214297993045291 
981	 0,214358853914504 
982	 0,214299410944572 
983	 0,214111330018415 
984	 0,213921879079558 
985	 0,214733564577897 
986	 0,216545101705775 
987	 0,219117554330874 
988	 0,219044804076343 
989	 0,216525085733667 
990	 0,215972936439425 
991	 0,216781053214962 
992	 0,218485964491283 
993	 0,220332157413003 
994	 0,220691282930646 
995	 0,218377617569987 
996	 0,217759691309394 
997	 0,219298028733324 
998	 0,222188561184249 
999	 0,223084899164868 
1000	 0,222408441559234 
1001	 0,226194315816774 
1002	 0,226725756207937 
1003	 0,221899658424065 
1004	 0,223381467851881 
1005	 0,226394773227336 
1006	 0,225749270661004 
1007	 0,226801043816079 
1008	 0,228720813874481 
1009	 0,22855505322332 
1010	 0,229750901040173 
1011	 0,232419749293295 
1012	 0,233660775475944 
1013	 0,235693593598863 
1014	 0,238486426137822 
1015	 0,236679486782222 
1016	 0,234912925665684 
1017	 0,237067027996871 
1018	 0,238962069681156 
1019	 0,240203510086978 
1020	 0,241036434017525 
1021	 0,237609877563833 
1022	 0,23305041718894 
1023	 0,23828116192389 
1024	 0,242866703803005 
1025	 0,243862829647272 
1026	 0,246043777737416 
1027	 0,246651230407901 
1028	 0,244495018373056 
1029	 0,244078877292251 
1030	 0,246093441166068 
1031	 0,250253171036403 
1032	 0,251103667007492 
1033	 0,248839675159219 
1034	 0,246085253969289 
1035	 0,246719443791367 
1036	 0,250983634301632 
1037	 0,25599271656755 
1038	 0,255673720347376 
1039	 0,249567762524153 
1040	 0,251676089363459 
1041	 0,256454757423689 
1042	 0,258063106873731 
1043	 0,253574794945124 
1044	 0,2499015779116 
1045	 0,256867133877236 
1046	 0,262376930708781 
1047	 0,264084416700164 
1048	 0,263370924172866 
1049	 0,25853581815122 
1050	 0,252273177226858 
1051	 0,256753401144338 
1052	 0,256846337776958 
1053	 0,248540354525223 
1054	 0,255057808727531 
1055	 0,264803086028613 
1056	 0,266344049651032 
1057	 0,26437306894387 
1058	 0,263216014371926 
1059	 0,267525373675772 
1060	 0,261427735460815 
1061	 0,250750650116619 
1062	 0,255483236026207 
1063	 0,269903771448845 
1064	 0,283866887745753 
1065	 0,266585707676244 
1066	 0,255532251499639 
1067	 0,265006867298343 
1068	 0,267544664015215 
1069	 0,270707130500362 
1070	 0,278824805351041 
1071	 0,276510492778022 
1072	 0,267072888933541 
1073	 0,257732867574127 
1074	 0,26071069509447 
1075	 0,26676822941932 
