Wavelength	GRA-VAN00589.asd
325	 0,394380444793381 
326	 0,335145026791878 
327	 0,260818047879265 
328	 0,255361415720848 
329	 0,257832272742889 
330	 0,263665862384558 
331	 0,258495849013477 
332	 0,180838537419146 
333	 7,13435233787814E-02 
334	-1,00486462581691E-03 
335	 0,116029429209871 
336	 0,329564206950256 
337	 0,258835449403821 
338	 0,153170936891198 
339	 0,211258748151799 
340	 0,210813767852961 
341	 0,149099616655771 
342	 6,64235972306261E-02 
343	 5,53684785990747E-02 
344	 0,122420952424398 
345	 0,124365497189743 
346	 0,116130327505652 
347	 0,147794057045767 
348	 7,30534700855395E-02 
349	-5,20766879735145E-02 
350	 2,95841282343735E-02 
351	 0,10787238752891 
352	 9,89781653574757E-02 
353	 7,58886694006064E-02 
354	 0,045938222823409 
355	 1,60234496162225E-02 
356	 5,54797082409279E-02 
357	 0,120936214372578 
358	 6,44045673922033E-02 
359	 2,80547503559195E-02 
360	 7,50046924781404E-02 
361	 9,33784001775031E-02 
362	 8,84138635384602E-02 
363	 7,87178690972267E-02 
364	 5,92752999558519E-02 
365	 3,44902038782789E-02 
366	 1,51266794803233E-02 
367	 2,72205505697923E-02 
368	 7,59143938981564E-02 
369	 8,85526366989704E-02 
370	 0,066859296695681 
371	 2,44121677455788E-02 
372	 2,35525024533857E-02 
373	 6,21109697182571E-02 
374	 4,65407669393316E-02 
375	 2,28628552695779E-02 
376	 2,97393389817041E-02 
377	 0,046106940229939 
378	 6,32500586239709E-02 
379	 6,76665643523635E-02 
380	 6,11956318756656E-02 
381	 4,89819899757788E-02 
382	 5,11786194457586E-02 
383	 5,65351241153067E-02 
384	 5,43773463803315E-02 
385	 6,08725402180707E-02 
386	 6,63761674171544E-02 
387	 3,86221500600842E-02 
388	 1,89137789354218E-02 
389	 2,46045871251553E-02 
390	 3,36687083519191E-02 
391	 3,99824722354383E-02 
392	 3,90712260633796E-02 
393	 4,41706617674734E-02 
394	 5,20086256819602E-02 
395	 4,46993405419472E-02 
396	 3,41189653207734E-02 
397	 2,85755371984271E-02 
398	 4,11254187197183E-02 
399	 0,05455995787178 
400	 4,21923726378227E-02 
401	 3,78836835941773E-02 
402	 4,47715184185746E-02 
403	 4,20236269438545E-02 
404	 0,029664110164102 
405	 1,12286576549536E-02 
406	 1,97211948918413E-02 
407	 0,040624183507068 
408	 3,93080839498303E-02 
409	 3,75982162326859E-02 
410	 3,92554708467453E-02 
411	 3,18445932779923E-02 
412	 2,50615161007872E-02 
413	 0,027826847992556 
414	 2,59357456243808E-02 
415	 2,04484399838091E-02 
416	 2,05438495088957E-02 
417	 2,05342744171212E-02 
418	 1,96065149192161E-02 
419	 2,77596394381042E-02 
420	 3,54649951673984E-02 
421	 3,07080424205622E-02 
422	 2,79696711481605E-02 
423	 2,97580704574692E-02 
424	 3,27367323514985E-02 
425	 3,33609379881683E-02 
426	 3,00733704403914E-02 
427	 2,95395417846022E-02 
428	 3,01709112070031E-02 
429	 2,74651766143585E-02 
430	 0,02445197286781 
431	 2,25149200323528E-02 
432	 2,31487418197557E-02 
433	 2,57813120060746E-02 
434	 2,94543246811025E-02 
435	 2,87485927828192E-02 
436	 2,47057545332213E-02 
437	 2,21611798530433E-02 
438	 2,23200156726658E-02 
439	 2,48498580887577E-02 
440	 2,35008383655229E-02 
441	 2,17771523009258E-02 
442	 2,47714701401608E-02 
443	 2,44506960399022E-02 
444	 0,021830827030466 
445	 2,73830281559787E-02 
446	 3,05134376662205E-02 
447	 2,56999726522373E-02 
448	 2,63131048761358E-02 
449	 0,029528903286318 
450	 2,63448701525473E-02 
451	 2,62159595989817E-02 
452	 3,00384051930224E-02 
453	 2,87154753569968E-02 
454	 2,53506890105113E-02 
455	 2,34393326340957E-02 
456	 2,71885906073733E-02 
457	 3,24798371017567E-02 
458	 2,57034389291276E-02 
459	 2,30757598524273E-02 
460	 2,93174522857664E-02 
461	 2,60899165284241E-02 
462	 2,09177406287578E-02 
463	 2,59059715501164E-02 
464	 2,55060651235272E-02 
465	 1,94542764089509E-02 
466	 2,02748922682757E-02 
467	 2,43618305611956E-02 
468	 2,88104563863266E-02 
469	 3,06919374747216E-02 
470	 2,94337021561882E-02 
471	 2,44938511526518E-02 
472	 0,023139442320556 
473	 2,64304911184713E-02 
474	 2,58175476049277E-02 
475	 0,025269338053304 
476	 2,88358393969323E-02 
477	 2,84806862411025E-02 
478	 2,50408169758145E-02 
479	 0,025182006008855 
480	 2,52975377445934E-02 
481	 2,41857098951338E-02 
482	 2,54169989822665E-02 
483	 2,69343990854729E-02 
484	 2,52464777133905E-02 
485	 2,42872823766562E-02 
486	 2,48738017891416E-02 
487	 2,59467955999034E-02 
488	 2,60939876407931E-02 
489	 2,45011326891844E-02 
490	 2,44483479446077E-02 
491	 0,025520825605246 
492	 2,54537900931875E-02 
493	 2,57414211987266E-02 
494	 2,65816889505365E-02 
495	 2,67247107313304E-02 
496	 0,025574769497135 
497	 0,022656304437253 
498	 2,22358247328128E-02 
499	 2,42775458350713E-02 
500	 2,56612958295613E-02 
501	 2,57804482485356E-02 
502	 2,45912872717355E-02 
503	 2,52417884637911E-02 
504	 2,65824656769038E-02 
505	 2,58109565217054E-02 
506	 2,57180807412663E-02 
507	 2,68669396095228E-02 
508	 2,82346428785747E-02 
509	 2,82912988703786E-02 
510	 0,02595894125654 
511	 2,60707113992152E-02 
512	 2,77623694169852E-02 
513	 2,59767323054886E-02 
514	 2,56038894217963E-02 
515	 2,80698508587344E-02 
516	 2,83118735613491E-02 
517	 2,72358239848616E-02 
518	 2,67681457730482E-02 
519	 2,71829202238099E-02 
520	 0,028080424418621 
521	 2,76725583319387E-02 
522	 2,66666988021454E-02 
523	 2,57832497419651E-02 
524	 2,66660838162375E-02 
525	 0,028302727466798 
526	 2,80059419783293E-02 
527	 2,68795270417918E-02 
528	 2,55435893438975E-02 
529	 2,50807984260578E-02 
530	 2,56303640226353E-02 
531	 2,71888132566367E-02 
532	 2,78200487225021E-02 
533	 2,72760154713753E-02 
534	 2,62839817464709E-02 
535	 2,59045426629445E-02 
536	 2,66601692853068E-02 
537	 2,69648539655259E-02 
538	 2,70336912235577E-02 
539	 2,77428164024536E-02 
540	 2,80905660952113E-02 
541	 2,76969108623786E-02 
542	 2,62446832251132E-02 
543	 2,52943429430237E-02 
544	 2,62913562100846E-02 
545	 2,71965941774772E-02 
546	 0,027509895023063 
547	 2,69821934304671E-02 
548	 2,73021234303916E-02 
549	 2,89522584206239E-02 
550	 2,90631588022147E-02 
551	 0,027969341696937 
552	 2,66463058673448E-02 
553	 2,62731137252881E-02 
554	 2,68968039967916E-02 
555	 2,69016850563224E-02 
556	 2,68751604818107E-02 
557	 2,72964069818599E-02 
558	 2,75023001465493E-02 
559	 2,73966988132905E-02 
560	 2,69941806274911E-02 
561	 2,67383475060093E-02 
562	 2,68900799589211E-02 
563	 2,77634925857191E-02 
564	 2,83170219842646E-02 
565	 2,71921938120745E-02 
566	 2,64254285731341E-02 
567	 2,64820882517114E-02 
568	 2,69980907929123E-02 
569	 2,71032420439402E-02 
570	 2,63247497169721E-02 
571	 2,64662483054157E-02 
572	 2,72858431118587E-02 
573	 2,75968953731164E-02 
574	 2,81736399360727E-02 
575	 2,90884650333571E-02 
576	 2,95170663740663E-02 
577	 2,95731245918297E-02 
578	 2,94597456747601E-02 
579	 2,92846972560017E-02 
580	 2,92726582889179E-02 
581	 3,00365054827797E-02 
582	 3,03861750776815E-02 
583	 2,97877386896143E-02 
584	 2,97959177583617E-02 
585	 0,030476799072364 
586	 3,16520691090569E-02 
587	 0,031929741205264 
588	 3,13053125506648E-02 
589	 3,19835268473453E-02 
590	 3,28507372254927E-02 
591	 3,28077057486184E-02 
592	 3,26864740409892E-02 
593	 0,032621549000925 
594	 3,25296411420914E-02 
595	 3,23991608761187E-02 
596	 3,22679322933896E-02 
597	 3,23726411063227E-02 
598	 0,032661023707333 
599	 3,30537028534828E-02 
600	 3,26022768951837E-02 
601	 0,031590615973765 
602	 3,22016038994853E-02 
603	 3,30699879456717E-02 
604	 3,30220081122615E-02 
605	 0,031855493698177 
606	 3,04394422372904E-02 
607	 3,10355661096766E-02 
608	 3,13236562968734E-02 
609	 3,05870561644824E-02 
610	 3,00770043578718E-02 
611	 3,00430411915756E-02 
612	 3,06479573597942E-02 
613	 3,07192015570781E-02 
614	 3,02080447036467E-02 
615	 3,00167457168534E-02 
616	 3,00209454245359E-02 
617	 3,01374157580695E-02 
618	 3,03511976052997E-02 
619	 3,03804886358754E-02 
620	 0,02963138036917 
621	 2,94235820339941E-02 
622	 2,99195421451657E-02 
623	 2,94993053052323E-02 
624	 2,90435556382877E-02 
625	 2,95107689367127E-02 
626	 2,96730554215001E-02 
627	 2,95894695152711E-02 
628	 3,02954008518031E-02 
629	 3,06940196848209E-02 
630	 3,03021673210192E-02 
631	 3,00037669184754E-02 
632	 3,00272426460066E-02 
633	 3,05684780203572E-02 
634	 3,07855187210329E-02 
635	 0,030657145149983 
636	 3,13390665317863E-02 
637	 0,031776396042891 
638	 3,11385078960986E-02 
639	 3,09863487330005E-02 
640	 3,13648028862135E-02 
641	 3,15855586101345E-02 
642	 3,20193153996659E-02 
643	 0,032703307144314 
644	 3,30755099191068E-02 
645	 3,33758327949752E-02 
646	 3,39891185997145E-02 
647	 3,38709447048643E-02 
648	 0,033057655227118 
649	 3,24908330204873E-02 
650	 3,25578854288927E-02 
651	 0,033322979162928 
652	 3,27390659095972E-02 
653	 0,031585865423057 
654	 3,21849163787276E-02 
655	 3,21346122628563E-02 
656	 3,09075836853723E-02 
657	 3,00448883582296E-02 
658	 2,94424287895753E-02 
659	 2,89025528590834E-02 
660	 2,86136583252345E-02 
661	 2,84819196184479E-02 
662	 2,81684963248512E-02 
663	 2,78509832682704E-02 
664	 0,027629858875014 
665	 2,76066109628923E-02 
666	 2,75219992757841E-02 
667	 2,69539018843519E-02 
668	 0,026525190415843 
669	 2,64027523544592E-02 
670	 2,64005441095475E-02 
671	 2,66309523246285E-02 
672	 2,71074483820534E-02 
673	 2,68526210280907E-02 
674	 2,62792976624165E-02 
675	 2,68917503315692E-02 
676	 2,69677814029364E-02 
677	 2,61928389363217E-02 
678	 2,65575301055646E-02 
679	 2,73789328815246E-02 
680	 2,76559882492664E-02 
681	 2,70975273049757E-02 
682	 2,62885355084759E-02 
683	 0,027324709695768 
684	 2,85113233634137E-02 
685	 2,88504249478976E-02 
686	 2,90074064109743E-02 
687	 2,92771870474909E-02 
688	 3,00503005093486E-02 
689	 3,05707249913907E-02 
690	 3,08097896198616E-02 
691	 3,15433809889011E-02 
692	 3,30206442666798E-02 
693	 3,53749355605582E-02 
694	 3,75879577419835E-02 
695	 3,97774508973925E-02 
696	 0,042803704462105 
697	 4,60967862563409E-02 
698	 4,94973167022115E-02 
699	 5,33498927177479E-02 
700	 0,058000536358996 
701	 6,38268858768465E-02 
702	 6,93733238853304E-02 
703	 0,074494321697391 
704	 8,01243825306332E-02 
705	 8,61595653741264E-02 
706	 9,24126493083264E-02 
707	 9,80135595248749E-02 
708	 0,103353645482498 
709	 0,109414435191782 
710	 0,115108563926283 
711	 0,120157808958901 
712	 0,124912034393055 
713	 0,12966466140286 
714	 0,134627714843375 
715	 0,139057734492859 
716	 0,143066798221306 
717	 0,147419703504923 
718	 0,151148892583951 
719	 0,153958233739115 
720	 0,156588807397959 
721	 0,159339524675976 
722	 0,162489025560846 
723	 0,164740896252775 
724	 0,166287162052367 
725	 0,168933175512058 
726	 0,171271618018718 
727	 0,172515675469135 
728	 0,17377295506907 
729	 0,175217098898265 
730	 0,176905672315949 
731	 0,178102133425716 
732	 0,178776221815054 
733	 0,179905498556996 
734	 0,181032342648309 
735	 0,181753035917889 
736	 0,18253125635057 
737	 0,18342238832152 
738	 0,184405501445707 
739	 0,185101609642029 
740	 0,185412251474125 
741	 0,185714206703461 
742	 0,186198075217377 
743	 0,187023814526305 
744	 0,187402428331984 
745	 0,187380190219151 
746	 0,187684437917812 
747	 0,188058961603475 
748	 0,188389973718723 
749	 0,188859941501726 
750	 0,189234715901846 
751	 0,189127673973258 
752	 0,189193025881788 
753	 0,189585864680136 
754	 0,190117623854892 
755	 0,190623704643005 
756	 0,190961894863069 
757	 0,190995300595073 
758	 0,190988468341548 
759	 0,19154048134407 
760	 0,191855945292371 
761	 0,191740781912798 
762	 0,191620367970087 
763	 0,19157782407412 
764	 0,191670156124851 
765	 0,19181981424854 
766	 0,192020856259255 
767	 0,192367022584569 
768	 0,192406985126504 
769	 0,192093476018766 
770	 0,192279199920504 
771	 0,192723224580955 
772	 0,193047930475548 
773	 0,1931048745019 
774	 0,192989945509056 
775	 0,19309805672824 
776	 0,193413966176914 
777	 0,193836942213878 
778	 0,193708086256456 
779	 0,193383741674033 
780	 0,193487744881043 
781	 0,193686037768287 
782	 0,193853984779284 
783	 0,193835545689854 
784	 0,193931296706812 
785	 0,194262600811239 
786	 0,194038290417584 
787	 0,193666066313589 
788	 0,19405737494275 
789	 0,194519396826401 
790	 0,194816439349053 
791	 0,194986667521054 
792	 0,19478699837329 
793	 0,194143290501531 
794	 0,194355600514608 
795	 0,195062703537926 
796	 0,195043610373675 
797	 0,194702386271175 
798	 0,194347934937377 
799	 0,194875518706852 
800	 0,195418311904571 
801	 0,195148410945186 
802	 0,194742687389226 
803	 0,194514587405885 
804	 0,194944557384522 
805	 0,195237032081794 
806	 0,195166718862863 
807	 0,19537926842337 
808	 0,19547613890739 
809	 0,195036794158749 
810	 0,195131267945893 
811	 0,195735269532739 
812	 0,196166859476989 
813	 0,196422893619999 
814	 0,19646435840459 
815	 0,196248763501234 
816	 0,196155946629085 
817	 0,196609791077184 
818	 0,196850498133391 
819	 0,196802754513642 
820	 0,196777950415456 
821	 0,196876846685098 
822	 0,197148586866624 
823	 0,19748600873144 
824	 0,197730653249994 
825	 0,197708572424525 
826	 0,197859010432806 
827	 0,198194694684054 
828	 0,198441263293198 
829	 0,198437366077346 
830	 0,198142322811579 
831	 0,197938646270108 
832	 0,197850477543678 
833	 0,197840046341349 
834	 0,198162189322784 
835	 0,198651630528024 
836	 0,198629616800183 
837	 0,198428102681758 
838	 0,198276378892263 
839	 0,198438642761007 
840	 0,198575464164387 
841	 0,198172168364602 
842	 0,198262463354707 
843	 0,198800025437135 
844	 0,19877036687513 
845	 0,198489757148506 
846	 0,198216764853911 
847	 0,198474606689265 
848	 0,198888820647836 
849	 0,198854609220588 
850	 0,198697199122401 
851	 0,198509975735048 
852	 0,198232346332455 
853	 0,198474476751978 
854	 0,199343678698545 
855	 0,199178672909366 
856	 0,198524700390207 
857	 0,198385693343702 
858	 0,198613420688228 
859	 0,199073119003175 
860	 0,199461907326096 
861	 0,19946557666053 
862	 0,199022718131391 
863	 0,199015725535181 
864	 0,198990944964523 
865	 0,198260207454558 
866	 0,198332162697673 
867	 0,199054335185681 
868	 0,198810803940143 
869	 0,198608368420655 
870	 0,198931069771485 
871	 0,199770044177758 
872	 0,20020021896962 
873	 0,199194473420029 
874	 0,198959131669027 
875	 0,199537239130568 
876	 0,199531232563643 
877	 0,199450947694682 
878	 0,199577714033142 
879	 0,200478982168735 
880	 0,200962396689164 
881	 0,199825598421241 
882	 0,199588082923164 
883	 0,200199002240445 
884	 0,199995667870036 
885	 0,200457971334506 
886	 0,201657659625512 
887	 0,201365929248819 
888	 0,20051694115515 
889	 0,200122817612089 
890	 0,199860170148903 
891	 0,199811781782412 
892	 0,200263708517238 
893	 0,20032024172232 
894	 0,199988310867887 
895	 0,20081397894312 
896	 0,201425537436033 
897	 0,200876499444129 
898	 0,20130942256921 
899	 0,202047729184286 
900	 0,201295901662811 
901	 0,201066856094593 
902	 0,201567556752132 
903	 0,201349117651679 
904	 0,200759400189151 
905	 0,200162627321938 
906	 0,200437512413453 
907	 0,201028161652045 
908	 0,200994555920379 
909	 0,201032980175887 
910	 0,201216072678316 
911	 0,201324806841111 
912	 0,201015700901584 
913	 0,200402159658972 
914	 0,20127354336356 
915	 0,201951378182196 
916	 0,200578470098456 
917	 0,200765454285395 
918	 0,202197699581991 
919	 0,202269034143218 
920	 0,201925974724894 
921	 0,201404237942174 
922	 0,200406969388325 
923	 0,199842396835435 
924	 0,20036794931637 
925	 0,200774639101564 
926	 0,200544066560319 
927	 0,199096034175787 
928	 0,19888888805841 
929	 0,20005371039566 
930	 0,200282043911395 
931	 0,199829901745117 
932	 0,199030387464945 
933	 0,199228850538063 
934	 0,199467880755262 
935	 0,198365478712402 
936	 0,197155420696417 
937	 0,196436876735284 
938	 0,197067488163949 
939	 0,197502301948704 
940	 0,197239729914196 
941	 0,197287958046281 
942	 0,197133611153043 
943	 0,1963656280875 
944	 0,196001661392293 
945	 0,196017224187677 
946	 0,196077410926353 
947	 0,195231268331744 
948	 0,193800707756719 
949	 0,194099129410775 
950	 0,194283806367894 
951	 0,193284311247642 
952	 0,191633891535542 
953	 0,189974664499102 
954	 0,189027821572759 
955	 0,189517981322787 
956	 0,190353044852452 
957	 0,188269964957623 
958	 0,187058726252707 
959	 0,187697585944961 
960	 0,188331049400675 
961	 0,187885443088986 
962	 0,185994966507613 
963	 0,186513656096866 
964	 0,187896320571891 
965	 0,186988402051577 
966	 0,186484012590737 
967	 0,186468832941666 
968	 0,184920755719885 
969	 0,184636365461092 
970	 0,18629386845713 
971	 0,186760114938683 
972	 0,186035742471838 
973	 0,184529272469961 
974	 0,184523696275787 
975	 0,18506070130441 
976	 0,183638631446566 
977	 0,183599868182687 
978	 0,185424170415683 
979	 0,187656500020222 
980	 0,188684091293729 
981	 0,187643826359126 
982	 0,18476282731633 
983	 0,183362438896699 
984	 0,186352549030782 
985	 0,187836169100608 
986	 0,187473663786638 
987	 0,186766765845948 
988	 0,187583867360075 
989	 0,190082491702211 
990	 0,192800876390298 
991	 0,193113728692335 
992	 0,190275349218267 
993	 0,188898787209526 
994	 0,18857466689263 
995	 0,188499240215233 
996	 0,189757122574026 
997	 0,192115939152801 
998	 0,194976450228608 
999	 0,194781237799642 
1000	 0,191782015837878 
1001	 0,190728106339173 
1002	 0,190502296003411 
1003	 0,190639611329644 
1004	 0,191424348883594 
1005	 0,192104237197508 
1006	 0,192022120689689 
1007	 0,192350988608114 
1008	 0,192388781368865 
1009	 0,190477866601402 
1010	 0,193016768743714 
1011	 0,198633957972906 
1012	 0,197146323217259 
1013	 0,195496905695421 
1014	 0,1964613557558 
1015	 0,19755131358492 
1016	 0,19856272433023 
1017	 0,199353162162151 
1018	 0,199543467969747 
1019	 0,199114590875634 
1020	 0,198201207660519 
1021	 0,199496307990239 
1022	 0,202061911192435 
1023	 0,201436839882606 
1024	 0,200544134499938 
1025	 0,200583953807251 
1026	 0,201967243159832 
1027	 0,203580534520707 
1028	 0,204566084897294 
1029	 0,205255467026662 
1030	 0,205100800858926 
1031	 0,203727005306963 
1032	 0,205218806026719 
1033	 0,208001947890679 
1034	 0,207374822268445 
1035	 0,204264634321256 
1036	 0,201768653780008 
1037	 0,210237682262763 
1038	 0,213137716955891 
1039	 0,205695779166394 
1040	 0,205463175865261 
1041	 0,209043095270963 
1042	 0,211968001567647 
1043	 0,208147090475206 
1044	 0,203560034710421 
1045	 0,207383380045276 
1046	 0,210411241723086 
1047	 0,211564940242532 
1048	 0,21272046883358 
1049	 0,218036848754637 
1050	 0,22403410786563 
1051	 0,212612506503453 
1052	 0,207232099781312 
1053	 0,217077363988754 
1054	 0,217586217415716 
1055	 0,214804643606557 
1056	 0,215023133306763 
1057	 0,214399179758253 
1058	 0,215464394681737 
1059	 0,221561685799674 
1060	 0,217918850840633 
1061	 0,21042678224199 
1062	 0,220337801894579 
1063	 0,221270071706112 
1064	 0,210287144043363 
1065	 0,206554079959922 
1066	 0,206834574586434 
1067	 0,210501404788723 
1068	 0,222833792411078 
1069	 0,225021355477529 
1070	 0,206349234723062 
1071	 0,197660745956534 
1072	 0,204936841086935 
1073	 0,226285797378197 
1074	 0,218206740600638 
1075	 0,201593603231917 
