Wavelength	GRA-VIE00809.asd
325	 0,361221693265448 
326	 0,337967325333259 
327	 0,27720615053846 
328	 0,228528979840005 
329	 0,223382598223239 
330	 0,18406291400062 
331	 9,54092458444427E-02 
332	 0,118472585541041 
333	 0,218654403119162 
334	 0,179535504227261 
335	 0,218340301892141 
336	 0,329854205202843 
337	 0,336767662690164 
338	 0,270920867255975 
339	 0,15750139544916 
340	 8,69083734086451E-02 
341	 7,98394109322937E-02 
342	 0,164884482973164 
343	 0,213298756225284 
344	 0,201403758182048 
345	 0,191565429041143 
346	 0,185698265341045 
347	 0,183712217973969 
348	 0,167055505912898 
349	 0,144645990318487 
350	 0,152888640514067 
351	 0,145604004182561 
352	 0,115248258639375 
353	 0,123090670245118 
354	 0,155735789686846 
355	 0,1908448302809 
356	 0,176941310870683 
357	 0,125351497628011 
358	 9,68501045042862E-02 
359	 8,82838273690677E-02 
360	 9,68322671608617E-02 
361	 0,110052359718267 
362	 0,120818025723079 
363	 0,124579454244732 
364	 0,116879386879322 
365	 9,93180623154602E-02 
366	 7,64299031181525E-02 
367	 7,74523722113065E-02 
368	 0,11319109232044 
369	 0,115817901426803 
370	 0,100016015569665 
371	 0,106218211049049 
372	 0,099370790533891 
373	 7,91274535971317E-02 
374	 8,61731159801035E-02 
375	 9,67720120928539E-02 
376	 9,23457500065135E-02 
377	 8,44414535416191E-02 
378	 8,23277335286051E-02 
379	 0,10052324997186 
380	 0,122328269873611 
381	 0,134934853938014 
382	 0,101707345219776 
383	 7,30374810357382E-02 
384	 9,88281225845149E-02 
385	 0,114383947435406 
386	 0,111330578602778 
387	 9,96302175028072E-02 
388	 0,100756691921283 
389	 0,119345958640282 
390	 0,128295838808253 
391	 0,121397516151502 
392	 9,47443669340879E-02 
393	 0,080080624191077 
394	 8,12649848848118E-02 
395	 8,55677165610378E-02 
396	 9,08398027521407E-02 
397	 9,51405297419296E-02 
398	 9,38109764577797E-02 
399	 8,82284828296151E-02 
400	 8,04860122192108E-02 
401	 8,06728759840871E-02 
402	 8,66624361112341E-02 
403	 7,89326539727704E-02 
404	 7,59169615897073E-02 
405	 8,82929362973593E-02 
406	 8,82558371675171E-02 
407	 8,15974019427979E-02 
408	 8,90629559225418E-02 
409	 9,00266348770731E-02 
410	 0,080605037730021 
411	 6,88488886724338E-02 
412	 6,62647902342709E-02 
413	 8,11032239007583E-02 
414	 0,081052573232795 
415	 6,94760277942933E-02 
416	 7,17920047070984E-02 
417	 7,22427689168978E-02 
418	 6,69239140076298E-02 
419	 7,02722485471543E-02 
420	 7,73186350631004E-02 
421	 8,05182569036483E-02 
422	 7,86294156715036E-02 
423	 7,38581093302269E-02 
424	 0,074905046681197 
425	 7,33523146104558E-02 
426	 6,52369035702369E-02 
427	 6,21773864940398E-02 
428	 6,46210918684495E-02 
429	 7,09429638489583E-02 
430	 7,34904301586227E-02 
431	 7,10824856083003E-02 
432	 7,10854543433747E-02 
433	 0,07156837799221 
434	 7,08659529908161E-02 
435	 7,48650333603045E-02 
436	 8,02213348420375E-02 
437	 7,63037584728212E-02 
438	 7,10495337577437E-02 
439	 6,83874831826742E-02 
440	 7,04304354562553E-02 
441	 7,33061049483833E-02 
442	 7,21267285029642E-02 
443	 6,93726892391516E-02 
444	 6,75689386023876E-02 
445	 0,073153217094655 
446	 7,79915433085888E-02 
447	 7,71032376603703E-02 
448	 0,073573251565401 
449	 7,08722911300405E-02 
450	 7,46449427100341E-02 
451	 7,70472025135534E-02 
452	 7,56728806701645E-02 
453	 0,071663419636214 
454	 6,99751339787566E-02 
455	 7,46723142826879E-02 
456	 7,62712725798719E-02 
457	 7,43474343052066E-02 
458	 7,24687962132978E-02 
459	 7,34591798773536E-02 
460	 7,76288264189117E-02 
461	 7,78468312611358E-02 
462	 7,56340173111638E-02 
463	 7,39843359218906E-02 
464	 7,38860304174615E-02 
465	 7,49182789897615E-02 
466	 7,41538927344292E-02 
467	 7,38494853237275E-02 
468	 7,54011000600907E-02 
469	 7,75218017153085E-02 
470	 7,85082868605726E-02 
471	 7,53885199260395E-02 
472	 7,30891201665404E-02 
473	 7,32060328414163E-02 
474	 7,45597478586642E-02 
475	 7,51259305277101E-02 
476	 7,31940723719305E-02 
477	 7,37888175325211E-02 
478	 7,60907894768017E-02 
479	 7,51054315228972E-02 
480	 7,32506777623642E-02 
481	 7,16420391022106E-02 
482	 6,93008456078151E-02 
483	 0,068290950852468 
484	 7,17383985416404E-02 
485	 7,47144268774704E-02 
486	 0,075454625641653 
487	 7,29061726507568E-02 
488	 7,14275774118605E-02 
489	 7,39787388184776E-02 
490	 7,50654579422289E-02 
491	 7,41182077775833E-02 
492	 7,18459722825642E-02 
493	 6,98479127987786E-02 
494	 6,91436669609604E-02 
495	 7,08850872700345E-02 
496	 7,26751933923295E-02 
497	 7,18237128964353E-02 
498	 7,09463073721342E-02 
499	 7,05311490667617E-02 
500	 7,00502791123837E-02 
501	 6,97348540277646E-02 
502	 6,97807540326535E-02 
503	 7,05928620221633E-02 
504	 7,17226421805877E-02 
505	 7,23751310127111E-02 
506	 7,30311658372572E-02 
507	 0,073597288771636 
508	 0,073124138380115 
509	 7,27118879737355E-02 
510	 7,33380462513334E-02 
511	 7,38116272935437E-02 
512	 7,40783242093771E-02 
513	 7,46950890914455E-02 
514	 7,49017159645597E-02 
515	 7,45524699995311E-02 
516	 7,49880880487409E-02 
517	 7,55881085502304E-02 
518	 7,53309163846159E-02 
519	 7,49143473252726E-02 
520	 7,46738433461576E-02 
521	 7,51868913238604E-02 
522	 7,53839275603035E-02 
523	 7,45710609212746E-02 
524	 7,40180636137517E-02 
525	 7,40632314832915E-02 
526	 7,50899325589234E-02 
527	 7,56473815254442E-02 
528	 7,52586377596876E-02 
529	 7,46278908079046E-02 
530	 7,39464150175733E-02 
531	 7,33635151957361E-02 
532	 0,073858918496829 
533	 7,48947243921125E-02 
534	 7,41516093398008E-02 
535	 0,073151177206994 
536	 7,28878669745768E-02 
537	 7,37006391508531E-02 
538	 7,45965138356521E-02 
539	 7,36216307730988E-02 
540	 7,33841388064275E-02 
541	 7,43081664699879E-02 
542	 7,42977982246973E-02 
543	 7,39940636617576E-02 
544	 7,41185719939443E-02 
545	 7,44406537024759E-02 
546	 7,48238327100406E-02 
547	 7,50288954877746E-02 
548	 7,51242981103702E-02 
549	 7,51205962910542E-02 
550	 7,49456085670902E-02 
551	 7,45643608374448E-02 
552	 0,07389372711049 
553	 7,37866089799603E-02 
554	 7,41983090712352E-02 
555	 7,38435055689871E-02 
556	 7,34391116604578E-02 
557	 0,073616169434337 
558	 7,43977184839096E-02 
559	 7,49993865619813E-02 
560	 7,33375200866921E-02 
561	 7,23598288138411E-02 
562	 7,30437483406068E-02 
563	 7,32372190949683E-02 
564	 7,29859385255622E-02 
565	 7,26098543506243E-02 
566	 7,28714031442751E-02 
567	 7,35695044015973E-02 
568	 7,31125701392889E-02 
569	 7,30304261114666E-02 
570	 7,42768898561049E-02 
571	 0,075011281792196 
572	 7,53555537433102E-02 
573	 7,62768004281921E-02 
574	 0,076879174780768 
575	 0,077067462108063 
576	 7,80972277197397E-02 
577	 7,89237574397531E-02 
578	 7,83555998874531E-02 
579	 7,94388935284077E-02 
580	 8,18626706877765E-02 
581	 8,24314018667908E-02 
582	 8,28379707820094E-02 
583	 0,083922428095591 
584	 8,43741632920652E-02 
585	 8,46434209915423E-02 
586	 8,57889589400663E-02 
587	 8,69354946055726E-02 
588	 0,087830160356976 
589	 8,86982288244233E-02 
590	 8,93103554842164E-02 
591	 8,94564019242304E-02 
592	 8,93207814928713E-02 
593	 8,91366677111547E-02 
594	 8,92860490769727E-02 
595	 8,98506046811069E-02 
596	 9,07429801464137E-02 
597	 9,11837026890749E-02 
598	 9,10821112125016E-02 
599	 0,090430200773355 
600	 9,02144052191287E-02 
601	 9,06024396068722E-02 
602	 9,10854080515019E-02 
603	 0,09090459360337 
604	 8,95921496329803E-02 
605	 8,90118961071468E-02 
606	 8,88578452160085E-02 
607	 8,74469067268553E-02 
608	 8,64231732663326E-02 
609	 8,62323233577496E-02 
610	 8,54895994541776E-02 
611	 8,49210797345296E-02 
612	 8,55377212504357E-02 
613	 8,55817931196699E-02 
614	 8,49197963934441E-02 
615	 8,46850578033498E-02 
616	 8,44669361416464E-02 
617	 8,40193141161756E-02 
618	 8,35179959518008E-02 
619	 8,30992643985077E-02 
620	 8,29275663744329E-02 
621	 8,32014695561665E-02 
622	 8,37879496923151E-02 
623	 8,38295740849588E-02 
624	 8,34814544502751E-02 
625	 8,29961357350525E-02 
626	 8,31811304510127E-02 
627	 8,38834738844332E-02 
628	 8,41304777672348E-02 
629	 8,42328017327534E-02 
630	 8,43101523209964E-02 
631	 8,40879891779297E-02 
632	 8,40299562505393E-02 
633	 8,49366448431557E-02 
634	 8,53578264245855E-02 
635	 8,52710512288935E-02 
636	 8,65002727448803E-02 
637	 8,77526994035657E-02 
638	 8,79390002779129E-02 
639	 8,82688481675884E-02 
640	 8,89088044734982E-02 
641	 8,97143644109546E-02 
642	 9,05112723647039E-02 
643	 9,11698011266946E-02 
644	 9,15597637709914E-02 
645	 9,17937604875156E-02 
646	 9,20315054733322E-02 
647	 9,23818922997644E-02 
648	 0,092642986026989 
649	 9,20022834945664E-02 
650	 9,13839598453266E-02 
651	 9,13196246628811E-02 
652	 9,05962056159189E-02 
653	 8,94083561798981E-02 
654	 8,84829733161518E-02 
655	 8,76764627442316E-02 
656	 8,68810086701356E-02 
657	 8,57049238998379E-02 
658	 8,43942160099597E-02 
659	 8,32321885576065E-02 
660	 8,22028888790657E-02 
661	 8,10830959252557E-02 
662	 7,91184102243295E-02 
663	 7,76166159137702E-02 
664	 7,71582872374848E-02 
665	 7,67085559583288E-02 
666	 7,58632867804484E-02 
667	 7,41652081970307E-02 
668	 7,33355259794952E-02 
669	 7,35002939427361E-02 
670	 7,28832321251796E-02 
671	 7,26364025494747E-02 
672	 7,35538778565969E-02 
673	 7,33165677106996E-02 
674	 7,22992532519037E-02 
675	 7,23428665555527E-02 
676	 7,27041397530303E-02 
677	 7,30124808974734E-02 
678	 7,25897684381931E-02 
679	 7,21621393872022E-02 
680	 7,26434689863932E-02 
681	 7,28939629290221E-02 
682	 7,28923230226288E-02 
683	 7,34456775041007E-02 
684	 7,41125816006877E-02 
685	 7,46966468153952E-02 
686	 7,57688561934074E-02 
687	 7,72302838890761E-02 
688	 7,86793167272828E-02 
689	 8,12672070584013E-02 
690	 0,084906315330593 
691	 8,74876120407545E-02 
692	 9,06289742052024E-02 
693	 9,58073371927203E-02 
694	 0,101724532775761 
695	 0,108219616319065 
696	 0,115396315242493 
697	 0,124005407851569 
698	 0,134157284974222 
699	 0,144413093448573 
700	 0,155299281696295 
701	 0,167645390331056 
702	 0,180568688916213 
703	 0,19373466321007 
704	 0,20696835770478 
705	 0,220396137499204 
706	 0,234021150175996 
707	 0,24738648766355 
708	 0,260431741791961 
709	 0,273176888625218 
710	 0,285483848963558 
711	 0,297276785592579 
712	 0,308512867182 
713	 0,318959335251613 
714	 0,328481779205458 
715	 0,337768517982381 
716	 0,346900725021961 
717	 0,355743021190786 
718	 0,363928806369924 
719	 0,371316115238606 
720	 0,378110897713682 
721	 0,384346389465586 
722	 0,390076854527308 
723	 0,395533192323706 
724	 0,400652695295901 
725	 0,405039434679765 
726	 0,408992312996872 
727	 0,412720833310382 
728	 0,4163030944956 
729	 0,419640122902897 
730	 0,422526867770641 
731	 0,425069039894336 
732	 0,427346276735844 
733	 0,429497120708125 
734	 0,431538378862643 
735	 0,43346660297089 
736	 0,435127518635404 
737	 0,436582424039784 
738	 0,438075261017587 
739	 0,439295360480483 
740	 0,440199499447474 
741	 0,441230848163791 
742	 0,442218854704454 
743	 0,442935945140285 
744	 0,444141599677216 
745	 0,445676736804608 
746	 0,446548704631922 
747	 0,447198486514837 
748	 0,447865760418422 
749	 0,448514350096368 
750	 0,449164388594162 
751	 0,4498411321352 
752	 0,450410388345221 
753	 0,450895348361655 
754	 0,451554025015165 
755	 0,452075908803952 
756	 0,452312202945448 
757	 0,453189427052013 
758	 0,454213934146058 
759	 0,454041911442232 
760	 0,454349001809299 
761	 0,455378601051595 
762	 0,45556430625827 
763	 0,45536987310721 
764	 0,455330477148008 
765	 0,455674990400666 
766	 0,4562488533442 
767	 0,456522952826637 
768	 0,456672951148728 
769	 0,456786409411115 
770	 0,456999134621983 
771	 0,457298691835364 
772	 0,457650012642078 
773	 0,457984616840803 
774	 0,458267190916607 
775	 0,458486699775783 
776	 0,458578535196465 
777	 0,458555621418692 
778	 0,45873857331689 
779	 0,458999823792821 
780	 0,459101678299154 
781	 0,459088855216144 
782	 0,459022087508145 
783	 0,459008824656435 
784	 0,459346109440134 
785	 0,460092182808446 
786	 0,460012651777881 
787	 0,459516757170277 
788	 0,459638888780157 
789	 0,459912364465467 
790	 0,46017182325823 
791	 0,460298451224887 
792	 0,460286781038581 
793	 0,460187781484194 
794	 0,460586974478081 
795	 0,461094791101914 
796	 0,460623020851491 
797	 0,46052824961523 
798	 0,461091123937242 
799	 0,461301841028911 
800	 0,461344928588205 
801	 0,461420370848576 
802	 0,4611381151085 
803	 0,460784071144634 
804	 0,461255677192338 
805	 0,461641568166806 
806	 0,461692650097743 
807	 0,462009736061058 
808	 0,462510921853346 
809	 0,463055822915801 
810	 0,463539329410439 
811	 0,463866351270297 
812	 0,463837531599753 
813	 0,463919949479461 
814	 0,464320640443706 
815	 0,464881826402197 
816	 0,465396753316553 
817	 0,465640459204409 
818	 0,465667824619351 
819	 0,465660887385788 
820	 0,466104594463729 
821	 0,466520506813519 
822	 0,466699931666476 
823	 0,466887614541263 
824	 0,467210595496099 
825	 0,467788769697263 
826	 0,46798694048142 
827	 0,467833891577777 
828	 0,467909398591857 
829	 0,468171509945303 
830	 0,468540037298384 
831	 0,468522719658322 
832	 0,468494472004398 
833	 0,469027365795928 
834	 0,469541434917235 
835	 0,469776656408296 
836	 0,469363690022335 
837	 0,469207417580404 
838	 0,469708959202467 
839	 0,469755209252546 
840	 0,469865184830069 
841	 0,470926650123093 
842	 0,471061061653594 
843	 0,47038060934073 
844	 0,47096405238267 
845	 0,471337785692988 
846	 0,470881861452151 
847	 0,471292376949561 
848	 0,471900559834829 
849	 0,471524567324632 
850	 0,471431569764853 
851	 0,471810585098905 
852	 0,472213275290022 
853	 0,472492197090357 
854	 0,472540306189946 
855	 0,472347574920341 
856	 0,472155332370351 
857	 0,472277722277722 
858	 0,472685163839052 
859	 0,4732053527371 
860	 0,473333309019468 
861	 0,473408724291651 
862	 0,473619703523989 
863	 0,473864713699686 
864	 0,474408460387874 
865	 0,47557034142652 
866	 0,476220423635839 
867	 0,47621432753719 
868	 0,475972414657965 
869	 0,476071935651678 
870	 0,476695914008825 
871	 0,476981990557417 
872	 0,476878027161354 
873	 0,476456281391512 
874	 0,476551017785218 
875	 0,477048651549963 
876	 0,476965261191802 
877	 0,477215209345092 
878	 0,478044027664939 
879	 0,478644155258904 
880	 0,478731806694497 
881	 0,478169068541694 
882	 0,478707443431364 
883	 0,47986861870667 
884	 0,479395752635181 
885	 0,478982636745484 
886	 0,479200732649585 
887	 0,479678941466199 
888	 0,480077119854975 
889	 0,480111721322569 
890	 0,480171491924704 
891	 0,48040878245974 
892	 0,481013830465887 
893	 0,481406987653545 
894	 0,481450467579663 
895	 0,481516517379416 
896	 0,481598253329108 
897	 0,481694173052167 
898	 0,481902613316365 
899	 0,4821024578341 
900	 0,482017409132367 
901	 0,482660607954281 
902	 0,483910409309882 
903	 0,484208760402289 
904	 0,484351063276444 
905	 0,48473463848956 
906	 0,484362767729269 
907	 0,483755442856732 
908	 0,483790846990438 
909	 0,483891491184216 
910	 0,483917490333216 
911	 0,483797540164228 
912	 0,484126017363794 
913	 0,484925314172369 
914	 0,484478058528565 
915	 0,484100409244235 
916	 0,485272023711074 
917	 0,48494067717607 
918	 0,483571683929854 
919	 0,483867338099138 
920	 0,484467876468528 
921	 0,484715620822102 
922	 0,483713280904036 
923	 0,482883531032909 
924	 0,483340588707825 
925	 0,483567239363217 
926	 0,483228798778309 
927	 0,482188306594757 
928	 0,481222779733107 
929	 0,48077562009946 
930	 0,481483294709438 
931	 0,481830098826986 
932	 0,481028335454756 
933	 0,480402476760518 
934	 0,480186462227226 
935	 0,480436308530129 
936	 0,479699880552046 
937	 0,478164568081215 
938	 0,477179418975564 
939	 0,477207007016688 
940	 0,477820421278115 
941	 0,475703624379587 
942	 0,47346177457087 
943	 0,473472272803916 
944	 0,47375406942321 
945	 0,473546009044519 
946	 0,472078211061152 
947	 0,470792274339771 
948	 0,469887400708476 
949	 0,46843980066625 
950	 0,466689611801973 
951	 0,464889038152881 
952	 0,463635709879367 
953	 0,462600255465338 
954	 0,461311720983879 
955	 0,459896834998127 
956	 0,458551402474681 
957	 0,457628704330872 
958	 0,457364624071916 
959	 0,457431402195215 
960	 0,455975379096584 
961	 0,454720469715904 
962	 0,454837924622878 
963	 0,454014385713932 
964	 0,453218019412444 
965	 0,454360746804103 
966	 0,454382360654773 
967	 0,452938608719052 
968	 0,45139513424742 
969	 0,450166347109224 
970	 0,449781845224578 
971	 0,451421693739703 
972	 0,452903607590327 
973	 0,452320720719101 
974	 0,452403187224556 
975	 0,452830947362458 
976	 0,452226169768399 
977	 0,45177727277698 
978	 0,451997552664979 
979	 0,453435510423491 
980	 0,454785902339675 
981	 0,455345520095328 
982	 0,455490567181302 
983	 0,455354054190258 
984	 0,45511505282825 
985	 0,455563888790783 
986	 0,456056394816853 
987	 0,455001729209033 
988	 0,455035501987077 
989	 0,456667535292411 
990	 0,458802221102765 
991	 0,460680830001615 
992	 0,461565428097104 
993	 0,459997677977179 
994	 0,458835311802902 
995	 0,460941735635661 
996	 0,463502827754774 
997	 0,465149898292198 
998	 0,464262351508839 
999	 0,465783404410452 
1000	 0,469695572171591 
1001	 0,470932872569919 
1002	 0,469887320565166 
1003	 0,467771754160066 
1004	 0,470171822854888 
1005	 0,473959388982938 
1006	 0,475408712140504 
1007	 0,472674012376557 
1008	 0,469818701739323 
1009	 0,474379379529257 
1010	 0,479106738643654 
1011	 0,481850407061089 
1012	 0,483176860940808 
1013	 0,482328074473625 
1014	 0,479676532590174 
1015	 0,477914333770158 
1016	 0,479068632862674 
1017	 0,483912005059651 
1018	 0,485953703881195 
1019	 0,485091061009957 
1020	 0,482837855448243 
1021	 0,483445600419836 
1022	 0,487471411052073 
1023	 0,493942474777363 
1024	 0,494119361782177 
1025	 0,487820090847071 
1026	 0,48928083441709 
1027	 0,493457405538488 
1028	 0,496352775854539 
1029	 0,497228824926599 
1030	 0,495524554435051 
1031	 0,491430322255992 
1032	 0,49275679961093 
1033	 0,497599724536524 
1034	 0,498802118585952 
1035	 0,497026784851759 
1036	 0,494533234664012 
1037	 0,498693958740865 
1038	 0,503284860853009 
1039	 0,50464951852207 
1040	 0,501184447579764 
1041	 0,498861222417056 
1042	 0,501749924114332 
1043	 0,497988863511976 
1044	 0,495658547615096 
1045	 0,506522577350744 
1046	 0,509291377136013 
1047	 0,505182533171624 
1048	 0,509347720892039 
1049	 0,509191650032796 
1050	 0,503710405792536 
1051	 0,50325513222712 
1052	 0,507731762567631 
1053	 0,515711562137345 
1054	 0,520003262019003 
1055	 0,520886544735473 
1056	 0,519479907923302 
1057	 0,519543845549269 
1058	 0,517527839858546 
1059	 0,508459591908952 
1060	 0,511194754965506 
1061	 0,517614741723811 
1062	 0,500172896594276 
1063	 0,50225274354604 
1064	 0,524852822958077 
1065	 0,519410515584998 
1066	 0,514830092408867 
1067	 0,520609934207128 
1068	 0,516528298625399 
1069	 0,511202427500489 
1070	 0,511961417772545 
1071	 0,516475756226318 
1072	 0,514858849885597 
1073	 0,49816849107404 
1074	 0,504521228095888 
1075	 0,523488362928724 
