Wavelength	GRA-BER00532.asd
325	 0,276558464885822 
326	 0,1343509636801 
327	 2,15777134357229E-03 
328	 3,65291484298291E-03 
329	 0,110642397432462 
330	 0,155659862791205 
331	-2,83036250993043E-02 
332	-3,30048544104931E-02 
333	 8,53916139445808E-02 
334	 9,18407020662075E-02 
335	 3,76882133787439E-02 
336	-0,039171602401386 
337	-1,99357792167917E-02 
338	 2,91999347575319E-02 
339	 3,71255326248289E-02 
340	-1,99675924207967E-04 
341	-4,50180986854639E-02 
342	-3,22361693481765E-02 
343	-3,59572718399913E-02 
344	-6,09843904583929E-02 
345	-8,99197983746089E-03 
346	 5,74690397581369E-02 
347	 6,83130816295052E-02 
348	 6,65188307099801E-02 
349	 6,12732037475941E-02 
350	 0,047973731996325 
351	 6,17690801113712E-02 
352	 9,92702002692848E-02 
353	 0,094596874247585 
354	 6,01774315633884E-02 
355	 1,00834174978609E-02 
356	 2,20958521091323E-03 
357	 3,73956882848725E-02 
358	 5,89762905924969E-02 
359	 5,54102037002429E-02 
360	 3,20571233261646E-02 
361	 5,30776959017587E-02 
362	 8,41922702042245E-02 
363	 6,58648576455092E-02 
364	 4,43187536800012E-02 
365	 3,30113333408965E-02 
366	 4,50285122058885E-02 
367	 5,07633744833085E-02 
368	 3,73891640031345E-02 
369	 7,13332573753648E-02 
370	 0,106158853232567 
371	 5,94205183285131E-02 
372	 3,49874331155337E-02 
373	 5,33199456583289E-02 
374	 4,97616674235835E-02 
375	 4,45915447576385E-02 
376	 5,23313790554132E-02 
377	 3,54454956745532E-02 
378	 0,013555252251846 
379	 4,14501304201966E-02 
380	 5,33916736839805E-02 
381	 3,99105619647653E-02 
382	 5,30529694363575E-02 
383	 6,94622817799362E-02 
384	 6,57581361785311E-02 
385	 5,40139926251448E-02 
386	 4,22034308263543E-02 
387	 3,78612004505721E-02 
388	 4,84104445845505E-02 
389	 6,78490038355875E-02 
390	 5,57290081593557E-02 
391	 4,14000433687829E-02 
392	 6,26154519595264E-02 
393	 5,64400882452855E-02 
394	 2,84739423458523E-02 
395	 4,02111101182088E-02 
396	 5,42232207481873E-02 
397	 5,25759081479028E-02 
398	 5,18810304275219E-02 
399	 5,36189265599597E-02 
400	 5,76726635265453E-02 
401	 5,56363308084577E-02 
402	 4,95112611494336E-02 
403	 0,053939412076615 
404	 6,10963691538831E-02 
405	 6,45675910360787E-02 
406	 5,87542140738216E-02 
407	 4,91814285996406E-02 
408	 4,60184136434303E-02 
409	 5,07726476938808E-02 
410	 6,06417927190922E-02 
411	 6,23756331680827E-02 
412	 5,86600532758545E-02 
413	 5,29551082065129E-02 
414	 5,43651331556713E-02 
415	 6,04036188359019E-02 
416	 6,04860861188641E-02 
417	 5,97016696472673E-02 
418	 5,98738134692287E-02 
419	 5,95318559225633E-02 
420	 5,90871689874359E-02 
421	 0,059152164516961 
422	 6,02317892781884E-02 
423	 6,25978469509535E-02 
424	 6,74262350589761E-02 
425	 0,069194270217316 
426	 6,55053958083648E-02 
427	 6,53615200836155E-02 
428	 6,76719498210104E-02 
429	 0,068479927636113 
430	 6,71419747678364E-02 
431	 6,47309227730865E-02 
432	 6,74426568730657E-02 
433	 6,95813447570554E-02 
434	 6,63331521497921E-02 
435	 6,44067381485782E-02 
436	 6,45972069245543E-02 
437	 6,55057770000393E-02 
438	 6,66416180223592E-02 
439	 6,77162399466414E-02 
440	 6,90254283096917E-02 
441	 6,98713587697104E-02 
442	 6,94252239556258E-02 
443	 6,85127659616661E-02 
444	 6,74603155789338E-02 
445	 6,57951948673105E-02 
446	 0,067420832518331 
447	 0,073595093885158 
448	 7,28132436996035E-02 
449	 6,91128551792787E-02 
450	 7,32230153367789E-02 
451	 7,39330754272811E-02 
452	 7,02481803947149E-02 
453	 7,41311660258557E-02 
454	 7,79214978981019E-02 
455	 7,46069508619365E-02 
456	 7,32853342532539E-02 
457	 7,49539752894672E-02 
458	 7,75297590199418E-02 
459	 8,01294868432576E-02 
460	 8,17360378864255E-02 
461	 0,080196546767688 
462	 7,67847387390989E-02 
463	 7,33518900468439E-02 
464	 7,39996731050218E-02 
465	 7,78599305310727E-02 
466	 7,84946174482773E-02 
467	 7,62550637195447E-02 
468	 0,072308601394349 
469	 7,50154077310563E-02 
470	 8,01001847597462E-02 
471	 7,64492507892474E-02 
472	 7,59057576181445E-02 
473	 8,05909979725859E-02 
474	 8,17762073430183E-02 
475	 8,03620969029524E-02 
476	 7,79101962125945E-02 
477	 7,88323283527759E-02 
478	 8,16923282106657E-02 
479	 7,95275567150377E-02 
480	 7,85356845036431E-02 
481	 8,10867420229364E-02 
482	 8,20647757389509E-02 
483	 0,082668399491517 
484	 8,55680839124346E-02 
485	 8,55681231999901E-02 
486	 8,28626091977614E-02 
487	 8,34212488620099E-02 
488	 0,085625022504474 
489	 8,78781202566216E-02 
490	 0,087749439510852 
491	 8,59622347119831E-02 
492	 8,50499203325802E-02 
493	 8,47062203720411E-02 
494	 8,48889724649141E-02 
495	 8,53156240811671E-02 
496	 0,085669735611935 
497	 0,085657083134289 
498	 8,71838057327425E-02 
499	 8,94030761017123E-02 
500	 8,83709041754246E-02 
501	 8,73638301694335E-02 
502	 8,81397840113399E-02 
503	 8,87222347818734E-02 
504	 8,90227656302284E-02 
505	 8,93507548458132E-02 
506	 8,93191527770596E-02 
507	 8,93247967355732E-02 
508	 9,16118863314299E-02 
509	 9,34681444031568E-02 
510	 9,25727020644151E-02 
511	 0,092837364783288 
512	 9,40106879394382E-02 
513	 0,093370352056894 
514	 9,28169214584142E-02 
515	 9,32406858105807E-02 
516	 9,47896663370572E-02 
517	 9,60017593056912E-02 
518	 9,48415933612164E-02 
519	 9,52966955778158E-02 
520	 9,74247347775075E-02 
521	 9,74892739284422E-02 
522	 9,72084354853704E-02 
523	 9,78413720807692E-02 
524	 9,86033259805101E-02 
525	 9,91243733334981E-02 
526	 9,87505648065615E-02 
527	 9,88287735079164E-02 
528	 9,95709218160147E-02 
529	 9,91122098948917E-02 
530	 9,90260626512686E-02 
531	 0,101197078024126 
532	 0,102853728714513 
533	 0,103480859716592 
534	 0,103762387259823 
535	 0,103676148579359 
536	 0,103387733622093 
537	 0,104108334772136 
538	 0,105260172179549 
539	 0,105542450815358 
540	 0,105339689758754 
541	 0,105038114436822 
542	 0,105899825053091 
543	 0,10678261744396 
544	 0,106581219105764 
545	 0,107071367884452 
546	 0,108122713394019 
547	 0,108389070233154 
548	 0,108405943445715 
549	 0,108568122559681 
550	 0,109837197908812 
551	 0,111144978265141 
552	 0,110663197413247 
553	 0,110891930441688 
554	 0,112067030991113 
555	 0,112063805563167 
556	 0,112031523135273 
557	 0,112843350803599 
558	 0,112417289530782 
559	 0,111354595650992 
560	 0,111946005403419 
561	 0,113253773328342 
562	 0,114689113863154 
563	 0,115050941742363 
564	 0,115005006585991 
565	 0,115585218962304 
566	 0,115790409121033 
567	 0,115605139671503 
568	 0,115797282695538 
569	 0,116167916440294 
570	 0,116547868928838 
571	 0,116687980795968 
572	 0,116791251509384 
573	 0,117416998207265 
574	 0,117895805263095 
575	 0,118053320234092 
576	 0,118332957807136 
577	 0,118694113522678 
578	 0,11905327958358 
579	 0,119282391259958 
580	 0,119408048373931 
581	 0,119624854107285 
582	 0,11979466646867 
583	 0,119873061403186 
584	 0,120123538549472 
585	 0,120501838112239 
586	 0,120857013144511 
587	 0,121413246343242 
588	 0,122046545939365 
589	 0,122008006563203 
590	 0,12173073839396 
591	 0,121661858832522 
592	 0,1218250485982 
593	 0,122141080572799 
594	 0,122396469300883 
595	 0,122446364891514 
596	 0,122318960557655 
597	 0,122738697108087 
598	 0,123383134029413 
599	 0,12366861694753 
600	 0,123745847826726 
601	 0,123752213547715 
602	 0,124148428326703 
603	 0,124304327755637 
604	 0,123786433665667 
605	 0,12367939087642 
606	 0,123933677689456 
607	 0,123945192998531 
608	 0,123960296734852 
609	 0,124059248099973 
610	 0,124215024497792 
611	 0,124476755998298 
612	 0,124901877922609 
613	 0,125199933431478 
614	 0,125432256701563 
615	 0,126234636058334 
616	 0,126327258467471 
617	 0,12508288406316 
618	 0,124615168405702 
619	 0,125003307601214 
620	 0,125757604801492 
621	 0,12653291702684 
622	 0,127036656618254 
623	 0,126798779999242 
624	 0,126505290304041 
625	 0,12686693857316 
626	 0,127153817845766 
627	 0,127363202711404 
628	 0,12802056674501 
629	 0,128348786889815 
630	 0,128075811085086 
631	 0,128507318435679 
632	 0,128888703364594 
633	 0,127693286269335 
634	 0,127550583888754 
635	 0,128717452977229 
636	 0,128827773258221 
637	 0,128654023804335 
638	 0,128895441774608 
639	 0,129076116645572 
640	 0,129247166210419 
641	 0,129843042719104 
642	 0,129840067597971 
643	 0,129055770308229 
644	 0,129095641893621 
645	 0,129605764223705 
646	 0,129932173716825 
647	 0,129820037743056 
648	 0,129380602917749 
649	 0,129227848390997 
650	 0,129502544650212 
651	 0,13016294196462 
652	 0,129902528331556 
653	 0,129171672543183 
654	 0,12930300431716 
655	 0,129382415282279 
656	 0,129246225644626 
657	 0,129551004861122 
658	 0,129973661334724 
659	 0,13012552650132 
660	 0,129450935658532 
661	 0,128431867579995 
662	 0,128859832220728 
663	 0,128940984790324 
664	 0,12796582531146 
665	 0,127749273119754 
666	 0,128075637475094 
667	 0,128289439024324 
668	 0,12827941193982 
669	 0,12815327585738 
670	 0,12863523516396 
671	 0,128959977155424 
672	 0,128542930170616 
673	 0,128078497330084 
674	 0,127989447705657 
675	 0,128980774365303 
676	 0,130008973541594 
677	 0,130594144986579 
678	 0,130579980262063 
679	 0,13065690416727 
680	 0,131637746761292 
681	 0,132437099700229 
682	 0,132791037255795 
683	 0,132623026321517 
684	 0,133117749581039 
685	 0,134722246440315 
686	 0,134809484213543 
687	 0,13430270798337 
688	 0,1354982387431 
689	 0,136318656874919 
690	 0,136401863940618 
691	 0,137022864140689 
692	 0,137819120647681 
693	 0,13840435460753 
694	 0,138590326357407 
695	 0,138587279156504 
696	 0,138999087132429 
697	 0,13958789573171 
698	 0,140195707656588 
699	 0,140484349206834 
700	 0,14058764875754 
701	 0,140719572860653 
702	 0,141272229027614 
703	 0,142134320082833 
704	 0,142611605260244 
705	 0,142877413345497 
706	 0,14306917712163 
707	 0,143347841571536 
708	 0,143786829764798 
709	 0,14451409453365 
710	 0,144737575599593 
711	 0,144472828570304 
712	 0,145042688767702 
713	 0,145683902040837 
714	 0,145676758889347 
715	 0,145933636489738 
716	 0,146433064568152 
717	 0,146667165852075 
718	 0,146881822862509 
719	 0,147133349604832 
720	 0,147122057468928 
721	 0,147213026588018 
722	 0,14789045765135 
723	 0,148351516969216 
724	 0,148551513369602 
725	 0,149028468236097 
726	 0,149695068959002 
727	 0,150391582931999 
728	 0,150264697230156 
729	 0,149831848903619 
730	 0,150205530010675 
731	 0,150682671773814 
732	 0,151097693366518 
733	 0,151707431374635 
734	 0,152133705527251 
735	 0,152090565289098 
736	 0,152354573552823 
737	 0,152841373075128 
738	 0,15299438541826 
739	 0,152983805385584 
740	 0,152931207934165 
741	 0,153156472887959 
742	 0,153536597770387 
743	 0,153892217981243 
744	 0,154217711877814 
745	 0,154403091094854 
746	 0,15408763948146 
747	 0,154050018290313 
748	 0,154669282789446 
749	 0,155332755810664 
750	 0,155879559433623 
751	 0,156203466807259 
752	 0,156302091739794 
753	 0,156271101471509 
754	 0,156406346217398 
755	 0,1566756083135 
756	 0,157041598851793 
757	 0,15738046876511 
758	 0,157754367378089 
759	 0,158370846287538 
760	 0,158792468438545 
761	 0,158887103017382 
762	 0,158768002129195 
763	 0,158839397627264 
764	 0,15942745861081 
765	 0,159684668976911 
766	 0,159593029971306 
767	 0,159457175917917 
768	 0,159844206732883 
769	 0,160819156991799 
770	 0,161269273615929 
771	 0,161264002654162 
772	 0,161023735846724 
773	 0,161111363421305 
774	 0,161558595196437 
775	 0,162010825951031 
776	 0,162270607226843 
777	 0,162266577459685 
778	 0,162416165380561 
779	 0,162574830970473 
780	 0,16244932705975 
781	 0,162761075782391 
782	 0,163434007275873 
783	 0,163459289110527 
784	 0,16355432778754 
785	 0,164124592022146 
786	 0,164368441041837 
787	 0,164357047636353 
788	 0,164408322649935 
789	 0,164539647056612 
790	 0,164811926068183 
791	 0,165430449377364 
792	 0,165785191733909 
793	 0,165472463839988 
794	 0,165656904136628 
795	 0,166213191503812 
796	 0,166441172031523 
797	 0,166668429677728 
798	 0,166911560830732 
799	 0,166805670817868 
800	 0,166681956165138 
801	 0,166861421801292 
802	 0,167148888203113 
803	 0,167445105268085 
804	 0,167621333534786 
805	 0,167661225227873 
806	 0,167619528567781 
807	 0,167838318325455 
808	 0,168062630508769 
809	 0,168017050240638 
810	 0,168256664982332 
811	 0,168717399842954 
812	 0,168882899408436 
813	 0,169146553625454 
814	 0,169573107986453 
815	 0,169548523215037 
816	 0,169432684450559 
817	 0,169704344232687 
818	 0,170090161567171 
819	 0,170375153589384 
820	 0,170098369578647 
821	 0,16987292551721 
822	 0,170041457699668 
823	 0,170680440087909 
824	 0,171269416519857 
825	 0,171150775207301 
826	 0,170897808532244 
827	 0,170804126411446 
828	 0,171322106209519 
829	 0,171750882688318 
830	 0,171705844355567 
831	 0,171305901411044 
832	 0,171087544137865 
833	 0,171733780440534 
834	 0,172365651839271 
835	 0,172652270917248 
836	 0,172308546713958 
837	 0,172075022350877 
838	 0,172318034872965 
839	 0,172397117540022 
840	 0,172413716214218 
841	 0,172608989104436 
842	 0,172538305699248 
843	 0,172276650117801 
844	 0,172420374270911 
845	 0,172704480726716 
846	 0,172928920926176 
847	 0,172806998565981 
848	 0,172569506157792 
849	 0,172581430319905 
850	 0,173074231134632 
851	 0,173765560709552 
852	 0,173540658208748 
853	 0,173333595779261 
854	 0,173560480713317 
855	 0,17327244802546 
856	 0,172988937932631 
857	 0,17353001936739 
858	 0,173723330141987 
859	 0,173567060352122 
860	 0,174107806369231 
861	 0,174294101543418 
862	 0,173741442121732 
863	 0,173811632029331 
864	 0,173953684106425 
865	 0,173298800623339 
866	 0,173885295531624 
867	 0,17525377957447 
868	 0,174549011603167 
869	 0,173709864460592 
870	 0,173733339055383 
871	 0,174653667598495 
872	 0,175505640367199 
873	 0,175159464400562 
874	 0,174554209979985 
875	 0,174075440333893 
876	 0,1740723786394 
877	 0,174560665461967 
878	 0,175295183447508 
879	 0,174905535537017 
880	 0,174443004756257 
881	 0,175084062760147 
882	 0,175144739936065 
883	 0,174779149295913 
884	 0,175299233264408 
885	 0,175754446808947 
886	 0,175859867098556 
887	 0,176043205815307 
888	 0,176033130923115 
889	 0,175631211001002 
890	 0,175849315615961 
891	 0,176394896733831 
892	 0,176256352836446 
893	 0,175731389716071 
894	 0,175189644703278 
895	 0,175801237321145 
896	 0,176476334706086 
897	 0,176348903030925 
898	 0,176027416100492 
899	 0,175919562067666 
900	 0,176600178278156 
901	 0,176755257695708 
902	 0,176262420753957 
903	 0,176125068378007 
904	 0,17649609850365 
905	 0,177327193325253 
906	 0,177560669725746 
907	 0,177387278082902 
908	 0,177287960721094 
909	 0,177065608903683 
910	 0,176670304651882 
911	 0,175884101403186 
912	 0,175893626282055 
913	 0,17699046527768 
914	 0,177247476360984 
915	 0,177043741183765 
916	 0,177022480562165 
917	 0,177640576071236 
918	 0,178438178022521 
919	 0,177955208061771 
920	 0,17766693500338 
921	 0,178082184886142 
922	 0,179068524806772 
923	 0,179412540314348 
924	 0,178269184922802 
925	 0,177606604737636 
926	 0,177462503231775 
927	 0,177216428170988 
928	 0,178113797362823 
929	 0,179702467942815 
930	 0,179072638493995 
931	 0,178773644974232 
932	 0,179938687131419 
933	 0,179244565978435 
934	 0,178031470283481 
935	 0,178414979108285 
936	 0,178964018663005 
937	 0,179276795926958 
938	 0,179072563698837 
939	 0,179249646795737 
940	 0,179877151924052 
941	 0,179468339180151 
942	 0,178480627725971 
943	 0,177593737106994 
944	 0,178783396732349 
945	 0,180585261597429 
946	 0,179682459486181 
947	 0,179520650896777 
948	 0,180534834535762 
949	 0,180622064750711 
950	 0,180244592904483 
951	 0,179719263413861 
952	 0,179313354849501 
953	 0,178984950938928 
954	 0,178654654990485 
955	 0,178815808354179 
956	 0,179553828202677 
957	 0,181063004610364 
958	 0,180908465173272 
959	 0,179011542312758 
960	 0,179261379286798 
961	 0,180287093607646 
962	 0,180851564481545 
963	 0,180665971053561 
964	 0,180469814746875 
965	 0,181465192993615 
966	 0,180829832750385 
967	 0,179089068237816 
968	 0,180147646412331 
969	 0,180765281625333 
970	 0,179786374986459 
971	 0,178770707968426 
972	 0,17897544101772 
973	 0,181177147358171 
974	 0,182210073079689 
975	 0,182127401388199 
976	 0,182041127219315 
977	 0,182809863142986 
978	 0,183787520509282 
979	 0,181666594521583 
980	 0,180481395726357 
981	 0,181672121467048 
982	 0,180835571221104 
983	 0,17943918495631 
984	 0,17938845380075 
985	 0,180984200096121 
986	 0,183289774130783 
987	 0,184503478382185 
988	 0,183531347244149 
989	 0,181090427035311 
990	 0,181068238789268 
991	 0,180744620613391 
992	 0,179296285976258 
993	 0,180674937840726 
994	 0,183025148724508 
995	 0,184077880441616 
996	 0,183779293310328 
997	 0,182941868113261 
998	 0,183200735748367 
999	 0,183718774820375 
1000	 0,184419743770583 
1001	 0,186244693165719 
1002	 0,185457793000306 
1003	 0,181489609142432 
1004	 0,182660487314008 
1005	 0,184787400787119 
1006	 0,183528727356423 
1007	 0,184421290362425 
1008	 0,186207007167517 
1009	 0,185178501765359 
1010	 0,18307065784583 
1011	 0,181533469408998 
1012	 0,184452456030019 
1013	 0,186709504789855 
1014	 0,186108403860745 
1015	 0,183837087883577 
1016	 0,182839031427822 
1017	 0,185265067516473 
1018	 0,188002762134995 
1019	 0,189254663165193 
1020	 0,187192805070164 
1021	 0,185190900434305 
1022	 0,184575095390928 
1023	 0,18647289705686 
1024	 0,186937311572768 
1025	 0,185419413955536 
1026	 0,186367587072628 
1027	 0,188181380520116 
1028	 0,189077402302825 
1029	 0,185064832686224 
1030	 0,181416899031858 
1031	 0,184409852088626 
1032	 0,186877307592885 
1033	 0,187523017431168 
1034	 0,186651908115366 
1035	 0,185512715616643 
1036	 0,184642543812723 
1037	 0,184251966614735 
1038	 0,182866503677833 
1039	 0,180652429716555 
1040	 0,181450773033157 
1041	 0,185515797540322 
1042	 0,191460379233943 
1043	 0,189581446623893 
1044	 0,184694804736122 
1045	 0,185434768221021 
1046	 0,187552998270854 
1047	 0,189333725188042 
1048	 0,189098489022288 
1049	 0,184912254086739 
1050	 0,178375309466674 
1051	 0,177861174486521 
1052	 0,178344824317535 
1053	 0,178411393857858 
1054	 0,185192053843624 
1055	 0,192889318046387 
1056	 0,195241637493763 
1057	 0,187601142426981 
1058	 0,180996008169965 
1059	 0,190543684680951 
1060	 0,192215603206967 
1061	 0,184421712171638 
1062	 0,175931387371843 
1063	 0,176979700009028 
1064	 0,185516895607577 
1065	 0,17939986971277 
1066	 0,187126765538021 
1067	 0,211888462217176 
1068	 0,202847118784997 
1069	 0,193063096425276 
1070	 0,205447102038661 
1071	 0,196806051199073 
1072	 0,179035263977495 
1073	 0,172429027741405 
1074	 0,172495966505327 
1075	 0,177171302356785 
