Wavelength	GRA-VAN00905.asd
325	 0,468277142814005 
326	 0,467807741336927 
327	 0,613773668742838 
328	 0,768924901792683 
329	 0,718545890418803 
330	 0,568832681587486 
331	 0,56648517154962 
332	 0,493284774278596 
333	 0,368397653868586 
334	 0,24232470148887 
335	 0,246221484097913 
336	 0,384535620766037 
337	 0,464130340327737 
338	 0,4605330155263 
339	 0,334939379004436 
340	 0,286090735678748 
341	 0,326448034134093 
342	 0,384450503897251 
343	 0,373061499853149 
344	 0,300102879793904 
345	 0,321437031746649 
346	 0,358077518422119 
347	 0,323312179442476 
348	 0,295775234469357 
349	 0,282399126043973 
350	 0,283008638635004 
351	 0,288684355555137 
352	 0,290406570363467 
353	 0,274044491254491 
354	 0,246280941157271 
355	 0,218700871856367 
356	 0,255510889473259 
357	 0,325635187855971 
358	 0,32625240270315 
359	 0,313880134492118 
360	 0,316617344861797 
361	 0,324139433119821 
362	 0,319537501676029 
363	 0,279304770284786 
364	 0,268979507440917 
365	 0,292011852311407 
366	 0,293947750528659 
367	 0,291493735594916 
368	 0,296240374299041 
369	 0,316733632192142 
370	 0,333757738529451 
371	 0,309492095317288 
372	 0,302387518851054 
373	 0,318348889746203 
374	 0,300709559322293 
375	 0,280907405007319 
376	 0,285203302077635 
377	 0,287153886561258 
378	 0,287734597739967 
379	 0,298370246189082 
380	 0,303931547433786 
381	 0,302165519556824 
382	 0,30526965821369 
383	 0,306260658464121 
384	 0,299311253700563 
385	 0,308782031047024 
386	 0,322608055966298 
387	 0,298680688889689 
388	 0,287965010627466 
389	 0,305489774673428 
390	 0,298440930210878 
391	 0,286949802499429 
392	 0,298085131038265 
393	 0,303748906150024 
394	 0,300404122424552 
395	 0,295258613015223 
396	 0,295366396137468 
397	 0,303275752212931 
398	 0,310182964879566 
399	 0,310669693021712 
400	 0,298440570795791 
401	 0,289722199389051 
402	 0,288846887125321 
403	 0,292502630395384 
404	 0,290784032297571 
405	 0,27893691670265 
406	 0,284838732630708 
407	 0,299117785735649 
408	 0,298067824087165 
409	 0,293786952754535 
410	 0,289385322324432 
411	 0,280767051561577 
412	 0,277911768230417 
413	 0,288837041291375 
414	 0,287304268124195 
415	 0,27700553310729 
416	 0,27934332110878 
417	 0,281802534392784 
418	 0,28065109470792 
419	 0,285827521990402 
420	 0,291108587846915 
421	 0,288257916480844 
422	 0,289114239805148 
423	 0,2929508627501 
424	 0,287525108279833 
425	 0,283914437572036 
426	 0,288078568949947 
427	 0,290244976236048 
428	 0,290175713136941 
429	 0,290329850282769 
430	 0,286514775249849 
431	 0,280291338789861 
432	 0,283270994932998 
433	 0,288644974414581 
434	 0,289858045108941 
435	 0,28534093320529 
436	 0,27889416136751 
437	 0,280913672732406 
438	 0,284183424609236 
439	 0,285262939759674 
440	 0,281983178089229 
441	 0,279105882356184 
442	 0,282783987744505 
443	 0,285295336952849 
444	 0,286075050474854 
445	 0,29055167748187 
446	 0,291966516604541 
447	 0,287022664733384 
448	 0,285562577660786 
449	 0,287270933270489 
450	 0,289051952564305 
451	 0,289052626894615 
452	 0,287340750644578 
453	 0,287614601139861 
454	 0,288697221529159 
455	 0,289510319556848 
456	 0,293638493310465 
457	 0,298616661217289 
458	 0,296739844858358 
459	 0,293999103713165 
460	 0,292962850923311 
461	 0,291522729236845 
462	 0,291234672066402 
463	 0,294368880306057 
464	 0,293257066712553 
465	 0,288531994316606 
466	 0,289126379094085 
467	 0,292211858958486 
468	 0,295463142823411 
469	 0,295627855965435 
470	 0,294639736185041 
471	 0,297773902615831 
472	 0,297462143451776 
473	 0,293064199004237 
474	 0,293138584052327 
475	 0,295896001308714 
476	 0,298894493378752 
477	 0,298467556446178 
478	 0,295759208398281 
479	 0,296028615025526 
480	 0,296820854526095 
481	 0,296966168120134 
482	 0,296316696727971 
483	 0,295889113590518 
484	 0,297217445159908 
485	 0,297725054548203 
486	 0,297049365746128 
487	 0,296488500567925 
488	 0,297019577315671 
489	 0,299019093370517 
490	 0,298240661887304 
491	 0,295835157674295 
492	 0,296038459468862 
493	 0,295740054560407 
494	 0,294523021359156 
495	 0,296018098410066 
496	 0,297275696056872 
497	 0,294819032013413 
498	 0,294567401031035 
499	 0,296602957627006 
500	 0,29704851887585 
501	 0,296517456896102 
502	 0,29557504397328 
503	 0,295990124111436 
504	 0,297269797124514 
505	 0,298047487815668 
506	 0,299724047246127 
507	 0,302209205013617 
508	 0,30368256785007 
509	 0,304197999095167 
510	 0,303962046450296 
511	 0,304277510813085 
512	 0,304820275401422 
513	 0,303715767213489 
514	 0,303818346466707 
515	 0,305981113629622 
516	 0,307079570022356 
517	 0,307521178429424 
518	 0,308358209646879 
519	 0,308476024616683 
520	 0,308162597576937 
521	 0,309500447014829 
522	 0,310369663459172 
523	 0,309418205915089 
524	 0,309784055720501 
525	 0,311234247154146 
526	 0,312327530307952 
527	 0,312333439230048 
528	 0,31126500964749 
529	 0,31105844388492 
530	 0,311214624250417 
531	 0,310985853920362 
532	 0,310954383957681 
533	 0,310976085461225 
534	 0,310171822840134 
535	 0,309588596802882 
536	 0,309834872702316 
537	 0,310353921462967 
538	 0,310908329152529 
539	 0,311240270461152 
540	 0,31147714849121 
541	 0,311670715222489 
542	 0,311935977177596 
543	 0,312006321408431 
544	 0,311664385724813 
545	 0,312021792998533 
546	 0,312870702759067 
547	 0,313003678835044 
548	 0,312964756970003 
549	 0,313039207780516 
550	 0,313309670414224 
551	 0,3137446345266 
552	 0,314324830537369 
553	 0,314066613531773 
554	 0,313010257163585 
555	 0,312487390130224 
556	 0,312328631078856 
557	 0,312328424997995 
558	 0,312053880064055 
559	 0,311609998705622 
560	 0,311581536389511 
561	 0,311065473434237 
562	 0,309947379494049 
563	 0,309905588781197 
564	 0,310066903512361 
565	 0,309096894532727 
566	 0,308400540238055 
567	 0,308268720795428 
568	 0,308237887529055 
569	 0,308782691264937 
570	 0,31009956828863 
571	 0,310650487522214 
572	 0,310928895828823 
573	 0,312635247989549 
574	 0,314021532304638 
575	 0,314641179196325 
576	 0,315627100412798 
577	 0,3169153152993 
578	 0,31832501490091 
579	 0,319298874309571 
580	 0,320013580331673 
581	 0,321623299607064 
582	 0,322508818518605 
583	 0,322003827047743 
584	 0,322614591252484 
585	 0,323998109130323 
586	 0,32496504730491 
587	 0,325884012555386 
588	 0,32665861724597 
589	 0,326615430116548 
590	 0,32636216105955 
591	 0,326508821011988 
592	 0,327137534114875 
593	 0,328036252871332 
594	 0,328656375718655 
595	 0,328876215745437 
596	 0,328707097431849 
597	 0,328808526168949 
598	 0,328977812360969 
599	 0,32878280411417 
600	 0,328919286286682 
601	 0,329317632499251 
602	 0,328968087432043 
603	 0,328439626624363 
604	 0,328150517233801 
605	 0,327253630839431 
606	 0,326106016399528 
607	 0,325957599661154 
608	 0,325556468818657 
609	 0,324500078800116 
610	 0,323293125279921 
611	 0,322560426069321 
612	 0,322987667237576 
613	 0,322421140790257 
614	 0,320841585184793 
615	 0,32000566588988 
616	 0,319714410164998 
617	 0,319817101975964 
618	 0,320045525439489 
619	 0,320171594581435 
620	 0,319893677959822 
621	 0,319495796629378 
622	 0,319160537283161 
623	 0,319173917585036 
624	 0,319388870961436 
625	 0,319627082719271 
626	 0,319783739937431 
627	 0,319868444697211 
628	 0,320001761373051 
629	 0,320156459685352 
630	 0,320373499538012 
631	 0,320987507416269 
632	 0,321766671828395 
633	 0,322295094022392 
634	 0,322615694998228 
635	 0,322930533118845 
636	 0,324027336289016 
637	 0,32516136200001 
638	 0,325696386675337 
639	 0,326048436273556 
640	 0,326560928721033 
641	 0,327930604156168 
642	 0,329195989789148 
643	 0,32994412722086 
644	 0,330478608328867 
645	 0,330776602687656 
646	 0,330779471507521 
647	 0,330836351317238 
648	 0,330804618473822 
649	 0,329831183004859 
650	 0,328802279236501 
651	 0,328295874482513 
652	 0,327738007776159 
653	 0,326961413572253 
654	 0,32582522176607 
655	 0,3245553403949 
656	 0,323167848532674 
657	 0,321287750729055 
658	 0,319427973127692 
659	 0,318115055837118 
660	 0,316587092252704 
661	 0,314733551499015 
662	 0,312659143501122 
663	 0,310927622754442 
664	 0,309840732130681 
665	 0,30922675377896 
666	 0,308507757621684 
667	 0,306821437516405 
668	 0,305633794758285 
669	 0,305381735851296 
670	 0,306023404550549 
671	 0,3063357194376 
672	 0,305412514686715 
673	 0,304703383633878 
674	 0,304472771591273 
675	 0,304730062910852 
676	 0,304871596671599 
677	 0,304743380999075 
678	 0,305014258536569 
679	 0,305432848984091 
680	 0,305640421535966 
681	 0,305662967955155 
682	 0,305755887564732 
683	 0,306639110292281 
684	 0,307848888780366 
685	 0,309073309262367 
686	 0,310115490732452 
687	 0,311370138555616 
688	 0,313550971854544 
689	 0,316132606662723 
690	 0,319109056450505 
691	 0,322949168213301 
692	 0,327691442073362 
693	 0,333349190594965 
694	 0,339595931655212 
695	 0,34647096173383 
696	 0,354272527657231 
697	 0,362698076783463 
698	 0,37159979151475 
699	 0,380886226346006 
700	 0,390958222969001 
701	 0,402312939835216 
702	 0,413303379567645 
703	 0,423769482167499 
704	 0,43479085189662 
705	 0,446269928307155 
706	 0,457898124343911 
707	 0,467981145462077 
708	 0,477178617498733 
709	 0,48715261845601 
710	 0,496644604966175 
711	 0,505331527760204 
712	 0,513538330366832 
713	 0,5212122429774 
714	 0,528315289929265 
715	 0,535275236173969 
716	 0,54208550015985 
717	 0,54852106149213 
718	 0,554309359945709 
719	 0,559383852269706 
720	 0,564072662841118 
721	 0,568521855955063 
722	 0,572877346967079 
723	 0,576772402543461 
724	 0,580208043698325 
725	 0,583487185110156 
726	 0,586399062386067 
727	 0,588861797098942 
728	 0,591218210051246 
729	 0,59354014986082 
730	 0,595878180202944 
731	 0,597843705146997 
732	 0,599387398104177 
733	 0,600904651101837 
734	 0,602199742713496 
735	 0,603148326273993 
736	 0,604539329656931 
737	 0,606209634570666 
738	 0,607488481182819 
739	 0,608197981084969 
740	 0,60835821311835 
741	 0,608592208907097 
742	 0,609137323298523 
743	 0,610173046848826 
744	 0,610862220329511 
745	 0,611212293250637 
746	 0,611921757160737 
747	 0,612603795561627 
748	 0,613060652030798 
749	 0,613442345688592 
750	 0,613769347982638 
751	 0,614043770493843 
752	 0,614324775319107 
753	 0,614651169936119 
754	 0,615059151061837 
755	 0,615589523932626 
756	 0,616197202309011 
757	 0,616125688226461 
758	 0,615855113749994 
759	 0,616587043722556 
760	 0,617402625993691 
761	 0,617880939281712 
762	 0,617603729907413 
763	 0,617291429276138 
764	 0,617606544482514 
765	 0,617658555599234 
766	 0,617481044035678 
767	 0,617599562797324 
768	 0,617734715070334 
769	 0,617808187694348 
770	 0,617975824120193 
771	 0,618228440357033 
772	 0,618537283193216 
773	 0,618824449827829 
774	 0,618957372908185 
775	 0,618611238847506 
776	 0,61823569024763 
777	 0,618127795022127 
778	 0,618516452376158 
779	 0,618873232533361 
780	 0,618403740290641 
781	 0,61806204889117 
782	 0,618130513716275 
783	 0,618627857374004 
784	 0,619036081602672 
785	 0,619003616609541 
786	 0,618693659078265 
787	 0,618521082183858 
788	 0,619173503407615 
789	 0,619714890021575 
790	 0,619893464642572 
791	 0,620051193948169 
792	 0,620007484717736 
793	 0,619681631962949 
794	 0,619820744033536 
795	 0,620238467849166 
796	 0,620266286497199 
797	 0,620227091243562 
798	 0,620226743171713 
799	 0,620310760016044 
800	 0,620307383238715 
801	 0,620073650768273 
802	 0,61996174888985 
803	 0,619978218312505 
804	 0,619904702029403 
805	 0,620131273740711 
806	 0,620669371952823 
807	 0,620883137171194 
808	 0,620559675892772 
809	 0,61961748473628 
810	 0,619883962421526 
811	 0,621153391356114 
812	 0,621775781464752 
813	 0,622034935612523 
814	 0,622082325585769 
815	 0,622433134365829 
816	 0,622768011026144 
817	 0,622659349297018 
818	 0,622437003364521 
819	 0,62236656868939 
820	 0,623024657164088 
821	 0,623425234071697 
822	 0,623203829928197 
823	 0,623434586446242 
824	 0,623763158295106 
825	 0,623612080663898 
826	 0,623654403139927 
827	 0,623883485356637 
828	 0,623739670385838 
829	 0,623708073220759 
830	 0,623921446751585 
831	 0,62345687835918 
832	 0,622885873573121 
833	 0,623097107629626 
834	 0,623761262450475 
835	 0,624373551830562 
836	 0,623590012248001 
837	 0,622912170284197 
838	 0,623135030510537 
839	 0,623546261469191 
840	 0,623719475418705 
841	 0,62318863602476 
842	 0,6229104075004 
843	 0,623099139244278 
844	 0,623618425189975 
845	 0,623811846798868 
846	 0,623416624320125 
847	 0,623427955136267 
848	 0,623782126126794 
849	 0,624219976784237 
850	 0,624281428075543 
851	 0,62405038351008 
852	 0,624283021303287 
853	 0,624370426211201 
854	 0,624109039420689 
855	 0,624547374670608 
856	 0,624971181860896 
857	 0,624276644352308 
858	 0,62416670505901 
859	 0,624782987478102 
860	 0,625218796111881 
861	 0,625294858766165 
862	 0,624962933565703 
863	 0,624738689387797 
864	 0,624673196984663 
865	 0,624747879079561 
866	 0,625405235019125 
867	 0,626274958976884 
868	 0,626006166098704 
869	 0,625473577435348 
870	 0,625191203263402 
871	 0,625522721120648 
872	 0,625819759444821 
873	 0,625307776213452 
874	 0,625724133538054 
875	 0,62665418426389 
876	 0,62576573393295 
877	 0,625055744720948 
878	 0,625255144131781 
879	 0,625226928041617 
880	 0,62535502375776 
881	 0,626087449743283 
882	 0,626555541743663 
883	 0,626487181313903 
884	 0,625541980402269 
885	 0,625399917934631 
886	 0,626317217565485 
887	 0,626029639421988 
888	 0,625265589794878 
889	 0,624903901123234 
890	 0,625573583947893 
891	 0,626695975092888 
892	 0,626804121104805 
893	 0,626398384881813 
894	 0,625828143161249 
895	 0,625852445990734 
896	 0,62634669044109 
897	 0,627062072074094 
898	 0,626912634197676 
899	 0,626346539482451 
900	 0,626489438293794 
901	 0,626320610784483 
902	 0,625864273280483 
903	 0,626197294545161 
904	 0,626900844599356 
905	 0,627564513042084 
906	 0,627424576873988 
907	 0,626882635423286 
908	 0,626652883375017 
909	 0,626594175591984 
910	 0,626714696801826 
911	 0,627174565433404 
912	 0,627079611324314 
913	 0,626294438541059 
914	 0,626756572893128 
915	 0,627620960189278 
916	 0,627784903585294 
917	 0,628070187795208 
918	 0,628368429762055 
919	 0,628047072490585 
920	 0,627602900295594 
921	 0,627310445347894 
922	 0,627550012828786 
923	 0,627638226024603 
924	 0,627072157998548 
925	 0,626976878827338 
926	 0,626979384414029 
927	 0,626054584255695 
928	 0,625954534531864 
929	 0,626711957526891 
930	 0,626558460273849 
931	 0,626000088022981 
932	 0,625532213666166 
933	 0,62639957186604 
934	 0,627406240785339 
935	 0,626887727722663 
936	 0,625858566189384 
937	 0,624893131150503 
938	 0,624818747130422 
939	 0,625310428246166 
940	 0,625900782313535 
941	 0,625001506172487 
942	 0,623995094170035 
943	 0,624115058742751 
944	 0,623998875224002 
945	 0,623798548054735 
946	 0,624238578611497 
947	 0,623929558594662 
948	 0,622663007692389 
949	 0,620978069376101 
950	 0,62092336011067 
951	 0,622994590204237 
952	 0,622304150634212 
953	 0,6200211302271 
954	 0,618285766026514 
955	 0,618675694603109 
956	 0,619857677626655 
957	 0,617247029766617 
958	 0,615840300038066 
959	 0,616692722533387 
960	 0,616307140736399 
961	 0,615212060278054 
962	 0,614069430138944 
963	 0,613974818978971 
964	 0,614931364553009 
965	 0,616646212434578 
966	 0,615373728615472 
967	 0,612181641445187 
968	 0,613294741020999 
969	 0,615430413039933 
970	 0,616738741350154 
971	 0,615493822916064 
972	 0,613498568959917 
973	 0,612738823139065 
974	 0,614907713579728 
975	 0,617616779012588 
976	 0,616169131509914 
977	 0,614828426109211 
978	 0,614854438106371 
979	 0,616161825661596 
980	 0,617837660933022 
981	 0,619076167950063 
982	 0,618603558349807 
983	 0,617572162189189 
984	 0,617275010513336 
985	 0,617099725523996 
986	 0,617091487666359 
987	 0,617503669831231 
988	 0,617413273049957 
989	 0,617397080087871 
990	 0,620955429985124 
991	 0,62186516171618 
992	 0,61819288640628 
993	 0,619635395697439 
994	 0,621895165092985 
995	 0,620135590857898 
996	 0,62140606258761 
997	 0,624356612031347 
998	 0,623984215379203 
999	 0,62365628963487 
1000	 0,623566796032532 
1001	 0,620686811280802 
1002	 0,61987968529768 
1003	 0,623056186746809 
1004	 0,625624140848763 
1005	 0,627453375351055 
1006	 0,62870622466269 
1007	 0,628338819676642 
1008	 0,627012288168909 
1009	 0,626092920287557 
1010	 0,627012939391302 
1011	 0,629383617396495 
1012	 0,630484909063024 
1013	 0,631567122599927 
1014	 0,63300855177284 
1015	 0,633919334190625 
1016	 0,635359970484843 
1017	 0,637857405782333 
1018	 0,637849613965196 
1019	 0,635350109396235 
1020	 0,631445439686126 
1021	 0,632881037485768 
1022	 0,638312416283591 
1023	 0,63931181027718 
1024	 0,638825796068028 
1025	 0,638956957258461 
1026	 0,645561576304035 
1027	 0,647875547190922 
1028	 0,640581496484697 
1029	 0,640493583593833 
1030	 0,643281370191207 
1031	 0,641945206959944 
1032	 0,639512930998063 
1033	 0,640221117280619 
1034	 0,651709735187453 
1035	 0,653691126117491 
1036	 0,645420592256987 
1037	 0,646683137109337 
1038	 0,648734878424204 
1039	 0,648112000905201 
1040	 0,646874521728991 
1041	 0,647844675859907 
1042	 0,652164975587171 
1043	 0,650936776705474 
1044	 0,644244296754739 
1045	 0,634936147804085 
1046	 0,636475283514194 
1047	 0,646033389098579 
1048	 0,649740783717944 
1049	 0,651528312547893 
1050	 0,652126262520284 
1051	 0,651230942543029 
1052	 0,650596859392303 
1053	 0,65173791924405 
1054	 0,656825292915369 
1055	 0,660919965424428 
1056	 0,659758789790154 
1057	 0,656822110251114 
1058	 0,655277456152518 
1059	 0,658657312849994 
1060	 0,66104314535819 
1061	 0,662502634688179 
1062	 0,666317271867642 
1063	 0,664866950047189 
1064	 0,658508049151695 
1065	 0,657391719649612 
1066	 0,657539474289491 
1067	 0,657516577642311 
1068	 0,658717667907465 
1069	 0,664352469170915 
1070	 0,674861745550525 
1071	 0,675579850173386 
1072	 0,669190722417093 
1073	 0,661735558957644 
1074	 0,647525910623181 
1075	 0,638401652000373 
