Wavelength	GRA-VAN00380.asd
325	 0,369030543686682 
326	 0,237945481176286 
327	 0,15687825944606 
328	 0,257725428977236 
329	 0,198334866640454 
330	 0,108769448373409 
331	 0,18805016557688 
332	 0,204140180755868 
333	 0,170492885675613 
334	 5,91985651810722E-02 
335	 0,021239096593949 
336	 0,098716143427195 
337	 0,133899467700574 
338	 0,106667675187437 
339	-6,73040906850665E-03 
340	 6,68566453506769E-02 
341	 0,19654582541305 
342	 9,29165065820072E-02 
343	 1,60081654729606E-02 
344	 5,30065029153277E-02 
345	 6,94426275104626E-02 
346	 0,097015040621915 
347	 0,152216086678121 
348	 0,073304369820114 
349	-7,26309161944552E-02 
350	 7,78858104410358E-03 
351	 8,69000796047085E-02 
352	 7,38741512448409E-02 
353	 3,85825452009509E-02 
354	 8,00774568542098E-03 
355	 1,23584995762757E-02 
356	 5,75265129870548E-02 
357	 0,107774485345235 
358	 7,60655070831756E-02 
359	 5,04496899121692E-02 
360	 7,08728740636373E-02 
361	 6,94329509368123E-02 
362	 5,16068478964771E-02 
363	 3,14687297677158E-02 
364	 2,93842173205993E-02 
365	 4,40483755515671E-02 
366	 4,49644015726742E-02 
367	 5,67706127356443E-02 
368	 8,72126533994743E-02 
369	 7,64838758921115E-02 
370	 4,38430539598752E-02 
371	 3,33284115253201E-02 
372	 3,53108550873681E-02 
373	 4,23487592297224E-02 
374	 3,29810854241783E-02 
375	 0,028514957916565 
376	 4,37532592901757E-02 
377	 4,30589577470382E-02 
378	 2,95021172533742E-02 
379	 2,14881774808248E-02 
380	 1,67064268493953E-02 
381	 2,04238752107675E-02 
382	 0,062031555320887 
383	 8,76197271202784E-02 
384	 5,30070697614359E-02 
385	 4,29247541642061E-02 
386	 5,72484715863492E-02 
387	 5,36827034552445E-02 
388	 4,42239607855062E-02 
389	 0,034686859867692 
390	 2,76174562470584E-02 
391	 2,89302081124483E-02 
392	 4,45497339920486E-02 
393	 4,68461835221499E-02 
394	 3,68109006571758E-02 
395	 0,036696546576365 
396	 3,79492641690196E-02 
397	 3,65828068456865E-02 
398	 3,69410980732589E-02 
399	 3,48818927149436E-02 
400	 2,29303053286398E-02 
401	 2,37284541185806E-02 
402	 3,43866245468259E-02 
403	 2,39648228798808E-02 
404	 8,58617551596724E-03 
405	 1,82909196633656E-03 
406	 1,39268087566834E-02 
407	 0,031136392102452 
408	 2,65339591698241E-02 
409	 2,46248370123452E-02 
410	 2,95600516722866E-02 
411	 2,51126522616607E-02 
412	 1,91836131547044E-02 
413	 1,96359321539916E-02 
414	 2,09110453635622E-02 
415	 2,13353948147938E-02 
416	 1,95785469148567E-02 
417	 1,59752003624027E-02 
418	 1,24856320361351E-02 
419	 1,90490484474204E-02 
420	 2,67536249391519E-02 
421	 0,024228487992683 
422	 2,26693506213996E-02 
423	 2,34908273613938E-02 
424	 2,25452127426202E-02 
425	 2,04884861209721E-02 
426	 1,82047791660522E-02 
427	 1,96879366337497E-02 
428	 2,28740956886099E-02 
429	 0,023667153900665 
430	 2,04979743441818E-02 
431	 1,50138417957677E-02 
432	 0,016448304718155 
433	 2,06887925782657E-02 
434	 2,33430664214845E-02 
435	 1,80301387255378E-02 
436	 1,01428612217458E-02 
437	 1,70877802684698E-02 
438	 2,17607890637329E-02 
439	 1,84688884941236E-02 
440	 1,73896425991643E-02 
441	 1,78013496268813E-02 
442	 1,76705506455045E-02 
443	 1,78403911296446E-02 
444	 1,84106446468626E-02 
445	 1,93008400748578E-02 
446	 1,99997491997906E-02 
447	 2,00376397366487E-02 
448	 1,86611013548917E-02 
449	 1,63534720189619E-02 
450	 0,013661304505736 
451	 1,61389612800947E-02 
452	 2,27920437156729E-02 
453	 0,021332576581986 
454	 1,76793275075864E-02 
455	 1,77871137473739E-02 
456	 0,01988423850895 
457	 2,14632795872898E-02 
458	 1,61335248519609E-02 
459	 1,38881305287079E-02 
460	 1,80445284227974E-02 
461	 1,91145775601801E-02 
462	 1,89178406324992E-02 
463	 2,11336187957063E-02 
464	 1,81495266484152E-02 
465	 1,18968514515381E-02 
466	 1,52363962298775E-02 
467	 1,99139069095315E-02 
468	 2,06207465133072E-02 
469	 2,23775893140267E-02 
470	 2,35203387903164E-02 
471	 1,93210240709894E-02 
472	 1,62937778744904E-02 
473	 1,66913848843663E-02 
474	 1,96030228084808E-02 
475	 0,021504845783688 
476	 1,92224820107633E-02 
477	 1,99759460492357E-02 
478	 2,27965035508653E-02 
479	 2,09672212067996E-02 
480	 1,90331285498263E-02 
481	 1,88987158514726E-02 
482	 1,78108000518389E-02 
483	 1,66959962710026E-02 
484	 1,72197310309803E-02 
485	 1,89192443629058E-02 
486	 2,07295615838204E-02 
487	 1,94870870049405E-02 
488	 1,78159881125604E-02 
489	 1,77188160350334E-02 
490	 1,77173005156616E-02 
491	 1,79694271469641E-02 
492	 1,95635396621049E-02 
493	 2,00940830135617E-02 
494	 1,91819761671242E-02 
495	 2,01745701731706E-02 
496	 2,06575898227764E-02 
497	 1,77560844016432E-02 
498	 1,73953813260234E-02 
499	 1,95715222503373E-02 
500	 2,02706244536721E-02 
501	 1,92621077407859E-02 
502	 1,67909746730578E-02 
503	 1,61068196415918E-02 
504	 1,69254265602336E-02 
505	 1,79278040545935E-02 
506	 1,91776977318675E-02 
507	 0,020509210574549 
508	 2,20031278205802E-02 
509	 2,18658980681064E-02 
510	 1,87993014495631E-02 
511	 1,85517395744118E-02 
512	 2,02032322988353E-02 
513	 1,79992704488121E-02 
514	 1,73462363344153E-02 
515	 1,99725516914262E-02 
516	 2,13129775602704E-02 
517	 2,11955121170497E-02 
518	 2,00318714335164E-02 
519	 2,00623570919556E-02 
520	 2,12217775557832E-02 
521	 2,08546426892549E-02 
522	 2,01038540672378E-02 
523	 0,01988029293283 
524	 2,02106093033575E-02 
525	 2,08665914327195E-02 
526	 0,021597346195876 
527	 2,08210580347052E-02 
528	 1,85957905514712E-02 
529	 1,83500343607678E-02 
530	 1,93421945958589E-02 
531	 2,03874758607527E-02 
532	 2,03348667305499E-02 
533	 1,93129497304015E-02 
534	 1,86325792306144E-02 
535	 1,85553129043622E-02 
536	 0,019172467601195 
537	 1,96517779687129E-02 
538	 1,99546433638971E-02 
539	 2,02551735339119E-02 
540	 2,06414089416226E-02 
541	 2,10223447595998E-02 
542	 0,020908896716183 
543	 2,04780598882425E-02 
544	 1,99482325951489E-02 
545	 1,96659802301248E-02 
546	 1,95383924534517E-02 
547	 1,89097589498328E-02 
548	 1,89807666669069E-02 
549	 2,01365748490831E-02 
550	 2,07799819451877E-02 
551	 2,06785131071344E-02 
552	 1,97590624144176E-02 
553	 1,93092407852688E-02 
554	 1,95074784105658E-02 
555	 1,92913119601786E-02 
556	 1,88515738394676E-02 
557	 1,84300325223804E-02 
558	 1,87437162268917E-02 
559	 1,95618648011753E-02 
560	 0,020131703730285 
561	 1,99897456836531E-02 
562	 1,91143512415801E-02 
563	 1,88248959606209E-02 
564	 1,89497944034167E-02 
565	 1,90828766354605E-02 
566	 1,92022493688581E-02 
567	 1,92348069721335E-02 
568	 1,90567868633702E-02 
569	 1,87871767220073E-02 
570	 1,85837498749764E-02 
571	 1,91190431980014E-02 
572	 1,98891604914345E-02 
573	 1,95195432216314E-02 
574	 1,96294198404057E-02 
575	 2,05785502825213E-02 
576	 2,11451968833159E-02 
577	 2,11894200379119E-02 
578	 2,06854132220919E-02 
579	 2,08686970727327E-02 
580	 2,15419923097329E-02 
581	 2,10910815375863E-02 
582	 2,05475050456577E-02 
583	 2,05811495900837E-02 
584	 2,15029032293606E-02 
585	 2,26090053209624E-02 
586	 0,02264913432694 
587	 2,23010841142999E-02 
588	 2,20303203778862E-02 
589	 2,30166777543407E-02 
590	 2,35760794812216E-02 
591	 2,22512383969058E-02 
592	 2,24267205015896E-02 
593	 2,36882073312028E-02 
594	 2,29699913601227E-02 
595	 2,23782771535581E-02 
596	 2,27473146831344E-02 
597	 2,28006710613032E-02 
598	 2,26668716436752E-02 
599	 2,27554457120846E-02 
600	 2,22871777294794E-02 
601	 2,14318806179756E-02 
602	 2,16365263985983E-02 
603	 2,21349048880731E-02 
604	 2,22404617319682E-02 
605	 0,021538968038909 
606	 2,06701155395425E-02 
607	 2,14447954578817E-02 
608	 2,19123306557056E-02 
609	 2,14803685359753E-02 
610	 0,021360142666267 
611	 2,14300517072207E-02 
612	 2,14162286174463E-02 
613	 2,16587759805166E-02 
614	 2,19457204436988E-02 
615	 2,13726316692055E-02 
616	 2,05848904040934E-02 
617	 2,01004020832543E-02 
618	 0,020546602420333 
619	 2,12239237337084E-02 
620	 2,05752667454516E-02 
621	 2,00371978436124E-02 
622	 2,00252943851875E-02 
623	 2,00598060912893E-02 
624	 0,020157394607487 
625	 2,03566202565594E-02 
626	 2,06520788048373E-02 
627	 2,09175471074456E-02 
628	 2,08261759584845E-02 
629	 0,020681282228658 
630	 2,06542975772496E-02 
631	 2,06826387810195E-02 
632	 2,08529820161482E-02 
633	 2,13227758229458E-02 
634	 2,16131130242574E-02 
635	 0,021644333878596 
636	 2,17943493028921E-02 
637	 2,18236472730005E-02 
638	 2,15836979909977E-02 
639	 2,20484393509589E-02 
640	 2,27949965479807E-02 
641	 2,21582177767464E-02 
642	 2,23077166251459E-02 
643	 2,37378903088323E-02 
644	 2,37598044373113E-02 
645	 2,31863015066898E-02 
646	 2,33877479595945E-02 
647	 2,36197435195865E-02 
648	 2,35780032413411E-02 
649	 2,27414217976597E-02 
650	 2,22089180428582E-02 
651	 2,26328065860177E-02 
652	 0,022620092760339 
653	 2,24838389010354E-02 
654	 2,34420039202122E-02 
655	 2,33748003012446E-02 
656	 0,021969464318908 
657	 2,14506780780721E-02 
658	 2,13080899473533E-02 
659	 2,08808623918199E-02 
660	 2,05849886321026E-02 
661	 2,04342240488881E-02 
662	 2,02970180525396E-02 
663	 1,99832599042223E-02 
664	 1,94672161578584E-02 
665	 1,93203742320069E-02 
666	 1,93806031674458E-02 
667	 0,019270966040485 
668	 1,95621685659811E-02 
669	 2,00785218171574E-02 
670	 1,95137322300028E-02 
671	 1,89699490188215E-02 
672	 1,93086221680138E-02 
673	 1,94371212301281E-02 
674	 1,93906932567364E-02 
675	 1,97338282391429E-02 
676	 0,020023916562338 
677	 2,00897917865014E-02 
678	 1,99048776021849E-02 
679	 1,99153347955608E-02 
680	 2,06270040836731E-02 
681	 2,03748301709912E-02 
682	 1,94372227871704E-02 
683	 1,99949123600634E-02 
684	 0,020758026873535 
685	 2,09441884379949E-02 
686	 2,06979582986796E-02 
687	 2,06604491540972E-02 
688	 2,20323387157155E-02 
689	 2,22636248911493E-02 
690	 2,11921970321181E-02 
691	 2,15954600546283E-02 
692	 2,30911422839422E-02 
693	 2,51532157385438E-02 
694	 2,67463437382528E-02 
695	 2,79934247657749E-02 
696	 2,97443910204135E-02 
697	 3,20763791092889E-02 
698	 3,49792901324053E-02 
699	 3,78708918198739E-02 
700	 4,10830796907961E-02 
701	 4,50979958025758E-02 
702	 4,95949251185225E-02 
703	 5,42596279538811E-02 
704	 5,83797566285388E-02 
705	 6,28600740339011E-02 
706	 6,81485701281652E-02 
707	 7,28650812908529E-02 
708	 7,74386398044379E-02 
709	 8,30837406938893E-02 
710	 8,81050956259577E-02 
711	 9,22305219130189E-02 
712	 9,67620955951524E-02 
713	 0,101529160649103 
714	 0,106269091369965 
715	 0,110292700518059 
716	 0,113864327137103 
717	 0,118054819570598 
718	 0,122071447543457 
719	 0,125550475526605 
720	 0,12839296822222 
721	 0,13095247540996 
722	 0,133695329236209 
723	 0,136128381337885 
724	 0,13832649042414 
725	 0,140946352450139 
726	 0,143209606200239 
727	 0,144720678193496 
728	 0,146486464069833 
729	 0,148278158596868 
730	 0,149432855340048 
731	 0,150487796819901 
732	 0,151594955923045 
733	 0,152610322062083 
734	 0,153648480078642 
735	 0,154787469538937 
736	 0,155646926786011 
737	 0,156326720447118 
738	 0,157281697077953 
739	 0,158068797628982 
740	 0,158521292550034 
741	 0,158687346492964 
742	 0,15896031740432 
743	 0,159768382181751 
744	 0,160498980759085 
745	 0,160904436605015 
746	 0,160634923856881 
747	 0,160740220440698 
748	 0,161659857259377 
749	 0,162088153368486 
750	 0,16210230736871 
751	 0,162059490618807 
752	 0,162275923538875 
753	 0,162783224537794 
754	 0,163309245495146 
755	 0,163557262022027 
756	 0,163369782999966 
757	 0,163422612757911 
758	 0,163669081733782 
759	 0,163754894129576 
760	 0,164044074004167 
761	 0,164510843810587 
762	 0,164503600535832 
763	 0,164432082147557 
764	 0,164685126564419 
765	 0,164658297770863 
766	 0,164461107355995 
767	 0,164675327832935 
768	 0,16485683019932 
769	 0,164861096286258 
770	 0,164869606345829 
771	 0,165106304368543 
772	 0,165791486527201 
773	 0,166042962164842 
774	 0,165825221725034 
775	 0,165707785980576 
776	 0,16559637205949 
777	 0,165502414073224 
778	 0,165699495214282 
779	 0,166004446271298 
780	 0,166112274143288 
781	 0,166213575791656 
782	 0,166303934664921 
783	 0,166192284859524 
784	 0,166112978077034 
785	 0,166223560015503 
786	 0,166436279144154 
787	 0,166647815504137 
788	 0,166695972423844 
789	 0,166823443458464 
790	 0,167035532878123 
791	 0,167067290484668 
792	 0,166927598680094 
793	 0,166678140059191 
794	 0,166801564249749 
795	 0,167168303563425 
796	 0,167331408246894 
797	 0,1674213444872 
798	 0,167458391681436 
799	 0,167401951251637 
800	 0,167349418301958 
801	 0,167387085014652 
802	 0,167362647564593 
803	 0,167367891679112 
804	 0,167786746698606 
805	 0,167743785959097 
806	 0,167169264031149 
807	 0,167631080098003 
808	 0,168192705959827 
809	 0,167795023175783 
810	 0,167887602009275 
811	 0,168493608268756 
812	 0,168864334924822 
813	 0,169043840284807 
814	 0,169031748466208 
815	 0,168886595314935 
816	 0,168793820791481 
817	 0,168957947731346 
818	 0,169410490279597 
819	 0,169861193977103 
820	 0,169451378099034 
821	 0,16904178475355 
822	 0,169116987710358 
823	 0,169861456389239 
824	 0,170470064976328 
825	 0,169925817045022 
826	 0,169830631065758 
827	 0,170320216317946 
828	 0,170518082591888 
829	 0,170664544717538 
830	 0,1708439262941 
831	 0,170922357714012 
832	 0,170805444993212 
833	 0,170390539201582 
834	 0,170535094327809 
835	 0,171169847533328 
836	 0,171383720282915 
837	 0,171207467925529 
838	 0,170738488463882 
839	 0,170596118095322 
840	 0,170723607448207 
841	 0,170922594762183 
842	 0,17091032206723 
843	 0,170750430505206 
844	 0,170930620540537 
845	 0,171193972151258 
846	 0,171383706671789 
847	 0,171512755662573 
848	 0,171501525870844 
849	 0,171248893701197 
850	 0,17110125112731 
851	 0,171134170571671 
852	 0,171242283032381 
853	 0,171412889505264 
854	 0,17157023454254 
855	 0,171332255259506 
856	 0,170974924737594 
857	 0,170928222222184 
858	 0,170791670397243 
859	 0,170725185770768 
860	 0,17161419567317 
861	 0,172114103769892 
862	 0,171638299798141 
863	 0,171450274796162 
864	 0,171364430339763 
865	 0,170976974996907 
866	 0,171273155419322 
867	 0,17203050428108 
868	 0,171851842917569 
869	 0,171676407006032 
870	 0,171959652645219 
871	 0,172660071326079 
872	 0,173044554013646 
873	 0,172300112082167 
874	 0,172153651078528 
875	 0,17262249456869 
876	 0,172554849952793 
877	 0,172521280368947 
878	 0,172735716006577 
879	 0,17312151426542 
880	 0,173274326028489 
881	 0,172832838338154 
882	 0,17318321513315 
883	 0,173942559732915 
884	 0,17325438370294 
885	 0,173117125287746 
886	 0,173957485403827 
887	 0,174047529081878 
888	 0,173742961038596 
889	 0,173499872512313 
890	 0,173468330441477 
891	 0,173772030644241 
892	 0,174655783119511 
893	 0,174890688305336 
894	 0,174291301665321 
895	 0,174067669572565 
896	 0,174090257106361 
897	 0,174243601524283 
898	 0,174749331319407 
899	 0,175177760182184 
900	 0,174718891108849 
901	 0,17486532932253 
902	 0,175559020957505 
903	 0,174850575410143 
904	 0,174240735921418 
905	 0,174582101190456 
906	 0,174598676217722 
907	 0,17448915511328 
908	 0,174742268974779 
909	 0,175028611913971 
910	 0,175174916522532 
911	 0,174833963625416 
912	 0,174966629407992 
913	 0,175723277885067 
914	 0,175066051939765 
915	 0,174042066710045 
916	 0,173997065916847 
917	 0,174399419147071 
918	 0,174960025145176 
919	 0,175327171521085 
920	 0,174993499186783 
921	 0,174011175534539 
922	 0,173555153531945 
923	 0,173509124442562 
924	 0,173672880732845 
925	 0,173660708349624 
926	 0,173192922435804 
927	 0,171880920812095 
928	 0,17144158473268 
929	 0,172078294130658 
930	 0,172602255437283 
931	 0,172386044479613 
932	 0,171326654811831 
933	 0,171784580819334 
934	 0,171832895876544 
935	 0,168841911336323 
936	 0,167864532124196 
937	 0,168911576500353 
938	 0,168727995756548 
939	 0,167841902162995 
940	 0,166693286329326 
941	 0,167032221494607 
942	 0,167086093481588 
943	 0,165373487534691 
944	 0,164276914837582 
945	 0,164127515686616 
946	 0,164810610387761 
947	 0,164213077394278 
948	 0,162463251697971 
949	 0,162747776796437 
950	 0,162263447663949 
951	 0,15984812975851 
952	 0,159211692320208 
953	 0,158827910241507 
954	 0,156541570328739 
955	 0,156179581331475 
956	 0,15700965981407 
957	 0,154974457037704 
958	 0,153703048847712 
959	 0,153956893300175 
960	 0,153261696511142 
961	 0,152393401575167 
962	 0,151959417412888 
963	 0,151168030368767 
964	 0,150890499947972 
965	 0,152543247311607 
966	 0,151824723780769 
967	 0,149146530618452 
968	 0,149134375714582 
969	 0,150077349359853 
970	 0,151122125844994 
971	 0,151729203286594 
972	 0,15159597627261 
973	 0,150651115532923 
974	 0,15056532998344 
975	 0,150705938626143 
976	 0,149375554131921 
977	 0,148926981394953 
978	 0,150044806601845 
979	 0,152893938969702 
980	 0,154411711138185 
981	 0,153171417901158 
982	 0,150730551703943 
983	 0,149731248419108 
984	 0,152279159905785 
985	 0,152375500927986 
986	 0,150601656686837 
987	 0,150155094197411 
988	 0,152754132922434 
989	 0,156852474565623 
990	 0,154923405817324 
991	 0,152478637106705 
992	 0,152599540239675 
993	 0,155106660571671 
994	 0,155662294601623 
995	 0,150666454221305 
996	 0,152023828017746 
997	 0,157450143490642 
998	 0,158183713611477 
999	 0,158054876796646 
1000	 0,157878941386107 
1001	 0,157087340123338 
1002	 0,156381971141563 
1003	 0,156387011292502 
1004	 0,158174871411664 
1005	 0,160397913499388 
1006	 0,161548622379004 
1007	 0,160880387216738 
1008	 0,159201158766154 
1009	 0,15812253581162 
1010	 0,158848820778032 
1011	 0,161253000596642 
1012	 0,163944795493368 
1013	 0,164785042700623 
1014	 0,163337610089481 
1015	 0,163009190249387 
1016	 0,164197523471072 
1017	 0,16659301652805 
1018	 0,165790870573394 
1019	 0,164606244950467 
1020	 0,168040892512837 
1021	 0,167889760643479 
1022	 0,16511172816116 
1023	 0,167662179208675 
1024	 0,17152945019685 
1025	 0,174286004899661 
1026	 0,171987779833325 
1027	 0,170818882983453 
1028	 0,173896134416378 
1029	 0,171474934888035 
1030	 0,168754557510479 
1031	 0,172470035226221 
1032	 0,174322628292569 
1033	 0,174562426135638 
1034	 0,176958172379304 
1035	 0,177951491740915 
1036	 0,177272681316518 
1037	 0,177646710582005 
1038	 0,177435672600524 
1039	 0,176687074369604 
1040	 0,179440108626734 
1041	 0,182304495316605 
1042	 0,181821543805251 
1043	 0,174704737939054 
1044	 0,168008222069245 
1045	 0,171661101581901 
1046	 0,176425675172978 
1047	 0,18037402663926 
1048	 0,18386778704048 
1049	 0,187234376805163 
1050	 0,188917275194449 
1051	 0,182776436888392 
1052	 0,179801613435479 
1053	 0,183912960500888 
1054	 0,180071613901638 
1055	 0,179381990498166 
1056	 0,188879724133151 
1057	 0,176379866361631 
1058	 0,163201276514768 
1059	 0,184003050124687 
1060	 0,186990617144236 
1061	 0,177789664211382 
1062	 0,194834570180022 
1063	 0,200958843918526 
1064	 0,189645898996306 
1065	 0,177756169286613 
1066	 0,170364921840015 
1067	 0,171714428852501 
1068	 0,185643453833039 
1069	 0,192699418544951 
1070	 0,182315330462353 
1071	 0,193462688937713 
1072	 0,206681442334135 
1073	 0,194198616118217 
1074	 0,1780730173575 
1075	 0,173962745019206 
