Wavelength	GRA-VAN00473.asd
325	 0,328597526912566 
326	 2,65252376934512E-02 
327	-2,08916363296201E-03 
328	 0,379975944005835 
329	 0,259679876012078 
330	 9,44712538480739E-02 
331	 0,383191429729825 
332	 0,342658608246847 
333	 0,170924256930001 
334	 0,176492555648371 
335	 0,196201995356596 
336	 0,17394602315138 
337	 0,141156415419119 
338	 7,21246088907255E-02 
339	-5,82986692952193E-02 
340	-0,01469533986102 
341	 0,115771769015097 
342	 0,145361018776181 
343	 0,14726203665739 
344	 0,13705941458156 
345	 0,110539906352276 
346	 8,48219323890723E-02 
347	 8,61561414964951E-02 
348	 2,75928760727995E-02 
349	-5,75065984513966E-02 
350	-9,87637903609405E-03 
351	 7,02744713823428E-02 
352	 0,116173778458261 
353	 8,53947095645792E-02 
354	 3,21400437499412E-02 
355	 2,21450910893581E-02 
356	 3,33817977410771E-02 
357	 4,87758589244626E-02 
358	 3,66429909764774E-02 
359	 3,02521661370129E-02 
360	 4,44651915628024E-02 
361	 0,057953484634159 
362	 6,19443073508477E-02 
363	 4,57919937289395E-02 
364	 4,28963412930374E-02 
365	 5,39000096519011E-02 
366	 4,68293272068604E-02 
367	 3,81565906838454E-02 
368	 3,81823074821654E-02 
369	 4,58699714743823E-02 
370	 4,97862246062144E-02 
371	 2,68948313244585E-02 
372	 3,57271252149749E-02 
373	 7,23737876842346E-02 
374	 5,69438791790627E-02 
375	 3,23125686142962E-02 
376	 3,38167052834521E-02 
377	 2,92974567352561E-02 
378	 2,44228820902184E-02 
379	 0,044651063300671 
380	 4,81437490431479E-02 
381	 3,21722756933723E-02 
382	 4,90280065111249E-02 
383	 6,47596855942685E-02 
384	 4,83531424643331E-02 
385	 0,036829709539116 
386	 3,32622110223266E-02 
387	 2,19675848992964E-02 
388	 2,56743923329849E-02 
389	 4,66486450183015E-02 
390	 4,27650085230271E-02 
391	 2,86144828322813E-02 
392	 2,44548945281051E-02 
393	 2,78525960706086E-02 
394	 3,35013902563048E-02 
395	 2,66245745708044E-02 
396	 0,019757916460921 
397	 1,97023962656369E-02 
398	 2,70044381903229E-02 
399	 3,21574188639288E-02 
400	 2,09411642757023E-02 
401	 0,022499249846795 
402	 3,69176946766982E-02 
403	 3,97769055895518E-02 
404	 2,96671241968356E-02 
405	 8,92309271709496E-03 
406	 1,11201938260074E-02 
407	 2,61516227043465E-02 
408	 2,66876764020914E-02 
409	 2,35738797187065E-02 
410	 1,99669038530891E-02 
411	 0,015943397275626 
412	 1,56165247648714E-02 
413	 2,19561581594755E-02 
414	 2,09437993247023E-02 
415	 1,36511027770313E-02 
416	 8,15449292467592E-03 
417	 7,74909028662481E-03 
418	 1,29321427798787E-02 
419	 1,55321913366762E-02 
420	 1,82956775732478E-02 
421	 2,58127080273028E-02 
422	 2,50036193774834E-02 
423	 1,70305043412659E-02 
424	 1,52192022377141E-02 
425	 1,71464850760459E-02 
426	 2,06999500397261E-02 
427	 2,11742163692812E-02 
428	 1,95586634038079E-02 
429	 1,90576196852574E-02 
430	 1,70037450200657E-02 
431	 1,39936232459146E-02 
432	 1,50478751413696E-02 
433	 1,92831045439956E-02 
434	 2,50123995001884E-02 
435	 2,16419212246116E-02 
436	 1,23678579122839E-02 
437	 9,87009612204507E-03 
438	 1,06980551516299E-02 
439	 1,30120641813263E-02 
440	 1,30110317704179E-02 
441	 1,26587390439039E-02 
442	 1,48995312905835E-02 
443	 1,65016698497263E-02 
444	 1,68523150821103E-02 
445	 1,71080029431933E-02 
446	 1,49039330697841E-02 
447	 9,92615068656086E-03 
448	 0,012250769902291 
449	 1,78613660448431E-02 
450	 1,67725629871636E-02 
451	 1,52329729954648E-02 
452	 1,50045764331555E-02 
453	 1,54149359553647E-02 
454	 1,53646782568662E-02 
455	 1,40357174985005E-02 
456	 1,52650524415802E-02 
457	 1,74811177255928E-02 
458	 1,42436112369228E-02 
459	 1,31416843443671E-02 
460	 1,64559809535578E-02 
461	 1,64543672749339E-02 
462	 1,43754795488269E-02 
463	 1,28134180085081E-02 
464	 1,10246297828485E-02 
465	 1,01866280437599E-02 
466	 1,46313481130721E-02 
467	 1,80633426890472E-02 
468	 1,67394640877602E-02 
469	 1,75151866821926E-02 
470	 1,86554555728431E-02 
471	 0,014449116488782 
472	 1,25554258598146E-02 
473	 1,46387607553932E-02 
474	 1,54890554995688E-02 
475	 1,58802526520495E-02 
476	 1,67813375526576E-02 
477	 1,66557458136703E-02 
478	 1,59492436369446E-02 
479	 1,68359408540152E-02 
480	 1,66629623135225E-02 
481	 1,47654037175116E-02 
482	 1,57960965671586E-02 
483	 1,75685153837619E-02 
484	 1,61672439561967E-02 
485	 1,61050073222241E-02 
486	 0,017377902202426 
487	 1,51409536134724E-02 
488	 1,33808694918764E-02 
489	 0,014863737347003 
490	 0,014539221049985 
491	 1,34368091602315E-02 
492	 1,58413871302025E-02 
493	 0,018248802718113 
494	 1,90925003503359E-02 
495	 1,73112812872702E-02 
496	 1,51709280227656E-02 
497	 1,52460118079461E-02 
498	 1,54838352280648E-02 
499	 1,54813074526851E-02 
500	 1,56913164147006E-02 
501	 1,48403272006974E-02 
502	 1,26847523361211E-02 
503	 1,32781887960645E-02 
504	 1,51257119218167E-02 
505	 1,46996809178643E-02 
506	 1,46205327533876E-02 
507	 1,55541830554156E-02 
508	 1,73030691586359E-02 
509	 1,78773324973876E-02 
510	 1,56939895359224E-02 
511	 1,45840521277959E-02 
512	 1,45500127531193E-02 
513	 1,31749294945342E-02 
514	 1,33850901934588E-02 
515	 1,57950258859618E-02 
516	 1,58476900901286E-02 
517	 1,50449719237589E-02 
518	 1,61160179818674E-02 
519	 1,66058123415691E-02 
520	 0,016102679733649 
521	 1,53623588682804E-02 
522	 1,49025630446613E-02 
523	 1,50887934259226E-02 
524	 1,55726627269226E-02 
525	 1,59646849253669E-02 
526	 1,55952573781493E-02 
527	 1,50897260922779E-02 
528	 1,46256017963022E-02 
529	 1,38081317866649E-02 
530	 1,31390942638661E-02 
531	 1,31944529220547E-02 
532	 1,38085027956255E-02 
533	 1,44448974523447E-02 
534	 1,34727930407773E-02 
535	 1,32563648416804E-02 
536	 1,48893195867033E-02 
537	 1,49631185205987E-02 
538	 1,42147933098136E-02 
539	 0,014836242995713 
540	 1,56570514432826E-02 
541	 1,61215832789668E-02 
542	 1,53695068177211E-02 
543	 1,45556383794126E-02 
544	 1,47886759920761E-02 
545	 1,43523375635104E-02 
546	 1,34577427703127E-02 
547	 1,35821145505079E-02 
548	 0,014146953155483 
549	 1,48102074099857E-02 
550	 1,53488691816051E-02 
551	 0,015401992697901 
552	 0,014470333212673 
553	 1,37295479980536E-02 
554	 1,34874751709996E-02 
555	 0,013171644272971 
556	 0,013511133131679 
557	 1,49184874419373E-02 
558	 1,45536778832583E-02 
559	 1,30700004743447E-02 
560	 1,34205373409736E-02 
561	 1,37333635672094E-02 
562	 1,34999619639442E-02 
563	 1,42743081027857E-02 
564	 1,49356130957812E-02 
565	 1,38768642594216E-02 
566	 0,013317668076175 
567	 1,35327981456556E-02 
568	 1,32509878650928E-02 
569	 1,30985174555403E-02 
570	 0,013462380610446 
571	 1,36009267898855E-02 
572	 1,36467386037928E-02 
573	 1,41404521720004E-02 
574	 1,47463440307956E-02 
575	 1,53011828842006E-02 
576	 1,57294677075858E-02 
577	 1,58255472991053E-02 
578	 1,53874336066073E-02 
579	 1,48951398285616E-02 
580	 1,46461296696912E-02 
581	 1,51323851366567E-02 
582	 1,55120117335104E-02 
583	 1,53446375315115E-02 
584	 1,53240579424716E-02 
585	 1,55565308956756E-02 
586	 1,61059247646066E-02 
587	 1,62223216273916E-02 
588	 1,58292014313654E-02 
589	 1,57287823338587E-02 
590	 1,58481067004318E-02 
591	 1,60724600409941E-02 
592	 1,62303265756036E-02 
593	 1,62809784228638E-02 
594	 1,62607625124555E-02 
595	 1,61158298347368E-02 
596	 0,015903351799313 
597	 1,61331492632162E-02 
598	 1,64744125533135E-02 
599	 0,016366672427912 
600	 1,61070260325657E-02 
601	 1,58562049944718E-02 
602	 1,58531613372673E-02 
603	 1,60822807310888E-02 
604	 1,64292947564885E-02 
605	 0,015706103206657 
606	 1,46268368523311E-02 
607	 1,55425926642526E-02 
608	 0,015904151960085 
609	 1,50380412912608E-02 
610	 1,50653566355041E-02 
611	 1,53349618321876E-02 
612	 1,48393793167608E-02 
613	 1,48734309439801E-02 
614	 1,53378858054401E-02 
615	 1,48326535687791E-02 
616	 1,43170955624065E-02 
617	 1,44092074761063E-02 
618	 1,47674288656879E-02 
619	 0,015130121772116 
620	 1,51267608199031E-02 
621	 0,014813815592702 
622	 1,44038098535429E-02 
623	 0,01483681928194 
624	 1,52306679652237E-02 
625	 1,46756815619245E-02 
626	 1,46286015939791E-02 
627	 1,52208520455458E-02 
628	 1,60264942897685E-02 
629	 1,61623935166716E-02 
630	 1,53312048185083E-02 
631	 1,51708485161999E-02 
632	 1,54965323233784E-02 
633	 1,56683979902393E-02 
634	 1,57908305822841E-02 
635	 1,59932615930016E-02 
636	 1,68953113729081E-02 
637	 1,73454548196704E-02 
638	 1,64648252798565E-02 
639	 1,60986301173134E-02 
640	 1,64160368959257E-02 
641	 1,69584033403301E-02 
642	 1,73181302987126E-02 
643	 1,73330553845614E-02 
644	 1,74003074974196E-02 
645	 1,75784106345845E-02 
646	 1,78912454708487E-02 
647	 1,80576734123117E-02 
648	 0,017901352338076 
649	 1,69697300333842E-02 
650	 1,66812942037145E-02 
651	 0,017779534012358 
652	 1,76559189686977E-02 
653	 1,69301098755146E-02 
654	 1,77798118697352E-02 
655	 1,79594490665053E-02 
656	 1,69550741313762E-02 
657	 1,60351320361283E-02 
658	 1,56071654054789E-02 
659	 1,59715071040024E-02 
660	 1,62285670931515E-02 
661	 1,61112845372611E-02 
662	 1,54959690088135E-02 
663	 1,49667268293649E-02 
664	 1,48566814052843E-02 
665	 0,015085488276999 
666	 1,53426356356203E-02 
667	 1,51652309890774E-02 
668	 1,51291277841992E-02 
669	 1,53212756389674E-02 
670	 1,54121727412499E-02 
671	 1,54265825512842E-02 
672	 1,54019579260266E-02 
673	 1,54871177453345E-02 
674	 0,015618880827434 
675	 1,56245214787578E-02 
676	 1,53465826820694E-02 
677	 1,48842775641593E-02 
678	 1,51006284129912E-02 
679	 1,56221192108321E-02 
680	 1,59165178731573E-02 
681	 1,56979828418041E-02 
682	 1,52581724554408E-02 
683	 1,57920525700794E-02 
684	 1,63167450366317E-02 
685	 1,62588870756833E-02 
686	 1,59725409525308E-02 
687	 1,58911354227856E-02 
688	 1,67353640790016E-02 
689	 1,70139774906613E-02 
690	 0,016623581201863 
691	 1,71743826431246E-02 
692	 1,83223392128264E-02 
693	 1,96775214258469E-02 
694	 2,09733245384457E-02 
695	 2,23539797098995E-02 
696	 2,42903293150615E-02 
697	 2,67607603961435E-02 
698	 2,97530331650449E-02 
699	 3,30957439891982E-02 
700	 3,68266987192938E-02 
701	 4,10077980213078E-02 
702	 4,57975249412911E-02 
703	 0,050962155427556 
704	 5,55749404814083E-02 
705	 6,08221653222925E-02 
706	 6,72890006979509E-02 
707	 7,32450664209526E-02 
708	 7,88348282159757E-02 
709	 8,47893315733568E-02 
710	 9,07443984793305E-02 
711	 9,66220118939876E-02 
712	 0,10251083092045 
713	 0,108347966104275 
714	 0,114055961489679 
715	 0,119512064013157 
716	 0,12472716839662 
717	 0,129840752954228 
718	 0,134520137675337 
719	 0,138715669560864 
720	 0,142932765809846 
721	 0,147121117832732 
722	 0,151164375475888 
723	 0,154466341433944 
724	 0,157191419100203 
725	 0,16033197591458 
726	 0,163491881178622 
727	 0,166410146478636 
728	 0,169052707328016 
729	 0,171383837829091 
730	 0,173392443992174 
731	 0,17492350496238 
732	 0,176096840762069 
733	 0,177501812855108 
734	 0,179066175858426 
735	 0,180681601888378 
736	 0,182052827504665 
737	 0,183214345072943 
738	 0,184425731574921 
739	 0,1855111520988 
740	 0,186416997733469 
741	 0,18719989937442 
742	 0,187995474821668 
743	 0,188945308019302 
744	 0,189865352940583 
745	 0,190588601321511 
746	 0,190727550478996 
747	 0,190947363880934 
748	 0,191610337302307 
749	 0,192454937099174 
750	 0,193221519361003 
751	 0,193586589433279 
752	 0,193607983609589 
753	 0,193525995011326 
754	 0,194088034156188 
755	 0,194865427729665 
756	 0,195479987106594 
757	 0,195533368555698 
758	 0,19546247183471 
759	 0,196323187653658 
760	 0,196863308270026 
761	 0,196823405804284 
762	 0,197066315508903 
763	 0,197411694597797 
764	 0,197644488467193 
765	 0,197689225672052 
766	 0,197683766115029 
767	 0,198082071651065 
768	 0,198157804624015 
769	 0,197803401568908 
770	 0,198139351036609 
771	 0,19886283611127 
772	 0,199488205231437 
773	 0,199459053437152 
774	 0,198958555522788 
775	 0,198892041257103 
776	 0,199348398444915 
777	 0,200196210747582 
778	 0,200068973408155 
779	 0,19958457188974 
780	 0,199876163216702 
781	 0,200078203576434 
782	 0,200049906746097 
783	 0,200122061049428 
784	 0,200107709138628 
785	 0,199937917959901 
786	 0,200105713221128 
787	 0,20042197383341 
788	 0,200441442357222 
789	 0,200233533379545 
790	 0,199986740604813 
791	 0,200436675487636 
792	 0,200739492429544 
793	 0,200275373049024 
794	 0,200146163284544 
795	 0,200272295968152 
796	 0,200079753693109 
797	 0,199862237316567 
798	 0,199728539547039 
799	 0,199730383390309 
800	 0,199777354739666 
801	 0,1997768962972 
802	 0,199668598104439 
803	 0,199625936558689 
804	 0,20019071831419 
805	 0,200369338916842 
806	 0,19997728258055 
807	 0,200256261228105 
808	 0,200582693164803 
809	 0,200263003315105 
810	 0,200892661283149 
811	 0,202089379496715 
812	 0,201825899549997 
813	 0,201846207510583 
814	 0,202631497884419 
815	 0,202384266132023 
816	 0,201930436935688 
817	 0,202397182112404 
818	 0,202635306321277 
819	 0,202570842292305 
820	 0,202762548132135 
821	 0,202961812338882 
822	 0,203128702029919 
823	 0,203704913860765 
824	 0,204466708307204 
825	 0,205076169910884 
826	 0,205501434614068 
827	 0,205711861344451 
828	 0,2056185343457 
829	 0,205849354909253 
830	 0,206575144456082 
831	 0,206520198162882 
832	 0,206113870370496 
833	 0,206124923371153 
834	 0,206491053288567 
835	 0,207127680232876 
836	 0,207831490234674 
837	 0,208225773311488 
838	 0,2080865021581 
839	 0,207528057797016 
840	 0,207005844099242 
841	 0,20710780073219 
842	 0,207185641531912 
843	 0,207150803689308 
844	 0,207304256289863 
845	 0,207411435321148 
846	 0,207374903453938 
847	 0,207485634516542 
848	 0,207654183391988 
849	 0,207711852092804 
850	 0,207735609876814 
851	 0,207766678931134 
852	 0,207875125486483 
853	 0,20801267368033 
854	 0,208120185613747 
855	 0,208067892774597 
856	 0,207765179745245 
857	 0,207122310216317 
858	 0,206994331551639 
859	 0,207408153966644 
860	 0,207678222060637 
861	 0,208022676648587 
862	 0,208455578924592 
863	 0,208538671275293 
864	 0,208162183097948 
865	 0,207280361741226 
866	 0,207573225987433 
867	 0,20867978945172 
868	 0,20807658264901 
869	 0,208017510137814 
870	 0,209259277995493 
871	 0,209526201278358 
872	 0,209187904112117 
873	 0,208968745505541 
874	 0,209585579032668 
875	 0,210653615359601 
876	 0,210527728827048 
877	 0,21050834464293 
878	 0,211101314130064 
879	 0,211945767642197 
880	 0,212350448152053 
881	 0,211686277068876 
882	 0,211652197070789 
883	 0,212095736235103 
884	 0,211491696750903 
885	 0,2117986953332 
886	 0,213180072202998 
887	 0,212646829784059 
888	 0,211932817054988 
889	 0,212720372532442 
890	 0,213029827447167 
891	 0,212916476544502 
892	 0,213232769011709 
893	 0,21398848534337 
894	 0,214854629550059 
895	 0,214332173316121 
896	 0,213792687457709 
897	 0,214292164114667 
898	 0,214757200864958 
899	 0,214909102046642 
900	 0,214550776070802 
901	 0,214316378446355 
902	 0,21448071320334 
903	 0,2152463930207 
904	 0,215929770091705 
905	 0,216054977838946 
906	 0,215694528770284 
907	 0,215246135762053 
908	 0,215244375312878 
909	 0,21557535396692 
910	 0,2159339464867 
911	 0,215378626329 
912	 0,215348979688443 
913	 0,216225278133048 
914	 0,21590925570934 
915	 0,215100951227872 
916	 0,214793538030831 
917	 0,214921814302603 
918	 0,215400247168132 
919	 0,216074187893103 
920	 0,216378588218272 
921	 0,216046622097287 
922	 0,215010651780091 
923	 0,214145779573357 
924	 0,214168561576884 
925	 0,214661482400177 
926	 0,21487724817094 
927	 0,213587296915914 
928	 0,213593505274806 
929	 0,214850830038869 
930	 0,214085092189921 
931	 0,213028270611574 
932	 0,21256782054006 
933	 0,211175454660198 
934	 0,210163899894503 
935	 0,211259604278108 
936	 0,210716528210839 
937	 0,208901103188815 
938	 0,209437908425205 
939	 0,209394127101051 
940	 0,208131218468812 
941	 0,208337923064624 
942	 0,20859341509256 
943	 0,207615417340402 
944	 0,20706526842818 
945	 0,206579196629511 
946	 0,204994069787734 
947	 0,203327863977486 
948	 0,202197136577114 
949	 0,202751281583977 
950	 0,202449068027115 
951	 0,200174745172465 
952	 0,199123763608418 
953	 0,198467220811755 
954	 0,19685675916961 
955	 0,196068702474312 
956	 0,19566102699183 
957	 0,193406144166087 
958	 0,192254892987671 
959	 0,192796656023686 
960	 0,192904363638997 
961	 0,191763777635598 
962	 0,189326961984739 
963	 0,190207718358695 
964	 0,192117391010227 
965	 0,190640194674151 
966	 0,189240084147663 
967	 0,188854043722431 
968	 0,189632654672419 
969	 0,190261757060631 
970	 0,190308125823784 
971	 0,19137331530848 
972	 0,191006473585938 
973	 0,187505382925852 
974	 0,187996461096798 
975	 0,19065662680169 
976	 0,190042702638514 
977	 0,189531008759345 
978	 0,189864109737843 
979	 0,190599300146462 
980	 0,190765068609837 
981	 0,190215859579236 
982	 0,191392379131385 
983	 0,19220017470691 
984	 0,190589098860562 
985	 0,190463259776915 
986	 0,191688997210122 
987	 0,192574540250072 
988	 0,193423522048823 
989	 0,194338862612357 
990	 0,195868185180472 
991	 0,195877998885804 
992	 0,194053340038946 
993	 0,195822473443181 
994	 0,197287970621059 
995	 0,194525027677304 
996	 0,195674702669114 
997	 0,199587099761714 
998	 0,20123043447573 
999	 0,200489559669339 
1000	 0,19806231295233 
1001	 0,196777353578921 
1002	 0,196354233639451 
1003	 0,196936923265671 
1004	 0,199809207919949 
1005	 0,202384246373533 
1006	 0,202222547258159 
1007	 0,201485397511903 
1008	 0,20103007994248 
1009	 0,201643053826267 
1010	 0,202243686210055 
1011	 0,202640843285818 
1012	 0,20342734248833 
1013	 0,203188418030833 
1014	 0,202139316960946 
1015	 0,204646261586152 
1016	 0,20788143998869 
1017	 0,209226788116345 
1018	 0,209146954576434 
1019	 0,208723182145654 
1020	 0,209480464034234 
1021	 0,209634507628614 
1022	 0,209643346090753 
1023	 0,211539625057729 
1024	 0,216297733456074 
1025	 0,221680881781288 
1026	 0,217224480194038 
1027	 0,213200906717732 
1028	 0,216076469108137 
1029	 0,218377337945771 
1030	 0,218272056171742 
1031	 0,214974607599188 
1032	 0,214476675104014 
1033	 0,217297475396999 
1034	 0,222042445523497 
1035	 0,221374830494274 
1036	 0,216712084218936 
1037	 0,22162973260154 
1038	 0,224282465348345 
1039	 0,22069937889439 
1040	 0,219407394889697 
1041	 0,221663771442933 
1042	 0,227214612924823 
1043	 0,22899246194751 
1044	 0,227352749496439 
1045	 0,224606665465299 
1046	 0,224145206032714 
1047	 0,225473553099842 
1048	 0,224909286956952 
1049	 0,230714663102711 
1050	 0,238892910767911 
1051	 0,22492672535334 
1052	 0,219622856260881 
1053	 0,234230906784404 
1054	 0,232619035644529 
1055	 0,229860696554559 
1056	 0,23875478694831 
1057	 0,238148834721936 
1058	 0,234195820745085 
1059	 0,239003923779444 
1060	 0,233259966721729 
1061	 0,225760818427256 
1062	 0,246364206168409 
1063	 0,250447229825334 
1064	 0,231573070086758 
1065	 0,216458260332104 
1066	 0,216711009428391 
1067	 0,232571182033086 
1068	 0,234147414128776 
1069	 0,232713021042256 
1070	 0,236752445372383 
1071	 0,236365248696297 
1072	 0,234210815223358 
1073	 0,234591008609479 
1074	 0,23143054557129 
1075	 0,229762810088676 
