Wavelength	GRA-BER00006.asd
325	 0,443241392863256 
326	 0,482757595664801 
327	 0,40519770962461 
328	 0,259065483925645 
329	 0,158950480871226 
330	 0,166969483646766 
331	 0,336710739283064 
332	 0,387364364067596 
333	 0,317588112400402 
334	 0,174404039162043 
335	 0,101656287161243 
336	 0,179986851640183 
337	 0,31807959536535 
338	 0,380810922839235 
339	 0,290724388376097 
340	 0,284212139174739 
341	 0,342251561644448 
342	 0,319999332998906 
343	 0,277322599078513 
344	 0,250985977344418 
345	 0,284896805852479 
346	 0,316089882814701 
347	 0,287385324658203 
348	 0,261626539896744 
349	 0,251030380442451 
350	 0,268171760666183 
351	 0,274554566136863 
352	 0,263883653526347 
353	 0,294297308692565 
354	 0,340849192004485 
355	 0,360118947411404 
356	 0,357533370693711 
357	 0,344993900948192 
358	 0,352718513420509 
359	 0,346143755343678 
360	 0,316332392375359 
361	 0,310061453021009 
362	 0,321424194805099 
363	 0,336207767690756 
364	 0,35233780542705 
365	 0,3620466765178 
366	 0,350884566585518 
367	 0,325977252759507 
368	 0,297488331102084 
369	 0,296056452090782 
370	 0,309812557680062 
371	 0,313001713729987 
372	 0,317997808267477 
373	 0,327176551382296 
374	 0,3423979940526 
375	 0,35019211641774 
376	 0,341714005205614 
377	 0,338569762210925 
378	 0,341499830393344 
379	 0,344729284083192 
380	 0,338476403373301 
381	 0,324162857909766 
382	 0,325398137082055 
383	 0,339022679089863 
384	 0,358900058630922 
385	 0,353614805736753 
386	 0,332847700634745 
387	 0,339467495284067 
388	 0,344646759556391 
389	 0,34080268120967 
390	 0,348705879606649 
391	 0,358536980644966 
392	 0,3569100138107 
393	 0,359661135622976 
394	 0,365488469141165 
395	 0,360230846694015 
396	 0,360188111226188 
397	 0,37079838679428 
398	 0,363840135429315 
399	 0,3492086009016 
400	 0,344606566147782 
401	 0,354761495041385 
402	 0,371740814517355 
403	 0,363877324678184 
404	 0,356864738252007 
405	 0,367168583606888 
406	 0,371195216135895 
407	 0,369858421328089 
408	 0,372130173495036 
409	 0,371850685371116 
410	 0,367129907344571 
411	 0,355953192687887 
412	 0,350174098818428 
413	 0,359969266177476 
414	 0,369052688666265 
415	 0,372735436087424 
416	 0,368191948626558 
417	 0,362201219338911 
418	 0,359216141343408 
419	 0,365627483402065 
420	 0,371537348348505 
421	 0,364226449738953 
422	 0,361271457605877 
423	 0,363973284417347 
424	 0,362040641922595 
425	 0,362458287952008 
426	 0,36804205091495 
427	 0,365954980655757 
428	 0,360034047912324 
429	 0,359759349994808 
430	 0,362506737786811 
431	 0,366279121446369 
432	 0,365688106399906 
433	 0,36379269847075 
434	 0,363433738524373 
435	 0,361946793366236 
436	 0,35993176571851 
437	 0,359828910572658 
438	 0,360721149716831 
439	 0,362016203316189 
440	 0,36241568142462 
441	 0,362885167697855 
442	 0,364792996750798 
443	 0,365894750508359 
444	 0,365654561540181 
445	 0,364134500666759 
446	 0,363504404188004 
447	 0,364869364547242 
448	 0,364831375715411 
449	 0,36408223369155 
450	 0,364606794348767 
451	 0,367039057281596 
452	 0,370445895368793 
453	 0,369534837935989 
454	 0,368492238127531 
455	 0,371199408063297 
456	 0,372104858562244 
457	 0,371288669535581 
458	 0,372055824459946 
459	 0,371086904976364 
460	 0,368266136491375 
461	 0,371980177915183 
462	 0,376491404231793 
463	 0,373334532178885 
464	 0,370632903137987 
465	 0,370563850004488 
466	 0,373137388680442 
467	 0,375484629019462 
468	 0,375767246995921 
469	 0,37668821654702 
470	 0,377614632782445 
471	 0,376515707366406 
472	 0,37535847753098 
473	 0,374907680482568 
474	 0,375544602218926 
475	 0,375599415569819 
476	 0,373623734441002 
477	 0,374904426266729 
478	 0,378093309409754 
479	 0,376540546077709 
480	 0,374755619580367 
481	 0,374732405471857 
482	 0,374585362620544 
483	 0,374446908036694 
484	 0,374758673032611 
485	 0,37555615290249 
486	 0,37634061031396 
487	 0,375072461111082 
488	 0,374614163441925 
489	 0,376884527927629 
490	 0,378180409430446 
491	 0,377834932804455 
492	 0,375440098928087 
493	 0,374718519244983 
494	 0,376320949704622 
495	 0,375493610851831 
496	 0,374100450225508 
497	 0,374617161186201 
498	 0,374348203657336 
499	 0,373698714976514 
500	 0,375970288964961 
501	 0,37730696874763 
502	 0,375896492881652 
503	 0,375846812205641 
504	 0,377221838171309 
505	 0,379323830900788 
506	 0,380216347972907 
507	 0,379736256398424 
508	 0,380494951132837 
509	 0,380821837157652 
510	 0,379251037961769 
511	 0,378241084105266 
512	 0,378155703926797 
513	 0,378706316063928 
514	 0,378946345430971 
515	 0,378478331697156 
516	 0,377804542102101 
517	 0,377660445996678 
518	 0,378968653766595 
519	 0,379947268730662 
520	 0,380197510030362 
521	 0,38021021548983 
522	 0,380342473694413 
523	 0,380763432157814 
524	 0,380196883934267 
525	 0,379455553795469 
526	 0,381016833253428 
527	 0,381421634184828 
528	 0,379937099914626 
529	 0,379730954414167 
530	 0,379720282107199 
531	 0,37843195297043 
532	 0,377996211027981 
533	 0,378597789749535 
534	 0,379350424327149 
535	 0,379565046571222 
536	 0,378917345709519 
537	 0,378545542563649 
538	 0,378582800772257 
539	 0,379008775017545 
540	 0,378953734943169 
541	 0,378406256016837 
542	 0,378755399228056 
543	 0,379219927360013 
544	 0,379023346778631 
545	 0,379526989330955 
546	 0,380596043060916 
547	 0,381224784911473 
548	 0,381220184445136 
549	 0,380660919547593 
550	 0,381005654107 
551	 0,381697939078143 
552	 0,381608774841047 
553	 0,381400204232133 
554	 0,381195812269409 
555	 0,380682814813737 
556	 0,380456132733256 
557	 0,380951149187954 
558	 0,381134224763622 
559	 0,381052746812645 
560	 0,381386132404068 
561	 0,381443251472441 
562	 0,381060563630362 
563	 0,38094440383667 
564	 0,381173890680194 
565	 0,381751830702697 
566	 0,382436963623225 
567	 0,383069482507519 
568	 0,383294722030773 
569	 0,384017783896218 
570	 0,385753839064403 
571	 0,386911750669029 
572	 0,387659882915389 
573	 0,388975136414452 
574	 0,390125869126706 
575	 0,3909764011095 
576	 0,3921788301342 
577	 0,393426279879401 
578	 0,394335621858419 
579	 0,395395608794324 
580	 0,39650790966172 
581	 0,396975536310371 
582	 0,397636578227609 
583	 0,398904605015436 
584	 0,399946012722089 
585	 0,400788939870977 
586	 0,401759033989307 
587	 0,401877261238811 
588	 0,401346096760306 
589	 0,402442089257224 
590	 0,403461440224871 
591	 0,402831581891434 
592	 0,402980139141243 
593	 0,403860432603546 
594	 0,404116877900378 
595	 0,403772372371464 
596	 0,40294592111103 
597	 0,402565981284765 
598	 0,402595498727514 
599	 0,402792724538381 
600	 0,403284902878088 
601	 0,403673380742926 
602	 0,402364886789761 
603	 0,401295029491402 
604	 0,401913039903568 
605	 0,40210072679038 
606	 0,40165681333776 
607	 0,40102021280024 
608	 0,400354590979997 
609	 0,399734060170306 
610	 0,398943573276816 
611	 0,39818316051362 
612	 0,397710465339402 
613	 0,397508685334169 
614	 0,397538787951561 
615	 0,397717561445102 
616	 0,397851368715126 
617	 0,397796304953069 
618	 0,397535938472228 
619	 0,397223294193718 
620	 0,397085311010787 
621	 0,397466699054801 
622	 0,398296806847323 
623	 0,398632952003684 
624	 0,398800258607046 
625	 0,399190588599091 
626	 0,399653255658576 
627	 0,400068561189983 
628	 0,400137981362434 
629	 0,400346994185011 
630	 0,400932193876012 
631	 0,401515164495741 
632	 0,402252320589702 
633	 0,403502310712712 
634	 0,404277359280392 
635	 0,404549929232229 
636	 0,405531047282375 
637	 0,406594877023664 
638	 0,407220069373949 
639	 0,408189379667552 
640	 0,40932986540155 
641	 0,409800888925691 
642	 0,410591737882691 
643	 0,411906427804578 
644	 0,412459304533585 
645	 0,412561693788217 
646	 0,412778026925998 
647	 0,41284663605079 
648	 0,412655236874296 
649	 0,412003766894909 
650	 0,41122638718943 
651	 0,410536096348237 
652	 0,409569680701572 
653	 0,408548598345372 
654	 0,407991074317177 
655	 0,407594257597878 
656	 0,407204045682725 
657	 0,406688772805487 
658	 0,405854305945626 
659	 0,404535499825849 
660	 0,403171408465597 
661	 0,401849900070221 
662	 0,400423218301791 
663	 0,399217709976761 
664	 0,398411600682553 
665	 0,397853909373659 
666	 0,39754039386632 
667	 0,39750099265166 
668	 0,397620981612303 
669	 0,397659952471894 
670	 0,396951054748571 
671	 0,396083095888158 
672	 0,395592611191284 
673	 0,395819410845717 
674	 0,396411607099247 
675	 0,396437190068135 
676	 0,396215742456212 
677	 0,395929192918536 
678	 0,395974649402044 
679	 0,396263041364717 
680	 0,396637773641817 
681	 0,396832606672972 
682	 0,39700846867212 
683	 0,397900669204215 
684	 0,398859344295274 
685	 0,399586879600601 
686	 0,400930679734732 
687	 0,402860159300124 
688	 0,405099167677283 
689	 0,407747971091665 
690	 0,410824846140306 
691	 0,414236651496875 
692	 0,418312447855856 
693	 0,423322557044182 
694	 0,428830662124104 
695	 0,434632525475377 
696	 0,440419533050345 
697	 0,446911121227068 
698	 0,454228630269758 
699	 0,46108663003977 
700	 0,468104576313367 
701	 0,476232776182888 
702	 0,484339632382261 
703	 0,492105177199396 
704	 0,49970803142209 
705	 0,506958485755478 
706	 0,513748112130547 
707	 0,520482077328212 
708	 0,527052395028457 
709	 0,533142010551392 
710	 0,538990924100711 
711	 0,544555643756173 
712	 0,549333314865335 
713	 0,55380316205972 
714	 0,558436971836501 
715	 0,563089416566339 
716	 0,567653309645655 
717	 0,57210346092867 
718	 0,575544262046454 
719	 0,577857044624901 
720	 0,580904685616673 
721	 0,584134321089262 
722	 0,586611377461907 
723	 0,589129145062451 
724	 0,591722086608239 
725	 0,593879666835807 
726	 0,595882150993218 
727	 0,597869916495706 
728	 0,599556833383874 
729	 0,600940658858423 
730	 0,602082191316338 
731	 0,602980944447123 
732	 0,603799298583832 
733	 0,605100977161473 
734	 0,606433695944084 
735	 0,607389428156875 
736	 0,60821788000661 
737	 0,608926159721619 
738	 0,609396053151897 
739	 0,609926846783186 
740	 0,610620535181303 
741	 0,611293314373235 
742	 0,611851198776873 
743	 0,612208871912686 
744	 0,612354525716407 
745	 0,612530396043745 
746	 0,613452069139035 
747	 0,614360460096032 
748	 0,614836616086563 
749	 0,615175642287064 
750	 0,615310202930107 
751	 0,615057655887461 
752	 0,615537730476737 
753	 0,616660899888317 
754	 0,616842100791077 
755	 0,616753258269161 
756	 0,616928325474737 
757	 0,617404147939336 
758	 0,617973622355183 
759	 0,618217558361062 
760	 0,618212476652438 
761	 0,61811770641884 
762	 0,618571254140884 
763	 0,619039982255419 
764	 0,619001776004579 
765	 0,61872308656575 
766	 0,618546247081417 
767	 0,619308097299101 
768	 0,61954778944584 
769	 0,618865115295796 
770	 0,618641163289394 
771	 0,618858911022459 
772	 0,619338142600953 
773	 0,61959047511145 
774	 0,619515266047342 
775	 0,619168008563338 
776	 0,619207933126727 
777	 0,619854583757415 
778	 0,619886821205312 
779	 0,619816467549169 
780	 0,620600107347973 
781	 0,620916931414385 
782	 0,620680670207207 
783	 0,620922302181442 
784	 0,62117038601922 
785	 0,621147243509309 
786	 0,621198122316823 
787	 0,621500966487289 
788	 0,62231179539684 
789	 0,622770313267094 
790	 0,622687865495562 
791	 0,622571438672313 
792	 0,622400413834458 
793	 0,622196657823032 
794	 0,622434818996466 
795	 0,622828135340572 
796	 0,622595226974395 
797	 0,622379437699112 
798	 0,622397074252697 
799	 0,622625364897352 
800	 0,622642327766192 
801	 0,622123455232669 
802	 0,622210838651683 
803	 0,622764164609066 
804	 0,622847620482403 
805	 0,62300331284616 
806	 0,623328391835506 
807	 0,623323009691047 
808	 0,623344555371629 
809	 0,623781188354493 
810	 0,62392504468814 
811	 0,623909151775359 
812	 0,624543260256254 
813	 0,625082325996264 
814	 0,625249510866306 
815	 0,625417595036361 
816	 0,625755213210194 
817	 0,626405557140994 
818	 0,626760077137288 
819	 0,626820865943368 
820	 0,627034155131793 
821	 0,627350544704082 
822	 0,6277153944332 
823	 0,627872034096391 
824	 0,627916849228373 
825	 0,628010692607427 
826	 0,628054879094834 
827	 0,628104259128429 
828	 0,62836796322106 
829	 0,628714549635424 
830	 0,629028412807319 
831	 0,629121048261692 
832	 0,62897670998474 
833	 0,628613721441656 
834	 0,628565646377871 
835	 0,628890898879886 
836	 0,629293440894489 
837	 0,629549133419943 
838	 0,629588724053544 
839	 0,630000103790828 
840	 0,630396967428894 
841	 0,630160098729173 
842	 0,629696716814161 
843	 0,62932519058057 
844	 0,629674757483945 
845	 0,630075523255169 
846	 0,630204798964601 
847	 0,630734431336832 
848	 0,631082357885778 
849	 0,630360191273123 
850	 0,630388226367933 
851	 0,631265882301148 
852	 0,631729429745934 
853	 0,631939607128499 
854	 0,632001040976304 
855	 0,632166490126333 
856	 0,632419624995181 
857	 0,632691416214536 
858	 0,632656328355381 
859	 0,63242927035964 
860	 0,63264900975709 
861	 0,632858016405192 
862	 0,632895095104269 
863	 0,633339737461292 
864	 0,633915662383416 
865	 0,634192287283993 
866	 0,634245865892665 
867	 0,634166548698405 
868	 0,634162127634854 
869	 0,6342439634809 
870	 0,634423847624071 
871	 0,634669662868804 
872	 0,634957645890834 
873	 0,635254776071341 
874	 0,635243329369871 
875	 0,63500725788154 
876	 0,634916699881907 
877	 0,635236902647708 
878	 0,63592709541342 
879	 0,635989116616955 
880	 0,635939612183322 
881	 0,636383731723538 
882	 0,636419969513434 
883	 0,636206359143739 
884	 0,636703679215329 
885	 0,636716868660286 
886	 0,636130415464369 
887	 0,636714040232301 
888	 0,637269072782945 
889	 0,636693029605266 
890	 0,63685988509085 
891	 0,637711163240839 
892	 0,638457936412412 
893	 0,638509321583562 
894	 0,637885585975137 
895	 0,63774765500117 
896	 0,637923188747856 
897	 0,638191773224225 
898	 0,63796569737889 
899	 0,637923355733958 
900	 0,639492995752201 
901	 0,639773181757477 
902	 0,638543036238804 
903	 0,638343376836625 
904	 0,638517886382346 
905	 0,638624895298693 
906	 0,638511708620537 
907	 0,63854323509167 
908	 0,639261299895381 
909	 0,638994000287046 
910	 0,638124450171207 
911	 0,639223219227621 
912	 0,640161137734766 
913	 0,639996349238671 
914	 0,639682563327888 
915	 0,639326643253715 
916	 0,638992893347663 
917	 0,639243451971738 
918	 0,63966939336609 
919	 0,638806239330246 
920	 0,639067207176804 
921	 0,64058117215801 
922	 0,639603215277794 
923	 0,638753714458771 
924	 0,640085019625765 
925	 0,640211270144885 
926	 0,63932664777371 
927	 0,638689942205502 
928	 0,639401572635788 
929	 0,640842598530949 
930	 0,63934219176081 
931	 0,638128155321909 
932	 0,63881379270318 
933	 0,638388269496187 
934	 0,637426358891348 
935	 0,637067997977007 
936	 0,637202212695948 
937	 0,637590946041322 
938	 0,637608105816167 
939	 0,637588500463017 
940	 0,637536958605688 
941	 0,636813623356698 
942	 0,636460999539111 
943	 0,637227399300015 
944	 0,636518500998199 
945	 0,635433906911373 
946	 0,636853378430932 
947	 0,637058574121576 
948	 0,635514056589845 
949	 0,634372508567781 
950	 0,633801430024492 
951	 0,633723143094576 
952	 0,632798898438003 
953	 0,631461989320112 
954	 0,630462451976763 
955	 0,630987391245222 
956	 0,631903752069498 
957	 0,629670365104274 
958	 0,627386689794504 
959	 0,626336131089259 
960	 0,626744665737085 
961	 0,62798262749733 
962	 0,629186755132882 
963	 0,627867614312067 
964	 0,625656929586189 
965	 0,625542560883978 
966	 0,625698127961349 
967	 0,625812738371034 
968	 0,626352781626817 
969	 0,626525278935716 
970	 0,626008012626869 
971	 0,625221604321626 
972	 0,624154100726585 
973	 0,623007241187277 
974	 0,62433192145497 
975	 0,62642333120777 
976	 0,625510148745527 
977	 0,62534934376471 
978	 0,626536671243387 
979	 0,627665329273661 
980	 0,627271462098456 
981	 0,62522795995131 
982	 0,625425208590787 
983	 0,62670174514811 
984	 0,627415722373092 
985	 0,626704987194732 
986	 0,625284993086516 
987	 0,624821607189987 
988	 0,626009866450861 
989	 0,628001653771756 
990	 0,626898949268047 
991	 0,626049893619354 
992	 0,626962513919176 
993	 0,627229133383521 
994	 0,627197607508763 
995	 0,627424012453853 
996	 0,627887908411336 
997	 0,6280477361962 
998	 0,626747904071256 
999	 0,627772651156497 
1000	 0,631194168765196 
1001	 0,633713180504211 
1002	 0,633465196890516 
1003	 0,630435501573517 
1004	 0,630973628075146 
1005	 0,631972645135965 
1006	 0,630355987384898 
1007	 0,632207091992317 
1008	 0,635331957728359 
1009	 0,634101244993862 
1010	 0,634415762614145 
1011	 0,636500511896916 
1012	 0,635950083774341 
1013	 0,634194546235653 
1014	 0,632429781650373 
1015	 0,633194542063042 
1016	 0,635414638724884 
1017	 0,637673893276813 
1018	 0,637286954740164 
1019	 0,635907413208395 
1020	 0,63655703816601 
1021	 0,63825817020654 
1022	 0,639483113300148 
1023	 0,636098596605742 
1024	 0,637653863822015 
1025	 0,64467204495777 
1026	 0,64355664733524 
1027	 0,64148463435608 
1028	 0,642534042800973 
1029	 0,638391232762168 
1030	 0,634225549265994 
1031	 0,63659185454407 
1032	 0,641402648347988 
1033	 0,645450678657277 
1034	 0,644287418612449 
1035	 0,642825415591115 
1036	 0,643014939676481 
1037	 0,647029952639836 
1038	 0,644400458515705 
1039	 0,634309776179706 
1040	 0,640082396143776 
1041	 0,64499577430458 
1042	 0,636602641241794 
1043	 0,639860950173812 
1044	 0,647000310153069 
1045	 0,643447002544238 
1046	 0,646698328890664 
1047	 0,653824220974419 
1048	 0,64964379893674 
1049	 0,646608106605929 
1050	 0,646871214120606 
1051	 0,642887732793856 
1052	 0,640547569651977 
1053	 0,641827688666484 
1054	 0,638819119276131 
1055	 0,640137830050714 
1056	 0,651228801498121 
1057	 0,647718116763459 
1058	 0,639566006552012 
1059	 0,644579400566095 
1060	 0,642580491947344 
1061	 0,636608694478144 
1062	 0,642466613336445 
1063	 0,646273723492685 
1064	 0,644096133707262 
1065	 0,638172738920464 
1066	 0,632286639699243 
1067	 0,631838904542736 
1068	 0,650807029977413 
1069	 0,666803956139845 
1070	 0,663347728124783 
1071	 0,649395188551754 
1072	 0,641022544283414 
1073	 0,652846398828242 
1074	 0,648467707715423 
1075	 0,631872294942572 
