Wavelength	GRA-VAN00327.asd
325	 0,293711593918439 
326	 0,165879529690222 
327	 0,204508072122918 
328	 0,394735831915139 
329	 0,236153473226931 
330	-2,30926033779849E-02 
331	 0,110646715809123 
332	 0,214554310547071 
333	 0,260493215806675 
334	 0,109510589160238 
335	 6,82880653853324E-02 
336	 0,198886813235585 
337	 0,173432730405779 
338	 0,102026019835882 
339	 0,074075899457861 
340	 0,151962685993482 
341	 0,233995491666528 
342	 0,17250567360773 
343	 0,101534806491667 
344	 8,68055763969503E-02 
345	 7,81356253808195E-02 
346	 7,66250844928705E-02 
347	 8,76269814602313E-02 
348	 6,58952092371734E-02 
349	 2,29069461991669E-02 
350	 1,92852795409095E-02 
351	 3,48093961818002E-02 
352	 5,48986486486487E-02 
353	 7,72993250933884E-02 
354	 8,25693832011524E-02 
355	 4,62791850545839E-02 
356	 0,062906705895899 
357	 0,108065891423307 
358	 6,29498122961828E-02 
359	 3,35051580335071E-02 
360	 6,67160697265687E-02 
361	 7,90797325573202E-02 
362	 6,64660186973477E-02 
363	 3,02255234634133E-02 
364	 4,27001894458012E-02 
365	 9,57792180621103E-02 
366	 8,55842010115644E-02 
367	 6,88548556102185E-02 
368	 7,71739954347075E-02 
369	 6,76024213350468E-02 
370	 4,26227641959793E-02 
371	 9,7379266754223E-03 
372	 2,37892752655256E-02 
373	 7,43843172932417E-02 
374	 6,23847575154819E-02 
375	 0,044164735301293 
376	 6,25619322213769E-02 
377	 6,16243932466023E-02 
378	 4,63161058834927E-02 
379	 4,59023121583304E-02 
380	 4,43154995735174E-02 
381	 4,14547276830421E-02 
382	 6,08529955591136E-02 
383	 7,38305881648184E-02 
384	 5,60161334120761E-02 
385	 4,80625100368327E-02 
386	 4,76996058398942E-02 
387	 2,27776448846617E-02 
388	 1,98225574916034E-02 
389	 4,95919943584405E-02 
390	 5,16437821393866E-02 
391	 4,07858803144348E-02 
392	 3,93330174444672E-02 
393	 3,82806325040461E-02 
394	 0,036242897108506 
395	 0,034220052181416 
396	 2,83319722464897E-02 
397	 1,94808290845043E-02 
398	 2,90331922973443E-02 
399	 4,24148578349367E-02 
400	 3,57855661057954E-02 
401	 2,99660309243558E-02 
402	 2,86056890461003E-02 
403	 2,28171816299538E-02 
404	 1,72274073632016E-02 
405	 0,015870154845879 
406	 2,13381547048432E-02 
407	 2,98517323915322E-02 
408	 3,61005862504477E-02 
409	 3,46663809887992E-02 
410	 2,60675164553506E-02 
411	 2,07410878756961E-02 
412	 1,86816329501335E-02 
413	 1,93562752166815E-02 
414	 2,34872859366892E-02 
415	 2,66594695525322E-02 
416	 1,72361012042763E-02 
417	 1,09675341042192E-02 
418	 1,42451940985868E-02 
419	 2,09314742016216E-02 
420	 0,027218396179203 
421	 2,97035482329385E-02 
422	 2,98252019347181E-02 
423	 2,85737408718284E-02 
424	 2,81712223893295E-02 
425	 2,65124706653659E-02 
426	 2,27465055319449E-02 
427	 2,11225002655028E-02 
428	 2,05142752384299E-02 
429	 1,75509982065198E-02 
430	 1,72045103507802E-02 
431	 1,96607595590433E-02 
432	 1,86997645762176E-02 
433	 1,86565577566142E-02 
434	 2,31074683155138E-02 
435	 2,50762654763917E-02 
436	 2,37495147049499E-02 
437	 1,99108075616709E-02 
438	 1,84826900389497E-02 
439	 2,07555141255465E-02 
440	 2,02184820388648E-02 
441	 1,95826768272887E-02 
442	 2,29534658917034E-02 
443	 2,33931759259098E-02 
444	 2,13215455616631E-02 
445	 0,02451163608745 
446	 2,48441773073881E-02 
447	 1,84347605724729E-02 
448	 1,75192570447716E-02 
449	 2,08314545196082E-02 
450	 2,28567721745321E-02 
451	 2,44511869427063E-02 
452	 2,53913307804558E-02 
453	 2,50039412416033E-02 
454	 2,34247153520156E-02 
455	 2,10534843287992E-02 
456	 2,19624313902044E-02 
457	 2,48438012385066E-02 
458	 2,42885911568915E-02 
459	 2,32760668339648E-02 
460	 2,27713939551476E-02 
461	 2,06315273814198E-02 
462	 1,86256385582724E-02 
463	 1,92612804943526E-02 
464	 1,92657543397193E-02 
465	 1,86704525516883E-02 
466	 2,04220234582044E-02 
467	 2,33087550654476E-02 
468	 2,61786063133449E-02 
469	 2,68860946422503E-02 
470	 2,52637637607967E-02 
471	 0,021263050020222 
472	 1,98386280342394E-02 
473	 2,17633152624223E-02 
474	 2,12245771664256E-02 
475	 2,09061580288707E-02 
476	 2,35753733900389E-02 
477	 2,44684246316974E-02 
478	 2,37222980407365E-02 
479	 2,46637008709875E-02 
480	 2,44517819559576E-02 
481	 0,022448778210237 
482	 2,37753405644589E-02 
483	 2,61004643304776E-02 
484	 2,53234426123289E-02 
485	 2,36647548667287E-02 
486	 2,22412383340525E-02 
487	 2,30314955163115E-02 
488	 2,30174715053904E-02 
489	 2,02923967486115E-02 
490	 0,020407131746553 
491	 2,24994628424272E-02 
492	 2,25050088963558E-02 
493	 2,29685630180344E-02 
494	 2,42683352298913E-02 
495	 2,43596617166023E-02 
496	 2,29047795564066E-02 
497	 1,97788468295818E-02 
498	 1,87739837493818E-02 
499	 2,01777056454186E-02 
500	 2,22837320730071E-02 
501	 2,23877273995448E-02 
502	 1,95210208878715E-02 
503	 1,94524976120031E-02 
504	 2,12659593669347E-02 
505	 2,21252239480527E-02 
506	 2,18979385448984E-02 
507	 2,09744087394913E-02 
508	 2,16425221941772E-02 
509	 2,25143895705341E-02 
510	 2,22781405230148E-02 
511	 2,19791641901479E-02 
512	 2,16593223937383E-02 
513	 2,06597327384091E-02 
514	 2,08118131211865E-02 
515	 2,25475087656691E-02 
516	 2,32366922728569E-02 
517	 2,28795574056583E-02 
518	 2,18343799652726E-02 
519	 2,22319582342032E-02 
520	 2,36904115449326E-02 
521	 2,26979782866008E-02 
522	 2,10503453128782E-02 
523	 2,02662883686218E-02 
524	 2,13112357232096E-02 
525	 2,32256982982896E-02 
526	 2,38346785846076E-02 
527	 0,022960208711139 
528	 2,08771115156367E-02 
529	 1,95375367110609E-02 
530	 1,94047883951949E-02 
531	 2,07418000763264E-02 
532	 2,12155248579581E-02 
533	 2,06862840307473E-02 
534	 0,020645411467077 
535	 2,08562827546284E-02 
536	 2,11126934153438E-02 
537	 2,06893481536992E-02 
538	 2,02671264425928E-02 
539	 2,13012169391883E-02 
540	 2,21675117767657E-02 
541	 2,22977829286812E-02 
542	 2,16750565608545E-02 
543	 2,11867473487008E-02 
544	 2,16275771481155E-02 
545	 2,10923278428333E-02 
546	 2,00331108242583E-02 
547	 2,07846029644863E-02 
548	 2,17013611852068E-02 
549	 2,19861940607016E-02 
550	 2,21475909383629E-02 
551	 2,21494205276153E-02 
552	 0,021888829309738 
553	 2,11025434362817E-02 
554	 2,00882611829459E-02 
555	 2,02230066793847E-02 
556	 2,04293039603063E-02 
557	 1,98745500219976E-02 
558	 2,01642403157816E-02 
559	 2,10992466816762E-02 
560	 2,16049500934166E-02 
561	 2,15254634148436E-02 
562	 2,09579261791474E-02 
563	 2,12511012611311E-02 
564	 2,15646532820397E-02 
565	 2,06376147575201E-02 
566	 2,03564996469304E-02 
567	 2,08958242713209E-02 
568	 2,10744213625397E-02 
569	 2,10832620165238E-02 
570	 2,10397581522097E-02 
571	 2,07388591089616E-02 
572	 2,04950895751348E-02 
573	 2,10246367300891E-02 
574	 2,16206454676664E-02 
575	 2,20195711638022E-02 
576	 2,23194718011096E-02 
577	 2,26622395194958E-02 
578	 2,31867167959365E-02 
579	 2,32125218581659E-02 
580	 2,28567513782326E-02 
581	 2,29695393496303E-02 
582	 2,31569850010074E-02 
583	 2,31968435343482E-02 
584	 2,30934616970211E-02 
585	 2,31506049096521E-02 
586	 0,023929898919973 
587	 2,43346129673525E-02 
588	 2,42959017963976E-02 
589	 2,52627218722307E-02 
590	 2,59518044368784E-02 
591	 2,52061777848138E-02 
592	 2,49760818619724E-02 
593	 2,53756205345232E-02 
594	 2,56340797708268E-02 
595	 2,56409509711133E-02 
596	 2,54161667694663E-02 
597	 2,57627349255377E-02 
598	 0,026044837705339 
599	 2,51849028596358E-02 
600	 2,45882844111588E-02 
601	 2,46373588530545E-02 
602	 2,50967398086108E-02 
603	 2,55539647225612E-02 
604	 2,56412274814374E-02 
605	 2,51326262395062E-02 
606	 2,42869315588785E-02 
607	 2,36982177775553E-02 
608	 2,36927525636912E-02 
609	 2,42144427400967E-02 
610	 0,024032573890255 
611	 2,35049533334203E-02 
612	 2,32092514180088E-02 
613	 2,31862928428224E-02 
614	 2,33050737102983E-02 
615	 2,29935998912539E-02 
616	 2,28889073201481E-02 
617	 0,023322194651521 
618	 2,33763972261928E-02 
619	 2,31751436825046E-02 
620	 2,32758810125186E-02 
621	 2,30201058714302E-02 
622	 2,23683058078944E-02 
623	 2,21401039926652E-02 
624	 2,21709506795348E-02 
625	 2,22462037015588E-02 
626	 2,26813367806482E-02 
627	 2,32635640853273E-02 
628	 2,32576589780529E-02 
629	 2,31605328251786E-02 
630	 2,32214020843336E-02 
631	 2,32684406810095E-02 
632	 2,32915193884167E-02 
633	 2,32812192366807E-02 
634	 2,35456079557739E-02 
635	 2,40718430924429E-02 
636	 2,44346475401821E-02 
637	 2,46562058726382E-02 
638	 2,47652299598779E-02 
639	 2,47049493128392E-02 
640	 2,46123626456648E-02 
641	 2,47914079922249E-02 
642	 0,025220330727053 
643	 2,57479813720487E-02 
644	 2,54301866441037E-02 
645	 0,025324789007524 
646	 0,026899418530176 
647	 0,027156470502124 
648	 0,025888326398967 
649	 2,51095051983299E-02 
650	 2,49125739713478E-02 
651	 2,52688880282799E-02 
652	 2,50555048876072E-02 
653	 2,46743212669582E-02 
654	 0,025410140479318 
655	 2,55945279214564E-02 
656	 0,024734725091582 
657	 0,023344364434817 
658	 2,23637599111268E-02 
659	 2,26639457765342E-02 
660	 2,24719745715848E-02 
661	 2,17085895351993E-02 
662	 2,12946630336326E-02 
663	 2,11503883627095E-02 
664	 0,021201248956763 
665	 2,10820503312157E-02 
666	 2,08336201210485E-02 
667	 2,05976725470379E-02 
668	 2,03731145508443E-02 
669	 2,02123557534372E-02 
670	 2,02630330261079E-02 
671	 2,03825807155768E-02 
672	 2,04572911292077E-02 
673	 2,06332514574696E-02 
674	 2,08251544188398E-02 
675	 2,07923719150021E-02 
676	 2,06938134666211E-02 
677	 2,05912514853483E-02 
678	 2,03996163248331E-02 
679	 2,04808528821211E-02 
680	 2,12428337072939E-02 
681	 2,09919970357118E-02 
682	 2,00248607317254E-02 
683	 2,05894565499315E-02 
684	 2,14972717846874E-02 
685	 2,19795686225563E-02 
686	 2,18541579240836E-02 
687	 2,15984696853413E-02 
688	 2,21244850360186E-02 
689	 2,24291675288203E-02 
690	 2,24628672902221E-02 
691	 2,32288648633651E-02 
692	 0,024642194460275 
693	 2,65399029564117E-02 
694	 2,81972696838805E-02 
695	 0,029719732404899 
696	 3,17390584851085E-02 
697	 3,41420904198893E-02 
698	 3,69473671111052E-02 
699	 4,02765724807941E-02 
700	 4,42349859252049E-02 
701	 4,89295105998152E-02 
702	 5,36107640548306E-02 
703	 5,82624127927441E-02 
704	 6,34890835892747E-02 
705	 6,94964382883733E-02 
706	 7,62117580379464E-02 
707	 8,19796665119751E-02 
708	 8,74309634893419E-02 
709	 9,42317377127542E-02 
710	 0,100542372802329 
711	 0,106062554673482 
712	 0,112103812960449 
713	 0,118425457913818 
714	 0,124695153739754 
715	 0,130202414817445 
716	 0,135214124343187 
717	 0,140876103624579 
718	 0,146045144879221 
719	 0,150368247018619 
720	 0,154709203434549 
721	 0,159012366490897 
722	 0,163114883448649 
723	 0,166570224591823 
724	 0,169547880503667 
725	 0,172970350391393 
726	 0,176194845748001 
727	 0,178855011742196 
728	 0,181409144970117 
729	 0,183780961578056 
730	 0,185725044330938 
731	 0,187487647209819 
732	 0,189195098951127 
733	 0,190974165722623 
734	 0,19269520211412 
735	 0,194224618327858 
736	 0,195345869358385 
737	 0,196306413122464 
738	 0,197891181445293 
739	 0,19898709690439 
740	 0,199321001068734 
741	 0,199966028603483 
742	 0,200696734529168 
743	 0,201155093678344 
744	 0,201737987453002 
745	 0,202459578034056 
746	 0,203116214886119 
747	 0,203587013601999 
748	 0,203857184777369 
749	 0,204356980040641 
750	 0,204975070868524 
751	 0,205461514256725 
752	 0,205848715760593 
753	 0,206208426556726 
754	 0,206799493931168 
755	 0,207398661297296 
756	 0,207803349947419 
757	 0,207755630943774 
758	 0,207528409722191 
759	 0,207717451914781 
760	 0,208119659400005 
761	 0,208581696189692 
762	 0,208678240205293 
763	 0,208758173125516 
764	 0,209147029980495 
765	 0,209330519490431 
766	 0,20934456131367 
767	 0,209549192760958 
768	 0,209675797105389 
769	 0,209697887364563 
770	 0,210043555005438 
771	 0,210537528182702 
772	 0,210926193522128 
773	 0,211032937740736 
774	 0,210913661283033 
775	 0,210876334384184 
776	 0,210874346871972 
777	 0,21088437092118 
778	 0,210844386628699 
779	 0,210808441064766 
780	 0,210864584388147 
781	 0,210927592688643 
782	 0,210987165987009 
783	 0,211127330783194 
784	 0,211111744650046 
785	 0,210854000588824 
786	 0,211010820292628 
787	 0,211375590296594 
788	 0,211402661674694 
789	 0,211553410871584 
790	 0,211891721650493 
791	 0,212153612440799 
792	 0,212205390618845 
793	 0,211994600450928 
794	 0,212084694224623 
795	 0,212369059294009 
796	 0,212441370210337 
797	 0,212182219766909 
798	 0,211725940738082 
799	 0,211936711977783 
800	 0,212298349442329 
801	 0,212294824112079 
802	 0,2122933587324 
803	 0,212311051531022 
804	 0,212221391105625 
805	 0,212135077423006 
806	 0,212163639473005 
807	 0,212649697946815 
808	 0,213093835602718 
809	 0,212968086053033 
810	 0,212960468151391 
811	 0,2131673970483 
812	 0,213431577660771 
813	 0,213723152180153 
814	 0,213953008781063 
815	 0,213769655481042 
816	 0,213551251676787 
817	 0,213763999065879 
818	 0,213706729322842 
819	 0,213524901252089 
820	 0,214139296088631 
821	 0,214732168806876 
822	 0,214866673449151 
823	 0,214509253607174 
824	 0,214205654651559 
825	 0,214639747563117 
826	 0,215223338186069 
827	 0,215614950443847 
828	 0,215247689555531 
829	 0,214927730005858 
830	 0,215025579589315 
831	 0,214892743383642 
832	 0,214575618293471 
833	 0,21422956503968 
834	 0,214470213116371 
835	 0,215166427543923 
836	 0,21543065047159 
837	 0,215268663043909 
838	 0,214818948003707 
839	 0,215082114407667 
840	 0,215644916735951 
841	 0,215762955974882 
842	 0,215752848167854 
843	 0,215714964166749 
844	 0,215740249315346 
845	 0,215796035440219 
846	 0,215867593508863 
847	 0,215990496253857 
848	 0,216066788183117 
849	 0,215960548063729 
850	 0,215923887679228 
851	 0,215974177691683 
852	 0,21590202226891 
853	 0,216008227038513 
854	 0,216367733743183 
855	 0,216329628751581 
856	 0,216093944296794 
857	 0,216034283414887 
858	 0,216368090138847 
859	 0,216833128962742 
860	 0,216409765638693 
861	 0,215906687768784 
862	 0,215840703327669 
863	 0,216667466276242 
864	 0,217176615467867 
865	 0,215808565551348 
866	 0,215102629901833 
867	 0,215448522941813 
868	 0,216016617663841 
869	 0,216575823350313 
870	 0,216923334330101 
871	 0,216931385736895 
872	 0,216810874199941 
873	 0,216832080283481 
874	 0,217114736866146 
875	 0,217334822092301 
876	 0,216381067900922 
877	 0,215966065112195 
878	 0,216692019197338 
879	 0,217446500386888 
880	 0,217645269419271 
881	 0,216848396113592 
882	 0,216857503048167 
883	 0,21738895119171 
884	 0,216521428571429 
885	 0,216519403303469 
886	 0,217673404530602 
887	 0,217004029268325 
888	 0,216215500744104 
889	 0,216962894373096 
890	 0,217370614045052 
891	 0,2173156563504 
892	 0,217250079999947 
893	 0,217448530412723 
894	 0,217862485741997 
895	 0,217759411589302 
896	 0,217563999615414 
897	 0,217629482299837 
898	 0,217835468226421 
899	 0,217927381135592 
900	 0,217453238865352 
901	 0,217715033914739 
902	 0,21859777359351 
903	 0,218149707494897 
904	 0,217924092405647 
905	 0,218622270952431 
906	 0,217598999627704 
907	 0,216449162000102 
908	 0,217809632574898 
909	 0,218064376302481 
910	 0,217089472971607 
911	 0,217508966086141 
912	 0,217506047762119 
913	 0,21654100361376 
914	 0,216711008920308 
915	 0,217106322083246 
916	 0,216575396693712 
917	 0,216412447568284 
918	 0,216579200142751 
919	 0,216341957752799 
920	 0,216026271539298 
921	 0,215712694850995 
922	 0,215349960806821 
923	 0,214669196766188 
924	 0,213636007622201 
925	 0,214280923893603 
926	 0,21526103533684 
927	 0,213635347739259 
928	 0,212073716857517 
929	 0,211338743878789 
930	 0,211261911051152 
931	 0,210671347581053 
932	 0,209255416453008 
933	 0,21017908791288 
934	 0,211282432131028 
935	 0,209478733616657 
936	 0,207955227206639 
937	 0,207126842070676 
938	 0,205963366566964 
939	 0,205218559566062 
940	 0,205027250187719 
941	 0,204723194552108 
942	 0,203985261438733 
943	 0,20259509389493 
944	 0,200929264087237 
945	 0,199410445322943 
946	 0,198680631540536 
947	 0,196868375048592 
948	 0,194267925932213 
949	 0,193961648278215 
950	 0,193990333009311 
951	 0,193193219355022 
952	 0,192229509530372 
953	 0,190521193325803 
954	 0,187451946866737 
955	 0,185960392980921 
956	 0,185550514550276 
957	 0,183031004521036 
958	 0,18179032697576 
959	 0,182363120021937 
960	 0,181724985399728 
961	 0,18051198877776 
962	 0,179461312526713 
963	 0,179876698971412 
964	 0,180479963807356 
965	 0,179090333637583 
966	 0,178024553231158 
967	 0,177604594961007 
968	 0,17682862137511 
969	 0,176499298140647 
970	 0,177017968226517 
971	 0,178852926555307 
972	 0,179363508703096 
973	 0,176639738530435 
974	 0,177143962197868 
975	 0,178669391123074 
976	 0,175288049254964 
977	 0,17386059720932 
978	 0,175370793659506 
979	 0,176280025759699 
980	 0,177373457357443 
981	 0,178535114082979 
982	 0,177304604130112 
983	 0,175991954364437 
984	 0,177011008309078 
985	 0,17800235066046 
986	 0,178358168807441 
987	 0,177694368302529 
988	 0,178237754978784 
989	 0,180067617523988 
990	 0,180953347625767 
991	 0,18130832793233 
992	 0,181444574512149 
993	 0,182008830315365 
994	 0,182379308280871 
995	 0,182040626362696 
996	 0,183658226636223 
997	 0,185835013554319 
998	 0,184867619363096 
999	 0,186231340503075 
1000	 0,189484914283283 
1001	 0,18750418960158 
1002	 0,184912414414696 
1003	 0,184466667951655 
1004	 0,187226569957685 
1005	 0,19069859090161 
1006	 0,192253126667794 
1007	 0,191799674811259 
1008	 0,19048232104264 
1009	 0,190356917514429 
1010	 0,190754180306847 
1011	 0,191512262990288 
1012	 0,192617804118066 
1013	 0,193204307163355 
1014	 0,193431244580049 
1015	 0,196350891825485 
1016	 0,199174195275206 
1017	 0,199565586303286 
1018	 0,199457669575105 
1019	 0,199205072368826 
1020	 0,198945640420513 
1021	 0,199791553328148 
1022	 0,201145682123479 
1023	 0,200298456139732 
1024	 0,201334112339258 
1025	 0,204789824727124 
1026	 0,206648607389462 
1027	 0,207420572866244 
1028	 0,207358784673466 
1029	 0,205642874974957 
1030	 0,20436857529432 
1031	 0,205948092369369 
1032	 0,208784645978221 
1033	 0,212213182928582 
1034	 0,215865670850712 
1035	 0,211814315265262 
1036	 0,203286653016985 
1037	 0,209982686581917 
1038	 0,213907604267591 
1039	 0,209306045657197 
1040	 0,211576845852798 
1041	 0,215886754824419 
1042	 0,217263371342999 
1043	 0,214716106317871 
1044	 0,210592563755941 
1045	 0,208653898173544 
1046	 0,211499064695441 
1047	 0,217296337826841 
1048	 0,220221766743032 
1049	 0,223915856018719 
1050	 0,227605128420346 
1051	 0,225793953869652 
1052	 0,220339191691456 
1053	 0,215486429747904 
1054	 0,225515688523225 
1055	 0,236906131123139 
1056	 0,236933233984301 
1057	 0,230837483665882 
1058	 0,225425576579483 
1059	 0,229165227139825 
1060	 0,228733025915118 
1061	 0,2270741865784 
1062	 0,238090722617792 
1063	 0,236148916331371 
1064	 0,217969574228618 
1065	 0,200210106036171 
1066	 0,196566424486968 
1067	 0,211495093528794 
1068	 0,231777526299945 
1069	 0,239302746428914 
1070	 0,225054954483796 
1071	 0,226949731317998 
1072	 0,235821174567736 
1073	 0,234333657080459 
1074	 0,223399055003804 
1075	 0,214225976975901 
