Wavelength	GRA-VAN00399.asd
325	 0,208753944408376 
326	 0,154118132640799 
327	 0,218239645777629 
328	 0,360068969047101 
329	 0,262344394776322 
330	 0,114252433646726 
331	 0,222732875649995 
332	 0,214216929384559 
333	 0,152866087836871 
334	 0,134799272763009 
335	 0,231066264141442 
336	 0,353478153861051 
337	 0,228676129356711 
338	 6,54093364425291E-02 
339	 3,59329719073435E-02 
340	 0,161580803810062 
341	 0,283067780513914 
342	 0,201065813849669 
343	 0,118335383425369 
344	 0,120838740424796 
345	 0,128411465423059 
346	 0,145017682620425 
347	 0,169035648849638 
348	 0,11183830273948 
349	 1,95670665349061E-02 
350	 8,52365778934824E-02 
351	 0,159612621821111 
352	 0,172099254426841 
353	 0,134097279642634 
354	 0,104217601034432 
355	 0,150173507148737 
356	 0,166616485860813 
357	 0,147198430041342 
358	 0,132911409455639 
359	 0,134575747957661 
360	 0,15410646684429 
361	 0,163048953704184 
362	 0,15693219715232 
363	 0,131611412117275 
364	 0,122802791950509 
365	 0,135224250485245 
366	 0,146701317579753 
367	 0,158392074720937 
368	 0,168616183234378 
369	 0,160436395056358 
370	 0,1392213812342 
371	 0,114513375660882 
372	 0,109163516940507 
373	 0,123004105511058 
374	 0,119711265627597 
375	 0,114646865089046 
376	 0,120393955141208 
377	 0,131453157464353 
378	 0,140972315904887 
379	 0,134687939926142 
380	 0,121148407545799 
381	 0,111942236272928 
382	 0,151331927709166 
383	 0,176271652450261 
384	 0,133548040386701 
385	 0,120376580123599 
386	 0,132382578637459 
387	 0,103922299159104 
388	 9,92165979315501E-02 
389	 0,134939722623325 
390	 0,144825748929038 
391	 0,134135947922869 
392	 0,115455762716903 
393	 0,11136980597689 
394	 0,120238521630543 
395	 0,120243787192955 
396	 0,115839305233748 
397	 0,111360328153999 
398	 0,123825485528816 
399	 0,134010735247285 
400	 0,110822250799752 
401	 0,104682181193798 
402	 0,119210155992694 
403	 0,117972438988658 
404	 0,108614286394596 
405	 9,90356516198906E-02 
406	 0,108826363205629 
407	 0,127655992437608 
408	 0,133862860922749 
409	 0,131209463872909 
410	 0,122326799593124 
411	 0,114769790530857 
412	 0,111302421017885 
413	 0,113654011301117 
414	 0,11271918532946 
415	 0,109381365295331 
416	 0,110333808313463 
417	 0,111977607884832 
418	 0,11310860732507 
419	 0,116075073823891 
420	 0,118758486060279 
421	 0,118604643349971 
422	 0,116031524624733 
423	 0,113040739366859 
424	 0,115792718692864 
425	 0,117090713171509 
426	 0,113437057758038 
427	 0,114476855882403 
428	 0,118323911180615 
429	 0,119933668049753 
430	 0,116722474450952 
431	 0,110059150612695 
432	 0,109359425956336 
433	 0,112652257282499 
434	 0,117341769149435 
435	 0,117722259388342 
436	 0,114861356719951 
437	 0,114614485211298 
438	 0,114018715545984 
439	 0,112100654072276 
440	 0,108922889036285 
441	 0,108524575499625 
442	 0,115827305952802 
443	 0,117061445135414 
444	 0,11237579871613 
445	 0,114112638406829 
446	 0,116664485227345 
447	 0,116459082091046 
448	 0,113982974478699 
449	 0,112120711912363 
450	 0,116193066737215 
451	 0,119301573166254 
452	 0,119467622591211 
453	 0,119271024492306 
454	 0,116645481181921 
455	 0,110335281116342 
456	 0,113474426923583 
457	 0,121914304941714 
458	 0,118163707749603 
459	 0,11427039800254 
460	 0,11494260370235 
461	 0,115077945787626 
462	 0,115709107531879 
463	 0,118804006689037 
464	 0,118443423742567 
465	 0,11497376961115 
466	 0,11470553967822 
467	 0,116593855388414 
468	 0,119679148203846 
469	 0,122114770609904 
470	 0,12293161624387 
471	 0,120790447350923 
472	 0,120332833784608 
473	 0,121937351374317 
474	 0,118894499921248 
475	 0,116340241603906 
476	 0,119422379215125 
477	 0,120645386245948 
478	 0,119696116021883 
479	 0,120326349826561 
480	 0,119811271550444 
481	 0,117548132361367 
482	 0,118283017229006 
483	 0,120112510705672 
484	 0,119533863288621 
485	 0,119394505571661 
486	 0,120194758740281 
487	 0,121188812718179 
488	 0,121018734580134 
489	 0,118970004803396 
490	 0,119084696084882 
491	 0,120209101650379 
492	 0,117801251646404 
493	 0,117364764528058 
494	 0,119855954129411 
495	 0,119512720403576 
496	 0,118061698887416 
497	 0,117913281469964 
498	 0,116979210537515 
499	 0,116021122508168 
500	 0,118839617255249 
501	 0,120762542936916 
502	 0,119477276475481 
503	 0,119477803201144 
504	 0,120327928678049 
505	 0,120219303431615 
506	 0,120164892544141 
507	 0,120609980651447 
508	 0,122557385220374 
509	 0,123135947805035 
510	 0,12005691673638 
511	 0,119777377153557 
512	 0,121533900611183 
513	 0,119613547204367 
514	 0,119409198866722 
515	 0,122576985290193 
516	 0,124129994011836 
517	 0,124318516139215 
518	 0,124254516521727 
519	 0,123617981791678 
520	 0,122789369450477 
521	 0,123166261640248 
522	 0,123237821386766 
523	 0,122106906880411 
524	 0,122797653187935 
525	 0,124364659945807 
526	 0,123703079240238 
527	 0,122713545740028 
528	 0,122066246967845 
529	 0,121640713232842 
530	 0,121634512308422 
531	 0,122241774583654 
532	 0,122282142000442 
533	 0,121732640785371 
534	 0,121436643318196 
535	 0,121363661772833 
536	 0,121452273999804 
537	 0,121053469212481 
538	 0,120967523016924 
539	 0,122922106102999 
540	 0,124171099023205 
541	 0,123951903060286 
542	 0,123230231118578 
543	 0,122664857264323 
544	 0,122831474245486 
545	 0,1232491750093 
546	 0,123477964887748 
547	 0,122454626001773 
548	 0,122201436596417 
549	 0,123468629488465 
550	 0,12402201517379 
551	 0,123731991538478 
552	 0,122788655979469 
553	 0,122341364991723 
554	 0,122589491161305 
555	 0,122679914474297 
556	 0,122651285332567 
557	 0,122558983274552 
558	 0,12248254687119 
559	 0,122497748966797 
560	 0,122774091212302 
561	 0,122940535816947 
562	 0,122822272369064 
563	 0,122437138943989 
564	 0,122042955999093 
565	 0,121964129162345 
566	 0,121673900506821 
567	 0,121305717958746 
568	 0,121827406957583 
569	 0,122285245876089 
570	 0,122053619676919 
571	 0,121907241848388 
572	 0,12217423583138 
573	 0,123288907238767 
574	 0,124506661656605 
575	 0,125470664772733 
576	 0,126055951055236 
577	 0,12657850226517 
578	 0,127397754379909 
579	 0,128238006542284 
580	 0,128943678811553 
581	 0,129260661361535 
582	 0,129454890329517 
583	 0,129701086809041 
584	 0,129956627731992 
585	 0,130384090167387 
586	 0,131312496323746 
587	 0,131745913421406 
588	 0,131624442101117 
589	 0,132285982477889 
590	 0,132679868195087 
591	 0,131898097391435 
592	 0,132453274238109 
593	 0,133923355370491 
594	 0,133777905375164 
595	 0,133500537934493 
596	 0,13378038745574 
597	 0,134488598747492 
598	 0,135120673000007 
599	 0,13496544107389 
600	 0,134492228562947 
601	 0,13401294376028 
602	 0,134169564206776 
603	 0,134219191457702 
604	 0,133578598151855 
605	 0,132686006356144 
606	 0,131889507130922 
607	 0,131852381259829 
608	 0,131718305982088 
609	 0,131217806967184 
610	 0,130848940945002 
611	 0,130676003089632 
612	 0,130721774059634 
613	 0,130679469230944 
614	 0,130433046917361 
615	 0,129856262967187 
616	 0,12949004176247 
617	 0,12968037696676 
618	 0,130186318836555 
619	 0,130566230195921 
620	 0,130053558442181 
621	 0,129550090289809 
622	 0,129332352638518 
623	 0,129017738534263 
624	 0,128991492272749 
625	 0,129624028602276 
626	 0,129831344135053 
627	 0,129702543642376 
628	 0,130287712813011 
629	 0,130693628101045 
630	 0,130517953158831 
631	 0,130378724938473 
632	 0,130420963394504 
633	 0,130734424491579 
634	 0,131270727201446 
635	 0,131875676339075 
636	 0,132036247204566 
637	 0,132194744744435 
638	 0,132727357295015 
639	 0,133245948295711 
640	 0,133761689792484 
641	 0,134497003729923 
642	 0,135278451790972 
643	 0,135900879345622 
644	 0,135629226927407 
645	 0,135407762565839 
646	 0,136531951103466 
647	 0,136407518270812 
648	 0,134994662590457 
649	 0,134482186664022 
650	 0,134442641994596 
651	 0,134506965304983 
652	 0,13386153098895 
653	 0,133211677035599 
654	 0,134442978983436 
655	 0,134409692253241 
656	 0,13245187839302 
657	 0,130964207690817 
658	 0,130066448982368 
659	 0,129688677783908 
660	 0,128862193894008 
661	 0,127664109269185 
662	 0,127001839077459 
663	 0,126424965544889 
664	 0,125766235568113 
665	 0,125470579220062 
666	 0,125306100419572 
667	 0,124850752687849 
668	 0,124348243509053 
669	 0,123910667187109 
670	 0,123650612750605 
671	 0,123604682065487 
672	 0,123777208325807 
673	 0,123940260163008 
674	 0,124010923519986 
675	 0,123974239379424 
676	 0,123555166167154 
677	 0,122926443621813 
678	 0,123546229592357 
679	 0,124590942499856 
680	 0,124944860577685 
681	 0,12445746775838 
682	 0,123666240429613 
683	 0,124366519983732 
684	 0,125368638026623 
685	 0,125953240897308 
686	 0,12631295162564 
687	 0,126935965318968 
688	 0,128684161210516 
689	 0,13004826902703 
690	 0,130909458625152 
691	 0,132667294135736 
692	 0,13563357980198 
693	 0,139934045678613 
694	 0,143867454305594 
695	 0,147652299215487 
696	 0,15267603957115 
697	 0,158649271804966 
698	 0,165349473469365 
699	 0,171928970124163 
700	 0,17906288853799 
701	 0,187699432359845 
702	 0,196203343595477 
703	 0,204394087033961 
704	 0,21327156361057 
705	 0,222336642008253 
706	 0,231187838230418 
707	 0,239607594509604 
708	 0,247728775926415 
709	 0,255827359486509 
710	 0,263741516237445 
711	 0,271412252462138 
712	 0,278815992696477 
713	 0,285712297965713 
714	 0,291897665477321 
715	 0,297753576924336 
716	 0,303417023614693 
717	 0,308999532733442 
718	 0,314231518350889 
719	 0,319002394825268 
720	 0,323355153984226 
721	 0,327373269346781 
722	 0,331169410137362 
723	 0,334548777356553 
724	 0,337630373368866 
725	 0,340923284420122 
726	 0,343908104242741 
727	 0,346294412245056 
728	 0,34851878811055 
729	 0,350550018838966 
730	 0,35221080215796 
731	 0,353746566846945 
732	 0,355286634586621 
733	 0,356992728194047 
734	 0,358513120183498 
735	 0,35956810241586 
736	 0,360665753339245 
737	 0,361866280108393 
738	 0,36307455434807 
739	 0,364247554096755 
740	 0,365262374894701 
741	 0,36564281317374 
742	 0,365883525023335 
743	 0,366590527340312 
744	 0,367525297345212 
745	 0,368446228068229 
746	 0,368770668694315 
747	 0,369157835418174 
748	 0,369913594751768 
749	 0,370469813563458 
750	 0,370908167681618 
751	 0,371466505811729 
752	 0,371752715803575 
753	 0,371859412140968 
754	 0,372538793516018 
755	 0,373225611631359 
756	 0,373510146320118 
757	 0,373689672432012 
758	 0,373941690628458 
759	 0,374538234669058 
760	 0,375063457205127 
761	 0,375370132725554 
762	 0,375513476003222 
763	 0,375644503870261 
764	 0,375906078761571 
765	 0,376310019203845 
766	 0,376686872432269 
767	 0,3765664725447 
768	 0,376584603104201 
769	 0,376969228467518 
770	 0,377372470570472 
771	 0,377785574215168 
772	 0,378226807845995 
773	 0,378470485898962 
774	 0,378548134073001 
775	 0,378727158934142 
776	 0,378869358658779 
777	 0,378914113297928 
778	 0,378899630069915 
779	 0,379001491001912 
780	 0,37946498200113 
781	 0,379749353452184 
782	 0,37975178828766 
783	 0,379683788969408 
784	 0,379663744228639 
785	 0,37977955957592 
786	 0,379986995685834 
787	 0,38028301220895 
788	 0,380690837301365 
789	 0,380888148333567 
790	 0,380902012781942 
791	 0,381370552280405 
792	 0,381569606716318 
793	 0,381009039133998 
794	 0,380993047752957 
795	 0,381457683973794 
796	 0,381814422404646 
797	 0,381893630259165 
798	 0,381733497735335 
799	 0,381990119903573 
800	 0,382189062244504 
801	 0,381900169595654 
802	 0,381895521526326 
803	 0,382234526476572 
804	 0,382733415017308 
805	 0,382958964311544 
806	 0,382875387555213 
807	 0,383401343583575 
808	 0,383907784432637 
809	 0,383693184027936 
810	 0,383637049091385 
811	 0,383893275595977 
812	 0,384343242389512 
813	 0,384830912122471 
814	 0,385218430601847 
815	 0,385266629822606 
816	 0,385232909661085 
817	 0,385443309437656 
818	 0,385654823371621 
819	 0,385921140754056 
820	 0,386614470039857 
821	 0,387030687592713 
822	 0,386903465867833 
823	 0,3869352583556 
824	 0,387134345335937 
825	 0,387413546410633 
826	 0,387864570060733 
827	 0,388324288917964 
828	 0,388244327481615 
829	 0,388243843912076 
830	 0,388538750039121 
831	 0,388186140224216 
832	 0,387780521285905 
833	 0,388240020103661 
834	 0,388890324379095 
835	 0,389412059704644 
836	 0,389331601839046 
837	 0,38950798107729 
838	 0,390245713313456 
839	 0,390163513052235 
840	 0,389618407798595 
841	 0,389326431805642 
842	 0,389678328294358 
843	 0,390478289771311 
844	 0,390693073590126 
845	 0,390815852435487 
846	 0,391079913799461 
847	 0,391153548484688 
848	 0,391192662175385 
849	 0,391456029576155 
850	 0,391613352997939 
851	 0,391681820613267 
852	 0,391976720316667 
853	 0,392421162119196 
854	 0,392868980468535 
855	 0,392743382617684 
856	 0,392198497794864 
857	 0,391545310121422 
858	 0,391722379027176 
859	 0,392673594269785 
860	 0,393479739352334 
861	 0,39377152946699 
862	 0,393394881913169 
863	 0,392914578697395 
864	 0,392688203314317 
865	 0,393061488415025 
866	 0,393495634795404 
867	 0,393893221733115 
868	 0,394529976461943 
869	 0,394578345553167 
870	 0,393905000176121 
871	 0,394319003523514 
872	 0,394975613711159 
873	 0,394694316535617 
874	 0,394802953284346 
875	 0,395364671431588 
876	 0,395744610474116 
877	 0,396019841678107 
878	 0,396134008464948 
879	 0,395697525896231 
880	 0,395425326126883 
881	 0,396051870901971 
882	 0,396298132607321 
883	 0,396153283570234 
884	 0,396262506446622 
885	 0,396654032508656 
886	 0,397213814952055 
887	 0,397249433506248 
888	 0,397033571614828 
889	 0,396881033858046 
890	 0,396779123415943 
891	 0,397015465352566 
892	 0,398289699513493 
893	 0,39866750754149 
894	 0,397885094043314 
895	 0,397883952034204 
896	 0,398337549819983 
897	 0,398897916868028 
898	 0,39933466569432 
899	 0,399440572096498 
900	 0,398958730802391 
901	 0,39845125174456 
902	 0,398320458349274 
903	 0,399307332373367 
904	 0,400050742020382 
905	 0,399764274318496 
906	 0,399594312700972 
907	 0,399637667695974 
908	 0,399820666494136 
909	 0,399948382645734 
910	 0,400032736262053 
911	 0,400359535338128 
912	 0,400377620472969 
913	 0,39992655283303 
914	 0,39969943730603 
915	 0,399761366291099 
916	 0,400084923025828 
917	 0,400228682735432 
918	 0,400195976035141 
919	 0,400257772751569 
920	 0,400355417093494 
921	 0,400479877749998 
922	 0,400610904680351 
923	 0,400871348692328 
924	 0,401293347377213 
925	 0,401330679584124 
926	 0,400615128898137 
927	 0,398587905041808 
928	 0,398340703623881 
929	 0,399814448134177 
930	 0,399158076512242 
931	 0,398472224209921 
932	 0,398813241796892 
933	 0,398433307323823 
934	 0,397852627875362 
935	 0,397931477120977 
936	 0,397490281218472 
937	 0,396578389656475 
938	 0,39596889472767 
939	 0,395994274425768 
940	 0,396556216497716 
941	 0,396508901543491 
942	 0,395659875927615 
943	 0,393971934164791 
944	 0,39192137406251 
945	 0,39060501285284 
946	 0,391824608648401 
947	 0,39153148206601 
948	 0,389308631743691 
949	 0,388355016285579 
950	 0,387822372850978 
951	 0,387214163884606 
952	 0,386598643540547 
953	 0,385690478131401 
954	 0,384202969286502 
955	 0,383265306368724 
956	 0,38248616253719 
957	 0,379988196371128 
958	 0,378948348272139 
959	 0,379916127425796 
960	 0,379975008082864 
961	 0,379623885549399 
962	 0,379299258945901 
963	 0,378814728160138 
964	 0,378214529961976 
965	 0,377584867970496 
966	 0,376825485987862 
967	 0,37627907820043 
968	 0,377016669399044 
969	 0,377766797599484 
970	 0,377932390505377 
971	 0,377650445327527 
972	 0,37757751112628 
973	 0,378196313835939 
974	 0,378145724877621 
975	 0,377459162072806 
976	 0,376595255852564 
977	 0,37658220935415 
978	 0,377488469647188 
979	 0,378555707767766 
980	 0,378465131598856 
981	 0,37714687627821 
982	 0,378475204167612 
983	 0,380042051717951 
984	 0,379205875056371 
985	 0,378286741643298 
986	 0,378098168088594 
987	 0,379306438990061 
988	 0,381372224074155 
989	 0,383569725371133 
990	 0,384255621143423 
991	 0,384200710706744 
992	 0,384102704366135 
993	 0,385401376139908 
994	 0,386551837175579 
995	 0,385999965951995 
996	 0,386062524386191 
997	 0,387352426523925 
998	 0,390269259481808 
999	 0,390836242774117 
1000	 0,38884691767963 
1001	 0,387850204276667 
1002	 0,388370149834106 
1003	 0,390315753360883 
1004	 0,390984471760009 
1005	 0,391169669795052 
1006	 0,39187893889642 
1007	 0,392814634652626 
1008	 0,393611361628188 
1009	 0,39371589031038 
1010	 0,393720752106972 
1011	 0,393945896263454 
1012	 0,394667774381874 
1013	 0,396389653405818 
1014	 0,398587281002243 
1015	 0,39725223152252 
1016	 0,396708406469225 
1017	 0,400317990079946 
1018	 0,403088701285796 
1019	 0,403781151249184 
1020	 0,401881349883043 
1021	 0,400224825140011 
1022	 0,39988142656829 
1023	 0,401109591610818 
1024	 0,405770067696195 
1025	 0,412103440091906 
1026	 0,410992677662787 
1027	 0,407664985780806 
1028	 0,406152516001899 
1029	 0,406545883580049 
1030	 0,408152384028785 
1031	 0,410000504112506 
1032	 0,412504376751919 
1033	 0,414857095187981 
1034	 0,415503531020102 
1035	 0,414339787140437 
1036	 0,412104604735242 
1037	 0,411221913014401 
1038	 0,411018127004287 
1039	 0,411304366153904 
1040	 0,412212559123407 
1041	 0,414891750866407 
1042	 0,419249993516168 
1043	 0,417340616691207 
1044	 0,411470591682238 
1045	 0,406819048404885 
1046	 0,406634152433386 
1047	 0,410338898365515 
1048	 0,414192295339507 
1049	 0,422069863504975 
1050	 0,430124806483502 
1051	 0,422013421879206 
1052	 0,413386776785682 
1053	 0,412381221202406 
1054	 0,409698134955021 
1055	 0,413252747498888 
1056	 0,426924743107661 
1057	 0,422702867859098 
1058	 0,411013342016904 
1059	 0,412630454260719 
1060	 0,418310161026337 
1061	 0,424469755792841 
1062	 0,426949885586657 
1063	 0,423133997312309 
1064	 0,415322571763986 
1065	 0,415167052403443 
1066	 0,418023548916763 
1067	 0,420693656713064 
1068	 0,419934424781268 
1069	 0,417699843315188 
1070	 0,4171921221011 
1071	 0,43083145829473 
1072	 0,442218915390644 
1073	 0,430957633024402 
1074	 0,413027826438956 
1075	 0,400547929425002 
