Wavelength	GRA-VIE00293.asd
325	-7,03489539650101E-02 
326	 0,146807360807028 
327	 0,314268071845865 
328	 0,236477259633183 
329	 0,213654756085885 
330	 0,204421814901844 
331	 0,19230523370306 
332	 0,209955506701266 
333	 0,23918244147753 
334	 0,169347196561016 
335	 0,195336971157253 
336	 0,290648296870138 
337	 0,200894670557622 
338	 0,138479185108532 
339	 0,241327447428366 
340	 0,253302825803862 
341	 0,186086500481496 
342	 0,18626100902844 
343	 0,231731333916944 
344	 0,287392123429548 
345	 0,263898200140914 
346	 0,213222711784876 
347	 0,197238623816192 
348	 0,156008405027158 
349	 0,116442514060126 
350	 0,182299718242602 
351	 0,200975447979193 
352	 0,144974466543292 
353	 0,156462766646592 
354	 0,194158099817302 
355	 0,197381395547094 
356	 0,20513285888542 
357	 0,211245277525986 
358	 0,17174673613425 
359	 0,15915158961757 
360	 0,201114401640202 
361	 0,226862588206286 
362	 0,233165252387472 
363	 0,231248997383517 
364	 0,223336134855276 
365	 0,21473567836486 
366	 0,218414333450646 
367	 0,223651681763965 
368	 0,222383704554928 
369	 0,20885080981696 
370	 0,195703446170891 
371	 0,203980374734997 
372	 0,221502010548653 
373	 0,237526413718078 
374	 0,222741152377116 
375	 0,211417436442807 
376	 0,22699975062437 
377	 0,21782643103554 
378	 0,193876608295988 
379	 0,193529175078069 
380	 0,211124570461889 
381	 0,235403339649756 
382	 0,223177027228747 
383	 0,204293528500857 
384	 0,210181598100385 
385	 0,218102399736405 
386	 0,222160917139713 
387	 0,219548220746635 
388	 0,218263513237122 
389	 0,22120748290503 
390	 0,2229125565321 
391	 0,228274356990284 
392	 0,242974769885207 
393	 0,238502458538334 
394	 0,220135631305234 
395	 0,224855178738362 
396	 0,230359031919502 
397	 0,227334667207307 
398	 0,233129544119171 
399	 0,236427754093785 
400	 0,217672837521246 
401	 0,21405220316155 
402	 0,228098160007819 
403	 0,231709581630796 
404	 0,229634747673703 
405	 0,225971282540074 
406	 0,222671563279121 
407	 0,22317786144815 
408	 0,234714782554558 
409	 0,23729574435738 
410	 0,228071817491786 
411	 0,221178841248486 
412	 0,221500657669244 
413	 0,231623161935328 
414	 0,233710317908375 
415	 0,227608054941911 
416	 0,222121662713003 
417	 0,217076988553919 
418	 0,214204402779921 
419	 0,223310884444801 
420	 0,232157292996297 
421	 0,224906594177362 
422	 0,217029107251394 
423	 0,214144613471972 
424	 0,221426161440583 
425	 0,225537766301206 
426	 0,21969228487747 
427	 0,220658369125285 
428	 0,225657963347212 
429	 0,22592125899123 
430	 0,226357478497431 
431	 0,227516580097738 
432	 0,225705682075776 
433	 0,224959542776614 
434	 0,228550004686475 
435	 0,229740684377634 
436	 0,228233847968445 
437	 0,226058234229609 
438	 0,226057662057064 
439	 0,228906849901556 
440	 0,230073563671829 
441	 0,230155894413967 
442	 0,230499750010745 
443	 0,227520823874078 
444	 0,223564837634897 
445	 0,229262452970405 
446	 0,234470147871473 
447	 0,233118039682098 
448	 0,230383208361846 
449	 0,22822598188231 
450	 0,228700380490792 
451	 0,230728820723768 
452	 0,233221552499167 
453	 0,233341340505039 
454	 0,233042404022558 
455	 0,234152598946183 
456	 0,234204330657314 
457	 0,233560712734758 
458	 0,234513168714407 
459	 0,23470040442103 
460	 0,23352852410938 
461	 0,233908178081604 
462	 0,234859682868225 
463	 0,234722482257811 
464	 0,234380858322009 
465	 0,234003568932183 
466	 0,233356818002039 
467	 0,233079853123729 
468	 0,233593495793484 
469	 0,234823434042083 
470	 0,235701707356456 
471	 0,233950977358579 
472	 0,234689274016827 
473	 0,238261933012475 
474	 0,23784097949771 
475	 0,236496474437621 
476	 0,237452849010307 
477	 0,236154107797331 
478	 0,233302111131557 
479	 0,233071721310876 
480	 0,233835794995949 
481	 0,234586508956472 
482	 0,233769698696126 
483	 0,232803398560116 
484	 0,234028161740689 
485	 0,2355854743083 
486	 0,236345140945362 
487	 0,233731084721028 
488	 0,232983514362504 
489	 0,23742818129461 
490	 0,238166134215852 
491	 0,235222085992579 
492	 0,231384151570118 
493	 0,230663644098651 
494	 0,233908774851697 
495	 0,236290614597465 
496	 0,236352857883428 
497	 0,233057538853644 
498	 0,231327292388131 
499	 0,231724532460832 
500	 0,231847297688209 
501	 0,232311641157025 
502	 0,23326564478949 
503	 0,233170666246129 
504	 0,233278723669239 
505	 0,236331303488633 
506	 0,236973646944012 
507	 0,234837741860333 
508	 0,235746102160388 
509	 0,237660452257675 
510	 0,23850200306968 
511	 0,239008709993939 
512	 0,239267926691952 
513	 0,239268193610708 
514	 0,239033412883887 
515	 0,238719961983883 
516	 0,238909714077185 
517	 0,239819387918875 
518	 0,241709689776368 
519	 0,242269249755054 
520	 0,241271857301008 
521	 0,240188193484775 
522	 0,239962015401457 
523	 0,241086737399941 
524	 0,24118373263994 
525	 0,240606223994191 
526	 0,241159149103283 
527	 0,2412494856507 
528	 0,240450399257089 
529	 0,239435751539829 
530	 0,238844849551388 
531	 0,239300960118793 
532	 0,239590383702918 
533	 0,239474486502346 
534	 0,239144193267778 
535	 0,239126672806492 
536	 0,239713400238568 
537	 0,240563018238596 
538	 0,241082978686391 
539	 0,240272339880879 
540	 0,239783495485013 
541	 0,24014179682478 
542	 0,241094374978769 
543	 0,241640986158769 
544	 0,240885004959993 
545	 0,240228113119317 
546	 0,240072704348904 
547	 0,240598355043484 
548	 0,241221085944099 
549	 0,241716140210196 
550	 0,243004874930073 
551	 0,243974838606475 
552	 0,242765869502301 
553	 0,241912520560178 
554	 0,241909667690581 
555	 0,241426353917172 
556	 0,240981972201033 
557	 0,241026027001401 
558	 0,241395168235653 
559	 0,241686763703978 
560	 0,24099829908615 
561	 0,240298074757565 
562	 0,239984211139601 
563	 0,239745775673088 
564	 0,239609443952531 
565	 0,23963213535986 
566	 0,24010212577171 
567	 0,240895212957143 
568	 0,24144369356307 
569	 0,24154227019087 
570	 0,241196631981172 
571	 0,241857114342723 
572	 0,243350583236626 
573	 0,244911362154326 
574	 0,245669877186403 
575	 0,245589096627207 
576	 0,24651606610215 
577	 0,2478486634213 
578	 0,248785637644938 
579	 0,250706038083198 
580	 0,253056721141504 
581	 0,253276555924893 
582	 0,253385282768271 
583	 0,254471508427483 
584	 0,255274282840779 
585	 0,255942820670409 
586	 0,25700765499835 
587	 0,25809226362212 
588	 0,259102365241502 
589	 0,260149035831674 
590	 0,261229156738128 
591	 0,262305052679238 
592	 0,262931992558069 
593	 0,263087545053802 
594	 0,262790925817732 
595	 0,26326154059494 
596	 0,264750988843775 
597	 0,264677586627327 
598	 0,26375549570342 
599	 0,263452947635073 
600	 0,263369867319982 
601	 0,2634295213064 
602	 0,263644099401607 
603	 0,263620039435404 
604	 0,263086571532709 
605	 0,262775109562558 
606	 0,262445958123509 
607	 0,261057650384024 
608	 0,260310563780137 
609	 0,26050914685735 
610	 0,259244195762202 
611	 0,257785898731675 
612	 0,257918694868129 
613	 0,257778301623067 
614	 0,25718796926862 
615	 0,257146786904191 
616	 0,257187267918785 
617	 0,256993015852295 
618	 0,256542625690414 
619	 0,256117859636624 
620	 0,256294630206539 
621	 0,256375414709636 
622	 0,256146737000277 
623	 0,25581266686023 
624	 0,255504208971231 
625	 0,255354142916776 
626	 0,255522561040906 
627	 0,255958596291311 
628	 0,25639634428684 
629	 0,257006446628596 
630	 0,257782873144405 
631	 0,258123927070739 
632	 0,258259577522025 
633	 0,258668045000355 
634	 0,259180033857551 
635	 0,259750432546195 
636	 0,260289357351023 
637	 0,261066839736028 
638	 0,262252787413934 
639	 0,262903011939237 
640	 0,26329950374612 
641	 0,264673156161621 
642	 0,265778526974727 
643	 0,26620967156984 
644	 0,266893011960699 
645	 0,267474514538149 
646	 0,267393905430495 
647	 0,267397834768846 
648	 0,267469612361511 
649	 0,266836168791985 
650	 0,266183153687757 
651	 0,265903196982905 
652	 0,265093196447371 
653	 0,263953251618316 
654	 0,263172935286149 
655	 0,262152012501113 
656	 0,260778774893189 
657	 0,259525977691723 
658	 0,258140481743828 
659	 0,256351271220421 
660	 0,254503155537299 
661	 0,252834608147682 
662	 0,251747463720117 
663	 0,25074327543114 
664	 0,249528598258202 
665	 0,247957188416438 
666	 0,246637011577647 
667	 0,246523957359468 
668	 0,24634678226844 
669	 0,245772802741704 
670	 0,245064863423512 
671	 0,244632898697077 
672	 0,244757281458291 
673	 0,244710222062936 
674	 0,244526616285283 
675	 0,244696290888129 
676	 0,244498278355748 
677	 0,243874059627254 
678	 0,244046476328472 
679	 0,244514578956395 
680	 0,244568294059502 
681	 0,244616761874985 
682	 0,2448736643919 
683	 0,245660832340493 
684	 0,246728527658162 
685	 0,247931538770348 
686	 0,249399726444515 
687	 0,251089987034463 
688	 0,252804034218783 
689	 0,255628497690215 
690	 0,259687171049479 
691	 0,263767562973308 
692	 0,26850081118627 
693	 0,274472541345027 
694	 0,281130770895067 
695	 0,288559995066403 
696	 0,297322330489268 
697	 0,306564482125436 
698	 0,316012912232576 
699	 0,326473740145112 
700	 0,337840736576494 
701	 0,349865239182164 
702	 0,361912505078897 
703	 0,373781479134902 
704	 0,385627710516943 
705	 0,397346528737991 
706	 0,408823743415603 
707	 0,419907745500801 
708	 0,430455065727519 
709	 0,440175293602603 
710	 0,449913467440252 
711	 0,459745000564072 
712	 0,468658526626287 
713	 0,476924792362308 
714	 0,484842381167878 
715	 0,491960777441874 
716	 0,49845623024456 
717	 0,504943283950202 
718	 0,51121908179612 
719	 0,517130103366856 
720	 0,522121973621013 
721	 0,52668225857221 
722	 0,531521868654232 
723	 0,535572675668946 
724	 0,538829803867194 
725	 0,542121305192211 
726	 0,545523772034179 
727	 0,548946698723575 
728	 0,551168611414672 
729	 0,552796687622833 
730	 0,555212779947894 
731	 0,55733653393749 
732	 0,558978012259878 
733	 0,560751837538621 
734	 0,562363032150609 
735	 0,563554165985171 
736	 0,564648614306578 
737	 0,565719031023521 
738	 0,566814660474294 
739	 0,567638855121908 
740	 0,568148844352555 
741	 0,568788253521298 
742	 0,569519341893435 
743	 0,570249656760448 
744	 0,570925340243162 
745	 0,57156247785041 
746	 0,57228782842825 
747	 0,572901009941571 
748	 0,573301025685545 
749	 0,573599321835156 
750	 0,573920462995177 
751	 0,574421211786048 
752	 0,575027501732677 
753	 0,575576800293021 
754	 0,57556249590161 
755	 0,575533513189873 
756	 0,575907264105273 
757	 0,576592168674969 
758	 0,577209112090395 
759	 0,576977899623605 
760	 0,577202101807342 
761	 0,578032343492408 
762	 0,578033126111384 
763	 0,577694289138294 
764	 0,57756818292077 
765	 0,57787836205255 
766	 0,578348942713689 
767	 0,578124258246295 
768	 0,577872721578132 
769	 0,577886242628766 
770	 0,578175952918445 
771	 0,578522858062856 
772	 0,578668064504477 
773	 0,578687431289347 
774	 0,578691995208989 
775	 0,578998196918217 
776	 0,579162444055994 
777	 0,57896986325157 
778	 0,578653722450397 
779	 0,5784947953745 
780	 0,578848503584956 
781	 0,579101812981813 
782	 0,57911713962637 
783	 0,579040193906634 
784	 0,579147322207676 
785	 0,579552057824238 
786	 0,579561318126805 
787	 0,579305650258264 
788	 0,579187054787566 
789	 0,579188068477784 
790	 0,57932393072806 
791	 0,579605229615741 
792	 0,579859934630707 
793	 0,579955679458241 
794	 0,580066863416573 
795	 0,580131914496539 
796	 0,579942559825506 
797	 0,579861144221582 
798	 0,579931103251101 
799	 0,579669836998588 
800	 0,579513097881084 
801	 0,579846944769805 
802	 0,579906014041482 
803	 0,579736618876384 
804	 0,579831482614301 
805	 0,579982445477197 
806	 0,580115693587891 
807	 0,580228204391235 
808	 0,580253819421276 
809	 0,580148454199551 
810	 0,580416336505539 
811	 0,580961462037583 
812	 0,58129313998816 
813	 0,581170991328994 
814	 0,580671118552723 
815	 0,580987038939803 
816	 0,581494635113658 
817	 0,581347376441707 
818	 0,581450968255485 
819	 0,581831035175076 
820	 0,581985296624907 
821	 0,581969271208564 
822	 0,581858814191896 
823	 0,582032798416427 
824	 0,582231699552102 
825	 0,582080401439266 
826	 0,582214897367848 
827	 0,582521683627193 
828	 0,582188787925365 
829	 0,581640176302286 
830	 0,581210140207169 
831	 0,581412669841082 
832	 0,582043457764767 
833	 0,582735969027066 
834	 0,582887021613796 
835	 0,582444037057938 
836	 0,581793234423766 
837	 0,581403409261429 
838	 0,581505939931476 
839	 0,581547613136361 
840	 0,581597030825066 
841	 0,581843599753846 
842	 0,581740705955696 
843	 0,581480153507591 
844	 0,582304829096138 
845	 0,582405126142422 
846	 0,581105897005994 
847	 0,581184478559094 
848	 0,581932588210381 
849	 0,581912561781795 
850	 0,581821943106497 
851	 0,58187066323331 
852	 0,582306671098962 
853	 0,582386093884486 
854	 0,581847762618457 
855	 0,581958202179289 
856	 0,582256886051314 
857	 0,581930451829301 
858	 0,582036197833712 
859	 0,582573172677254 
860	 0,582756731508483 
861	 0,582603337521786 
862	 0,582203599372768 
863	 0,582064135144464 
864	 0,582407593649772 
865	 0,583404024865131 
866	 0,583561941569845 
867	 0,582981393092716 
868	 0,583237384521007 
869	 0,583098562258109 
870	 0,582244880423237 
871	 0,582381253807493 
872	 0,582892011699508 
873	 0,582849603584871 
874	 0,58240180738394 
875	 0,581897747282346 
876	 0,582235038237536 
877	 0,582745262276201 
878	 0,583041334520515 
879	 0,582750597757041 
880	 0,582333071879122 
881	 0,582324581141108 
882	 0,582743815434999 
883	 0,583196613445714 
884	 0,582691260409001 
885	 0,581854593856518 
886	 0,581158843498343 
887	 0,581655162795994 
888	 0,582275446551578 
889	 0,58201527694598 
890	 0,582105340983154 
891	 0,582504766853524 
892	 0,582655067045109 
893	 0,582822153440154 
894	 0,582940743180768 
895	 0,58240750478777 
896	 0,581853729937879 
897	 0,581829020668464 
898	 0,582482703027609 
899	 0,583171829824086 
900	 0,582719835129941 
901	 0,582680374995379 
902	 0,583276479815214 
903	 0,58361604244358 
904	 0,583598856955184 
905	 0,583197849118749 
906	 0,582684255074104 
907	 0,58246433278305 
908	 0,583020092164735 
909	 0,582918236270017 
910	 0,582158129851772 
911	 0,581892154637287 
912	 0,581915342510024 
913	 0,582117465625862 
914	 0,582265946953233 
915	 0,582547092788144 
916	 0,583130522868198 
917	 0,582816297038684 
918	 0,581773577973262 
919	 0,581007472772749 
920	 0,580332940017871 
921	 0,580045078398985 
922	 0,581622331244182 
923	 0,582685188172244 
924	 0,581395484136619 
925	 0,580505017792747 
926	 0,580253784299299 
927	 0,580244102084062 
928	 0,579898303386964 
929	 0,579241541324709 
930	 0,57910540217359 
931	 0,579070266030154 
932	 0,578856544881922 
933	 0,578394142754866 
934	 0,577850403580419 
935	 0,577464045891074 
936	 0,577857568431005 
937	 0,578375503929005 
938	 0,576620159464977 
939	 0,576035315764503 
940	 0,57723312418526 
941	 0,575990067170904 
942	 0,574492890556574 
943	 0,574789666781015 
944	 0,575167722794794 
945	 0,575085343025884 
946	 0,574096912714548 
947	 0,572876925022547 
948	 0,571636405501853 
949	 0,570286285367916 
950	 0,568947677058473 
951	 0,567784929223489 
952	 0,567372998475145 
953	 0,56684798661852 
954	 0,565172164697798 
955	 0,56375727071046 
956	 0,563019213669672 
957	 0,563210268321394 
958	 0,563323663467633 
959	 0,562776667683167 
960	 0,560871720827228 
961	 0,559412551234302 
962	 0,559626499691066 
963	 0,55933817393319 
964	 0,559101848560398 
965	 0,560199504925127 
966	 0,560587315707035 
967	 0,559983120997947 
968	 0,559312139128631 
969	 0,557927218774647 
970	 0,556326433099264 
971	 0,558354106672272 
972	 0,560024145179682 
973	 0,557812321357533 
974	 0,556894196519922 
975	 0,557281821478947 
976	 0,557432379979516 
977	 0,557393570085683 
978	 0,557297834322459 
979	 0,557882222670183 
980	 0,557739839763833 
981	 0,556680308120271 
982	 0,558058364663228 
983	 0,55923286338592 
984	 0,557520891322755 
985	 0,55689310521352 
986	 0,557749364530776 
987	 0,55944405454546 
988	 0,559745640046254 
989	 0,558656280058002 
990	 0,558616825105574 
991	 0,560464927047906 
992	 0,563709928413141 
993	 0,5626102145523 
994	 0,560678772450846 
995	 0,561941420204475 
996	 0,56400856380193 
997	 0,565792521649378 
998	 0,566062695069388 
999	 0,566166342863248 
1000	 0,566270393470345 
1001	 0,565653506523419 
1002	 0,563674095622009 
1003	 0,561444871932537 
1004	 0,566758166447134 
1005	 0,57237450971163 
1006	 0,570983930105077 
1007	 0,568169754750646 
1008	 0,566456845643394 
1009	 0,568460997139053 
1010	 0,569504245356297 
1011	 0,569356293864958 
1012	 0,572460267548015 
1013	 0,571476719992403 
1014	 0,565756984546574 
1015	 0,5694446106186 
1016	 0,574473342716109 
1017	 0,573799686206677 
1018	 0,575607455137456 
1019	 0,577386170754432 
1020	 0,573934040036949 
1021	 0,570194795824551 
1022	 0,569476393268728 
1023	 0,577985128902414 
1024	 0,579872869968787 
1025	 0,573312433979623 
1026	 0,577583047847061 
1027	 0,582536332251411 
1028	 0,581280043250662 
1029	 0,577063056612076 
1030	 0,575753481808988 
1031	 0,582835897593353 
1032	 0,583262275255408 
1033	 0,57740428257676 
1034	 0,572224876698872 
1035	 0,57239085623151 
1036	 0,577706636765536 
1037	 0,582340083767337 
1038	 0,583507817015108 
1039	 0,580579274672215 
1040	 0,578513008998412 
1041	 0,580418237641151 
1042	 0,586467424663533 
1043	 0,576293881071895 
1044	 0,566948208897082 
1045	 0,58255179295324 
1046	 0,585827327971413 
1047	 0,577337744295295 
1048	 0,579099190911316 
1049	 0,578794392241315 
1050	 0,575909956916868 
1051	 0,582073840161549 
1052	 0,586687703932478 
1053	 0,584495907481902 
1054	 0,577144744071882 
1055	 0,575760921615169 
1056	 0,587907028947369 
1057	 0,595442406275453 
1058	 0,590395326842711 
1059	 0,567813906282355 
1060	 0,571606736167561 
1061	 0,588806869162624 
1062	 0,568785415293921 
1063	 0,565862874943844 
1064	 0,585429638031473 
1065	 0,584738161880091 
1066	 0,576933839786836 
1067	 0,570805763098699 
1068	 0,582190422295038 
1069	 0,591196266889261 
1070	 0,583258906167766 
1071	 0,577992724186678 
1072	 0,570222782534503 
1073	 0,55366906339464 
1074	 0,572361465543571 
1075	 0,601151004823522 
