Wavelength	GRA-BER00147.asd
325	-3,45109574191585E-02 
326	 0,187376080901522 
327	 0,270395574915875 
328	 0,16922763997966 
329	 2,90379039671876E-03 
330	-8,51776116567776E-02 
331	 4,07870585325424E-02 
332	 6,93882794742564E-02 
333	 2,22575948050539E-02 
334	 3,77249742557214E-02 
335	 3,60678714436876E-02 
336	 1,39477203284102E-02 
337	 8,72912722144054E-02 
338	 0,134798964993154 
339	 7,11901444289261E-02 
340	 3,00252428717133E-02 
341	 2,85454078154857E-02 
342	 0,019968345239766 
343	 1,65582629475067E-02 
344	 2,48381101390987E-02 
345	 5,74209130517143E-02 
346	 9,27553056566385E-02 
347	 0,107162798272212 
348	 0,102838846988517 
349	 7,76210650606346E-02 
350	 1,36964166031638E-02 
351	-1,94148444076127E-03 
352	 4,69519631289694E-02 
353	 0,052131855593856 
354	 3,85136387285769E-02 
355	 4,38330237386194E-02 
356	 5,54563288730126E-02 
357	 6,52899153881816E-02 
358	 5,15631113217268E-02 
359	 4,90849772054534E-02 
360	 6,79159593802495E-02 
361	 5,93563344634378E-02 
362	 4,23574098108183E-02 
363	 0,050580823919208 
364	 5,06850129275759E-02 
365	 4,35235175877795E-02 
366	 6,20758909315092E-02 
367	 0,072328741710535 
368	 5,52555963133762E-02 
369	 4,94577991980564E-02 
370	 4,86668176512266E-02 
371	 3,17022636656908E-02 
372	 2,79215631123394E-02 
373	 4,32831924204042E-02 
374	 6,40134824776151E-02 
375	 7,04626120192202E-02 
376	 5,02504583380782E-02 
377	 0,042567327567865 
378	 4,67721019467122E-02 
379	 4,49906943294888E-02 
380	 4,53898931306708E-02 
381	 4,94382742970876E-02 
382	 5,44064592412526E-02 
383	 5,37034901252908E-02 
384	 0,042556679965513 
385	 3,36354834836863E-02 
386	 2,98489369230836E-02 
387	 0,033807576033218 
388	 2,97290217637435E-02 
389	 1,57795414653995E-02 
390	 1,99401953006332E-02 
391	 3,17933218101525E-02 
392	 3,57754301927781E-02 
393	 4,73139057497341E-02 
394	 6,08650328441653E-02 
395	 5,30100796585561E-02 
396	 0,045247185812761 
397	 4,77194637514278E-02 
398	 4,18066773241728E-02 
399	 2,99870043937526E-02 
400	 1,72068364879546E-02 
401	 2,72061069175662E-02 
402	 5,19404857557092E-02 
403	 4,29795840146137E-02 
404	 2,95625707630425E-02 
405	 3,19094561166716E-02 
406	 3,58744304837012E-02 
407	 3,86613244177181E-02 
408	 0,039342339136104 
409	 3,74750166284171E-02 
410	 3,33459203759108E-02 
411	 2,80374198741546E-02 
412	 2,41673298411898E-02 
413	 2,43630097413391E-02 
414	 3,54083804252555E-02 
415	 4,85605613904437E-02 
416	 0,040620591293998 
417	 3,15479001382837E-02 
418	 2,98533323546046E-02 
419	 3,20211717567605E-02 
420	 3,25786546701806E-02 
421	 2,51802527892025E-02 
422	 2,41713393587167E-02 
423	 3,05035387405912E-02 
424	 0,0365598976512 
425	 3,94355544070476E-02 
426	 3,75460808124134E-02 
427	 0,032913863004497 
428	 2,95133431754609E-02 
429	 3,38379720852198E-02 
430	 3,67961676367129E-02 
431	 3,57194631373595E-02 
432	 3,18129950648042E-02 
433	 2,99726638161872E-02 
434	 3,39015806257922E-02 
435	 3,38237253325789E-02 
436	 3,03773800856191E-02 
437	 3,00500206278497E-02 
438	 2,90579218595973E-02 
439	 2,70504076843449E-02 
440	 3,07434097091664E-02 
441	 0,034745805381874 
442	 3,18210013903128E-02 
443	 3,10703196915414E-02 
444	 3,32952788058298E-02 
445	 3,32898871893882E-02 
446	 3,35324968068287E-02 
447	 3,53315584062352E-02 
448	 3,63761569738702E-02 
449	 3,63077730452992E-02 
450	 3,48178386122063E-02 
451	 3,61397566228976E-02 
452	 3,97821651538005E-02 
453	 3,68722309385052E-02 
454	 3,34985197560257E-02 
455	 3,55503759730634E-02 
456	 3,85365572281653E-02 
457	 4,02274996827556E-02 
458	 3,71110359927022E-02 
459	 3,43640323863462E-02 
460	 3,44627335745048E-02 
461	 3,70125906859207E-02 
462	 4,00792927954942E-02 
463	 4,12881373159534E-02 
464	 3,92052303813388E-02 
465	 3,48066325267723E-02 
466	 3,22652093542226E-02 
467	 3,19535475973153E-02 
468	 3,39052180978511E-02 
469	 3,59514783479138E-02 
470	 3,75420887088233E-02 
471	 3,85343720491433E-02 
472	 3,89653662043443E-02 
473	 3,86342559715272E-02 
474	 3,60317328997466E-02 
475	 3,50709799748524E-02 
476	 3,92955000447452E-02 
477	 4,04721250752078E-02 
478	 3,80788486097752E-02 
479	 3,50498347394623E-02 
480	 3,43046061020032E-02 
481	 3,68200862766852E-02 
482	 3,82525087104715E-02 
483	 3,77920548629775E-02 
484	 3,49480599988209E-02 
485	 3,44979456679645E-02 
486	 3,64567049857156E-02 
487	 3,51941433961737E-02 
488	 0,034328624150884 
489	 3,63712597765302E-02 
490	 3,69862575977502E-02 
491	 3,61985641755519E-02 
492	 3,54350607735496E-02 
493	 3,60938022008163E-02 
494	 3,79293081647979E-02 
495	 3,63627978352422E-02 
496	 3,44815942050369E-02 
497	 3,60796108774278E-02 
498	 3,61945578100158E-02 
499	 3,47512534995611E-02 
500	 0,035104225129239 
501	 0,035168429753705 
502	 3,42981895939814E-02 
503	 3,72056680670678E-02 
504	 4,10959269824108E-02 
505	 4,02459919302016E-02 
506	 3,89366004459275E-02 
507	 3,85976173040788E-02 
508	 3,94537137900415E-02 
509	 4,03054228074548E-02 
510	 4,00701067010528E-02 
511	 3,93633639045007E-02 
512	 3,84175625748807E-02 
513	 0,037221481708708 
514	 3,73246940698365E-02 
515	 3,90425915674398E-02 
516	 3,96748237015906E-02 
517	 3,97259039506075E-02 
518	 4,03566662510047E-02 
519	 3,93298332518254E-02 
520	 3,73473538510581E-02 
521	 3,89858783052819E-02 
522	 4,05177848154443E-02 
523	 3,94015894010915E-02 
524	 3,95043998291793E-02 
525	 4,04403364151854E-02 
526	 3,99738107838966E-02 
527	 0,039408428413246 
528	 3,92717433851989E-02 
529	 3,99850765690877E-02 
530	 4,05714798405114E-02 
531	 3,99247722085193E-02 
532	 3,96628092021761E-02 
533	 3,98862058389149E-02 
534	 3,95803225309029E-02 
535	 3,96641386928843E-02 
536	 4,04439935993615E-02 
537	 3,95828199463523E-02 
538	 3,84591188905944E-02 
539	 4,02829863835788E-02 
540	 4,09797503119192E-02 
541	 3,98839711734022E-02 
542	 4,01768506902209E-02 
543	 4,09783349257811E-02 
544	 4,13019987730262E-02 
545	 0,042023560421037 
546	 4,29541194506926E-02 
547	 4,33576577760373E-02 
548	 4,26915357051149E-02 
549	 4,10337876947304E-02 
550	 4,08871992313894E-02 
551	 4,16694696668757E-02 
552	 4,20133786183646E-02 
553	 4,21696067833389E-02 
554	 4,20889368980441E-02 
555	 4,13172441073098E-02 
556	 4,13782792909726E-02 
557	 4,33162365300365E-02 
558	 4,36664072168625E-02 
559	 4,28103275233751E-02 
560	 4,33828183944475E-02 
561	 4,37172426989467E-02 
562	 4,34489499706256E-02 
563	 4,43456082444237E-02 
564	 4,54669495267669E-02 
565	 4,53945942039459E-02 
566	 4,57982479082568E-02 
567	 4,67464419243076E-02 
568	 4,69299922426649E-02 
569	 4,70093781882145E-02 
570	 4,74679782273656E-02 
571	 4,81748690004688E-02 
572	 0,049065510794011 
573	 5,00860950129143E-02 
574	 5,08389852057517E-02 
575	 5,13400152219188E-02 
576	 5,26458320693515E-02 
577	 5,37847670578121E-02 
578	 5,36266703150457E-02 
579	 5,38036689367374E-02 
580	 5,43191066129114E-02 
581	 5,38761408996475E-02 
582	 5,35554825325749E-02 
583	 5,39883323059041E-02 
584	 5,49621887781221E-02 
585	 5,57765260818139E-02 
586	 5,52938471324537E-02 
587	 5,45974227439997E-02 
588	 5,42329923548638E-02 
589	 5,49672303204668E-02 
590	 5,54033742615453E-02 
591	 5,43284659362333E-02 
592	 5,44050425730262E-02 
593	 5,53263664979823E-02 
594	 5,48479807128646E-02 
595	 5,39407435740547E-02 
596	 5,31131637458903E-02 
597	 5,25835108160274E-02 
598	 5,26145741922231E-02 
599	 5,35461002026545E-02 
600	 5,41504030734383E-02 
601	 5,39929072375312E-02 
602	 5,29734331869743E-02 
603	 5,21950345312136E-02 
604	 5,24572199167882E-02 
605	 5,22774684197939E-02 
606	 5,16891500181206E-02 
607	 5,14528154212669E-02 
608	 5,10676730628331E-02 
609	 5,04226667987985E-02 
610	 4,98783694711334E-02 
611	 4,95626117547864E-02 
612	 4,95828269108137E-02 
613	 4,96769305634071E-02 
614	 4,98048175467371E-02 
615	 5,02211556602478E-02 
616	 5,01781135236621E-02 
617	 4,93293732378634E-02 
618	 0,04917953209078 
619	 4,94613588309577E-02 
620	 4,91641624797336E-02 
621	 4,90680982933772E-02 
622	 4,94123679636223E-02 
623	 5,00856405774219E-02 
624	 0,050787776451088 
625	 0,051202819702547 
626	 5,08877384598983E-02 
627	 5,02299109643857E-02 
628	 5,05303568599398E-02 
629	 5,12230360291879E-02 
630	 5,18904846174789E-02 
631	 5,16509282644512E-02 
632	 5,13635238634299E-02 
633	 5,26065448469989E-02 
634	 5,33937299397475E-02 
635	 5,33792318042906E-02 
636	 5,37208407356658E-02 
637	 5,42308863805459E-02 
638	 5,47174964133069E-02 
639	 5,51144398712839E-02 
640	 5,55004493259273E-02 
641	 5,62242273699587E-02 
642	 5,64161008406131E-02 
643	 5,59389657390705E-02 
644	 0,056315039756633 
645	 5,68829912451013E-02 
646	 5,66026639258119E-02 
647	 5,68551633868516E-02 
648	 5,74422379829941E-02 
649	 5,64051606714925E-02 
650	 5,55984878697151E-02 
651	 5,61221742570615E-02 
652	 5,58014611638503E-02 
653	 5,49234580399736E-02 
654	 5,47158334706671E-02 
655	 5,46616719868686E-02 
656	 5,45297032724848E-02 
657	 5,40120616564898E-02 
658	 5,32988652704622E-02 
659	 5,26147393146114E-02 
660	 5,20061730806527E-02 
661	 5,13228650137741E-02 
662	 4,99710906353531E-02 
663	 0,049083641380604 
664	 0,049133708635523 
665	 4,89294073618309E-02 
666	 4,85848091427084E-02 
667	 4,85151444488971E-02 
668	 4,83892774092408E-02 
669	 4,81144845430273E-02 
670	 0,047651911850948 
671	 4,74623074925847E-02 
672	 4,78310935001365E-02 
673	 4,75360803396466E-02 
674	 4,68901932427847E-02 
675	 4,71492752362545E-02 
676	 0,047548154547643 
677	 4,78358460731782E-02 
678	 4,82367077253263E-02 
679	 4,85976289877874E-02 
680	 4,87287650500244E-02 
681	 4,86544095596208E-02 
682	 4,85443318389997E-02 
683	 4,88972156148157E-02 
684	 4,91777883041377E-02 
685	 4,91893363273446E-02 
686	 5,00077956276914E-02 
687	 5,13551005850531E-02 
688	 0,052503069801196 
689	 5,36587844778145E-02 
690	 5,48700879946289E-02 
691	 5,60517633570451E-02 
692	 5,77887163165736E-02 
693	 6,05365675403929E-02 
694	 6,31296221261738E-02 
695	 6,55079427650423E-02 
696	 6,80782428078071E-02 
697	 7,11694351760137E-02 
698	 7,48517868829106E-02 
699	 7,84444489456863E-02 
700	 8,21628912795592E-02 
701	 8,63665351446589E-02 
702	 0,091265087862664 
703	 9,64501304949468E-02 
704	 0,100542167890023 
705	 0,104493208211962 
706	 0,108832370340621 
707	 0,112682066540649 
708	 0,116208824231663 
709	 0,119937454711922 
710	 0,123544676968676 
711	 0,126924504200614 
712	 0,130103355705903 
713	 0,132994934544103 
714	 0,135562548605073 
715	 0,138456491420197 
716	 0,141413308687175 
717	 0,143395902278633 
718	 0,145352561047024 
719	 0,147625563941069 
720	 0,149753081537135 
721	 0,151551387883259 
722	 0,15285053650892 
723	 0,15412871783936 
724	 0,155495059041981 
725	 0,156828578638878 
726	 0,158099667845198 
727	 0,159294273565992 
728	 0,160514176609857 
729	 0,16168852390991 
730	 0,162698510809838 
731	 0,163234418224988 
732	 0,163457984048514 
733	 0,164457805228421 
734	 0,165507059225648 
735	 0,165954979051218 
736	 0,166244863962408 
737	 0,166642871185551 
738	 0,16772040649169 
739	 0,168115888828218 
740	 0,167656664206029 
741	 0,168560878493713 
742	 0,169812420473716 
743	 0,17004615931243 
744	 0,170023264185411 
745	 0,170038469634221 
746	 0,170495632689085 
747	 0,17075081273596 
748	 0,170579442673287 
749	 0,171063811093796 
750	 0,171745307316474 
751	 0,171723029224643 
752	 0,171920526442049 
753	 0,172425068168693 
754	 0,172587225971875 
755	 0,172648061365865 
756	 0,172788134737598 
757	 0,172883627777562 
758	 0,173037724048672 
759	 0,173515407044403 
760	 0,173766333844176 
761	 0,173706764836777 
762	 0,173839540597157 
763	 0,174262554546085 
764	 0,174978591813102 
765	 0,17492316457755 
766	 0,174425840556189 
767	 0,174937120471601 
768	 0,1752565542862 
769	 0,174996948354887 
770	 0,174765853338186 
771	 0,17481968868033 
772	 0,175376786123347 
773	 0,17569433871955 
774	 0,175688819470014 
775	 0,175672293553847 
776	 0,17582606810954 
777	 0,17619579925412 
778	 0,176281826321995 
779	 0,176296938321217 
780	 0,176641101134572 
781	 0,17667864356702 
782	 0,176485765196514 
783	 0,176992213068744 
784	 0,177330711365118 
785	 0,177022031484188 
786	 0,177177675719525 
787	 0,177617058358345 
788	 0,17774101056062 
789	 0,177829626320083 
790	 0,177951818625593 
791	 0,178089808649632 
792	 0,178180424516676 
793	 0,178193787327269 
794	 0,178393711847856 
795	 0,17864523010276 
796	 0,178543275256285 
797	 0,178622591733573 
798	 0,178961302487958 
799	 0,179081946286156 
800	 0,178849266169163 
801	 0,178248782790212 
802	 0,178599901904441 
803	 0,179503691813296 
804	 0,179234000776637 
805	 0,179277715603753 
806	 0,179917938912046 
807	 0,179648473632644 
808	 0,179200211074939 
809	 0,179437651991519 
810	 0,179625879157902 
811	 0,179745263357917 
812	 0,180200171324199 
813	 0,180477466953051 
814	 0,180394289576873 
815	 0,18025936089701 
816	 0,180365622874715 
817	 0,180995157829081 
818	 0,1812328997324 
819	 0,181088727284942 
820	 0,181257396182754 
821	 0,18156372943182 
822	 0,181870258217398 
823	 0,181747988470973 
824	 0,181675620883668 
825	 0,182300160047333 
826	 0,182285270266847 
827	 0,18175798184199 
828	 0,182145230690153 
829	 0,182727456192477 
830	 0,183066366218896 
831	 0,182946698294646 
832	 0,182547930297215 
833	 0,182158872239106 
834	 0,181905286022972 
835	 0,181931571944899 
836	 0,182566697705899 
837	 0,182972048386681 
838	 0,182792968736482 
839	 0,183157873905297 
840	 0,183619932739608 
841	 0,183390247760772 
842	 0,183021572966578 
843	 0,182746939541709 
844	 0,1828327898207 
845	 0,182884713422008 
846	 0,18275530530028 
847	 0,183059923719263 
848	 0,183539536627373 
849	 0,183741710415762 
850	 0,18382302423654 
851	 0,183824026625526 
852	 0,183759263441082 
853	 0,183728471636097 
854	 0,183812572318315 
855	 0,18416165455272 
856	 0,184389406992036 
857	 0,183971624777172 
858	 0,183758094640481 
859	 0,183928136446148 
860	 0,184371267541893 
861	 0,184441186859266 
862	 0,183935829915875 
863	 0,183945866166839 
864	 0,184463700932035 
865	 0,185294455516676 
866	 0,185312241715736 
867	 0,184627438256518 
868	 0,184440566162818 
869	 0,184544400357206 
870	 0,184812280240713 
871	 0,184943928693054 
872	 0,184956062306699 
873	 0,184909093160257 
874	 0,184614653573123 
875	 0,184197262891354 
876	 0,184014978017476 
877	 0,184316480761331 
878	 0,185037881504084 
879	 0,185174638585912 
880	 0,185021807022804 
881	 0,184993042599882 
882	 0,185028578108825 
883	 0,185068671560017 
884	 0,184968230512266 
885	 0,184770299661183 
886	 0,184545574762903 
887	 0,184508207153387 
888	 0,184693184837142 
889	 0,185082345773912 
890	 0,185236757132413 
891	 0,185235245893695 
892	 0,185460394591304 
893	 0,185576759144451 
894	 0,185515510432468 
895	 0,18551864200752 
896	 0,185269004845891 
897	 0,184673189412385 
898	 0,185336647591238 
899	 0,186435559950064 
900	 0,186094636208896 
901	 0,18564578206324 
902	 0,18543384956178 
903	 0,185118633532863 
904	 0,185500661900181 
905	 0,186745500758902 
906	 0,186263102493717 
907	 0,185107020508714 
908	 0,185222746103234 
909	 0,185681608554548 
910	 0,186133020344387 
911	 0,18621111573316 
912	 0,186022484064579 
913	 0,185679356609461 
914	 0,18549920448363 
915	 0,185466498566863 
916	 0,185519607676219 
917	 0,185677437860536 
918	 0,18569418546093 
919	 0,184878215543644 
920	 0,184671953458719 
921	 0,18533478372695 
922	 0,185330321504513 
923	 0,185529490682838 
924	 0,186555977425705 
925	 0,186736613627573 
926	 0,186146012061348 
927	 0,185387566988005 
928	 0,185272384159783 
929	 0,185698193198845 
930	 0,185265471306486 
931	 0,184524185328814 
932	 0,183976253414439 
933	 0,184684096670941 
934	 0,185383099810329 
935	 0,184396303867418 
936	 0,184450023251171 
937	 0,185456357494489 
938	 0,18548324127438 
939	 0,184988252143555 
940	 0,184231197004105 
941	 0,183739737235101 
942	 0,18369159660933 
943	 0,184062160485426 
944	 0,183283187602612 
945	 0,181976863801003 
946	 0,181837188810725 
947	 0,180730797220411 
948	 0,179005908300246 
949	 0,180130118959577 
950	 0,181378207510687 
951	 0,181117617580778 
952	 0,179797668957534 
953	 0,17866942879517 
954	 0,179112734067022 
955	 0,179501822289665 
956	 0,179260805064012 
957	 0,177738179688995 
958	 0,177195744251485 
959	 0,177958291496261 
960	 0,177401602594333 
961	 0,176856119180383 
962	 0,177150523460043 
963	 0,175435946810266 
964	 0,174196826240754 
965	 0,177618336060257 
966	 0,179297444459137 
967	 0,178308346544141 
968	 0,177200801910434 
969	 0,175770246371061 
970	 0,174437029567077 
971	 0,175004076628955 
972	 0,176216221260078 
973	 0,176677883707146 
974	 0,175350762631227 
975	 0,173810984887037 
976	 0,175131387505629 
977	 0,176796971829524 
978	 0,177824258130577 
979	 0,177486240060795 
980	 0,177368699053021 
981	 0,178057638817356 
982	 0,177866148981134 
983	 0,177255238100534 
984	 0,176824538593876 
985	 0,176246761073428 
986	 0,17562774879566 
987	 0,175162873478983 
988	 0,176180106567375 
989	 0,178131189887178 
990	 0,177673926547486 
991	 0,177103616875995 
992	 0,177533039057715 
993	 0,177599747246795 
994	 0,178442931425532 
995	 0,180983015052477 
996	 0,18087242401299 
997	 0,178708612531889 
998	 0,177138190040136 
999	 0,177969096810448 
1000	 0,180545153862145 
1001	 0,18049872361833 
1002	 0,17961605292718 
1003	 0,179035113766971 
1004	 0,179662392828022 
1005	 0,181006529767498 
1006	 0,182312056656259 
1007	 0,181764924439736 
1008	 0,181057296740783 
1009	 0,183743966134642 
1010	 0,183711982931128 
1011	 0,181412083111058 
1012	 0,184326323265589 
1013	 0,184786135683368 
1014	 0,181131770166706 
1015	 0,183348585526264 
1016	 0,185026872619169 
1017	 0,181395452294129 
1018	 0,184280303208067 
1019	 0,188288683382591 
1020	 0,183456442972282 
1021	 0,184514119803875 
1022	 0,190692585329809 
1023	 0,189634896587981 
1024	 0,191310449715195 
1025	 0,195979751044227 
1026	 0,189374729252708 
1027	 0,184970632722897 
1028	 0,190104987470373 
1029	 0,187749599569002 
1030	 0,184632624583055 
1031	 0,189662891967133 
1032	 0,188037596835932 
1033	 0,183284799101158 
1034	 0,188262507382579 
1035	 0,190745355944421 
1036	 0,190035246291746 
1037	 0,197037036425113 
1038	 0,198276371590923 
1039	 0,190703042118667 
1040	 0,193089134777828 
1041	 0,19567455497589 
1042	 0,190610398034528 
1043	 0,188832689416057 
1044	 0,190460462320753 
1045	 0,193457560926724 
1046	 0,196681134630079 
1047	 0,19745271967558 
1048	 0,190660012388402 
1049	 0,187015370881645 
1050	 0,188891676402432 
1051	 0,190719006786133 
1052	 0,190490454223426 
1053	 0,18865340266171 
1054	 0,194804658788303 
1055	 0,199417068258763 
1056	 0,194248865889148 
1057	 0,187803906322107 
1058	 0,185393148012067 
1059	 0,191729162082841 
1060	 0,198815361267014 
1061	 0,203525971759051 
1062	 0,203693610682454 
1063	 0,20899096513612 
1064	 0,215992933936053 
1065	 0,201563345269775 
1066	 0,1881613719879 
1067	 0,188379717989814 
1068	 0,20352786584466 
1069	 0,21326163630055 
1070	 0,204448160857043 
1071	 0,197567459157381 
1072	 0,195806024800763 
1073	 0,198956666905858 
1074	 0,197313143799821 
1075	 0,19204569595307 
