Wavelength	GRA-VIE00841.asd
325	 0,144209301501423 
326	 0,155738159243965 
327	 0,102480179678652 
328	 2,19938365282541E-02 
329	 0,134814135479287 
330	 0,256137779406376 
331	 0,177400696562347 
332	 0,100666875043266 
333	 3,10949135460621E-02 
334	 4,95439216911161E-02 
335	 0,141997968487941 
336	 0,233476557441372 
337	 0,242332669921971 
338	 0,213966673731719 
339	 0,177862565382076 
340	 0,156587414472229 
341	 0,142248518213205 
342	 0,103123314944626 
343	 0,118222697576062 
344	 0,170426447693764 
345	 0,118012468774687 
346	 5,73692333190554E-02 
347	 0,100183820654435 
348	 7,54988578800179E-02 
349	 5,94715899299735E-03 
350	 4,26580873543093E-02 
351	 5,78442744552246E-02 
352	 2,18858200358427E-02 
353	 0,012905667547931 
354	 3,19829867156038E-02 
355	 6,88047910657706E-02 
356	 0,104927596581838 
357	 0,11713588153951 
358	 4,82877957168388E-02 
359	 0,016047918906466 
360	 0,064337916130502 
361	 7,46776816177232E-02 
362	 5,75905625972311E-02 
363	 4,76659088268972E-02 
364	 4,64982061572674E-02 
365	 5,06003694166184E-02 
366	 3,93850531405558E-02 
367	 4,14205378934581E-02 
368	 6,85635890455575E-02 
369	 6,28301365016804E-02 
370	 4,46746770477415E-02 
371	 6,18934753546484E-02 
372	 5,75014992619018E-02 
373	 2,89045328975451E-02 
374	 3,81685654101975E-02 
375	 5,44252536289447E-02 
376	 5,20185468472593E-02 
377	 3,01872193706472E-02 
378	 7,5798294162917E-03 
379	 2,33972477732874E-02 
380	 4,11257231438436E-02 
381	 4,83281879920133E-02 
382	 4,35211745230647E-02 
383	 2,69913701568759E-02 
384	 2,02127791141315E-03 
385	 1,06484267800995E-02 
386	 4,09907575532546E-02 
387	 5,01836782788306E-02 
388	 5,28477451202786E-02 
389	 5,38245296615222E-02 
390	 5,62408409477323E-02 
391	 5,24567427018996E-02 
392	 3,36178106052241E-02 
393	 2,24578331661008E-02 
394	 2,12620313422982E-02 
395	 1,86541316585741E-02 
396	 2,60158098157465E-02 
397	 4,43734669866192E-02 
398	 3,80046330723384E-02 
399	 2,19479774309355E-02 
400	 2,31549451054251E-02 
401	 2,90277869329975E-02 
402	 3,37304451771989E-02 
403	 2,83000959486509E-02 
404	 2,34401467505659E-02 
405	 2,58155744084831E-02 
406	 2,19769995403622E-02 
407	 1,63841933454051E-02 
408	 2,26188892054988E-02 
409	 2,46031683889292E-02 
410	 1,92279554920071E-02 
411	 0,013754619116904 
412	 1,34376913319487E-02 
413	 2,16602526070254E-02 
414	 1,91407434171404E-02 
415	 1,00613650601525E-02 
416	 1,53523669902797E-02 
417	 1,77087650403908E-02 
418	 0,012432918426205 
419	 1,46122735526599E-02 
420	 1,89825312282942E-02 
421	 1,74526470115269E-02 
422	 1,40343786499038E-02 
423	 0,011494520650533 
424	 1,63425187769393E-02 
425	 1,60433664469119E-02 
426	 5,35591146702258E-03 
427	 8,98971308365598E-03 
428	 1,97960145333192E-02 
429	 1,99713601254667E-02 
430	 1,82922640347285E-02 
431	 1,69582869109119E-02 
432	 1,43167928095708E-02 
433	 1,39879822277896E-02 
434	 0,018590246908079 
435	 1,85107334202361E-02 
436	 1,43548202300182E-02 
437	 1,13642900313642E-02 
438	 1,24655609943417E-02 
439	 1,82458256401937E-02 
440	 2,33596038051605E-02 
441	 2,51570075528535E-02 
442	 2,13672127258948E-02 
443	 1,47475189725628E-02 
444	 9,07744279202053E-03 
445	 1,35259448588927E-02 
446	 1,82386432471509E-02 
447	 1,71848709164742E-02 
448	 0,014642173606292 
449	 1,29046119204446E-02 
450	 1,51503370050394E-02 
451	 1,71437261677348E-02 
452	 1,71077972761741E-02 
453	 1,36061170645186E-02 
454	 1,16922692387153E-02 
455	 1,57069291272635E-02 
456	 1,76073556146507E-02 
457	 1,65052795336323E-02 
458	 1,41338397836882E-02 
459	 1,34507194374107E-02 
460	 1,54914036632564E-02 
461	 0,017410978294054 
462	 1,71342608399777E-02 
463	 1,23688256296044E-02 
464	 1,22011869671254E-02 
465	 1,66916283586267E-02 
466	 1,79124110886127E-02 
467	 1,59851945552982E-02 
468	 1,17445118303477E-02 
469	 0,011988987342916 
470	 1,49330394543796E-02 
471	 1,49386350290982E-02 
472	 1,58105368684218E-02 
473	 0,017682429903353 
474	 1,58633966827208E-02 
475	 1,36399605590019E-02 
476	 1,44309670700581E-02 
477	 1,70210986449831E-02 
478	 1,93484524081242E-02 
479	 1,64315670493218E-02 
480	 1,39473832821562E-02 
481	 1,41298015809465E-02 
482	 1,16898652554393E-02 
483	 9,74961794293168E-03 
484	 1,37118553756936E-02 
485	 0,016577120014373 
486	 1,66068063864558E-02 
487	 1,49500021847255E-02 
488	 0,014104059892705 
489	 1,57226517419012E-02 
490	 1,63994822915686E-02 
491	 1,55616200607596E-02 
492	 0,012820791112559 
493	 1,20415006366301E-02 
494	 1,41475735638073E-02 
495	 1,57843196193265E-02 
496	 1,55900336013257E-02 
497	 1,24730476481789E-02 
498	 1,20531869746571E-02 
499	 1,39479023127435E-02 
500	 1,26650991802173E-02 
501	 0,011267604745003 
502	 0,011525191740087 
503	 1,29059632089089E-02 
504	 1,44602259023384E-02 
505	 1,48161567782125E-02 
506	 1,44440839989389E-02 
507	 1,35586918606482E-02 
508	 1,22663846429625E-02 
509	 1,18010675447468E-02 
510	 1,31293755638144E-02 
511	 1,37170361560508E-02 
512	 0,013599396429013 
513	 1,44087343163174E-02 
514	 1,44004594019693E-02 
515	 1,32163921382359E-02 
516	 1,35857365205503E-02 
517	 1,45811619795473E-02 
518	 1,45488390619015E-02 
519	 1,48889538733315E-02 
520	 0,015469271378934 
521	 1,45625796432367E-02 
522	 1,36672832282662E-02 
523	 1,38106217033732E-02 
524	 1,33754926926458E-02 
525	 1,28344997683599E-02 
526	 0,013872081846093 
527	 1,48579999201362E-02 
528	 1,49523947365697E-02 
529	 1,29290372077101E-02 
530	 1,12962374825438E-02 
531	 1,29019765606232E-02 
532	 1,39255569778757E-02 
533	 1,36848346268443E-02 
534	 1,28892421228594E-02 
535	 0,012896579704276 
536	 1,43059271568096E-02 
537	 1,48790690450984E-02 
538	 0,014357236959547 
539	 1,27432820222903E-02 
540	 0,012019392182299 
541	 1,26515114298387E-02 
542	 1,32875884459455E-02 
543	 1,36419902035764E-02 
544	 1,35320729265687E-02 
545	 1,35822798527102E-02 
546	 1,37236815924868E-02 
547	 1,33601418793158E-02 
548	 1,29725656603287E-02 
549	 1,28316418131551E-02 
550	 1,30382162550947E-02 
551	 1,32517290655162E-02 
552	 1,29186496188677E-02 
553	 1,29202432663102E-02 
554	 0,013236220769725 
555	 1,26675515598161E-02 
556	 1,22317981340014E-02 
557	 1,27768322079427E-02 
558	 1,37559838516797E-02 
559	 1,45106718524647E-02 
560	 1,36784741325442E-02 
561	 1,29459562782923E-02 
562	 1,29563353700532E-02 
563	 1,29350996346971E-02 
564	 1,28082835360159E-02 
565	 1,25631050228094E-02 
566	 1,27380008278444E-02 
567	 1,32520728342975E-02 
568	 1,33465113914635E-02 
569	 1,32292636246263E-02 
570	 1,30923243658468E-02 
571	 1,32874767181102E-02 
572	 1,37064567304251E-02 
573	 1,40429832278145E-02 
574	 0,013907180161887 
575	 1,34649349740966E-02 
576	 0,014559463308783 
577	 1,53749988956329E-02 
578	 1,38338033602451E-02 
579	 1,40939237866774E-02 
580	 1,59480994400445E-02 
581	 1,56818063443859E-02 
582	 1,50372606499635E-02 
583	 1,50057169014162E-02 
584	 1,52300948267064E-02 
585	 1,55536703504015E-02 
586	 1,57593482629121E-02 
587	 1,59792607872136E-02 
588	 1,62300509523989E-02 
589	 0,01645845265095 
590	 1,66019067463818E-02 
591	 1,65965066783603E-02 
592	 1,62663281180557E-02 
593	 1,58556162014867E-02 
594	 1,60996211097256E-02 
595	 1,63328180983646E-02 
596	 1,62401053322045E-02 
597	 0,015966493551927 
598	 1,57266590596843E-02 
599	 1,57997939328205E-02 
600	 1,60996894471372E-02 
601	 1,65587072494273E-02 
602	 1,71354409270454E-02 
603	 1,73180557965924E-02 
604	 1,67398510710636E-02 
605	 1,59910711734059E-02 
606	 1,54170288894779E-02 
607	 1,55409868004429E-02 
608	 1,57388155209464E-02 
609	 1,56476114329298E-02 
610	 1,47478795181784E-02 
611	 1,38950327798473E-02 
612	 1,41710188264375E-02 
613	 1,46424504426223E-02 
614	 1,49437564625342E-02 
615	 0,014662964055783 
616	 1,46323160815935E-02 
617	 1,52502241614356E-02 
618	 1,49520123414412E-02 
619	 1,41753411557548E-02 
620	 1,41519071716658E-02 
621	 1,47607078134586E-02 
622	 1,56462418808811E-02 
623	 1,52746451527619E-02 
624	 1,44823877076669E-02 
625	 1,42406585117576E-02 
626	 1,46094098851462E-02 
627	 1,52472628630177E-02 
628	 1,51078493503705E-02 
629	 1,48652390075835E-02 
630	 1,48853648077978E-02 
631	 1,51262016209163E-02 
632	 1,54965554716733E-02 
633	 1,58704722623512E-02 
634	 1,59675342169751E-02 
635	 1,57907428577059E-02 
636	 1,56704535395552E-02 
637	 1,58992966021485E-02 
638	 1,66599243911146E-02 
639	 1,71634751821669E-02 
640	 1,72670101429744E-02 
641	 1,69605844135084E-02 
642	 1,69782072651402E-02 
643	 1,74983005659511E-02 
644	 1,74023770479022E-02 
645	 1,73134558495626E-02 
646	 1,81667360623213E-02 
647	 1,82505383171378E-02 
648	 1,76131997560402E-02 
649	 1,80400708653711E-02 
650	 0,018348610274014 
651	 1,78185370651313E-02 
652	 1,75227066809357E-02 
653	 1,75556658458615E-02 
654	 1,78404966426238E-02 
655	 1,75754444369369E-02 
656	 1,67449088219448E-02 
657	 0,016833794290009 
658	 1,69293497278181E-02 
659	 1,60425598126953E-02 
660	 0,015557080184945 
661	 1,55192049077674E-02 
662	 1,51984406708359E-02 
663	 1,47216010043991E-02 
664	 1,42263152082916E-02 
665	 0,014270293776896 
666	 0,014565203656149 
667	 1,45686642574888E-02 
668	 1,45597600553798E-02 
669	 1,44855370786935E-02 
670	 1,37169388349861E-02 
671	 1,36443304836473E-02 
672	 1,51630975472592E-02 
673	 1,49585379935564E-02 
674	 0,013636800642804 
675	 1,40301448793258E-02 
676	 1,47813399477867E-02 
677	 0,015282120130072 
678	 1,48409094413884E-02 
679	 1,43141482966057E-02 
680	 1,47738415186787E-02 
681	 1,49609054056321E-02 
682	 1,48018229243349E-02 
683	 1,50565544172826E-02 
684	 1,52791238829332E-02 
685	 1,52558636963208E-02 
686	 1,54948190487709E-02 
687	 1,58609770912832E-02 
688	 1,59334108258969E-02 
689	 1,67300023361804E-02 
690	 1,82123962254723E-02 
691	 1,87846591934768E-02 
692	 1,93020619435028E-02 
693	 0,020576517853907 
694	 2,20604779946391E-02 
695	 2,37766381544938E-02 
696	 2,59329204922941E-02 
697	 2,88200058881528E-02 
698	 3,23566735267443E-02 
699	 3,52341886566897E-02 
700	 3,83288773978719E-02 
701	 4,28998505847718E-02 
702	 4,75440917225029E-02 
703	 5,20075351999026E-02 
704	 5,66928705961393E-02 
705	 6,17153262660424E-02 
706	 6,70916972675794E-02 
707	 0,072351932059899 
708	 7,74669060788915E-02 
709	 8,25096420935752E-02 
710	 8,75847121872819E-02 
711	 9,27001991063388E-02 
712	 0,097792918311943 
713	 0,102405142474479 
714	 0,106191449726014 
715	 0,110104372374056 
716	 0,114316129862734 
717	 0,118787640437022 
718	 0,122955401418765 
719	 0,126490726512226 
720	 0,129150206212102 
721	 0,13158615899763 
722	 0,134653030908442 
723	 0,137533043612606 
724	 0,139989817752187 
725	 0,141951328176286 
726	 0,143884005479956 
727	 0,146026539154317 
728	 0,147720442302747 
729	 0,149159565964371 
730	 0,150837029836228 
731	 0,152540699997921 
732	 0,154067185016589 
733	 0,154837093530728 
734	 0,155463470283816 
735	 0,156496910883234 
736	 0,157696074937998 
737	 0,158808110578584 
738	 0,159253675620014 
739	 0,15999196066483 
740	 0,161187687832549 
741	 0,161503419645375 
742	 0,16167021540644 
743	 0,162630665999783 
744	 0,163188573064697 
745	 0,163433268857697 
746	 0,164521174713175 
747	 0,165484417487095 
748	 0,165808122417275 
749	 0,165805528117699 
750	 0,165860551178482 
751	 0,166499188092796 
752	 0,166868257676119 
753	 0,166900415049023 
754	 0,167270453903056 
755	 0,167830079259747 
756	 0,168420476629408 
757	 0,168671325425685 
758	 0,168708139078048 
759	 0,168905718060189 
760	 0,169144260158782 
761	 0,169409766295868 
762	 0,169772046551307 
763	 0,170099387878492 
764	 0,170267721369698 
765	 0,170326027284853 
766	 0,170402094152953 
767	 0,170798367133343 
768	 0,171142558838607 
769	 0,171329507106354 
770	 0,171732390314896 
771	 0,172070974700201 
772	 0,171996954529989 
773	 0,17200169593583 
774	 0,172261520038004 
775	 0,172985605800562 
776	 0,173446414400309 
777	 0,173299422023007 
778	 0,173094641187271 
779	 0,173117545237459 
780	 0,17368129096022 
781	 0,173829771526889 
782	 0,17356145875627 
783	 0,173835698592182 
784	 0,174358698142307 
785	 0,174873254624876 
786	 0,17499755003307 
787	 0,174859040315731 
788	 0,17477920272364 
789	 0,174861573825213 
790	 0,175139354935208 
791	 0,175581614211659 
792	 0,175737552163656 
793	 0,175358147806871 
794	 0,17588007674094 
795	 0,176704934036846 
796	 0,175947422329453 
797	 0,17593838981079 
798	 0,177007632697821 
799	 0,176659209007145 
800	 0,176402073247229 
801	 0,177622723393161 
802	 0,177795121306748 
803	 0,177171597551757 
804	 0,177629915069844 
805	 0,178065626860592 
806	 0,178136856223933 
807	 0,178125715328263 
808	 0,178243384060309 
809	 0,178685547763511 
810	 0,179247510268636 
811	 0,179710151678753 
812	 0,179568979202278 
813	 0,179706174072762 
814	 0,180351632503565 
815	 0,180368653272513 
816	 0,180280250466357 
817	 0,18080083615536 
818	 0,181215986806776 
819	 0,181410801812163 
820	 0,181510710413072 
821	 0,181770900455054 
822	 0,182278171547203 
823	 0,182702791623278 
824	 0,182934446657292 
825	 0,182889370389715 
826	 0,183135974208241 
827	 0,183589656849241 
828	 0,1835481481203 
829	 0,183239274250584 
830	 0,182933455266875 
831	 0,183564193594242 
832	 0,184418785884912 
833	 0,184408120284149 
834	 0,184117069606346 
835	 0,183799126331928 
836	 0,183729024212944 
837	 0,183953168772011 
838	 0,184444052984972 
839	 0,18482105316002 
840	 0,185082273303695 
841	 0,185303226472934 
842	 0,185283952877705 
843	 0,185144786445638 
844	 0,185512501438694 
845	 0,185384626515223 
846	 0,184495695781072 
847	 0,185093431978341 
848	 0,18619204369491 
849	 0,186071416239881 
850	 0,186017676579173 
851	 0,186288893584174 
852	 0,186783783726558 
853	 0,186714541616456 
854	 0,185863221911097 
855	 0,185901210233911 
856	 0,186530596955002 
857	 0,187069688246877 
858	 0,187008758524436 
859	 0,186506915736474 
860	 0,186548106627447 
861	 0,18679395935533 
862	 0,187036438381392 
863	 0,187065070141069 
864	 0,187069716646126 
865	 0,187327492333325 
866	 0,187775454565987 
867	 0,18823589460256 
868	 0,188180456296147 
869	 0,188383638082469 
870	 0,189163867765248 
871	 0,190088000685349 
872	 0,190567799301061 
873	 0,189999073277672 
874	 0,189525818181536 
875	 0,189515696805791 
876	 0,190157038825912 
877	 0,190867957053702 
878	 0,191317557203087 
879	 0,191446365828315 
880	 0,191251727055571 
881	 0,190808313327755 
882	 0,191286756367014 
883	 0,192317683939442 
884	 0,192265991099489 
885	 0,192282925769613 
886	 0,192719624996869 
887	 0,193224245406999 
888	 0,193579299941688 
889	 0,193613721663463 
890	 0,193623908135754 
891	 0,19367765776854 
892	 0,193744110872638 
893	 0,194145857942162 
894	 0,194875509183509 
895	 0,195500589683313 
896	 0,19563246118102 
897	 0,195104703745695 
898	 0,195197146882976 
899	 0,195665153960542 
900	 0,195678331152309 
901	 0,195929361002818 
902	 0,196433456389281 
903	 0,196576086397469 
904	 0,196508802143889 
905	 0,19638556622291 
906	 0,196602702051981 
907	 0,19677186498336 
908	 0,196283541538068 
909	 0,196538885297686 
910	 0,197481987504419 
911	 0,197849782732613 
912	 0,197949686081816 
913	 0,198006275596622 
914	 0,198622290847513 
915	 0,199109378723143 
916	 0,198686697552583 
917	 0,198228896102565 
918	 0,197969269994004 
919	 0,198013196008318 
920	 0,197902927825326 
921	 0,197635329832582 
922	 0,198149451182085 
923	 0,198276395932214 
924	 0,197142645413777 
925	 0,196303986198388 
926	 0,196184386711441 
927	 0,197082985784992 
928	 0,19700989808658 
929	 0,196040592488635 
930	 0,196794627547371 
931	 0,197665976536616 
932	 0,197622986168409 
933	 0,196681127882741 
934	 0,195546077123209 
935	 0,195111771061735 
936	 0,195082873635588 
937	 0,195113235275594 
938	 0,194277959147506 
939	 0,194400484698993 
940	 0,195405141465623 
941	 0,193057284927591 
942	 0,190926607211001 
943	 0,192112841254647 
944	 0,192556658241168 
945	 0,191966403879235 
946	 0,191103859918788 
947	 0,190132571893817 
948	 0,188997182258705 
949	 0,187074498273439 
950	 0,18546420099862 
951	 0,184803876196082 
952	 0,184669485145018 
953	 0,184582162020727 
954	 0,184014533931596 
955	 0,182718835152894 
956	 0,181205660702962 
957	 0,180817614966222 
958	 0,180985773988149 
959	 0,181107294494476 
960	 0,179435649705451 
961	 0,177847712241402 
962	 0,17761386367773 
963	 0,176145340585236 
964	 0,174692698259987 
965	 0,175619836141481 
966	 0,177196615905799 
967	 0,178168560884178 
968	 0,176048517099003 
969	 0,174945775818875 
970	 0,176306605434644 
971	 0,177317725979892 
972	 0,177412570162253 
973	 0,176488727080563 
974	 0,177521009975285 
975	 0,179427862189507 
976	 0,179439865148111 
977	 0,177796966811884 
978	 0,175541039793005 
979	 0,175686500137188 
980	 0,177866935855858 
981	 0,181020335036481 
982	 0,180706575479694 
983	 0,178464037999751 
984	 0,176472363898487 
985	 0,176283166256968 
986	 0,177768422747024 
987	 0,179960739670747 
988	 0,180811287636621 
989	 0,180595905017408 
990	 0,183112302335638 
991	 0,184482981779578 
992	 0,183138801711057 
993	 0,18280589932944 
994	 0,183309166666079 
995	 0,184062796725722 
996	 0,184216462106006 
997	 0,184274434711588 
998	 0,18551129514909 
999	 0,187612338694113 
1000	 0,189782516450499 
1001	 0,189860332418329 
1002	 0,189500718095081 
1003	 0,189716158977709 
1004	 0,190848274773998 
1005	 0,192277146331433 
1006	 0,193163852247683 
1007	 0,191344939253676 
1008	 0,18927389833535 
1009	 0,191753585397653 
1010	 0,194873493498088 
1011	 0,197512505770588 
1012	 0,200733068850303 
1013	 0,198910681440757 
1014	 0,191921875299872 
1015	 0,191909850236953 
1016	 0,196351955872311 
1017	 0,201645915807042 
1018	 0,203046107166232 
1019	 0,201439731611724 
1020	 0,199499717934179 
1021	 0,199852566519471 
1022	 0,202743039056163 
1023	 0,206966403078753 
1024	 0,208186711485835 
1025	 0,206249472814547 
1026	 0,208150806365097 
1027	 0,212017411680599 
1028	 0,215594860634858 
1029	 0,21357705462825 
1030	 0,211370286843738 
1031	 0,215390671294181 
1032	 0,215181746503952 
1033	 0,211199798855572 
1034	 0,208445328866551 
1035	 0,209797563224056 
1036	 0,21384581175803 
1037	 0,211707798324888 
1038	 0,214144644816267 
1039	 0,222095900920148 
1040	 0,213858889792383 
1041	 0,206190349216834 
1042	 0,213145512586752 
1043	 0,221673280908805 
1044	 0,224982941518864 
1045	 0,217789889431945 
1046	 0,217307844077307 
1047	 0,223290767084519 
1048	 0,225707882100675 
1049	 0,221115711232998 
1050	 0,213804797622733 
1051	 0,225524048991537 
1052	 0,236777358177733 
1053	 0,237395053978721 
1054	 0,230528320073583 
1055	 0,222260940562849 
1056	 0,219314509054982 
1057	 0,231381616166457 
1058	 0,2425940896502 
1059	 0,230078268164951 
1060	 0,226286908031785 
1061	 0,231288365753567 
1062	 0,228685383878723 
1063	 0,233627520437069 
1064	 0,245263134711317 
1065	 0,243855601625734 
1066	 0,242425307557118 
1067	 0,245340728182924 
1068	 0,243788732794428 
1069	 0,238870211797221 
1070	 0,232297076222418 
1071	 0,225863151189308 
1072	 0,222090993050871 
1073	 0,223044557448288 
1074	 0,222587624840715 
1075	 0,22322517789514 
