Wavelength	GRA-BER00286.asd
325	 0,287625121238439 
326	 0,365338026033786 
327	 0,350553524682245 
328	 0,27195886773264 
329	 0,311719910190227 
330	 0,365183869129429 
331	 0,33970918148169 
332	 0,350194683269098 
333	 0,370083839050729 
334	 0,312151299509706 
335	 0,256606388110784 
336	 0,256828182313962 
337	 0,333655882782064 
338	 0,380383856907791 
339	 0,325951193656378 
340	 0,265966387204913 
341	 0,240141246410173 
342	 0,251356582953397 
343	 0,293186882861379 
344	 0,33705127082191 
345	 0,305210898528762 
346	 0,284307503239791 
347	 0,348407534644943 
348	 0,328811810793102 
349	 0,256923042648468 
350	 0,300690421322267 
351	 0,316667839375389 
352	 0,26552843725748 
353	 0,253032620987257 
354	 0,274965049279934 
355	 0,31559748436684 
356	 0,323010883309648 
357	 0,30685779255742 
358	 0,322416970000607 
359	 0,331337948830333 
360	 0,321931102120301 
361	 0,341369291411857 
362	 0,370313562476239 
363	 0,37454773527504 
364	 0,374755509766951 
365	 0,375324983780699 
366	 0,37320545973686 
367	 0,371886532687303 
368	 0,371730660515848 
369	 0,355684219882671 
370	 0,334353529862208 
371	 0,325323158735173 
372	 0,339262466654815 
373	 0,367716056506431 
374	 0,37011618326169 
375	 0,36662257584767 
376	 0,372633280992887 
377	 0,380245773324292 
378	 0,384754603276919 
379	 0,381653950934344 
380	 0,368461158857155 
381	 0,350996456304354 
382	 0,358373353797899 
383	 0,375923664549175 
384	 0,387823283353912 
385	 0,378884466393338 
386	 0,35961028522002 
387	 0,366838862415817 
388	 0,373091167079574 
389	 0,369701723997506 
390	 0,367798252675665 
391	 0,371578122940694 
392	 0,384124013467689 
393	 0,394083001693807 
394	 0,398122830577352 
395	 0,394437786384575 
396	 0,391526983089409 
397	 0,392774435344599 
398	 0,383998701904871 
399	 0,374492909540108 
400	 0,379525082929577 
401	 0,384659576508441 
402	 0,386779266753947 
403	 0,390388136139189 
404	 0,391099981857901 
405	 0,386453782647779 
406	 0,38230014692028 
407	 0,382133273160609 
408	 0,391566869758571 
409	 0,396933884500914 
410	 0,393706176538899 
411	 0,382776105225085 
412	 0,376640271517976 
413	 0,385877228825267 
414	 0,392130109756717 
415	 0,393262862090433 
416	 0,39341787748118 
417	 0,393145194204784 
418	 0,392281600380627 
419	 0,386908688301444 
420	 0,381959740932665 
421	 0,383735170201371 
422	 0,386311347105521 
423	 0,38838037601427 
424	 0,390711892721351 
425	 0,393026849862413 
426	 0,39465353894843 
427	 0,39109176858531 
428	 0,386785078468745 
429	 0,390703918292152 
430	 0,393192467461405 
431	 0,392306506308849 
432	 0,393338515764417 
433	 0,393450109038023 
434	 0,390213691390355 
435	 0,387479361173109 
436	 0,386545044295537 
437	 0,388986741274296 
438	 0,390430778261869 
439	 0,389640334022106 
440	 0,39159431425916 
441	 0,393122787834993 
442	 0,389841142466286 
443	 0,387970635799389 
444	 0,388896377972934 
445	 0,391890834881331 
446	 0,393561540901554 
447	 0,391897248906068 
448	 0,389739058920405 
449	 0,388553723326542 
450	 0,390130391971619 
451	 0,39201743687158 
452	 0,39296610054789 
453	 0,391229152007886 
454	 0,390134419502136 
455	 0,39276546348742 
456	 0,397130319682636 
457	 0,400359111667331 
458	 0,396024377788704 
459	 0,392777428483475 
460	 0,394187535719162 
461	 0,396636536816048 
462	 0,398653445311022 
463	 0,398834758917065 
464	 0,398988950113741 
465	 0,399590958217013 
466	 0,400708497554372 
467	 0,400890221844571 
468	 0,399451332976239 
469	 0,399442823828552 
470	 0,400524621258472 
471	 0,401295750424624 
472	 0,400505205792832 
473	 0,398461376187413 
474	 0,398693607001309 
475	 0,400319268631117 
476	 0,402052294521684 
477	 0,400338956611829 
478	 0,396445644762293 
479	 0,395755926205024 
480	 0,395778683212151 
481	 0,395677220865458 
482	 0,397740355080163 
483	 0,400059465246061 
484	 0,399571678539821 
485	 0,399341210816287 
486	 0,399548681654442 
487	 0,397206624167789 
488	 0,39642149671773 
489	 0,399837648883998 
490	 0,400724663556512 
491	 0,399563032469653 
492	 0,400101443922446 
493	 0,400272052216165 
494	 0,399598468860692 
495	 0,399113357183109 
496	 0,39863948206498 
497	 0,397908465426389 
498	 0,397576069179236 
499	 0,397919428207845 
500	 0,399341324846797 
501	 0,400591965160661 
502	 0,40100185291281 
503	 0,401608349136736 
504	 0,402252106488313 
505	 0,402371559105603 
506	 0,402972190354798 
507	 0,404141851356159 
508	 0,405059089184093 
509	 0,405212804191074 
510	 0,404249916160085 
511	 0,403221684331709 
512	 0,402559137921797 
513	 0,402820606170014 
514	 0,402589142993024 
515	 0,401529251536548 
516	 0,401776724292514 
517	 0,402674375599808 
518	 0,403041948240588 
519	 0,403198398041906 
520	 0,403120295111263 
521	 0,402479198047892 
522	 0,402127118282083 
523	 0,402569338761276 
524	 0,402143055843819 
525	 0,401311787615034 
526	 0,401677811915591 
527	 0,402283308762932 
528	 0,402702695862565 
529	 0,402630738956512 
530	 0,402101013049677 
531	 0,401201820571757 
532	 0,401340570861917 
533	 0,402141257087211 
534	 0,401366818148767 
535	 0,400360273477656 
536	 0,400007748437324 
537	 0,400537892207294 
538	 0,401439932736094 
539	 0,401792460752057 
540	 0,40165604566367 
541	 0,401220546544593 
542	 0,401296806562709 
543	 0,401690803842588 
544	 0,402156670257614 
545	 0,402549353112125 
546	 0,402930657075169 
547	 0,403695339932894 
548	 0,404023559530461 
549	 0,403670107644141 
550	 0,404091098113169 
551	 0,404502326073547 
552	 0,403370308827543 
553	 0,403341446607707 
554	 0,404534447767233 
555	 0,404176288075107 
556	 0,403722273829602 
557	 0,404355293528057 
558	 0,404480650078592 
559	 0,404154960499603 
560	 0,404258049392585 
561	 0,404198678543042 
562	 0,403843394699744 
563	 0,403707411417873 
564	 0,403919178845694 
565	 0,404560019293972 
566	 0,405978730167823 
567	 0,40773587812734 
568	 0,40811451159479 
569	 0,408320332880093 
570	 0,409195581136609 
571	 0,410004728188663 
572	 0,411033634844193 
573	 0,41324353323653 
574	 0,414851607207479 
575	 0,415367056134279 
576	 0,416073297981666 
577	 0,416793277358985 
578	 0,417247281631205 
579	 0,418453940904373 
580	 0,420083623363042 
581	 0,420413816849133 
582	 0,420581560029734 
583	 0,421238495501155 
584	 0,422028005526623 
585	 0,422848571771415 
586	 0,423667305107397 
587	 0,423731777013337 
588	 0,423081602139082 
589	 0,422926259649571 
590	 0,423142206347358 
591	 0,423536981812051 
592	 0,423740790316582 
593	 0,423704143411158 
594	 0,423503104367189 
595	 0,423575629193082 
596	 0,42397152512356 
597	 0,42336528918294 
598	 0,422738727480101 
599	 0,423782583670252 
600	 0,424107255001205 
601	 0,423220632831081 
602	 0,421872184369972 
603	 0,421303346243331 
604	 0,422284654412873 
605	 0,421860782986537 
606	 0,420366839297918 
607	 0,419862335090556 
608	 0,419727440728894 
609	 0,4196545633793 
610	 0,418946613518734 
611	 0,418082936848292 
612	 0,417725665252061 
613	 0,417907391955842 
614	 0,418264953717521 
615	 0,417559776214315 
616	 0,416913301624813 
617	 0,417010004372091 
618	 0,417034362446909 
619	 0,416992071354322 
620	 0,417115299720359 
621	 0,417353778046932 
622	 0,417725661434974 
623	 0,418385401003095 
624	 0,419049445635996 
625	 0,419425048108029 
626	 0,419625472382448 
627	 0,419799111329827 
628	 0,420253397923078 
629	 0,420894755787704 
630	 0,421631459087561 
631	 0,422210066332889 
632	 0,422589889563721 
633	 0,422739557651117 
634	 0,423271740637541 
635	 0,424276928763587 
636	 0,425355612943228 
637	 0,426025448699344 
638	 0,425969999138444 
639	 0,426436355748422 
640	 0,427403451277663 
641	 0,428217055011966 
642	 0,428929954834208 
643	 0,429492362457746 
644	 0,429718942185848 
645	 0,429812897842211 
646	 0,43005400325914 
647	 0,430288901881879 
648	 0,430216736049978 
649	 0,428889126174244 
650	 0,427814408717868 
651	 0,427864085353613 
652	 0,42696881372911 
653	 0,425488941831106 
654	 0,424734415535436 
655	 0,424407379560675 
656	 0,424186134031818 
657	 0,422874217801973 
658	 0,421504618682725 
659	 0,421174976010065 
660	 0,420441675465138 
661	 0,419150694106844 
662	 0,417661389399292 
663	 0,416696047969455 
664	 0,416568758049177 
665	 0,416427594285267 
666	 0,416173576157264 
667	 0,415815614358362 
668	 0,41585622569415 
669	 0,416242816632042 
670	 0,416203930767784 
671	 0,415941712589613 
672	 0,415662256068229 
673	 0,415608207398885 
674	 0,415744079676297 
675	 0,4158740178342 
676	 0,415961368083066 
677	 0,415978215483501 
678	 0,415931318257706 
679	 0,415928040183957 
680	 0,416088603763532 
681	 0,416065153367629 
682	 0,416035691249457 
683	 0,416900010110662 
684	 0,417437886688488 
685	 0,417123983564368 
686	 0,417936335321849 
687	 0,419506608697483 
688	 0,420645998330005 
689	 0,422577911457453 
690	 0,425416309844916 
691	 0,427925803511881 
692	 0,430974967069507 
693	 0,435303763874648 
694	 0,439372158293094 
695	 0,443454464341536 
696	 0,449040181522685 
697	 0,455006266411156 
698	 0,460881699885376 
699	 0,466852041016667 
700	 0,473074683846797 
701	 0,47974083092619 
702	 0,486802599232267 
703	 0,493885175244941 
704	 0,500012790620695 
705	 0,505873531107878 
706	 0,511856059217611 
707	 0,517415940189629 
708	 0,522757508550942 
709	 0,528454672032218 
710	 0,533294038948828 
711	 0,537139769271143 
712	 0,54122175943213 
713	 0,545345054222702 
714	 0,549295492398124 
715	 0,553382983727872 
716	 0,557334466280469 
717	 0,560358971048873 
718	 0,563118510651287 
719	 0,565875560560063 
720	 0,568428937907932 
721	 0,570725035854455 
722	 0,572716401983096 
723	 0,574732453052055 
724	 0,576811322161836 
725	 0,578771390273639 
726	 0,580598510020786 
727	 0,582250312349214 
728	 0,583576129414048 
729	 0,584599122896616 
730	 0,585367242054858 
731	 0,586215903493129 
732	 0,587232377445189 
733	 0,588207547664856 
734	 0,589116097057377 
735	 0,589934100664792 
736	 0,590603417591273 
737	 0,591049216500955 
738	 0,59107289695282 
739	 0,591166207045285 
740	 0,591562171589831 
741	 0,592290176275948 
742	 0,592971835451832 
743	 0,593178622499718 
744	 0,593137051104761 
745	 0,593133772743404 
746	 0,593836010400871 
747	 0,594606376298445 
748	 0,595053776762851 
749	 0,595126069445907 
750	 0,595035858058334 
751	 0,595105298014212 
752	 0,595482723212684 
753	 0,595996038665437 
754	 0,595783353642169 
755	 0,595678509104124 
756	 0,596223299784853 
757	 0,596372258098164 
758	 0,596216496091735 
759	 0,596283513915114 
760	 0,59626148869012 
761	 0,596139526424117 
762	 0,596302169090562 
763	 0,596445998350959 
764	 0,596280524109628 
765	 0,596052664939985 
766	 0,595936806324769 
767	 0,596299765429711 
768	 0,596409384547281 
769	 0,596044061775027 
770	 0,595794436953481 
771	 0,595800125607027 
772	 0,596143523223046 
773	 0,596083349966564 
774	 0,595671885477227 
775	 0,595579026199315 
776	 0,595826860034543 
777	 0,596327684117697 
778	 0,596326778047207 
779	 0,596064511060257 
780	 0,596023979892589 
781	 0,59603667707732 
782	 0,596130419719779 
783	 0,596539976175508 
784	 0,596821705408856 
785	 0,596712713629528 
786	 0,596665587995032 
787	 0,596719317017167 
788	 0,596823586680044 
789	 0,596896812994216 
790	 0,596903145416629 
791	 0,596854660416178 
792	 0,596724177825873 
793	 0,596506221192043 
794	 0,596378655955727 
795	 0,596282256132879 
796	 0,596022156757861 
797	 0,595722678567375 
798	 0,595490470095424 
799	 0,595642696329085 
800	 0,595616184750591 
801	 0,594955303871201 
802	 0,595131514729279 
803	 0,595780995193027 
804	 0,595186578210532 
805	 0,595004141596129 
806	 0,595607771121654 
807	 0,595570027351595 
808	 0,595228074443651 
809	 0,595063437557708 
810	 0,595257924082885 
811	 0,595773853854068 
812	 0,59643679965986 
813	 0,596775576951657 
814	 0,596612260843207 
815	 0,596324080246647 
816	 0,596298924667593 
817	 0,596916120462989 
818	 0,597158739649779 
819	 0,596999899230795 
820	 0,597044169569155 
821	 0,597540384524055 
822	 0,598407032602426 
823	 0,598227019721025 
824	 0,597707024974441 
825	 0,597930520463395 
826	 0,598159325853464 
827	 0,598196178868839 
828	 0,597972216158881 
829	 0,597678825564148 
830	 0,597502137357338 
831	 0,597933898168931 
832	 0,598251813186805 
833	 0,597433558730041 
834	 0,596965979970238 
835	 0,597080642633176 
836	 0,597239870232161 
837	 0,597220985196646 
838	 0,596966675230862 
839	 0,597165100690271 
840	 0,597388411201532 
841	 0,596942919212146 
842	 0,59653141684681 
843	 0,596262194346246 
844	 0,59578889009548 
845	 0,595638579068249 
846	 0,596048389830776 
847	 0,596527242666526 
848	 0,59678797737837 
849	 0,596535028777659 
850	 0,596505055201332 
851	 0,596797979672489 
852	 0,597043782366019 
853	 0,597334379065208 
854	 0,597614573600352 
855	 0,59725819019525 
856	 0,596718300869185 
857	 0,596687859600054 
858	 0,597039432230119 
859	 0,59760090352982 
860	 0,598020288384186 
861	 0,597918688264864 
862	 0,597265118140128 
863	 0,597217851008188 
864	 0,597716207344419 
865	 0,598483641157582 
866	 0,598809081407715 
867	 0,5985927584445 
868	 0,598152835571864 
869	 0,597789881508445 
870	 0,597717256849672 
871	 0,598051104643686 
872	 0,598479274896056 
873	 0,598604351527417 
874	 0,597921839190222 
875	 0,596951088846996 
876	 0,597505302166694 
877	 0,59790201619776 
878	 0,597541114537151 
879	 0,597411421304926 
880	 0,597359168438068 
881	 0,597169001601245 
882	 0,597497899579591 
883	 0,5979343339983 
884	 0,597029267529828 
885	 0,596296326647214 
886	 0,596273742244679 
887	 0,596517356441696 
888	 0,597048184769022 
889	 0,59783124149341 
890	 0,598067830173523 
891	 0,597882233739356 
892	 0,597908307643109 
893	 0,597780920644761 
894	 0,597521177052775 
895	 0,59765743948758 
896	 0,597794523694221 
897	 0,597623776149975 
898	 0,597366699909388 
899	 0,597318758136018 
900	 0,597943970468874 
901	 0,598348009259112 
902	 0,598174158604978 
903	 0,597093004672124 
904	 0,596768962158609 
905	 0,597962284208419 
906	 0,597976452491838 
907	 0,597333849842855 
908	 0,597263840671822 
909	 0,596814671079783 
910	 0,596182695894229 
911	 0,596591027668404 
912	 0,597189394996821 
913	 0,597479668974137 
914	 0,597180804412127 
915	 0,596731097167073 
916	 0,596663462186848 
917	 0,59715919985417 
918	 0,597723251350873 
919	 0,596959049831576 
920	 0,596690996272564 
921	 0,597219122168884 
922	 0,596634137815528 
923	 0,596123750069387 
924	 0,596647062910102 
925	 0,596925189348275 
926	 0,596860542930067 
927	 0,596644055768125 
928	 0,596805582156983 
929	 0,597113423414739 
930	 0,596089717447409 
931	 0,595102794464069 
932	 0,594926247191555 
933	 0,594835289396149 
934	 0,59459741437358 
935	 0,594038332664898 
936	 0,593999288711581 
937	 0,594441934155344 
938	 0,594768392118948 
939	 0,594751393964557 
940	 0,594254380971564 
941	 0,593229204245187 
942	 0,592463737022782 
943	 0,592584421958538 
944	 0,592575675917415 
945	 0,592416487872904 
946	 0,592439409554181 
947	 0,591839148923144 
948	 0,590686252372933 
949	 0,589950999234759 
950	 0,590151244990727 
951	 0,591085702212471 
952	 0,589457274950496 
953	 0,587084596074333 
954	 0,58656478286767 
955	 0,587251141289903 
956	 0,588018769648604 
957	 0,586242897167466 
958	 0,585108495647059 
959	 0,585377812342128 
960	 0,584967536854019 
961	 0,584643670049967 
962	 0,584914455693585 
963	 0,584578700843346 
964	 0,583949089439539 
965	 0,583750876430362 
966	 0,583285804185723 
967	 0,58264425945949 
968	 0,582760694595949 
969	 0,58199700969394 
970	 0,580265503524766 
971	 0,580976407143298 
972	 0,58241191400418 
973	 0,582733287289035 
974	 0,581769153952414 
975	 0,580861024507676 
976	 0,582449313008706 
977	 0,583753246692375 
978	 0,583817731401608 
979	 0,582226691588651 
980	 0,58132124306405 
981	 0,582151587717771 
982	 0,583157692085528 
983	 0,583417361096985 
984	 0,58231694929982 
985	 0,582488449383085 
986	 0,583264318185604 
987	 0,58235223266246 
988	 0,582337315147814 
989	 0,583249357322363 
990	 0,582426779262598 
991	 0,581608622446902 
992	 0,581799692401473 
993	 0,58298480415033 
994	 0,5844918641783 
995	 0,585478723539802 
996	 0,584800230490395 
997	 0,582956210151813 
998	 0,58126261470758 
999	 0,581032117290413 
1000	 0,582675964289331 
1001	 0,586263443040163 
1002	 0,587918843640637 
1003	 0,586222480643048 
1004	 0,586136208273965 
1005	 0,586395050044323 
1006	 0,585678278362585 
1007	 0,587712487546557 
1008	 0,590390044409581 
1009	 0,588962127487506 
1010	 0,587825405693545 
1011	 0,58868291783117 
1012	 0,593663862742898 
1013	 0,594049836344339 
1014	 0,588387503553192 
1015	 0,59084350365563 
1016	 0,594854427838708 
1017	 0,594409145680139 
1018	 0,593341951394084 
1019	 0,592406875229833 
1020	 0,591955969000815 
1021	 0,594749865874056 
1022	 0,598925302395334 
1023	 0,597635960270216 
1024	 0,597436360452979 
1025	 0,599405601606223 
1026	 0,597740360758074 
1027	 0,595895016144173 
1028	 0,595943266047851 
1029	 0,594328921881862 
1030	 0,594106470921156 
1031	 0,598562114439972 
1032	 0,597995425865907 
1033	 0,59495259102129 
1034	 0,598440268467296 
1035	 0,60254587616974 
1036	 0,604915795138404 
1037	 0,604138149095713 
1038	 0,600701437511559 
1039	 0,596396055723772 
1040	 0,59877332287772 
1041	 0,600455647190426 
1042	 0,595978670057655 
1043	 0,594869557587988 
1044	 0,599048532429021 
1045	 0,60852994592472 
1046	 0,607411505192248 
1047	 0,599727016855785 
1048	 0,60350004100931 
1049	 0,605870903196681 
1050	 0,60365151713444 
1051	 0,599461719757475 
1052	 0,599892615302012 
1053	 0,605431544390312 
1054	 0,598677609895403 
1055	 0,590877574474535 
1056	 0,592994661487446 
1057	 0,602224420553431 
1058	 0,610480671346467 
1059	 0,60790705306299 
1060	 0,600234977817662 
1061	 0,594985408907414 
1062	 0,605092769812431 
1063	 0,612614382274461 
1064	 0,612067651956308 
1065	 0,607988873922709 
1066	 0,596170347728327 
1067	 0,582833947053702 
1068	 0,603497411883249 
1069	 0,629401035561725 
1070	 0,636307947015781 
1071	 0,62033392229396 
1072	 0,600075386934983 
1073	 0,597276538670967 
1074	 0,602703255640758 
1075	 0,607659274946155 
