Wavelength	GRA-VIE00030.asd
325	 4,79280120019373E-02 
326	 8,55700745503423E-02 
327	 0,192223523314073 
328	 0,263183185539132 
329	 0,323447601674973 
330	 0,314749376676823 
331	 0,195037457238124 
332	 0,126821634525625 
333	 0,115477214539124 
334	 0,271746438459869 
335	 0,30740084567595 
336	 0,204769884666902 
337	 0,224734989538949 
338	 0,244635754983979 
339	 0,181440453306012 
340	 0,114277260123075 
341	 8,02176753466545E-02 
342	 0,169440181398371 
343	 0,208046259091447 
344	 0,173238106867033 
345	 0,184701197770993 
346	 0,183645904857433 
347	 0,106942331613295 
348	 0,08751475301846 
349	 0,118794354017514 
350	 0,117868367303685 
351	 9,78579265411523E-02 
352	 6,97381013116869E-02 
353	 9,80292081419718E-02 
354	 0,13403747284187 
355	 0,120494167459968 
356	 0,128521460766271 
357	 0,143674365980984 
358	 7,59725966538434E-02 
359	 4,22140992167102E-02 
360	 8,69202494782014E-02 
361	 0,104187400991417 
362	 0,10212619631084 
363	 0,111391382753337 
364	 0,109795228291463 
365	 9,82869315500667E-02 
366	 0,096412418350568 
367	 0,098028186176032 
368	 9,74880450156754E-02 
369	 7,99482793413838E-02 
370	 6,74990543998762E-02 
371	 0,101615442749461 
372	 0,111879055695658 
373	 8,83097436628757E-02 
374	 8,58721972819212E-02 
375	 8,80933004347925E-02 
376	 8,11768854844773E-02 
377	 7,38330370296062E-02 
378	 7,10405915680257E-02 
379	 8,09159311136862E-02 
380	 8,35874908164885E-02 
381	 7,60625580241889E-02 
382	 7,47153078944186E-02 
383	 6,79043239498264E-02 
384	 4,64577007983082E-02 
385	 7,01984307503471E-02 
386	 0,11175920461124 
387	 8,27702843201131E-02 
388	 6,09352851430034E-02 
389	 0,074988141093767 
390	 9,80181104677949E-02 
391	 0,108459942884767 
392	 8,41486583008146E-02 
393	 6,23870813249516E-02 
394	 5,64404600576809E-02 
395	 8,01022322381324E-02 
396	 9,51132113584114E-02 
397	 0,085356855602603 
398	 7,52348720538994E-02 
399	 6,79564283565882E-02 
400	 6,19874592310166E-02 
401	 6,58066797670437E-02 
402	 7,57126122524842E-02 
403	 7,12974987179275E-02 
404	 6,70704674861065E-02 
405	 7,18569504690559E-02 
406	 6,51205504510486E-02 
407	 5,57470868781382E-02 
408	 6,87217766308365E-02 
409	 7,32945228853102E-02 
410	 6,38025554041553E-02 
411	 0,05559742607891 
412	 5,59869872303776E-02 
413	 6,92281151071911E-02 
414	 6,58586372852731E-02 
415	 5,15868816296229E-02 
416	 5,56222639768309E-02 
417	 0,061019072918901 
418	 6,17166297622073E-02 
419	 6,38691072517666E-02 
420	 6,45641838212529E-02 
421	 5,96353836994864E-02 
422	 5,72247949217577E-02 
423	 5,88523016787247E-02 
424	 6,32011968179176E-02 
425	 6,38652417045738E-02 
426	 5,80648240833426E-02 
427	 5,81483622572615E-02 
428	 6,14898431044688E-02 
429	 6,04793680684045E-02 
430	 5,94177500333438E-02 
431	 5,97596913427203E-02 
432	 0,062434684961283 
433	 6,48645749740659E-02 
434	 0,06484613765329 
435	 6,48525707271015E-02 
436	 6,45711931641725E-02 
437	 6,15880915753569E-02 
438	 6,01763791795247E-02 
439	 6,21301027311723E-02 
440	 6,66728912994203E-02 
441	 6,92967435877703E-02 
442	 6,48480016364911E-02 
443	 6,14723870835225E-02 
444	 6,14200388892257E-02 
445	 0,064500911173564 
446	 6,78828203032512E-02 
447	 6,95063344571061E-02 
448	 6,83758274997756E-02 
449	 6,62929464275834E-02 
450	 6,67760194844679E-02 
451	 6,73071767371135E-02 
452	 6,72809983508115E-02 
453	 6,78082214786182E-02 
454	 6,73311065057419E-02 
455	 6,46109894495176E-02 
456	 6,37180853897414E-02 
457	 6,47641457325963E-02 
458	 6,57844395598127E-02 
459	 6,71920339857673E-02 
460	 6,84760209958801E-02 
461	 6,60651588763853E-02 
462	 6,34177542991024E-02 
463	 0,065493397735222 
464	 6,63165371145755E-02 
465	 6,56090001796874E-02 
466	 6,81594490426256E-02 
467	 6,95834316083473E-02 
468	 6,73382166640286E-02 
469	 6,61766666820949E-02 
470	 0,066106628336645 
471	 6,57018724191711E-02 
472	 6,49058562463515E-02 
473	 6,39940423142294E-02 
474	 0,064342919870377 
475	 6,56570853053148E-02 
476	 6,74377655448937E-02 
477	 6,72623480638666E-02 
478	 6,55558631267113E-02 
479	 6,47553108549853E-02 
480	 6,50465549849004E-02 
481	 0,066069568528701 
482	 6,42898605951025E-02 
483	 6,19973244415087E-02 
484	 6,30846348535527E-02 
485	 6,50870912684154E-02 
486	 6,66036815069632E-02 
487	 6,49720727283299E-02 
488	 6,40015378735061E-02 
489	 0,066193343305208 
490	 6,55277260107556E-02 
491	 6,27798581305712E-02 
492	 6,15259490677346E-02 
493	 6,22902188277559E-02 
494	 6,47009048226889E-02 
495	 6,53427383244222E-02 
496	 6,41454528912833E-02 
497	 6,14391435520831E-02 
498	 6,20859613410242E-02 
499	 6,49917511198324E-02 
500	 6,29648638720913E-02 
501	 6,17701887807686E-02 
502	 6,41632149077313E-02 
503	 6,43117569291857E-02 
504	 6,31059776714573E-02 
505	 6,33545596273161E-02 
506	 6,39621452690309E-02 
507	 6,44687100572342E-02 
508	 6,42429542767048E-02 
509	 6,35976559658351E-02 
510	 6,29305478445081E-02 
511	 6,34075200077075E-02 
512	 6,48788967974507E-02 
513	 6,66606470755453E-02 
514	 6,70590303126252E-02 
515	 6,58102703591628E-02 
516	 6,68136636378242E-02 
517	 6,81367580135065E-02 
518	 6,65352264517696E-02 
519	 0,066932917876027 
520	 0,069242890260573 
521	 6,83581144325558E-02 
522	 6,72956145483372E-02 
523	 6,81111456425686E-02 
524	 6,75407004988734E-02 
525	 6,62709317445758E-02 
526	 6,70856625845604E-02 
527	 0,067250324651327 
528	 6,61682874440641E-02 
529	 6,59639588365342E-02 
530	 6,61360980686534E-02 
531	 6,59361917778037E-02 
532	 0,065839655010549 
533	 6,59287202652416E-02 
534	 6,61438282184226E-02 
535	 6,63957323932702E-02 
536	 6,66660161032328E-02 
537	 6,75266329964799E-02 
538	 6,79669553769606E-02 
539	 0,065858926427758 
540	 6,51505233017099E-02 
541	 6,65655574265294E-02 
542	 6,70947389222381E-02 
543	 6,70674836714913E-02 
544	 6,69596404016627E-02 
545	 6,66618089652883E-02 
546	 6,64573562593028E-02 
547	 6,72044673448426E-02 
548	 6,74536419403129E-02 
549	 6,67050217458163E-02 
550	 6,69228322544554E-02 
551	 0,067519251933925 
552	 6,72230586417386E-02 
553	 0,067267904254562 
554	 6,76572741686034E-02 
555	 6,69846134734581E-02 
556	 6,63088485203994E-02 
557	 6,64890633178466E-02 
558	 6,65044733003203E-02 
559	 6,61979596294168E-02 
560	 6,55087080483629E-02 
561	 6,54957141469443E-02 
562	 6,63706375099683E-02 
563	 6,65087056448283E-02 
564	 6,60967303682601E-02 
565	 6,55868607316774E-02 
566	 6,53630772217883E-02 
567	 6,56180578163636E-02 
568	 6,65716419256198E-02 
569	 6,73550134458796E-02 
570	 6,73410903408748E-02 
571	 6,67004592697983E-02 
572	 6,63585670249828E-02 
573	 6,83624745080473E-02 
574	 6,94113628859486E-02 
575	 6,89042955107139E-02 
576	 7,05362906835927E-02 
577	 7,23751844293073E-02 
578	 7,20521319913431E-02 
579	 7,27943008315881E-02 
580	 7,47204837560229E-02 
581	 7,59273980312921E-02 
582	 7,66444430775866E-02 
583	 7,70063536515719E-02 
584	 7,72349546462355E-02 
585	 7,77081765627679E-02 
586	 7,90121945837657E-02 
587	 8,01230336695847E-02 
588	 0,080755729263588 
589	 8,13441039387195E-02 
590	 8,16299879062197E-02 
591	 0,081423800026936 
592	 8,19944643687274E-02 
593	 8,29979350853391E-02 
594	 8,27388284049984E-02 
595	 8,26128221672102E-02 
596	 8,32156215755061E-02 
597	 8,39610538833808E-02 
598	 8,43780941544634E-02 
599	 8,38776795948264E-02 
600	 8,33456566463215E-02 
601	 8,31080499970563E-02 
602	 8,32990367134128E-02 
603	 8,33798552199398E-02 
604	 8,29249347731806E-02 
605	 8,23123014442571E-02 
606	 0,081532175987278 
607	 8,02224065253612E-02 
608	 7,97307797235186E-02 
609	 8,01855079314435E-02 
610	 7,89762716548302E-02 
611	 0,077444105060431 
612	 7,74896219459125E-02 
613	 7,73356994903739E-02 
614	 7,67468743898961E-02 
615	 0,076403936508522 
616	 7,62164266459763E-02 
617	 7,61348087160817E-02 
618	 7,61865971368147E-02 
619	 7,63348264966687E-02 
620	 7,65531718619976E-02 
621	 7,65249260502512E-02 
622	 7,61847446951141E-02 
623	 7,58310898427019E-02 
624	 7,54427213275782E-02 
625	 7,50101671910968E-02 
626	 7,53351138116231E-02 
627	 7,61880710342642E-02 
628	 7,64699646520293E-02 
629	 7,64611012476467E-02 
630	 7,63557772167468E-02 
631	 7,65397627285025E-02 
632	 7,70291300300247E-02 
633	 7,77639494418929E-02 
634	 0,078381124059672 
635	 7,88288083439966E-02 
636	 7,94508484219382E-02 
637	 8,00591408925724E-02 
638	 8,05198219135472E-02 
639	 8,13658339745664E-02 
640	 8,24295362395358E-02 
641	 0,083041726875472 
642	 8,37121282061181E-02 
643	 8,45537486120901E-02 
644	 0,085018477899289 
645	 8,53433767998416E-02 
646	 8,59028690102395E-02 
647	 8,56727583922261E-02 
648	 8,47947726619692E-02 
649	 8,46180522459389E-02 
650	 8,46322786197733E-02 
651	 8,44442843624987E-02 
652	 8,38068930694824E-02 
653	 8,28522472291063E-02 
654	 8,18983798351474E-02 
655	 8,11586963493019E-02 
656	 8,05408341357942E-02 
657	 7,91488847678016E-02 
658	 7,75714224316223E-02 
659	 7,64522423771526E-02 
660	 7,49572786847609E-02 
661	 7,31901712968987E-02 
662	 7,19339438189712E-02 
663	 7,06387842663756E-02 
664	 6,91163806755246E-02 
665	 6,80229146949223E-02 
666	 6,72709753776545E-02 
667	 6,65994984959584E-02 
668	 6,60598691378211E-02 
669	 6,56006400201229E-02 
670	 6,49650694744578E-02 
671	 6,46990443411765E-02 
672	 6,51682118968506E-02 
673	 6,53389783601893E-02 
674	 6,50680510170011E-02 
675	 0,064417095627316 
676	 6,41210915281911E-02 
677	 6,43418640680111E-02 
678	 6,40471148087455E-02 
679	 6,38526270082773E-02 
680	 6,45670137461781E-02 
681	 6,49887809662842E-02 
682	 6,50610967883746E-02 
683	 6,55056657230292E-02 
684	 6,63108334019575E-02 
685	 6,74184342146171E-02 
686	 6,82655305308613E-02 
687	 6,92505319735126E-02 
688	 7,10899734026368E-02 
689	 7,43961271827512E-02 
690	 7,87523412662967E-02 
691	 8,14338220052631E-02 
692	 8,44037741135533E-02 
693	 8,95108098355978E-02 
694	 9,58958223483254E-02 
695	 0,103044170966749 
696	 0,110015655385621 
697	 0,117909398631809 
698	 0,127116203665569 
699	 0,137075602269568 
700	 0,147598026262386 
701	 0,158508380900924 
702	 0,169212176621373 
703	 0,179724950498439 
704	 0,190757758251559 
705	 0,201886944388402 
706	 0,212724950919496 
707	 0,222691679037197 
708	 0,231934582951904 
709	 0,24085808264284 
710	 0,249512897375641 
711	 0,257882709788328 
712	 0,265716422978492 
713	 0,272935491573563 
714	 0,279505037865257 
715	 0,285444367325337 
716	 0,290929652380051 
717	 0,296358972510724 
718	 0,301453888896 
719	 0,306091897903426 
720	 0,310164143028916 
721	 0,313923945967609 
722	 0,317723074367053 
723	 0,321255468802001 
724	 0,324393585995937 
725	 0,327009307997882 
726	 0,329367906021008 
727	 0,331609534064377 
728	 0,333336464876581 
729	 0,334931942389802 
730	 0,337172305610746 
731	 0,339065006622917 
732	 0,340363969762751 
733	 0,341402107363633 
734	 0,342552683814688 
735	 0,344088737697031 
736	 0,345319740381751 
737	 0,346263702138506 
738	 0,347303088721639 
739	 0,348262779901292 
740	 0,349082767984233 
741	 0,349780294984003 
742	 0,350369320123855 
743	 0,350869154781834 
744	 0,351535394775794 
745	 0,352294865837831 
746	 0,352645628495933 
747	 0,353378452373628 
748	 0,354715106577222 
749	 0,355002547877375 
750	 0,354898759417209 
751	 0,355730817597842 
752	 0,356029472878193 
753	 0,355778210438947 
754	 0,356414329961228 
755	 0,357288120764221 
756	 0,35789781042867 
757	 0,358391063335176 
758	 0,35870781093277 
759	 0,358662133491476 
760	 0,358945041485247 
761	 0,359598671520757 
762	 0,359615651496454 
763	 0,359493104972206 
764	 0,359749813333066 
765	 0,360289494069373 
766	 0,360916698228727 
767	 0,361196388410266 
768	 0,361336028667132 
769	 0,36147597921961 
770	 0,361913580508229 
771	 0,362456644275262 
772	 0,362846520039367 
773	 0,363063884448931 
774	 0,363197215007643 
775	 0,363532935888579 
776	 0,363919947791552 
777	 0,364245530686441 
778	 0,364316597007478 
779	 0,364321258143967 
780	 0,364564481442621 
781	 0,364701943191116 
782	 0,364760468503782 
783	 0,365146546661618 
784	 0,365651488786704 
785	 0,366048146423364 
786	 0,36566628351509 
787	 0,365132721743404 
788	 0,365705267612723 
789	 0,366425082144592 
790	 0,366906485664196 
791	 0,366873016364491 
792	 0,366800744038836 
793	 0,367074983874959 
794	 0,367457439529307 
795	 0,367735578053151 
796	 0,367503857289027 
797	 0,367574937206654 
798	 0,368091944045436 
799	 0,368283815496121 
800	 0,368347580736358 
801	 0,368502334068277 
802	 0,368613162527623 
803	 0,368803105885381 
804	 0,369474257058628 
805	 0,369932279503497 
806	 0,369992492163524 
807	 0,370253029852708 
808	 0,37052462835713 
809	 0,370583221084329 
810	 0,370946884560777 
811	 0,371530797890061 
812	 0,371826162639756 
813	 0,371956528087936 
814	 0,372003414130051 
815	 0,37214343192293 
816	 0,372460053385273 
817	 0,373013077747052 
818	 0,373426596183214 
819	 0,373616305812878 
820	 0,373587118861375 
821	 0,373807137241294 
822	 0,374399023968697 
823	 0,374497666952511 
824	 0,374499092613987 
825	 0,375011249120732 
826	 0,375482467804768 
827	 0,375671144524675 
828	 0,375198870894815 
829	 0,375020144844622 
830	 0,37558794238765 
831	 0,376181068265402 
832	 0,376598344307964 
833	 0,37669231342754 
834	 0,377007288406618 
835	 0,377374032695835 
836	 0,376695500648473 
837	 0,376335174733733 
838	 0,376961413901906 
839	 0,377532099330086 
840	 0,377966095955781 
841	 0,378329000139961 
842	 0,378301555876743 
843	 0,378068773702303 
844	 0,378483214487547 
845	 0,378859653772079 
846	 0,378921006457371 
847	 0,379602881095163 
848	 0,380287659811006 
849	 0,379993368896129 
850	 0,379992642360122 
851	 0,380404527788557 
852	 0,380572655417952 
853	 0,380288006592476 
854	 0,379640975018493 
855	 0,380135003856427 
856	 0,380918913659861 
857	 0,380619729067584 
858	 0,380764354336039 
859	 0,381385786774229 
860	 0,381364899134673 
861	 0,381350399690104 
862	 0,381649699467199 
863	 0,381896869602344 
864	 0,38228871430191 
865	 0,383105219469935 
866	 0,383611733054696 
867	 0,383785984058398 
868	 0,384173335822715 
869	 0,384448826085025 
870	 0,384508509570934 
871	 0,384650376941822 
872	 0,384912733335444 
873	 0,385289055312774 
874	 0,385304275701436 
875	 0,385107433737443 
876	 0,385416307470344 
877	 0,385837144667614 
878	 0,386213149140242 
879	 0,386715560191644 
880	 0,386933640167466 
881	 0,386468423041495 
882	 0,386114646617023 
883	 0,386222841033926 
884	 0,387395592578752 
885	 0,3875671712707 
886	 0,386476671787506 
887	 0,387166358785572 
888	 0,388033925509026 
889	 0,387529897297305 
890	 0,387784083463073 
891	 0,38860694485422 
892	 0,38878097392636 
893	 0,388754754042872 
894	 0,388741416282644 
895	 0,389111881505455 
896	 0,389423671425457 
897	 0,389358010651378 
898	 0,389410256218875 
899	 0,389664441280896 
900	 0,390123007410748 
901	 0,390609880300578 
902	 0,390964385273926 
903	 0,390847467780359 
904	 0,39079178531207 
905	 0,391119142782838 
906	 0,391591364901124 
907	 0,391689091006943 
908	 0,390754667832803 
909	 0,391130846805652 
910	 0,392620684394572 
911	 0,392823506336139 
912	 0,392180601249654 
913	 0,391176250161468 
914	 0,391493400492859 
915	 0,39213784989737 
916	 0,391886781206178 
917	 0,392333428197362 
918	 0,392894162943149 
919	 0,391181436908419 
920	 0,390464615296064 
921	 0,391503737134419 
922	 0,391954519033484 
923	 0,391833039726756 
924	 0,391316320316469 
925	 0,391248169517317 
926	 0,391423751363958 
927	 0,391246153760926 
928	 0,390046646641399 
929	 0,388455509961253 
930	 0,389455476260287 
931	 0,390502197041533 
932	 0,390145321634485 
933	 0,389766194899733 
934	 0,389286848753369 
935	 0,388465971553082 
936	 0,388621985268824 
937	 0,389120287961326 
938	 0,387179796339138 
939	 0,386155930841539 
940	 0,386836136109025 
941	 0,386132334218295 
942	 0,385043447811542 
943	 0,384618457804824 
944	 0,384613115617781 
945	 0,384796754690165 
946	 0,38485484295348 
947	 0,383998992891159 
948	 0,382236688772393 
949	 0,380546721047621 
950	 0,378956529647423 
951	 0,37751759799282 
952	 0,376189785478314 
953	 0,375141390681248 
954	 0,374535076949663 
955	 0,373077553533102 
956	 0,371491859289123 
957	 0,372484344003237 
958	 0,372446537390293 
959	 0,370664562225838 
960	 0,370211867489609 
961	 0,3695935350116 
962	 0,367801527220181 
963	 0,366781017965553 
964	 0,366781446858807 
965	 0,367696099092532 
966	 0,369398931287049 
967	 0,370747173689377 
968	 0,368403556134653 
969	 0,367430637702652 
970	 0,36931653206773 
971	 0,369125902556064 
972	 0,36823210410496 
973	 0,36818844397448 
974	 0,368570710079095 
975	 0,369200642808741 
976	 0,36988871292684 
977	 0,369148194579885 
978	 0,367503000504513 
979	 0,36810371135637 
980	 0,369525855645522 
981	 0,370777675168295 
982	 0,370848930652821 
983	 0,369809943270043 
984	 0,368066084185055 
985	 0,368042065986758 
986	 0,369388003872592 
987	 0,370462568166782 
988	 0,370884675652985 
989	 0,371062508888311 
990	 0,373268350463291 
991	 0,374615107978881 
992	 0,37392728659656 
993	 0,374072049672156 
994	 0,374724290180552 
995	 0,375269477516985 
996	 0,375215276205688 
997	 0,3756391468215 
998	 0,378814911012217 
999	 0,381085065688836 
1000	 0,381568011775094 
1001	 0,381485288559265 
1002	 0,3813759270948 
1003	 0,381538022595426 
1004	 0,381275758882965 
1005	 0,382186008648949 
1006	 0,385330872158647 
1007	 0,384542883967233 
1008	 0,381758693009338 
1009	 0,382251360216713 
1010	 0,382823437670867 
1011	 0,383664776333636 
1012	 0,388581414928112 
1013	 0,389969094037738 
1014	 0,385948028650302 
1015	 0,385461817307437 
1016	 0,387906070003259 
1017	 0,391541921042699 
1018	 0,390429757565634 
1019	 0,38720509037033 
1020	 0,387192082940297 
1021	 0,390642340534438 
1022	 0,395602491828301 
1023	 0,396848486687791 
1024	 0,394905081985797 
1025	 0,391734961039948 
1026	 0,394748158334722 
1027	 0,400222015905425 
1028	 0,40429577902794 
1029	 0,400588791297436 
1030	 0,395464832525227 
1031	 0,396904723076281 
1032	 0,396612716690924 
1033	 0,394583901940923 
1034	 0,393988658425301 
1035	 0,393889344565636 
1036	 0,394440014060585 
1037	 0,396470853210873 
1038	 0,401250823270649 
1039	 0,407061579797293 
1040	 0,40431636585122 
1041	 0,397295315879145 
1042	 0,391223839309913 
1043	 0,393137042384589 
1044	 0,399104912291081 
1045	 0,402595900332434 
1046	 0,401305323999633 
1047	 0,399518956124101 
1048	 0,409565192379925 
1049	 0,407474154019895 
1050	 0,39381869599144 
1051	 0,40203049803045 
1052	 0,408939514078246 
1053	 0,404560248341329 
1054	 0,401395950283622 
1055	 0,402741040330999 
1056	 0,409712452394495 
1057	 0,412399348779309 
1058	 0,411367739648109 
1059	 0,409969834043492 
1060	 0,417386322432642 
1061	 0,42442100205137 
1062	 0,406340281454698 
1063	 0,404754522139795 
1064	 0,422078208107126 
1065	 0,415966034605209 
1066	 0,412221327739668 
1067	 0,418895374775172 
1068	 0,416312886812053 
1069	 0,411614948818001 
1070	 0,410918452451613 
1071	 0,410249037158044 
1072	 0,40998214203704 
1073	 0,411015006503455 
1074	 0,413761594649596 
1075	 0,417041098172182 
