Wavelength	GRA-VAN00811.asd
325	 0,247613727296061 
326	 0,311260624522878 
327	 0,410836367037987 
328	 0,436814628091771 
329	 0,386878199426632 
330	 0,362792245611116 
331	 0,454581323145661 
332	 0,38826315730676 
333	 0,260869565217391 
334	 0,237302835241511 
335	 0,280879971142137 
336	 0,343459876456039 
337	 0,357792482726616 
338	 0,347432330716099 
339	 0,325577131591917 
340	 0,317456883837093 
341	 0,320961334925694 
342	 0,316309658432482 
343	 0,294665108015133 
344	 0,272791115603515 
345	 0,292911364656882 
346	 0,324991951645725 
347	 0,327546127527742 
348	 0,286026713203319 
349	 0,224260827506265 
350	 0,227090227448253 
351	 0,27578556658298 
352	 0,328176174943416 
353	 0,275857851021732 
354	 0,205240263755025 
355	 0,225345536189392 
356	 0,277123917507046 
357	 0,319807739287798 
358	 0,288779662523758 
359	 0,265162959090005 
360	 0,287032793718661 
361	 0,297452236347023 
362	 0,293324698814085 
363	 0,275487554179706 
364	 0,278691538646385 
365	 0,301458441312815 
366	 0,301041866710044 
367	 0,30058949833261 
368	 0,312604002338097 
369	 0,320171872084705 
370	 0,314621058586391 
371	 0,281075648189163 
372	 0,263756730510095 
373	 0,273092779943456 
374	 0,275972909298313 
375	 0,284090345968529 
376	 0,303225635578708 
377	 0,305915179981696 
378	 0,292686172981909 
379	 0,26981933844673 
380	 0,274422650181613 
381	 0,307691162692234 
382	 0,31589937598404 
383	 0,312242262449451 
384	 0,312153419330091 
385	 0,314971518362856 
386	 0,312973970220188 
387	 0,281802792731193 
388	 0,268092120785059 
389	 0,288195372577991 
390	 0,303316826779591 
391	 0,306847072759956 
392	 0,29566105812254 
393	 0,294445888535511 
394	 0,302880276240483 
395	 0,301264817262325 
396	 0,302207703962556 
397	 0,311117292668319 
398	 0,321511868590984 
399	 0,322478653613016 
400	 0,29881725122317 
401	 0,285939244161892 
402	 0,291180599570958 
403	 0,301402023790863 
404	 0,307002341501563 
405	 0,302268027017898 
406	 0,306260368628739 
407	 0,313507493759984 
408	 0,308900176337828 
409	 0,303231515955886 
410	 0,299389607304826 
411	 0,292793500333573 
412	 0,289721536259395 
413	 0,295518343150574 
414	 0,296945929006126 
415	 0,294829989029701 
416	 0,297834796186992 
417	 0,299839592446447 
418	 0,299316236830623 
419	 0,30323670606846 
420	 0,307331988612562 
421	 0,305963911278639 
422	 0,304430281396645 
423	 0,303122854011593 
424	 0,298408488703094 
425	 0,296031605829533 
426	 0,299067628310235 
427	 0,302881926775892 
428	 0,304579940501901 
429	 0,300159857529948 
430	 0,298969111507222 
431	 0,30194514043388 
432	 0,299371626051948 
433	 0,297038524776155 
434	 0,299834511146474 
435	 0,298979700105384 
436	 0,295258885210061 
437	 0,294548388545617 
438	 0,295207778820649 
439	 0,296542301975459 
440	 0,29785000123965 
441	 0,299106738286385 
442	 0,30039433867491 
443	 0,300822118013079 
444	 0,300850323385099 
445	 0,303313463923814 
446	 0,302771237813984 
447	 0,296984472346727 
448	 0,297334534525417 
449	 0,301397735003514 
450	 0,301733614019623 
451	 0,301583474431759 
452	 0,301800424693993 
453	 0,302419084965753 
454	 0,302558364836864 
455	 0,301551457086963 
456	 0,302346448015261 
457	 0,304338869210357 
458	 0,304475565519402 
459	 0,304779778896335 
460	 0,305452799471022 
461	 0,302227094633058 
462	 0,299210611492575 
463	 0,302218224897682 
464	 0,303637863144499 
465	 0,302670103703555 
466	 0,303744531078968 
467	 0,305419276072081 
468	 0,306617884730096 
469	 0,306633396025169 
470	 0,306035160597194 
471	 0,306264181079099 
472	 0,305541335873665 
473	 0,303751082843335 
474	 0,302377833342141 
475	 0,303371357549104 
476	 0,308249299578739 
477	 0,310313800216065 
478	 0,309077689583554 
479	 0,307096925226603 
480	 0,306211938009819 
481	 0,307290117966591 
482	 0,308456570744553 
483	 0,309136867459115 
484	 0,308907331908842 
485	 0,307882195177247 
486	 0,306604954607015 
487	 0,306573415018204 
488	 0,307482972147899 
489	 0,308802387828504 
490	 0,307271709933969 
491	 0,305077956914101 
492	 0,308636849802916 
493	 0,310879157794004 
494	 0,309688270488923 
495	 0,308435039475572 
496	 0,307032734704336 
497	 0,305125507732878 
498	 0,305229723046851 
499	 0,307070265001101 
500	 0,308086998777359 
501	 0,30871428939186 
502	 0,309181585289853 
503	 0,309654873895379 
504	 0,31006871206542 
505	 0,310206122392116 
506	 0,310650263221062 
507	 0,311577817266769 
508	 0,313194620491511 
509	 0,313625545055845 
510	 0,311438024917171 
511	 0,311582743366167 
512	 0,313276110888799 
513	 0,311919988989923 
514	 0,310324149752098 
515	 0,309867832206208 
516	 0,311173823786086 
517	 0,312699880354358 
518	 0,312256886756224 
519	 0,31234406161456 
520	 0,313427488202828 
521	 0,314924800945919 
522	 0,315616419944189 
523	 0,314748338971959 
524	 0,314200952211588 
525	 0,314408910085099 
526	 0,315786145150041 
527	 0,316147858258901 
528	 0,315051656888856 
529	 0,314934288905666 
530	 0,314949137208532 
531	 0,313942764600978 
532	 0,313744514872326 
533	 0,314246634116077 
534	 0,313753903454148 
535	 0,313310051574529 
536	 0,313500890073816 
537	 0,313792901194836 
538	 0,313969675873628 
539	 0,313706278123307 
540	 0,314120248491434 
541	 0,315112234766267 
542	 0,314557023408132 
543	 0,313700906076193 
544	 0,313840409596949 
545	 0,314141005122242 
546	 0,314437371034254 
547	 0,314697980871772 
548	 0,315183854073904 
549	 0,315882265652592 
550	 0,315791415900109 
551	 0,315454845770384 
552	 0,315907464316344 
553	 0,3159389681836 
554	 0,3153568105266 
555	 0,314704700418975 
556	 0,314631751199506 
557	 0,315527127505718 
558	 0,315365988342539 
559	 0,314388853127666 
560	 0,314112983779178 
561	 0,314083425225475 
562	 0,31410763252891 
563	 0,313908814217853 
564	 0,313627124031989 
565	 0,313480935847547 
566	 0,313505155471771 
567	 0,313726813693735 
568	 0,314223860525683 
569	 0,314547780091293 
570	 0,314456183048322 
571	 0,314747525135727 
572	 0,315636151959744 
573	 0,317350892131417 
574	 0,318923165519577 
575	 0,319926841981082 
576	 0,320464232470112 
577	 0,320964856183699 
578	 0,321878781138868 
579	 0,322120668413099 
580	 0,321883050587816 
581	 0,322454269027529 
582	 0,32336457064959 
583	 0,324393739955905 
584	 0,325976672249094 
585	 0,32761992106525 
586	 0,32845217249664 
587	 0,328868714245878 
588	 0,329137367623932 
589	 0,329828840986342 
590	 0,330599550003216 
591	 0,331124768529315 
592	 0,331948727095271 
593	 0,332875049035986 
594	 0,333154760719551 
595	 0,333097505008588 
596	 0,332922349522392 
597	 0,333042738579524 
598	 0,333346451648136 
599	 0,333603983676804 
600	 0,333478522239075 
601	 0,333015232677228 
602	 0,332829967186921 
603	 0,332687428159373 
604	 0,332368574094862 
605	 0,331611165549823 
606	 0,330799342610758 
607	 0,331077987584338 
608	 0,330831393100574 
609	 0,329664541274185 
610	 0,329111629874003 
611	 0,328994052934291 
612	 0,328923687126108 
613	 0,328496611523745 
614	 0,327720593424508 
615	 0,326952552820175 
616	 0,326565481075073 
617	 0,326789288593065 
618	 0,327399500213655 
619	 0,327792296636747 
620	 0,326849257454188 
621	 0,326247914777619 
622	 0,326473968301723 
623	 0,326800658706852 
624	 0,32711811559064 
625	 0,327356344310159 
626	 0,327632961408739 
627	 0,327802416352514 
628	 0,327296653649947 
629	 0,327153345448235 
630	 0,327822698204232 
631	 0,328278941025637 
632	 0,328465956572115 
633	 0,328487716222862 
634	 0,328799329748951 
635	 0,329495396067082 
636	 0,33030121789683 
637	 0,331038234330355 
638	 0,331563569168403 
639	 0,331950475817813 
640	 0,33232628904443 
641	 0,33284848452231 
642	 0,334045783691074 
643	 0,335768084589948 
644	 0,33577977694977 
645	 0,335316391630458 
646	 0,336238745745343 
647	 0,336604258391869 
648	 0,335965632529714 
649	 0,33448609610449 
650	 0,33315585214848 
651	 0,332666866621687 
652	 0,332622967401054 
653	 0,332620807621324 
654	 0,332077949457099 
655	 0,330929112596833 
656	 0,329318266632647 
657	 0,328039355160894 
658	 0,32711735636447 
659	 0,326478441206989 
660	 0,325010510728578 
661	 0,323034137809928 
662	 0,322207796513449 
663	 0,321415387946107 
664	 0,320217858859739 
665	 0,319717058336379 
666	 0,319383125500375 
667	 0,31819151511875 
668	 0,317464026574177 
669	 0,317475262155003 
670	 0,317694598629409 
671	 0,318026404038034 
672	 0,318336824147603 
673	 0,317929001258151 
674	 0,317264667257537 
675	 0,3177583294813 
676	 0,318146829988492 
677	 0,318053106925121 
678	 0,31810421691161 
679	 0,318433338412453 
680	 0,319122945675615 
681	 0,318761608018921 
682	 0,317856841001643 
683	 0,319113709074995 
684	 0,320530104722893 
685	 0,320995315017043 
686	 0,321715585655118 
687	 0,322878335194394 
688	 0,324539248172813 
689	 0,32618536680951 
690	 0,327895152665182 
691	 0,330502858221326 
692	 0,334258637226099 
693	 0,339268810967843 
694	 0,344057776737522 
695	 0,348799525905858 
696	 0,354713070723367 
697	 0,361276912453892 
698	 0,368253711407662 
699	 0,375441620163672 
700	 0,383143269428305 
701	 0,391760030821744 
702	 0,399975819762898 
703	 0,407661068808222 
704	 0,415685725751519 
705	 0,423871013671981 
706	 0,431997454648926 
707	 0,43949194815068 
708	 0,446431851114502 
709	 0,45307165345229 
710	 0,459650718235665 
711	 0,466133913125789 
712	 0,471903293642372 
713	 0,477204271932775 
714	 0,482287722451594 
715	 0,487076290929056 
716	 0,491639480071877 
717	 0,496198820176849 
718	 0,500263904983552 
719	 0,503661623629732 
720	 0,506670653249753 
721	 0,509501182719334 
722	 0,512384326452427 
723	 0,514764397589452 
724	 0,516756039755076 
725	 0,519166746805602 
726	 0,521437754231384 
727	 0,523260431045401 
728	 0,525152252888403 
729	 0,526867830129452 
730	 0,527843847016147 
731	 0,52875624112459 
732	 0,529832981995289 
733	 0,530998162391047 
734	 0,53214989824306 
735	 0,533178534942116 
736	 0,533819151933344 
737	 0,534243889920963 
738	 0,535001399442177 
739	 0,535681418794728 
740	 0,536143029546748 
741	 0,536488518489038 
742	 0,536858114651659 
743	 0,537395927147015 
744	 0,537735780599989 
745	 0,537948548570673 
746	 0,538532767527709 
747	 0,539055911600613 
748	 0,539279251584235 
749	 0,539277396748072 
750	 0,539316036804043 
751	 0,539776622084425 
752	 0,540249366353541 
753	 0,540597355947164 
754	 0,540763117082355 
755	 0,541062761021399 
756	 0,541668081638197 
757	 0,541883321283577 
758	 0,541829232793064 
759	 0,541955995193532 
760	 0,542238003439644 
761	 0,542620119475839 
762	 0,542801631424598 
763	 0,542978161123006 
764	 0,543332652409463 
765	 0,543593567807092 
766	 0,54364205470205 
767	 0,543252286168824 
768	 0,543132209760424 
769	 0,543507057035057 
770	 0,543722354636385 
771	 0,544020458038424 
772	 0,544726385963059 
773	 0,544776626485737 
774	 0,544251735579538 
775	 0,544097665495181 
776	 0,544342560172109 
777	 0,544900463188575 
778	 0,54491727805557 
779	 0,544703935587826 
780	 0,54487313819178 
781	 0,544680074955447 
782	 0,544240080290718 
783	 0,544684155782665 
784	 0,544976320119365 
785	 0,54454338325976 
786	 0,544711248079553 
787	 0,545255540932543 
788	 0,545446690552905 
789	 0,545623407446936 
790	 0,545829531923216 
791	 0,545900327668978 
792	 0,545898814958313 
793	 0,54589826023445 
794	 0,546101970025102 
795	 0,546322539654118 
796	 0,54607075981101 
797	 0,545918156283671 
798	 0,546038063370701 
799	 0,546239624371652 
800	 0,54640357320537 
801	 0,54643022638317 
802	 0,546433485226625 
803	 0,54645476586573 
804	 0,546537073663955 
805	 0,546586586165298 
806	 0,546640676304202 
807	 0,547096068274225 
808	 0,547559054920951 
809	 0,547604342625756 
810	 0,547789610429897 
811	 0,548160845020459 
812	 0,548497075622922 
813	 0,548925056341579 
814	 0,549395254185848 
815	 0,549377658888704 
816	 0,549188484857734 
817	 0,549251537517901 
818	 0,549182016465508 
819	 0,549109637558736 
820	 0,549650442477876 
821	 0,550231672409754 
822	 0,550500658412877 
823	 0,550166069329563 
824	 0,549884932759981 
825	 0,550511080071417 
826	 0,55108820295366 
827	 0,551333098165972 
828	 0,551160694485899 
829	 0,550982136804652 
830	 0,551008226663765 
831	 0,550937922251204 
832	 0,550940010448991 
833	 0,551273818156911 
834	 0,55166615101362 
835	 0,551946924177666 
836	 0,551808617376394 
837	 0,55183519721407 
838	 0,552223653626419 
839	 0,551942081878485 
840	 0,55137116069338 
841	 0,551197790282225 
842	 0,551521738786501 
843	 0,552039157269943 
844	 0,551609302079657 
845	 0,55133613380216 
846	 0,551756145516494 
847	 0,552021901453403 
848	 0,552073289359674 
849	 0,551969996185746 
850	 0,551812581693647 
851	 0,551718470479367 
852	 0,551949851396813 
853	 0,552074728159499 
854	 0,551918490705396 
855	 0,552066772655008 
856	 0,552286118691363 
857	 0,552175680246857 
858	 0,552211746666168 
859	 0,552359815422561 
860	 0,552044410436405 
861	 0,552163323227099 
862	 0,552994066335573 
863	 0,553078802332201 
864	 0,55279403183157 
865	 0,55283183474288 
866	 0,552966917497088 
867	 0,553118628548953 
868	 0,55313277894731 
869	 0,553291373083392 
870	 0,553647644892915 
871	 0,553662139307346 
872	 0,553547917358146 
873	 0,553622843365627 
874	 0,553919863791825 
875	 0,554299567386403 
876	 0,554354137323101 
877	 0,554324226444253 
878	 0,554320700961636 
879	 0,554344112185286 
880	 0,554410440629246 
881	 0,554546209410387 
882	 0,555123809597438 
883	 0,555683573182136 
884	 0,554726817947396 
885	 0,554481726628757 
886	 0,55546985901977 
887	 0,555784572593308 
888	 0,555766909398836 
889	 0,555835473784506 
890	 0,555773878261615 
891	 0,555785767184082 
892	 0,556422800298256 
893	 0,556486290961608 
894	 0,555931435529352 
895	 0,556499208137357 
896	 0,556901966940792 
897	 0,556285927224138 
898	 0,556953008889586 
899	 0,558306106916014 
900	 0,558701926484123 
901	 0,558619928186672 
902	 0,558317567035793 
903	 0,558304342262571 
904	 0,558390950449824 
905	 0,558448129717248 
906	 0,558495997417633 
907	 0,558384520009562 
908	 0,557916241585389 
909	 0,557986308361344 
910	 0,558578585145111 
911	 0,558980850490714 
912	 0,558880177929866 
913	 0,558307695744898 
914	 0,558491431705458 
915	 0,558943371137631 
916	 0,559045618886795 
917	 0,560108708784689 
918	 0,561386964097867 
919	 0,560399343903682 
920	 0,559493451917599 
921	 0,559366053582124 
922	 0,55901298216622 
923	 0,558800373463697 
924	 0,559043163890724 
925	 0,559559495263527 
926	 0,559845673536771 
927	 0,559081280094649 
928	 0,558580374784226 
929	 0,558727656211194 
930	 0,559455628859019 
931	 0,559609601152793 
932	 0,558701800530975 
933	 0,558533792271619 
934	 0,558627354275162 
935	 0,558127227846175 
936	 0,557912998842865 
937	 0,558003499318208 
938	 0,557804638713806 
939	 0,558257173709235 
940	 0,559263025051697 
941	 0,558484229028118 
942	 0,557613794909226 
943	 0,558062594290217 
944	 0,556953523380231 
945	 0,555263201295491 
946	 0,55562804394854 
947	 0,555526736882111 
948	 0,55473030781944 
949	 0,555318351534863 
950	 0,555058655441102 
951	 0,553036974022105 
952	 0,552262428320038 
953	 0,551883398300176 
954	 0,550576518459154 
955	 0,551054515161559 
956	 0,552124892452184 
957	 0,549178269999956 
958	 0,547233634050909 
959	 0,547789348823966 
960	 0,54910249327067 
961	 0,549754718770912 
962	 0,548859559694224 
963	 0,548407376501558 
964	 0,548660103566158 
965	 0,549542884946939 
966	 0,547969387915368 
967	 0,544838359888314 
968	 0,54519038150983 
969	 0,546768147712698 
970	 0,548365206730232 
971	 0,549269770007828 
972	 0,548574790173341 
973	 0,546027599353318 
974	 0,547100942905648 
975	 0,549700971826044 
976	 0,548404282198364 
977	 0,547495938175718 
978	 0,548072565191097 
979	 0,549848162270891 
980	 0,550906468871432 
981	 0,550475111593249 
982	 0,550567074384604 
983	 0,550288788463462 
984	 0,548804813862118 
985	 0,549216735605689 
986	 0,550393937801012 
987	 0,548974930511771 
988	 0,549061577825857 
989	 0,551167398845832 
990	 0,55286178826413 
991	 0,553370857435762 
992	 0,552596853262843 
993	 0,552850532053544 
994	 0,553383829402813 
995	 0,553397866715185 
996	 0,555760605283313 
997	 0,558752699493798 
998	 0,558133736634683 
999	 0,558044789429046 
1000	 0,55878834931421 
1001	 0,556871777182575 
1002	 0,556075063768466 
1003	 0,557912354177993 
1004	 0,559130171760653 
1005	 0,559739545301135 
1006	 0,560083209438757 
1007	 0,560966655084812 
1008	 0,561782801285548 
1009	 0,561222244260065 
1010	 0,561003605098525 
1011	 0,561341058958674 
1012	 0,561010035303614 
1013	 0,562064838940299 
1014	 0,565175305401822 
1015	 0,568798500496178 
1016	 0,571579398076698 
1017	 0,57233871319064 
1018	 0,570132446668079 
1019	 0,56658598559387 
1020	 0,564370229905427 
1021	 0,566971628452646 
1022	 0,572573110049135 
1023	 0,573568457930499 
1024	 0,575261769435465 
1025	 0,578363431213537 
1026	 0,578489411053473 
1027	 0,57764115444134 
1028	 0,577116285991508 
1029	 0,575262348877915 
1030	 0,574334769116819 
1031	 0,57676871862217 
1032	 0,577260035842244 
1033	 0,576909516049195 
1034	 0,580279799163465 
1035	 0,577458861480755 
1036	 0,570800004374281 
1037	 0,579300870192477 
1038	 0,582468824352803 
1039	 0,574567172921171 
1040	 0,57727675220278 
1041	 0,584165286792991 
1042	 0,588374032588221 
1043	 0,588372179422244 
1044	 0,583647045155649 
1045	 0,574868261424446 
1046	 0,573375971175614 
1047	 0,578167523393767 
1048	 0,580304737327313 
1049	 0,586253486338027 
1050	 0,593322456773544 
1051	 0,585521072861652 
1052	 0,582037135497869 
1053	 0,59070233652429 
1054	 0,593723766234944 
1055	 0,594353505018854 
1056	 0,594945329151432 
1057	 0,582053145129743 
1058	 0,573531572467748 
1059	 0,594892820640288 
1060	 0,59294530187799 
1061	 0,574053610947097 
1062	 0,579220893877103 
1063	 0,589006044464899 
1064	 0,595683478590292 
1065	 0,590198580913398 
1066	 0,583634610636442 
1067	 0,581277399766586 
1068	 0,577730016194554 
1069	 0,577479445429829 
1070	 0,583307881984735 
1071	 0,589270720279535 
1072	 0,590605675551995 
1073	 0,583857364698394 
1074	 0,581784884248435 
1075	 0,587127650504517 
