Wavelength	GRA-VAN00418.asd
325	 0,222644301179171 
326	 0,186958729184701 
327	 0,181698770667519 
328	 0,235150541899656 
329	-0,030970258931673 
330	-0,264497878359264 
331	 7,43939505255739E-02 
332	 0,25551148995118 
333	 0,323739724670694 
334	 0,179224608127365 
335	 0,049017210616401 
336	 5,43742712237792E-02 
337	 1,62352249468902E-02 
338	-1,45337682271681E-02 
339	 1,54381468703795E-02 
340	 9,61865414285229E-02 
341	 0,14790232648729 
342	 8,59821835495708E-02 
343	 5,73822214855461E-02 
344	 0,098089941189252 
345	 0,091175122186355 
346	 8,98231975547258E-02 
347	 0,141622235042762 
348	 7,41373163073654E-02 
349	-5,99187337644739E-02 
350	-1,11356045765841E-02 
351	 6,74341377020146E-02 
352	 9,76434562641459E-02 
353	 8,24232777252224E-02 
354	 0,053037388310543 
355	 4,49829979670329E-02 
356	 3,70219920659497E-02 
357	 2,80200740427176E-02 
358	 2,49746428104791E-02 
359	 1,66870582285549E-02 
360	 3,65586706026605E-03 
361	 1,45112287606288E-02 
362	 3,75128020060993E-02 
363	 5,50334975031993E-02 
364	 4,26275406134914E-02 
365	 1,14952468571346E-02 
366	 2,39203369922797E-02 
367	 5,59697610161778E-02 
368	 8,60471658711065E-02 
369	 7,70411181962311E-02 
370	 4,26572159118995E-02 
371	 0,010174672375964 
372	 1,04640286868416E-02 
373	 3,79217553698895E-02 
374	 2,62604781094214E-02 
375	 1,42612908636253E-02 
376	 3,18106721147234E-02 
377	 4,46276262561533E-02 
378	 4,61839190147189E-02 
379	 3,14994726320833E-02 
380	 1,76388844492822E-02 
381	 1,50586593079632E-02 
382	 4,47820878015086E-02 
383	 0,071811120015698 
384	 6,65256385667545E-02 
385	 6,15894962088793E-02 
386	 5,51722025038481E-02 
387	 1,98499977772744E-02 
388	 6,10314706518704E-03 
389	 2,95950166224521E-02 
390	 3,74679779547195E-02 
391	 3,22014728208456E-02 
392	 2,20256646558581E-02 
393	 1,82323031540517E-02 
394	 2,36420444483419E-02 
395	 3,96176102007136E-02 
396	 0,042987659479284 
397	 2,65480317618721E-02 
398	 3,01443923566867E-02 
399	 4,00112015052258E-02 
400	 0,029092778610475 
401	 2,93064307342947E-02 
402	 4,02666605941225E-02 
403	 3,28797886258323E-02 
404	 1,70272755896905E-02 
405	 2,70700125309257E-03 
406	 1,17101656496703E-02 
407	 3,04864659368203E-02 
408	 2,95171359583507E-02 
409	 2,69134010859396E-02 
410	 2,70031099645917E-02 
411	 2,51006165194675E-02 
412	 2,13809160771144E-02 
413	 1,67728179072536E-02 
414	 2,24303978325774E-02 
415	 3,07843438267501E-02 
416	 1,70560395205048E-02 
417	 7,47670010134679E-03 
418	 1,20141772185419E-02 
419	 1,79188685931904E-02 
420	 2,27512353686793E-02 
421	 2,54384373564333E-02 
422	 2,51113328681744E-02 
423	 2,22963566056947E-02 
424	 0,018769243734899 
425	 1,70711911296042E-02 
426	 1,85811318899876E-02 
427	 2,13942107796547E-02 
428	 2,30416250591995E-02 
429	 1,98045012706462E-02 
430	 1,75171069483554E-02 
431	 1,71596919454787E-02 
432	 1,37972237022267E-02 
433	 1,34202279619747E-02 
434	 2,03787420110271E-02 
435	 1,82256355106685E-02 
436	 0,010474808598149 
437	 1,42743774290809E-02 
438	 0,017126869828944 
439	 0,014797101508484 
440	 1,29715440439276E-02 
441	 1,25304184292661E-02 
442	 1,39163145232186E-02 
443	 1,63157661237304E-02 
444	 1,83812221519905E-02 
445	 1,64996683308313E-02 
446	 1,54926604363715E-02 
447	 1,79826100326814E-02 
448	 1,86255312837168E-02 
449	 1,81435641330518E-02 
450	 1,93365568333245E-02 
451	 1,97340640909714E-02 
452	 1,89707562622696E-02 
453	 1,86855330446612E-02 
454	 1,91049428403957E-02 
455	 2,03039159189162E-02 
456	 2,15928478594011E-02 
457	 2,15072520896576E-02 
458	 1,59323665096573E-02 
459	 1,41378849248978E-02 
460	 1,89333133796466E-02 
461	 1,97753002665905E-02 
462	 1,80054521853323E-02 
463	 1,67628172199169E-02 
464	 1,52967653674054E-02 
465	 0,01408006315795 
466	 1,45616454872569E-02 
467	 1,59269652018305E-02 
468	 1,76875513756855E-02 
469	 2,12394071035411E-02 
470	 2,40048869791754E-02 
471	 2,06935575914615E-02 
472	 1,78355951455984E-02 
473	 1,72984645888226E-02 
474	 1,58994015139177E-02 
475	 1,57174797944796E-02 
476	 1,87297180174551E-02 
477	 1,97412624836348E-02 
478	 1,87643769107798E-02 
479	 1,90275596447976E-02 
480	 1,88774217625837E-02 
481	 1,79752331137715E-02 
482	 1,93255553289797E-02 
483	 2,06719701621623E-02 
484	 1,82535311549929E-02 
485	 1,77531553810442E-02 
486	 1,94413757288096E-02 
487	 1,80410228336245E-02 
488	 1,69931809735138E-02 
489	 1,86588522614193E-02 
490	 1,85832754152447E-02 
491	 1,71231324193225E-02 
492	 1,66087392253586E-02 
493	 1,67360631163909E-02 
494	 1,73166680899673E-02 
495	 1,77485664856635E-02 
496	 1,70086212581897E-02 
497	 0,014120655072584 
498	 1,48613033072077E-02 
499	 1,85769344604535E-02 
500	 1,92594308414406E-02 
501	 1,88081957415485E-02 
502	 1,82930961711649E-02 
503	 1,74291909765582E-02 
504	 1,69077396754045E-02 
505	 1,78579521090407E-02 
506	 1,92462114966288E-02 
507	 2,02901085977748E-02 
508	 1,94542418464184E-02 
509	 1,78944439639467E-02 
510	 1,67924754585714E-02 
511	 1,70771067612006E-02 
512	 1,79028948045623E-02 
513	 1,64812650542309E-02 
514	 1,54433950882977E-02 
515	 1,59941034114143E-02 
516	 1,79644918967905E-02 
517	 1,98875429610467E-02 
518	 1,98777880578382E-02 
519	 1,89758290134956E-02 
520	 0,017746186434652 
521	 1,70098489777741E-02 
522	 1,64793230658295E-02 
523	 1,60423737926585E-02 
524	 1,68146258646103E-02 
525	 1,83285751109686E-02 
526	 1,95467173322983E-02 
527	 1,90864578848539E-02 
528	 1,69848627436539E-02 
529	 1,63918631718274E-02 
530	 1,68588267205478E-02 
531	 1,75501094589146E-02 
532	 1,75495239210594E-02 
533	 1,67734594346503E-02 
534	 1,56560835370045E-02 
535	 1,52576494215076E-02 
536	 1,60888262070334E-02 
537	 1,65995219958257E-02 
538	 1,67823790639318E-02 
539	 0,016990962788465 
540	 1,79183986672748E-02 
541	 1,91870825842637E-02 
542	 1,80838549281262E-02 
543	 1,65627422673772E-02 
544	 1,66061261858716E-02 
545	 1,63486850657416E-02 
546	 1,59111406997274E-02 
547	 1,66769969582573E-02 
548	 1,74327456835447E-02 
549	 1,75905374010644E-02 
550	 1,76780532754951E-02 
551	 1,75278104240896E-02 
552	 1,67621591534353E-02 
553	 1,65369130991826E-02 
554	 1,69024766365912E-02 
555	 1,64893029303909E-02 
556	 1,62651903439484E-02 
557	 1,69831451183615E-02 
558	 1,73429720081443E-02 
559	 1,72393943225206E-02 
560	 1,70155271841828E-02 
561	 1,67631211186327E-02 
562	 1,67031476024804E-02 
563	 1,78432696160531E-02 
564	 0,018610405512402 
565	 1,68749198792824E-02 
566	 1,61007613732834E-02 
567	 1,66590757727369E-02 
568	 1,64110532637582E-02 
569	 1,60279634780396E-02 
570	 1,59943782160471E-02 
571	 1,62276706327748E-02 
572	 1,66898345719084E-02 
573	 1,73589975452508E-02 
574	 1,79044412287994E-02 
575	 1,81426078688899E-02 
576	 1,78939549572224E-02 
577	 1,78441337853693E-02 
578	 1,87299501338422E-02 
579	 1,87465805068348E-02 
580	 0,017933822767039 
581	 0,01772087554939 
582	 1,78459220448639E-02 
583	 1,81414528439519E-02 
584	 1,82803542178542E-02 
585	 1,84911306657721E-02 
586	 1,93422445738486E-02 
587	 1,93901685728416E-02 
588	 1,86434839107612E-02 
589	 1,92712331914725E-02 
590	 2,00652432555554E-02 
591	 1,98358088133702E-02 
592	 1,93206447987897E-02 
593	 1,88517991946267E-02 
594	 1,88644264307524E-02 
595	 1,91625748591798E-02 
596	 1,95510927617607E-02 
597	 1,93893954708128E-02 
598	 1,91406232049149E-02 
599	 1,96329833928721E-02 
600	 1,91930710803667E-02 
601	 1,79743223661484E-02 
602	 1,83754041795853E-02 
603	 1,93193301741924E-02 
604	 1,97875185752783E-02 
605	 1,86560778390374E-02 
606	 1,69494560086106E-02 
607	 1,77203177438642E-02 
608	 1,81766641022854E-02 
609	 1,74799832561503E-02 
610	 1,71909866588672E-02 
611	 0,017353846266974 
612	 1,78557873138415E-02 
613	 1,81028085038933E-02 
614	 1,80392171081141E-02 
615	 1,81000900731212E-02 
616	 1,80776789633155E-02 
617	 1,79263542979219E-02 
618	 1,84764070210207E-02 
619	 1,91991868333999E-02 
620	 1,88783659745715E-02 
621	 1,82003241915765E-02 
622	 0,017531560417255 
623	 1,73550084224229E-02 
624	 0,017652296467812 
625	 1,83227755807499E-02 
626	 1,83413687730332E-02 
627	 1,78506065123309E-02 
628	 1,79706169817637E-02 
629	 0,018193197120121 
630	 1,82875181811766E-02 
631	 0,018491603286957 
632	 1,86933603815458E-02 
633	 1,86981197222963E-02 
634	 1,83343051149705E-02 
635	 1,78637462099345E-02 
636	 1,84333463310213E-02 
637	 1,95039894835311E-02 
638	 2,04779099494629E-02 
639	 2,01517565397381E-02 
640	 1,90578544479907E-02 
641	 0,019019119043428 
642	 1,95049138061271E-02 
643	 0,020205095276286 
644	 2,03249663953719E-02 
645	 2,03384963691695E-02 
646	 2,09669852322219E-02 
647	 2,10760604043371E-02 
648	 2,04680592543094E-02 
649	 1,93208657144886E-02 
650	 1,90147315865796E-02 
651	 2,02695097737396E-02 
652	 2,05339140293057E-02 
653	 2,00818139273504E-02 
654	 2,03932606495562E-02 
655	 1,99877940927312E-02 
656	 1,87494411963646E-02 
657	 0,018420062601842 
658	 1,86454003222321E-02 
659	 1,89184104315646E-02 
660	 1,87759547324653E-02 
661	 1,82498643446642E-02 
662	 0,017764142352772 
663	 1,74561533959285E-02 
664	 1,74348610665011E-02 
665	 1,78098432074936E-02 
666	 1,81219128701429E-02 
667	 1,76574139381868E-02 
668	 1,72984811095825E-02 
669	 1,72181357142887E-02 
670	 1,69585032411373E-02 
671	 1,68508893115069E-02 
672	 1,71395953844393E-02 
673	 1,73902783524218E-02 
674	 1,75048220731283E-02 
675	 1,74898445114702E-02 
676	 1,72583170517344E-02 
677	 1,68896450074623E-02 
678	 1,68915089645286E-02 
679	 1,72496801474591E-02 
680	 1,78773038886118E-02 
681	 1,76368432479208E-02 
682	 1,68788556313873E-02 
683	 1,76631911810903E-02 
684	 1,84617262313068E-02 
685	 1,84042011862071E-02 
686	 1,82312836473066E-02 
687	 1,82764817644426E-02 
688	 1,89956196344052E-02 
689	 1,91887158651136E-02 
690	 1,87904378562634E-02 
691	 1,91591762727094E-02 
692	 2,00847717049535E-02 
693	 2,13183468184247E-02 
694	 2,27879439113135E-02 
695	 2,44102484055762E-02 
696	 2,60348325055964E-02 
697	 2,79572045980782E-02 
698	 3,02758928461245E-02 
699	 3,26258304196497E-02 
700	 3,54903611721618E-02 
701	 3,95048050573077E-02 
702	 4,35880201970039E-02 
703	 4,76115493343905E-02 
704	 5,21429373728503E-02 
705	 0,057195411396624 
706	 6,26403396407292E-02 
707	 6,74450046321809E-02 
708	 7,20589244883894E-02 
709	 7,76059895456975E-02 
710	 8,29836248148411E-02 
711	 8,79365064800049E-02 
712	 0,092939430032177 
713	 9,79982073237045E-02 
714	 0,103063200438944 
715	 0,107665524833841 
716	 0,111833240463374 
717	 0,115853548236928 
718	 0,119858715287869 
719	 0,123881054914702 
720	 0,127591754621883 
721	 0,130988500804064 
722	 0,134126719910463 
723	 0,136972768052682 
724	 0,139640981984552 
725	 0,142468333137105 
726	 0,145140127304188 
727	 0,147451736759049 
728	 0,149418734251741 
729	 0,151216450936839 
730	 0,153188855318432 
731	 0,154544696217138 
732	 0,15533343421643 
733	 0,156863527684991 
734	 0,158306238982911 
735	 0,158971205669949 
736	 0,160068309039517 
737	 0,161569237541794 
738	 0,162964524284488 
739	 0,163750636658358 
740	 0,163864163747148 
741	 0,164281950275181 
742	 0,164986785441407 
743	 0,16584454176145 
744	 0,166545603817048 
745	 0,167082983835063 
746	 0,167739529557788 
747	 0,168263073444968 
748	 0,168552466430576 
749	 0,168883461136657 
750	 0,169319554976196 
751	 0,169916442346744 
752	 0,170113674674871 
753	 0,170000153626565 
754	 0,17053972457379 
755	 0,171132342584875 
756	 0,171356374080245 
757	 0,171696818864357 
758	 0,172094086511326 
759	 0,172282521436904 
760	 0,172439788197465 
761	 0,172665128590978 
762	 0,173156612839758 
763	 0,173515082456088 
764	 0,173393049176351 
765	 0,173494698756694 
766	 0,17379429276946 
767	 0,1738518594652 
768	 0,173868761393573 
769	 0,17397260731849 
770	 0,174389636906401 
771	 0,17499645125136 
772	 0,175609448763569 
773	 0,175641986305441 
774	 0,175231182080519 
775	 0,175186084719942 
776	 0,175394746917495 
777	 0,175747433569416 
778	 0,175789510904815 
779	 0,175726508365373 
780	 0,175941483882183 
781	 0,176055227820102 
782	 0,176047365508502 
783	 0,176200857712913 
784	 0,176402872333934 
785	 0,176560852836056 
786	 0,176536116887971 
787	 0,176543281206596 
788	 0,176998483220051 
789	 0,177418276640966 
790	 0,177645493818993 
791	 0,177758876388668 
792	 0,177695019766143 
793	 0,17745110328879 
794	 0,177523463629507 
795	 0,177780663060662 
796	 0,177747866547526 
797	 0,177762824085959 
798	 0,17786024863863 
799	 0,177639544103474 
800	 0,177560493894033 
801	 0,17802649746991 
802	 0,178273661141547 
803	 0,178276449559372 
804	 0,178372898052587 
805	 0,178357415076138 
806	 0,178301650922981 
807	 0,178957148280694 
808	 0,179555535663313 
809	 0,179267041881038 
810	 0,179091901015115 
811	 0,179329428875202 
812	 0,180211097995155 
813	 0,181016365425499 
814	 0,18132102127643 
815	 0,180846361444411 
816	 0,1802801109982 
817	 0,180451414778743 
818	 0,180861756570521 
819	 0,181291581972351 
820	 0,181478838748902 
821	 0,181491122366621 
822	 0,181412114632397 
823	 0,181572342424938 
824	 0,181759694085856 
825	 0,181666293083944 
826	 0,182106431377304 
827	 0,182848620029533 
828	 0,182558218984845 
829	 0,18221513653191 
830	 0,182284396705259 
831	 0,182174375301873 
832	 0,182037556117547 
833	 0,182151500780103 
834	 0,182558348370405 
835	 0,183080215153909 
836	 0,183127545606847 
837	 0,183191514491515 
838	 0,183448361104698 
839	 0,183068949956127 
840	 0,182776304798447 
841	 0,18367803223572 
842	 0,184186834432099 
843	 0,184018033464318 
844	 0,183672973186243 
845	 0,183337836524177 
846	 0,183246472269702 
847	 0,184060466737215 
848	 0,184885428693981 
849	 0,184402301431749 
850	 0,184311062004959 
851	 0,184747729036002 
852	 0,184629871733134 
853	 0,18468924146634 
854	 0,185164044685243 
855	 0,184911495521913 
856	 0,184234857561458 
857	 0,183724296988797 
858	 0,183779119143465 
859	 0,184321735477265 
860	 0,184718215620717 
861	 0,185075497942561 
862	 0,185374169698482 
863	 0,185280286066165 
864	 0,185069697177686 
865	 0,185135010622015 
866	 0,185116407136298 
867	 0,185009043119264 
868	 0,184980061772322 
869	 0,185292670365487 
870	 0,185979109661676 
871	 0,186520451628786 
872	 0,186483714751626 
873	 0,185491775457881 
874	 0,18558257895278 
875	 0,186519286253028 
876	 0,186140623781593 
877	 0,186167892968562 
878	 0,187036985135775 
879	 0,186968837188437 
880	 0,186614757666038 
881	 0,186809865080015 
882	 0,187220245607089 
883	 0,187516377521524 
884	 0,186869907168644 
885	 0,186990008795985 
886	 0,188146993130658 
887	 0,188268167058868 
888	 0,187905132576356 
889	 0,187695774118657 
890	 0,187443715367776 
891	 0,187242871808645 
892	 0,187285056823322 
893	 0,187644042677538 
894	 0,188173375308418 
895	 0,188204309570547 
896	 0,188000973838712 
897	 0,187829812432921 
898	 0,187964052215935 
899	 0,188140229571353 
900	 0,187772420305547 
901	 0,188101966224991 
902	 0,188996227977215 
903	 0,18859863306137 
904	 0,188132452885478 
905	 0,188290031550535 
906	 0,187995286787763 
907	 0,187681382913497 
908	 0,188114312182688 
909	 0,188096451631314 
910	 0,187867591672658 
911	 0,189334467255932 
912	 0,189713992996854 
913	 0,188138939070927 
914	 0,187997960432119 
915	 0,188485580872201 
916	 0,188363882872594 
917	 0,187543106157225 
918	 0,186766778081952 
919	 0,188063239753342 
920	 0,188805290985694 
921	 0,188264911507529 
922	 0,187880207409313 
923	 0,18749274815648 
924	 0,186965401502161 
925	 0,186706253954993 
926	 0,186504795819661 
927	 0,185842958664159 
928	 0,185720764337685 
929	 0,186122071688847 
930	 0,186009500049661 
931	 0,185196119663857 
932	 0,183895495619547 
933	 0,184499745518081 
934	 0,185025887064715 
935	 0,182730155122943 
936	 0,181658480789914 
937	 0,181878111189604 
938	 0,180884104448743 
939	 0,179911395901694 
940	 0,179321665574245 
941	 0,178596806128127 
942	 0,178172139638947 
943	 0,178305671957838 
944	 0,177396830221665 
945	 0,175876264167209 
946	 0,175077899456012 
947	 0,173275245789837 
948	 0,170997899806456 
949	 0,17199733168842 
950	 0,17245967352755 
951	 0,170361943559214 
952	 0,168112840071242 
953	 0,166197917115739 
954	 0,164897106724818 
955	 0,164669267070632 
956	 0,164716668115225 
957	 0,162635647288588 
958	 0,161960700088822 
959	 0,163052071809128 
960	 0,161714652326097 
961	 0,159696171287824 
962	 0,158650860694792 
963	 0,159840725450479 
964	 0,160760293856218 
965	 0,157441978921316 
966	 0,15655918468786 
967	 0,158138620856645 
968	 0,156629980498767 
969	 0,156055804038513 
970	 0,157544943726406 
971	 0,157768520789708 
972	 0,15691692936182 
973	 0,155641226839912 
974	 0,157009807377045 
975	 0,159005276706362 
976	 0,157111760614083 
977	 0,155957921429434 
978	 0,156777675219003 
979	 0,159380840826702 
980	 0,160331221930938 
981	 0,15842691753659 
982	 0,157823502655105 
983	 0,158172327484279 
984	 0,158669843367335 
985	 0,158087786117015 
986	 0,157764067703627 
987	 0,160731033192392 
988	 0,163468295986557 
989	 0,164631384354796 
990	 0,163723745995998 
991	 0,161989829392511 
992	 0,160600562980794 
993	 0,16175536911512 
994	 0,162919814116187 
995	 0,161589656996501 
996	 0,16252434103094 
997	 0,164890846505209 
998	 0,165402693248356 
999	 0,165825942092822 
1000	 0,166666843128624 
1001	 0,168185655781357 
1002	 0,168761106380512 
1003	 0,16797577449385 
1004	 0,168751689218315 
1005	 0,169186185162519 
1006	 0,167486749531486 
1007	 0,167144103758547 
1008	 0,167720063444362 
1009	 0,167307615322993 
1010	 0,169081693662701 
1011	 0,172141957481637 
1012	 0,170937968909934 
1013	 0,16962556681407 
1014	 0,170301993221529 
1015	 0,173084021528024 
1016	 0,177547625280919 
1017	 0,182471937565288 
1018	 0,180935583069999 
1019	 0,176114181375482 
1020	 0,174416570367218 
1021	 0,17452679214353 
1022	 0,175706250968199 
1023	 0,17607148840121 
1024	 0,178731709831575 
1025	 0,183116354727889 
1026	 0,182739480044682 
1027	 0,180639026922151 
1028	 0,179382039854766 
1029	 0,180695816966367 
1030	 0,181615864312102 
1031	 0,179165846123828 
1032	 0,185415135209717 
1033	 0,195287971507804 
1034	 0,194248380074785 
1035	 0,187653123441608 
1036	 0,180411743623402 
1037	 0,183994683471495 
1038	 0,186050683638194 
1039	 0,182929635024189 
1040	 0,187621503611174 
1041	 0,191108124401889 
1042	 0,18685924128597 
1043	 0,189611927138351 
1044	 0,193535438820335 
1045	 0,188279032403077 
1046	 0,182982239841848 
1047	 0,182180240496513 
1048	 0,191507031772486 
1049	 0,201258708140651 
1050	 0,20560122428329 
1051	 0,196525029487139 
1052	 0,194316440979184 
1053	 0,204961565787216 
1054	 0,196342134054694 
1055	 0,18728248154052 
1056	 0,193909788767783 
1057	 0,193289075115531 
1058	 0,191159806234749 
1059	 0,199053007464211 
1060	 0,194608127274328 
1061	 0,186001436169281 
1062	 0,202972560212359 
1063	 0,210715552996918 
1064	 0,201373939205723 
1065	 0,183700006714776 
1066	 0,182601975052268 
1067	 0,202893453197284 
1068	 0,20527256830832 
1069	 0,198693973113645 
1070	 0,192806223135633 
1071	 0,198324641977923 
1072	 0,207412435691607 
1073	 0,208033044155816 
1074	 0,194584348238776 
1075	 0,185651297782363 
