Wavelength	GRA-VAN00182.asd
325	 0,725608080564069 
326	 0,525350924292399 
327	 0,480441374794397 
328	 0,707047894460723 
329	 0,59017181946931 
330	 0,407159497462351 
331	 0,563981790624838 
332	 0,502365019606091 
333	 0,360456901389852 
334	 0,41747088595155 
335	 0,436153188769643 
336	 0,362562387279249 
337	 0,36246096501689 
338	 0,363705797272566 
339	 0,30724100542139 
340	 0,3389582040936 
341	 0,394738868447554 
342	 0,318442219418904 
343	 0,28466618394996 
344	 0,331461409273107 
345	 0,309585515127301 
346	 0,283131005824514 
347	 0,322533437306503 
348	 0,304035625730733 
349	 0,245570802530136 
350	 0,261893339198126 
351	 0,272474199124819 
352	 0,254995173745174 
353	 0,266904635386012 
354	 0,283263607518462 
355	 0,271535276754893 
356	 0,260416212238348 
357	 0,25572262986919 
358	 0,253076874377856 
359	 0,254072495624265 
360	 0,260612313550171 
361	 0,282257317781234 
362	 0,302194670371522 
363	 0,295896576915108 
364	 0,289220589796751 
365	 0,287783426960494 
366	 0,286124093718497 
367	 0,283354896073199 
368	 0,280448552450245 
369	 0,29252078059819 
370	 0,302942925489926 
371	 0,277155816670423 
372	 0,26786727017312 
373	 0,285553265119279 
374	 0,298811223017734 
375	 0,30594828769212 
376	 0,303894617730356 
377	 0,287731080756643 
378	 0,26902110191336 
379	 0,275993847229384 
380	 0,28518944409208 
381	 0,290513458108232 
382	 0,301363540326678 
383	 0,303161375818837 
384	 0,284524191572875 
385	 0,283907957697024 
386	 0,295170033267493 
387	 0,282652367837796 
388	 0,277792632811869 
389	 0,290616206051244 
390	 0,298687913486582 
391	 0,297214006300098 
392	 0,283303473543903 
393	 0,285729786122925 
394	 0,300263758640345 
395	 0,295412281122243 
396	 0,28555443714311 
397	 0,279479589940085 
398	 0,284783267026099 
399	 0,291773281722807 
400	 0,285240096752265 
401	 0,281843307419355 
402	 0,284329378167264 
403	 0,287193278481778 
404	 0,282558937903089 
405	 0,267380096125287 
406	 0,270619645968348 
407	 0,283918275715321 
408	 0,284370196336492 
409	 0,284594010915606 
410	 0,285969174971611 
411	 0,278828535312639 
412	 0,272074888271175 
413	 0,273820643034064 
414	 0,269630338524993 
415	 0,262457962172406 
416	 0,266206278614349 
417	 0,270726926449871 
418	 0,272190797811967 
419	 0,274880680285645 
420	 0,278980617651266 
421	 0,284480144862172 
422	 0,2875787865478 
423	 0,286290599602645 
424	 0,276651563369195 
425	 0,271138658256248 
426	 0,276346708160838 
427	 0,279531703981309 
428	 0,280678186669037 
429	 0,28361823649829 
430	 0,282418084011829 
431	 0,277580589093884 
432	 0,278727937548661 
433	 0,282209577101907 
434	 0,284222696543862 
435	 0,281972753637784 
436	 0,277648320443427 
437	 0,278246896988596 
438	 0,279062169100388 
439	 0,278734895824455 
440	 0,280712815445649 
441	 0,28323950146821 
442	 0,283777316978105 
443	 0,283478654110637 
444	 0,28320559343545 
445	 0,285131537950265 
446	 0,285772077994685 
447	 0,283244389469934 
448	 0,281051224890456 
449	 0,280424381377179 
450	 0,282623973339288 
451	 0,285346899733735 
452	 0,287023394019256 
453	 0,284500973923905 
454	 0,28326062168292 
455	 0,288087598025434 
456	 0,290649962318046 
457	 0,290351216207132 
458	 0,290300671849608 
459	 0,289736676633867 
460	 0,288643498333484 
461	 0,287925448121936 
462	 0,287943698126701 
463	 0,289079293878231 
464	 0,287193557814447 
465	 0,283476093572119 
466	 0,285305536046465 
467	 0,289494597376385 
468	 0,293375394147406 
469	 0,293582545754412 
470	 0,29115277845892 
471	 0,288950947176123 
472	 0,288060114505636 
473	 0,288766572567663 
474	 0,289550490071707 
475	 0,290091592644136 
476	 0,290177171305908 
477	 0,290264630119974 
478	 0,290631023976088 
479	 0,29186744633672 
480	 0,29260008499512 
481	 0,292161013694424 
482	 0,291304254924813 
483	 0,2899603043395 
484	 0,28779451629846 
485	 0,287173173057288 
486	 0,288165173632492 
487	 0,288442178608821 
488	 0,288112826105739 
489	 0,287387432601136 
490	 0,287463055827918 
491	 0,287944167419698 
492	 0,287466011493274 
493	 0,28686670131578 
494	 0,286559438408682 
495	 0,287269772735842 
496	 0,287475676196064 
497	 0,285495681426276 
498	 0,286033038325573 
499	 0,288619578191529 
500	 0,288589344179846 
501	 0,287647109163609 
502	 0,286964438382002 
503	 0,287619891266472 
504	 0,28940397503679 
505	 0,291891336619726 
506	 0,292125080556828 
507	 0,2906023798795 
508	 0,293954421261342 
509	 0,297069825248922 
510	 0,295324042565259 
511	 0,294275545061237 
512	 0,294248889034444 
513	 0,292786584898736 
514	 0,293152738439951 
515	 0,296177641978593 
516	 0,297706955759411 
517	 0,297961240936154 
518	 0,29790572535341 
519	 0,297318943164318 
520	 0,296723521990382 
521	 0,29788800359096 
522	 0,299012657697062 
523	 0,298818967474272 
524	 0,298731867238943 
525	 0,298894654462705 
526	 0,299240406983673 
527	 0,298816903441005 
528	 0,297622065406191 
529	 0,297590345264764 
530	 0,297960940494676 
531	 0,297705328319695 
532	 0,297738468044971 
533	 0,297917937288105 
534	 0,297023279543013 
535	 0,296880410645355 
536	 0,298307047264278 
537	 0,298447807228803 
538	 0,297962893994393 
539	 0,298787268218123 
540	 0,299723508704858 
541	 0,300213648176212 
542	 0,299463705159512 
543	 0,298737588433184 
544	 0,299248371322015 
545	 0,29928945250969 
546	 0,299140276441715 
547	 0,300709029910935 
548	 0,301701397861307 
549	 0,301159092579399 
550	 0,300920406786493 
551	 0,301107996822025 
552	 0,301613443459636 
553	 0,301318968864434 
554	 0,300238320087801 
555	 0,299744765487592 
556	 0,299895581463926 
557	 0,300590349263142 
558	 0,300263203735745 
559	 0,299304991807784 
560	 0,299596002589739 
561	 0,299143056835672 
562	 0,297503051799165 
563	 0,296975685834141 
564	 0,297218780077882 
565	 0,297492743939117 
566	 0,297632531610352 
567	 0,297636763270053 
568	 0,297712862563978 
569	 0,298264634639662 
570	 0,299529206740692 
571	 0,300723934543791 
572	 0,302072094247958 
573	 0,304498233817802 
574	 0,306213835655035 
575	 0,307037590084398 
576	 0,309776251838728 
577	 0,312749229505405 
578	 0,313885905978267 
579	 0,315397569370785 
580	 0,317571987083565 
581	 0,319741348614523 
582	 0,321475298230009 
583	 0,322602763137246 
584	 0,323982021922044 
585	 0,325693100479315 
586	 0,327741241465434 
587	 0,328849783197363 
588	 0,329103814413789 
589	 0,330804386260925 
590	 0,332709212818432 
591	 0,33358754874378 
592	 0,334149598923795 
593	 0,334610602714406 
594	 0,335193583462686 
595	 0,335596001758062 
596	 0,335749564314544 
597	 0,33615639148891 
598	 0,33671387763813 
599	 0,337217812032856 
600	 0,337052427636451 
601	 0,336242134180957 
602	 0,335577510727148 
603	 0,335262955381172 
604	 0,335326090172304 
605	 0,334227669375007 
606	 0,332476121525735 
607	 0,331998184212618 
608	 0,331455524162646 
609	 0,330357084109541 
610	 0,328756326756551 
611	 0,327498379682996 
612	 0,327588086518907 
613	 0,326497444924749 
614	 0,324417997439956 
615	 0,324179700651643 
616	 0,324069780747536 
617	 0,323083192022449 
618	 0,322643205836157 
619	 0,322555363709268 
620	 0,3220507445156 
621	 0,32156263376131 
622	 0,321261963049705 
623	 0,321272365785743 
624	 0,32138475082429 
625	 0,321390542084928 
626	 0,321768028842788 
627	 0,322398705860759 
628	 0,322731554193223 
629	 0,322743061541402 
630	 0,322513380326831 
631	 0,322726037672035 
632	 0,323323577225294 
633	 0,324061153709718 
634	 0,324879108226131 
635	 0,325758712452909 
636	 0,32682890010721 
637	 0,327794132607705 
638	 0,328442012302609 
639	 0,329381543619811 
640	 0,330552857737289 
641	 0,331494059654823 
642	 0,332597941018775 
643	 0,333875387274776 
644	 0,334534313908234 
645	 0,334883394703254 
646	 0,33542089082458 
647	 0,335518569065849 
648	 0,334898013986299 
649	 0,333109346459609 
650	 0,33148765262809 
651	 0,330816982538272 
652	 0,329302232347435 
653	 0,327322990444794 
654	 0,326280052271871 
655	 0,3247153211635 
656	 0,32223206227078 
657	 0,319496951495894 
658	 0,316582413179266 
659	 0,313551307323521 
660	 0,310899196083259 
661	 0,308527827353471 
662	 0,305750492536414 
663	 0,303285733603602 
664	 0,301537435395679 
665	 0,300605811670247 
666	 0,299769447858384 
667	 0,297917533304333 
668	 0,296304697522548 
669	 0,295307465641939 
670	 0,294813548908353 
671	 0,294614812227456 
672	 0,294474256129829 
673	 0,293672017671328 
674	 0,292668591198777 
675	 0,292939975647669 
676	 0,29293165206065 
677	 0,292303456786205 
678	 0,292554697302353 
679	 0,29318758743814 
680	 0,293472719004181 
681	 0,293587713086979 
682	 0,293855238566136 
683	 0,295134284791162 
684	 0,296653981569531 
685	 0,298043513537933 
686	 0,300207267185106 
687	 0,302913405368058 
688	 0,305515275824468 
689	 0,308615236247157 
690	 0,312575536853547 
691	 0,317802100995352 
692	 0,324182812274187 
693	 0,331581902352172 
694	 0,339477058819357 
695	 0,347982348459194 
696	 0,357731141477249 
697	 0,368028942432105 
698	 0,378664662790083 
699	 0,390293495091753 
700	 0,402591288685115 
701	 0,415058032460326 
702	 0,427328933632568 
703	 0,439312574584876 
704	 0,451304932222123 
705	 0,463060806933792 
706	 0,474341807788894 
707	 0,484911703871512 
708	 0,494955381705375 
709	 0,504876272335219 
710	 0,5137939700868 
711	 0,521732558173229 
712	 0,530002443729228 
713	 0,538000489959554 
714	 0,545093126603523 
715	 0,551234325377337 
716	 0,556770896492422 
717	 0,562569320961563 
718	 0,568037622239946 
719	 0,572987833937318 
720	 0,57781974654758 
721	 0,58199648248113 
722	 0,584827308683623 
723	 0,587665423129786 
724	 0,590790900676106 
725	 0,593833705867039 
726	 0,596500077307338 
727	 0,598624287038531 
728	 0,600524650107055 
729	 0,602245908785935 
730	 0,60377974261153 
731	 0,605055625778438 
732	 0,606164638877463 
733	 0,607533672509545 
734	 0,608872088153198 
735	 0,609909038240849 
736	 0,610682466884664 
737	 0,611317621830414 
738	 0,61215790535403 
739	 0,612616579283085 
740	 0,612645610616056 
741	 0,613268150977598 
742	 0,614111503016065 
743	 0,614642032542393 
744	 0,614636285928965 
745	 0,614477177008117 
746	 0,615555840021422 
747	 0,616392503629733 
748	 0,616270817279878 
749	 0,616275160049345 
750	 0,616384659175599 
751	 0,616357330679421 
752	 0,616448794963602 
753	 0,616693341824692 
754	 0,616956630289297 
755	 0,617172422323152 
756	 0,617275661135009 
757	 0,617092987041878 
758	 0,616933338814547 
759	 0,617489866423101 
760	 0,617838934156416 
761	 0,617746889865044 
762	 0,617686207336625 
763	 0,617771108978955 
764	 0,618042431663978 
765	 0,617697766305958 
766	 0,617034188946959 
767	 0,61721209247787 
768	 0,617470296875445 
769	 0,61750327454294 
770	 0,617377943132443 
771	 0,617243358588779 
772	 0,617270916240024 
773	 0,617382437580199 
774	 0,617531103206373 
775	 0,617690430063079 
776	 0,617608035750597 
777	 0,617168137918877 
778	 0,616541764716282 
779	 0,616120198035353 
780	 0,616419024732858 
781	 0,61659462655134 
782	 0,616454816438678 
783	 0,616260674153258 
784	 0,615951780956903 
785	 0,615578533158887 
786	 0,615849440326758 
787	 0,616370341950791 
788	 0,61628345510594 
789	 0,616009668327186 
790	 0,615707637526677 
791	 0,615542743598447 
792	 0,615276702831216 
793	 0,614769954022317 
794	 0,614685638489223 
795	 0,614864322501921 
796	 0,614742596073313 
797	 0,614502945666506 
798	 0,614222713010708 
799	 0,614017737262974 
800	 0,613879084054248 
801	 0,613800646189901 
802	 0,61395331553801 
803	 0,614212176719356 
804	 0,614233876210537 
805	 0,614027587495214 
806	 0,61370009613264 
807	 0,613858362128695 
808	 0,614018188464948 
809	 0,613654473605082 
810	 0,613731546058765 
811	 0,614131686840083 
812	 0,613928351176109 
813	 0,613915395530159 
814	 0,614290619752187 
815	 0,614147400710766 
816	 0,613847159604907 
817	 0,613896732470627 
818	 0,613633609864535 
819	 0,613276483220416 
820	 0,613954468688779 
821	 0,614347762224349 
822	 0,61394340775419 
823	 0,613938561938698 
824	 0,614033416774189 
825	 0,613703210339537 
826	 0,613649331161517 
827	 0,613865881934845 
828	 0,613805158879555 
829	 0,613658770171417 
830	 0,613519007647311 
831	 0,613322519597514 
832	 0,613190802171193 
833	 0,613285640436441 
834	 0,613413150583197 
835	 0,613527472092396 
836	 0,613725917436157 
837	 0,613630657715796 
838	 0,61312983368621 
839	 0,612994267607054 
840	 0,613021150315423 
841	 0,6127974952799 
842	 0,612847250238501 
843	 0,613085217267835 
844	 0,612858474426571 
845	 0,612365547107863 
846	 0,611845198874757 
847	 0,612054071790579 
848	 0,612623429409173 
849	 0,612917730997667 
850	 0,612644764880077 
851	 0,611876516037926 
852	 0,611002560839019 
853	 0,610923060926234 
854	 0,611890503028052 
855	 0,61191280830617 
856	 0,611419134969292 
857	 0,611320499681697 
858	 0,611238539885588 
859	 0,611160016573615 
860	 0,611309422839769 
861	 0,611266839081219 
862	 0,610847428397289 
863	 0,610425543231386 
864	 0,610029356317767 
865	 0,609648757420456 
866	 0,610501788859001 
867	 0,611984644361935 
868	 0,611439940844049 
869	 0,610693588067616 
870	 0,610607996399645 
871	 0,610744963366166 
872	 0,61077874726288 
873	 0,610385528013413 
874	 0,61061252723195 
875	 0,61116599290722 
876	 0,610495614173091 
877	 0,609990850685589 
878	 0,610161614597838 
879	 0,610256814257054 
880	 0,610301445304649 
881	 0,610373857142987 
882	 0,610390033139725 
883	 0,610240577602429 
884	 0,609568901495616 
885	 0,609533357431069 
886	 0,610312132345623 
887	 0,610411498822553 
888	 0,610184454940798 
889	 0,610062938658293 
890	 0,610060013861004 
891	 0,610301521943822 
892	 0,611072960061806 
893	 0,611443221438894 
894	 0,611164987406245 
895	 0,610768318467516 
896	 0,610316208687767 
897	 0,609874149072471 
898	 0,609568363503771 
899	 0,609466703180365 
900	 0,609654819683395 
901	 0,609509709836232 
902	 0,609159091433271 
903	 0,609921380221616 
904	 0,610217983799576 
905	 0,609215127804985 
906	 0,608590766491483 
907	 0,608521575199513 
908	 0,608930054187246 
909	 0,609281699852581 
910	 0,60934356484545 
911	 0,608903602334525 
912	 0,608687757524062 
913	 0,608922939073017 
914	 0,608696311374909 
915	 0,608085586621129 
916	 0,607332641785917 
917	 0,607646741079701 
918	 0,608533726008437 
919	 0,608112811383447 
920	 0,607676459884278 
921	 0,607613429182847 
922	 0,607560502040236 
923	 0,607623066549695 
924	 0,607786729974609 
925	 0,606947766737363 
926	 0,605712982722509 
927	 0,605445478850314 
928	 0,605489057052514 
929	 0,605378550717636 
930	 0,60410592320015 
931	 0,60285450678431 
932	 0,602449242073533 
933	 0,603308367245895 
934	 0,604109193600791 
935	 0,603176991615528 
936	 0,602350468437386 
937	 0,601758777045787 
938	 0,600412846158782 
939	 0,599729416393223 
940	 0,600015218889764 
941	 0,599902904216745 
942	 0,599351606243068 
943	 0,598388625509615 
944	 0,596769216865003 
945	 0,595559206640775 
946	 0,596797450766696 
947	 0,595973811043196 
948	 0,592924318884009 
949	 0,592172921544163 
950	 0,59183248848865 
951	 0,590921340642895 
952	 0,590621147247422 
953	 0,589900709684044 
954	 0,587527590838293 
955	 0,586322829144047 
956	 0,586105015519249 
957	 0,584692915733083 
958	 0,583882834552637 
959	 0,583789363532923 
960	 0,582206080869533 
961	 0,580276960461785 
962	 0,579104470585556 
963	 0,579530860303492 
964	 0,580498909658406 
965	 0,580248390724832 
966	 0,578859042963535 
967	 0,577152696302344 
968	 0,577434450502301 
969	 0,578669184762627 
970	 0,579997535276207 
971	 0,579593569270283 
972	 0,578606864087975 
973	 0,57828606369634 
974	 0,579260319441608 
975	 0,579693715627739 
976	 0,576095132235654 
977	 0,575284173110841 
978	 0,577912321600468 
979	 0,579313219889723 
980	 0,579663001740604 
981	 0,579050523732461 
982	 0,578078992842559 
983	 0,577438506991218 
984	 0,577724729170654 
985	 0,578345337729252 
986	 0,578753041724412 
987	 0,578027468251411 
988	 0,579704755167784 
989	 0,583065690040767 
990	 0,581760208713586 
991	 0,580032741542792 
992	 0,58001838128742 
993	 0,579873604550367 
994	 0,579961689477012 
995	 0,580798618998751 
996	 0,582787458995072 
997	 0,584641011541269 
998	 0,583776043018479 
999	 0,584551149116132 
1000	 0,586734918301803 
1001	 0,584781803595387 
1002	 0,583284868071065 
1003	 0,584419531299318 
1004	 0,586381924444757 
1005	 0,587084353874068 
1006	 0,585092145538817 
1007	 0,585798633428602 
1008	 0,588049711745114 
1009	 0,588157327296986 
1010	 0,587698046024315 
1011	 0,587435847992243 
1012	 0,588394736045024 
1013	 0,590269385395969 
1014	 0,592574250298186 
1015	 0,59374486112608 
1016	 0,594281282102387 
1017	 0,594659967501571 
1018	 0,593965030947781 
1019	 0,593849543138114 
1020	 0,596729815759436 
1021	 0,596039152475602 
1022	 0,593166625263125 
1023	 0,596230480561054 
1024	 0,600950333403874 
1025	 0,604366328116438 
1026	 0,601163213247478 
1027	 0,59777688288606 
1028	 0,598701423842129 
1029	 0,601957473492546 
1030	 0,603671284528909 
1031	 0,600112391701946 
1032	 0,599977827242464 
1033	 0,602501447459925 
1034	 0,602716421019198 
1035	 0,60013103816059 
1036	 0,59731412969041 
1037	 0,604634191608486 
1038	 0,606289378837397 
1039	 0,598324379310383 
1040	 0,600185364178321 
1041	 0,606777112619882 
1042	 0,611791113019439 
1043	 0,607663500940554 
1044	 0,599999592361465 
1045	 0,598299610048367 
1046	 0,59987484987299 
1047	 0,602682477947007 
1048	 0,602632717217732 
1049	 0,607927048994928 
1050	 0,617015695820044 
1051	 0,616358434569594 
1052	 0,61134960025516 
1053	 0,606555707556777 
1054	 0,608649072919046 
1055	 0,611475675772902 
1056	 0,609648061827445 
1057	 0,607826053471902 
1058	 0,609876203041518 
1059	 0,619172093327909 
1060	 0,614025685633234 
1061	 0,601437256373127 
1062	 0,608458678462028 
1063	 0,615168857786069 
1064	 0,614181660400464 
1065	 0,598989437634052 
1066	 0,592937202575698 
1067	 0,602882856373776 
1068	 0,601618303062369 
1069	 0,598744305308594 
1070	 0,601888473041659 
1071	 0,605981152553141 
1072	 0,608237289683156 
1073	 0,606002491206699 
1074	 0,596476574004927 
1075	 0,592596679632087 
