Wavelength	GRA-VAN00826.asd
325	 0,160949979617411 
326	 0,16248990967101 
327	 0,17877550065871 
328	 0,197191974510883 
329	 2,31141276754937E-02 
330	-0,076953157500624 
331	 0,200730334174143 
332	 0,223301643336722 
333	 0,134779307385032 
334	 9,88575499975431E-02 
335	 0,111710433618442 
336	 0,15975783447046 
337	 0,199167623474423 
338	 0,182288284432375 
339	 5,80226712666338E-02 
340	 5,55133446915319E-02 
341	 0,128860430390335 
342	 0,113456599817387 
343	 8,20792876729856E-02 
344	 6,23917331223717E-02 
345	 4,65881515476153E-03 
346	 6,09061437156906E-03 
347	 0,159662213994535 
348	 0,139680046970056 
349	-7,25308448936534E-03 
350	-1,46667553205092E-02 
351	 4,30034997809693E-02 
352	 0,102554586606311 
353	 7,57520518447739E-02 
354	 1,80029124781486E-02 
355	-3,05475670340965E-04 
356	 0,012886573976401 
357	 3,95942119888364E-02 
358	 3,98730860878268E-02 
359	 4,43552688591217E-02 
360	 6,24446957933457E-02 
361	 6,26403121911676E-02 
362	 5,30811825487617E-02 
363	 4,70818062316418E-02 
364	 4,92357901678188E-02 
365	 5,47379955177241E-02 
366	 3,73806608082179E-02 
367	 3,47072529629937E-02 
368	 6,28747708832625E-02 
369	 0,065243245993792 
370	 4,78254726001509E-02 
371	 3,08918575162484E-02 
372	 3,33430326659545E-02 
373	 4,94902179817162E-02 
374	 3,11582239903086E-02 
375	 1,09992528665528E-02 
376	 1,70884983474086E-02 
377	 3,61976125190217E-02 
378	 5,16198776456613E-02 
379	 2,65649088605636E-02 
380	 0,017563598066612 
381	 3,73390249166647E-02 
382	 5,81385679106268E-02 
383	 7,01721981559441E-02 
384	 6,75229629573365E-02 
385	 5,44452925095922E-02 
386	 3,65896646452154E-02 
387	 0,017131216310713 
388	 1,46100134114743E-02 
389	 3,26105644917559E-02 
390	 3,59575926802314E-02 
391	 3,65921841079304E-02 
392	 5,11306172148916E-02 
393	 5,39600309571305E-02 
394	 4,49907211851373E-02 
395	 4,15459942888056E-02 
396	 3,34371030163373E-02 
397	 0,019066506104826 
398	 2,49739704017824E-02 
399	 3,49434161337976E-02 
400	 2,08143701269283E-02 
401	 2,09015961611759E-02 
402	 3,60572067393432E-02 
403	 3,60852340309132E-02 
404	 2,42219726603119E-02 
405	 5,78742252416259E-03 
406	 8,43609282895691E-03 
407	 2,17227972157933E-02 
408	 0,018494565059062 
409	 1,70282525160896E-02 
410	 2,05966302535398E-02 
411	 0,019289790658832 
412	 1,82143531932131E-02 
413	 2,20371632060759E-02 
414	 2,15517020602646E-02 
415	 1,72523531148848E-02 
416	 1,40338103745624E-02 
417	 1,21246103613403E-02 
418	 1,25857629866119E-02 
419	 1,93879326220388E-02 
420	 2,73203292089856E-02 
421	 3,02360309377491E-02 
422	 2,99396538997082E-02 
423	 2,71972261712579E-02 
424	 0,02242853656347 
425	 2,08452650328162E-02 
426	 0,024669260786027 
427	 2,41733037899508E-02 
428	 2,13829106847976E-02 
429	 2,24682012775237E-02 
430	 2,20986215717868E-02 
431	 1,92605985467381E-02 
432	 1,56842526840968E-02 
433	 1,60782322176732E-02 
434	 2,33979556865735E-02 
435	 2,14028141945802E-02 
436	 1,32323598262097E-02 
437	 1,46326695960004E-02 
438	 1,72591222677018E-02 
439	 0,017996461481526 
440	 1,84024644798498E-02 
441	 0,018668788711976 
442	 1,89124157942063E-02 
443	 2,07094338165981E-02 
444	 2,32047844828817E-02 
445	 2,26276102890561E-02 
446	 2,04093895418403E-02 
447	 0,017934075195864 
448	 1,87052262533111E-02 
449	 2,03134619752957E-02 
450	 1,69304204619848E-02 
451	 1,79778396799235E-02 
452	 2,38623676783449E-02 
453	 2,30202499170501E-02 
454	 2,02987058025268E-02 
455	 2,06033878629236E-02 
456	 2,22760726952198E-02 
457	 2,32053737530181E-02 
458	 1,79849277463665E-02 
459	 1,57056376825501E-02 
460	 1,95088594487683E-02 
461	 2,16489135356215E-02 
462	 2,16009829738385E-02 
463	 1,97472862790578E-02 
464	 1,68483662606182E-02 
465	 1,45694322508045E-02 
466	 1,68490871606523E-02 
467	 2,06934381958507E-02 
468	 2,36334786186501E-02 
469	 2,28903636854413E-02 
470	 2,02887241093308E-02 
471	 2,01377749672678E-02 
472	 2,02514284600388E-02 
473	 2,00396192807723E-02 
474	 1,94377924816287E-02 
475	 1,99808530134563E-02 
476	 2,29394009634572E-02 
477	 2,24417336243931E-02 
478	 1,96203634508341E-02 
479	 2,09949437213702E-02 
480	 0,021702169816511 
481	 2,00889186124112E-02 
482	 2,15770641618006E-02 
483	 2,32316738489412E-02 
484	 1,99109234231381E-02 
485	 1,93984002767027E-02 
486	 2,18954192859046E-02 
487	 1,97829389335237E-02 
488	 1,72594929461184E-02 
489	 1,75578692184402E-02 
490	 1,88394617432591E-02 
491	 2,03189023147085E-02 
492	 2,11111710790792E-02 
493	 0,021293913410242 
494	 2,09245588689316E-02 
495	 2,04386685340413E-02 
496	 1,97142014628773E-02 
497	 1,85927255305317E-02 
498	 1,97733219263014E-02 
499	 2,25017871865484E-02 
500	 2,29284167010225E-02 
501	 2,17547970719754E-02 
502	 1,98314606971861E-02 
503	 0,020673767348786 
504	 0,022522518665098 
505	 0,021426025690647 
506	 2,12781729933527E-02 
507	 0,022586081610047 
508	 2,25247476250485E-02 
509	 2,16332843706812E-02 
510	 2,06351822706198E-02 
511	 2,17106274111628E-02 
512	 2,36827926818133E-02 
513	 2,22873879395123E-02 
514	 2,14436483677871E-02 
515	 2,26117997881285E-02 
516	 2,36580709094659E-02 
517	 2,38002503475108E-02 
518	 2,22418521678055E-02 
519	 2,21195221852909E-02 
520	 2,36125812127349E-02 
521	 2,44286444552418E-02 
522	 2,36558462453999E-02 
523	 2,10854975639481E-02 
524	 2,16786525436414E-02 
525	 2,42223561748676E-02 
526	 2,43582966131611E-02 
527	 2,36355567425715E-02 
528	 2,26185698778192E-02 
529	 2,18294185199373E-02 
530	 2,14032827331259E-02 
531	 2,14061854080898E-02 
532	 0,021643530437906 
533	 2,17591344021605E-02 
534	 2,07064975816222E-02 
535	 2,04362244007889E-02 
536	 2,18765208626924E-02 
537	 2,24543199501722E-02 
538	 2,22899090353769E-02 
539	 0,02222344643111 
540	 2,25870101491463E-02 
541	 2,33775567979846E-02 
542	 2,40998994413073E-02 
543	 2,39046991237917E-02 
544	 2,21242397676913E-02 
545	 2,14730113610992E-02 
546	 2,20396198244545E-02 
547	 2,22753082023663E-02 
548	 2,28471354292674E-02 
549	 2,39006783351264E-02 
550	 2,46186234212008E-02 
551	 2,44884487805565E-02 
552	 2,28194875642291E-02 
553	 2,22283615490321E-02 
554	 2,29751799915198E-02 
555	 2,25708300799741E-02 
556	 0,022178983240996 
557	 0,022745825929914 
558	 2,29426547565556E-02 
559	 2,28976834843812E-02 
560	 2,36827203130669E-02 
561	 2,37489561144119E-02 
562	 2,27659017457361E-02 
563	 2,28516638670056E-02 
564	 2,32316780625355E-02 
565	 2,26406913930745E-02 
566	 2,22696623137606E-02 
567	 2,23209326887714E-02 
568	 2,23945236416571E-02 
569	 2,24266165731503E-02 
570	 2,24203886252315E-02 
571	 2,28866518856816E-02 
572	 0,023659909381975 
573	 2,42857479039802E-02 
574	 2,45309947445661E-02 
575	 2,44304378926021E-02 
576	 2,47533666460141E-02 
577	 2,52813568377068E-02 
578	 2,56979016875537E-02 
579	 2,60227155448041E-02 
580	 2,61788302349954E-02 
581	 2,58859375265627E-02 
582	 2,58981525915465E-02 
583	 2,65492920908565E-02 
584	 0,02669980257214 
585	 2,66424580120731E-02 
586	 2,71954590906417E-02 
587	 2,73499301517338E-02 
588	 2,70803436920635E-02 
589	 2,77019870538699E-02 
590	 2,83675936010052E-02 
591	 0,028268668793668 
592	 2,82264263474429E-02 
593	 2,83348757823777E-02 
594	 2,83801139113278E-02 
595	 2,84470815368478E-02 
596	 2,86068690951742E-02 
597	 0,029163207587784 
598	 0,029498801824958 
599	 2,86618660324597E-02 
600	 2,79229310914607E-02 
601	 2,77234960172184E-02 
602	 2,81801533262803E-02 
603	 2,85895873886851E-02 
604	 2,83811470646411E-02 
605	 2,77382921316078E-02 
606	 2,70914178093757E-02 
607	 2,73875085647372E-02 
608	 2,77586063574782E-02 
609	 2,78122241800114E-02 
610	 0,027412530009904 
611	 0,026927089773951 
612	 2,68193026596084E-02 
613	 2,65817885352233E-02 
614	 2,62153673739079E-02 
615	 2,61253577881959E-02 
616	 0,026067339229045 
617	 2,59261116050941E-02 
618	 2,61695489706877E-02 
619	 2,65315517750279E-02 
620	 2,63705271578857E-02 
621	 2,62388059466077E-02 
622	 2,62685707850023E-02 
623	 2,61499399403419E-02 
624	 2,60816235308809E-02 
625	 2,62714882234276E-02 
626	 2,63887076712478E-02 
627	 2,64374774174011E-02 
628	 2,67350770351549E-02 
629	 2,66252254830114E-02 
630	 2,59552814728536E-02 
631	 2,62680217122711E-02 
632	 0,026924306545229 
633	 2,65839621042694E-02 
634	 0,026443312695905 
635	 2,68505611948345E-02 
636	 2,78304892319118E-02 
637	 2,83548129819525E-02 
638	 2,76861062975728E-02 
639	 2,80872135112545E-02 
640	 2,91682493264494E-02 
641	 2,87960502367147E-02 
642	 2,87081754395969E-02 
643	 2,94033845761966E-02 
644	 2,94903910968424E-02 
645	 2,93069446501125E-02 
646	 2,94506574131684E-02 
647	 2,94973854381463E-02 
648	 2,93528717713659E-02 
649	 2,90137353491335E-02 
650	 0,028793785827893 
651	 2,88772064872948E-02 
652	 2,88391733204622E-02 
653	 2,87420610830427E-02 
654	 2,89307330875137E-02 
655	 2,85620004204651E-02 
656	 2,74910958064195E-02 
657	 2,64577340752472E-02 
658	 2,57647666937063E-02 
659	 2,56568217679812E-02 
660	 2,57723238244858E-02 
661	 2,58651774264684E-02 
662	 2,55450710542504E-02 
663	 2,52014036103766E-02 
664	 2,50065129386846E-02 
665	 2,46899861062667E-02 
666	 2,42510769648134E-02 
667	 2,37315532366237E-02 
668	 0,023193229303272 
669	 2,28298767466524E-02 
670	 0,023249462352717 
671	 2,37640461719904E-02 
672	 2,37925497207943E-02 
673	 2,34566594405879E-02 
674	 2,30811736128087E-02 
675	 0,023442599047782 
676	 2,35196983636203E-02 
677	 2,30918724917195E-02 
678	 2,31729633993139E-02 
679	 2,35955999908669E-02 
680	 2,40540281479133E-02 
681	 2,39883714596741E-02 
682	 2,36168839195505E-02 
683	 2,41076488928381E-02 
684	 2,46683859223758E-02 
685	 2,48455845080753E-02 
686	 2,49065297766234E-02 
687	 2,52963006919415E-02 
688	 2,68110764896648E-02 
689	 0,027542198612414 
690	 2,72143063091057E-02 
691	 2,72963677171065E-02 
692	 2,82133790554416E-02 
693	 3,02462674335971E-02 
694	 3,26521816995411E-02 
695	 3,50839629896151E-02 
696	 3,70536002715653E-02 
697	 3,95266908372003E-02 
698	 0,042856607045376 
699	 0,046323044817927 
700	 5,02198595318166E-02 
701	 5,49942860325779E-02 
702	 5,96256149763497E-02 
703	 6,38285875767489E-02 
704	 6,76202173685183E-02 
705	 7,17808678119177E-02 
706	 7,67129112966351E-02 
707	 8,13462591103181E-02 
708	 8,56409106744319E-02 
709	 8,98268713836176E-02 
710	 9,37965001755585E-02 
711	 9,75279698023689E-02 
712	 0,101027206788034 
713	 0,104334838193946 
714	 0,107488223183516 
715	 0,110523947637505 
716	 0,113436875821173 
717	 0,116208232447179 
718	 0,118708463071389 
719	 0,120856222657012 
720	 0,122484420659141 
721	 0,124031678299365 
722	 0,126062885622749 
723	 0,12769750336057 
724	 0,12898671681189 
725	 0,13089806836705 
726	 0,132476651513792 
727	 0,133219477716442 
728	 0,13419152272766 
729	 0,135272775496451 
730	 0,135989573212953 
731	 0,13642986760855 
732	 0,13681603012938 
733	 0,137998520593743 
734	 0,139066531168789 
735	 0,139246625317115 
736	 0,139447575467864 
737	 0,13987517865804 
738	 0,140622645445721 
739	 0,141254051279864 
740	 0,141633713359499 
741	 0,142164663886159 
742	 0,142577855167436 
743	 0,142541407679387 
744	 0,14266047899731 
745	 0,142933648847992 
746	 0,142814458168666 
747	 0,143006087585767 
748	 0,143799643633005 
749	 0,144433597373988 
750	 0,144708624746561 
751	 0,144467308330195 
752	 0,144542539380999 
753	 0,145011130942904 
754	 0,145125506498328 
755	 0,145279719110889 
756	 0,145705760891894 
757	 0,145657610811412 
758	 0,14544552821862 
759	 0,145937941848491 
760	 0,146343688772466 
761	 0,146454753277004 
762	 0,146607673979185 
763	 0,146759626888234 
764	 0,146852137086574 
765	 0,146778201678639 
766	 0,146685793435321 
767	 0,147003045277996 
768	 0,147316873549319 
769	 0,147481847750493 
770	 0,147673978780254 
771	 0,148003242959272 
772	 0,14856496825962 
773	 0,14862169969066 
774	 0,148299912722047 
775	 0,148565220543111 
776	 0,148640419907951 
777	 0,148258613657924 
778	 0,148494449380824 
779	 0,148989953420811 
780	 0,149059680018346 
781	 0,148856288084649 
782	 0,148544394053881 
783	 0,148556246649735 
784	 0,148715284557302 
785	 0,148906475345595 
786	 0,149224193128527 
787	 0,149549649806688 
788	 0,149663921310187 
789	 0,149767566909005 
790	 0,149936953157807 
791	 0,150243457011631 
792	 0,150399044945382 
793	 0,150221341510141 
794	 0,150340503929942 
795	 0,150670621248929 
796	 0,150810344823529 
797	 0,150818373337759 
798	 0,150735877898497 
799	 0,150686264287032 
800	 0,150804714797102 
801	 0,151171690227103 
802	 0,151189700668904 
803	 0,15100517660534 
804	 0,151330561584975 
805	 0,151437308648347 
806	 0,151212815472761 
807	 0,151616753703971 
808	 0,151906155007587 
809	 0,151299922455809 
810	 0,151696532832101 
811	 0,152793588696771 
812	 0,152616571344122 
813	 0,152475270043019 
814	 0,152810987466695 
815	 0,152839966461543 
816	 0,152737939365681 
817	 0,152786805421346 
818	 0,152940450596079 
819	 0,153137672503301 
820	 0,153216932378572 
821	 0,153280699674228 
822	 0,15340262482148 
823	 0,153766218602884 
824	 0,15396724069335 
825	 0,153493166517269 
826	 0,153894742368973 
827	 0,154836056091184 
828	 0,153956464752713 
829	 0,153434331520983 
830	 0,154190354504213 
831	 0,154213185999115 
832	 0,153785789564772 
833	 0,153586213300053 
834	 0,153805148756355 
835	 0,154299043571872 
836	 0,154381986712738 
837	 0,154469881000992 
838	 0,154686916763581 
839	 0,154231586392645 
840	 0,153774009530522 
841	 0,154344157346527 
842	 0,155082986854367 
843	 0,155560994684307 
844	 0,155131779595332 
845	 0,154958414134173 
846	 0,155502537955874 
847	 0,155004766624873 
848	 0,15431587096734 
849	 0,154874515581476 
850	 0,155247264975577 
851	 0,155166760729482 
852	 0,154967665987502 
853	 0,155006729970362 
854	 0,155415968148594 
855	 0,155639756439748 
856	 0,155470099708612 
857	 0,154736044652686 
858	 0,154565487051059 
859	 0,155058618314825 
860	 0,155595686891645 
861	 0,155748206419003 
862	 0,155355111168953 
863	 0,155157870332436 
864	 0,155047090561297 
865	 0,154778937081052 
866	 0,155188387709765 
867	 0,156055103299662 
868	 0,156099065807285 
869	 0,156252881981365 
870	 0,156774497438007 
871	 0,156422964045533 
872	 0,155903255378731 
873	 0,156159820768051 
874	 0,156075176227711 
875	 0,155753211918593 
876	 0,156212629399141 
877	 0,156594888186958 
878	 0,156559229571737 
879	 0,156391505194763 
880	 0,156411536686506 
881	 0,156896303451221 
882	 0,157001761253601 
883	 0,156700484201424 
884	 0,156314981949458 
885	 0,156386482147455 
886	 0,157004631070128 
887	 0,157404329694559 
888	 0,157537338557873 
889	 0,157403357623093 
890	 0,156954754728829 
891	 0,15650240693025 
892	 0,156679841695192 
893	 0,156984583013146 
894	 0,157256989816039 
895	 0,157633845281391 
896	 0,157805702092987 
897	 0,1576100038982 
898	 0,157979756690268 
899	 0,158390709511059 
900	 0,157642476377138 
901	 0,157378030947303 
902	 0,15777907773282 
903	 0,157630155206814 
904	 0,157338888338397 
905	 0,157194910089901 
906	 0,157272536105414 
907	 0,157535186582093 
908	 0,157904335354405 
909	 0,158231490794107 
910	 0,158316377220901 
911	 0,157662113651743 
912	 0,157269223245035 
913	 0,157522811214977 
914	 0,157528240170654 
915	 0,157315316878671 
916	 0,157048130840305 
917	 0,157593503451743 
918	 0,158543323247706 
919	 0,158437215479484 
920	 0,158337614610429 
921	 0,158433879114276 
922	 0,157812925196514 
923	 0,157285831742388 
924	 0,157547253625524 
925	 0,158349577156811 
926	 0,158722692292423 
927	 0,157018716073122 
928	 0,156203526154285 
929	 0,156828353955659 
930	 0,157507370715053 
931	 0,157616188411036 
932	 0,15694839657539 
933	 0,157076840004998 
934	 0,157217564253626 
935	 0,156196013980496 
936	 0,15590868758374 
937	 0,15613738109711 
938	 0,154850720592598 
939	 0,154611431058729 
940	 0,155865456554849 
941	 0,155636199994753 
942	 0,154828297678384 
943	 0,15439756031298 
944	 0,153994843541046 
945	 0,15381159033338 
946	 0,15430613989923 
947	 0,153564963294258 
948	 0,151917905878859 
949	 0,152935960522073 
950	 0,152887094384984 
951	 0,150185831290348 
952	 0,149403098763148 
953	 0,149764183295069 
954	 0,149745154576207 
955	 0,15006517435069 
956	 0,15001688910347 
957	 0,147270136757192 
958	 0,146594279848317 
959	 0,148817688781584 
960	 0,149670732450175 
961	 0,148725230139546 
962	 0,146228093973122 
963	 0,146071116132942 
964	 0,147371330589818 
965	 0,147870594790837 
966	 0,147205893154272 
967	 0,145872816832048 
968	 0,145635095201127 
969	 0,146831332482296 
970	 0,148991760972013 
971	 0,149034857253113 
972	 0,147293284896334 
973	 0,144720029060649 
974	 0,145800206367227 
975	 0,148360369093 
976	 0,147101175191818 
977	 0,146729130006405 
978	 0,14784837175601 
979	 0,148001635733942 
980	 0,148278827843837 
981	 0,148818516476677 
982	 0,147333617574618 
983	 0,14561633450785 
984	 0,145648448673216 
985	 0,146382619564685 
986	 0,147477638221876 
987	 0,148703716747596 
988	 0,148376037627461 
989	 0,147164908098252 
990	 0,149501092543452 
991	 0,150975104003232 
992	 0,149777707589662 
993	 0,150114246887279 
994	 0,150896707744892 
995	 0,150671064888581 
996	 0,149613524039365 
997	 0,149716992443485 
998	 0,154807583504405 
999	 0,156780208963991 
1000	 0,154479273436177 
1001	 0,152842040050148 
1002	 0,152001073324198 
1003	 0,152061392277197 
1004	 0,152133935874001 
1005	 0,152815130011462 
1006	 0,154533434555399 
1007	 0,155045002451438 
1008	 0,154159231896451 
1009	 0,152266029762915 
1010	 0,152478909414526 
1011	 0,154523330928063 
1012	 0,154267131483968 
1013	 0,154440365314275 
1014	 0,156399633155043 
1015	 0,161220198528831 
1016	 0,162972043006833 
1017	 0,157691452502855 
1018	 0,155640061139199 
1019	 0,156193416416101 
1020	 0,155987491152654 
1021	 0,159100367541484 
1022	 0,163576369412908 
1023	 0,161179160941937 
1024	 0,161960439934436 
1025	 0,167660187139612 
1026	 0,17009310190712 
1027	 0,169424718877781 
1028	 0,166032963738972 
1029	 0,160620394376604 
1030	 0,158027581948919 
1031	 0,163013845685722 
1032	 0,165623070735646 
1033	 0,165522697679693 
1034	 0,166392494954741 
1035	 0,163388734540303 
1036	 0,159113535489757 
1037	 0,167458660468256 
1038	 0,171671310849912 
1039	 0,166218688190341 
1040	 0,165097558175975 
1041	 0,167018554892111 
1042	 0,169417372443809 
1043	 0,165073318613058 
1044	 0,160681811117628 
1045	 0,166322538275445 
1046	 0,168231663247845 
1047	 0,166122011510954 
1048	 0,16586326587204 
1049	 0,173279994404085 
1050	 0,183740854596833 
1051	 0,173604723055237 
1052	 0,165498419690497 
1053	 0,170203822411965 
1054	 0,172477539238828 
1055	 0,178380154137547 
1056	 0,190494896809856 
1057	 0,181989698034292 
1058	 0,167101779845318 
1059	 0,171176321703345 
1060	 0,168099572877684 
1061	 0,161874033821847 
1062	 0,173891523030935 
1063	 0,184712175399489 
1064	 0,186439233254703 
1065	 0,170845908260573 
1066	 0,162317273868344 
1067	 0,170227325517861 
1068	 0,176816389867673 
1069	 0,173832232747495 
1070	 0,160175721558501 
1071	 0,174532122720174 
1072	 0,192439572121598 
1073	 0,180275294801938 
1074	 0,17045386338733 
1075	 0,168394486374618 
