Wavelength	GRA-VIE00275.asd
325	 6,06150992876803E-02 
326	 0,04388493196242 
327	 1,57730725177407E-03 
328	-2,91747469274579E-03 
329	 5,66512640399897E-02 
330	 0,102014877756908 
331	 4,60415751629539E-02 
332	-5,86740955022121E-03 
333	-6,29202445244143E-02 
334	-9,71555324972339E-02 
335	-3,43443649162592E-02 
336	 7,05335242988107E-02 
337	 7,83567566832604E-02 
338	 5,96441083695937E-02 
339	 5,72957579802932E-02 
340	-1,92742352487941E-02 
341	-0,110539109677089 
342	 1,09322936109613E-02 
343	 0,106339258570105 
344	 0,11065988408856 
345	 5,90174434741764E-02 
346	 3,34705878554501E-04 
347	-6,92742159991742E-03 
348	-8,69170079811161E-04 
349	 7,65082324189682E-03 
350	 0,015597439009515 
351	 8,68549570514714E-04 
352	-3,44462010148391E-02 
353	-2,15413776776551E-02 
354	 0,023057985065161 
355	 7,26069535812222E-02 
356	 7,38341587430304E-02 
357	 3,30477242802983E-02 
358	-2,6378497359626E-03 
359	-9,01428352019659E-03 
360	 1,84799807904248E-02 
361	 1,22308328061853E-02 
362	 3,36486114583792E-03 
363	 0,04428052241159 
364	 6,38030334618993E-02 
365	 4,90984346981974E-02 
366	 0,015351241423839 
367	-1,5325767089307E-03 
368	 0,016091731524185 
369	 9,18764185187861E-03 
370	-7,62905798755848E-03 
371	 3,52567818433106E-03 
372	 7,69140576946734E-03 
373	-2,17524737115453E-03 
374	-1,25230287702802E-02 
375	-1,11511972657218E-02 
376	 7,36169888078728E-03 
377	-4,5202573291052E-03 
378	-0,027698348730407 
379	-2,2360925608629E-03 
380	 1,49717387817587E-02 
381	 1,21771311569228E-02 
382	 1,44968178053235E-02 
383	 1,42638726151153E-02 
384	 3,9555983600982E-03 
385	 9,79649326950264E-03 
386	 0,022857584334372 
387	 8,65263318408029E-03 
388	 8,00065719925612E-03 
389	 0,029892868066752 
390	 2,99697443606745E-02 
391	 1,75299592409142E-02 
392	 7,78534728100831E-03 
393	 5,16094721671718E-03 
394	 9,04247309959809E-03 
395	 1,19182590242248E-02 
396	 1,87785813647419E-02 
397	 2,96010598724656E-02 
398	 2,43417219462448E-02 
399	 9,30218437176542E-03 
400	-4,76641095135284E-03 
401	-3,55197779468277E-03 
402	 1,10706663167582E-02 
403	 1,74022729904548E-02 
404	 2,00387387017108E-02 
405	 2,13969593502714E-02 
406	 9,40056735086147E-03 
407	-4,31202918478476E-03 
408	 7,40165927156384E-03 
409	 0,015463660227186 
410	 1,26196578073577E-02 
411	 5,25422645391841E-03 
412	 4,91391710145097E-03 
413	 2,01122453384161E-02 
414	 1,76551135162211E-02 
415	 2,70383314915129E-03 
416	 4,70785961368149E-03 
417	 8,13408889954373E-03 
418	 7,40807661035324E-03 
419	 7,03082912938519E-03 
420	 7,34928160695384E-03 
421	 8,39476277316071E-03 
422	 7,79657779632092E-03 
423	 6,21639178516019E-03 
424	 8,03953139963438E-03 
425	 7,91414558267841E-03 
426	 3,42574055537019E-03 
427	 3,12606637937117E-03 
428	 6,24558128568324E-03 
429	 9,70765499950733E-03 
430	 1,09399536604802E-02 
431	 9,60974767067993E-03 
432	 8,7521652492153E-03 
433	 8,83568534575561E-03 
434	 1,01380743044426E-02 
435	 1,29081256127311E-02 
436	 1,51327088316335E-02 
437	 1,14757540835495E-02 
438	 9,57829423113402E-03 
439	 1,22374294372071E-02 
440	 1,58367405376009E-02 
441	 1,66314630767709E-02 
442	 1,06472572724023E-02 
443	 7,18092581782015E-03 
444	 7,59964147085581E-03 
445	 7,50764081845543E-03 
446	 8,3807194026168E-03 
447	 1,07265797845586E-02 
448	 1,13873491985514E-02 
449	 1,10394859825488E-02 
450	 0,011844045353464 
451	 1,19273032901244E-02 
452	 1,12936008433356E-02 
453	 0,012645380859194 
454	 1,34663699324768E-02 
455	 1,14797156321052E-02 
456	 9,83310136809485E-03 
457	 9,46155969386404E-03 
458	 1,09497509335347E-02 
459	 1,32549292563213E-02 
460	 1,51958364971082E-02 
461	 1,34559999316819E-02 
462	 1,00520729874824E-02 
463	 8,04761631974038E-03 
464	 9,1498798587519E-03 
465	 1,23811983542287E-02 
466	 1,28973792337186E-02 
467	 1,16990174147447E-02 
468	 9,88116499863968E-03 
469	 1,12562575171204E-02 
470	 1,32483498104181E-02 
471	 9,23569889444648E-03 
472	 9,12777163978053E-03 
473	 0,013928965697809 
474	 1,18676370297854E-02 
475	 9,6666246761464E-03 
476	 1,40992096644141E-02 
477	 1,39873662434056E-02 
478	 1,00733063600889E-02 
479	 1,06936399565028E-02 
480	 1,16343283324069E-02 
481	 1,10527189523181E-02 
482	 1,00782590329352E-02 
483	 9,29505301696665E-03 
484	 9,38745978653791E-03 
485	 1,00192687747036E-02 
486	 1,07940872847545E-02 
487	 1,05696494430614E-02 
488	 1,08746724714938E-02 
489	 1,25960499861085E-02 
490	 1,22225622876868E-02 
491	 1,03186930812253E-02 
492	 9,18290622116303E-03 
493	 9,34230985076909E-03 
494	 1,06881062887051E-02 
495	 1,11400382730197E-02 
496	 1,06547053152132E-02 
497	 9,41591633183943E-03 
498	 8,61911901084657E-03 
499	 8,4460651313091E-03 
500	 8,1538161121332E-03 
501	 8,92533042191228E-03 
502	 1,10853946054498E-02 
503	 1,16976623575096E-02 
504	 1,13107759214709E-02 
505	 1,16760276769837E-02 
506	 1,10518235977131E-02 
507	 9,40458125814596E-03 
508	 8,41982750766049E-03 
509	 8,67267581290255E-03 
510	 1,04317151387022E-02 
511	 0,010651397499551 
512	 9,75640944699281E-03 
513	 1,06563042128081E-02 
514	 1,06261476654535E-02 
515	 9,06648304023481E-03 
516	 1,00342181515911E-02 
517	 1,16600079347342E-02 
518	 1,08319675337673E-02 
519	 1,08051535875616E-02 
520	 1,17933174634492E-02 
521	 1,14587277455414E-02 
522	 1,09836123589143E-02 
523	 1,12110793718215E-02 
524	 1,10973483722305E-02 
525	 1,11886511743473E-02 
526	 1,33850971712474E-02 
527	 1,40299525293652E-02 
528	 1,22925472519123E-02 
529	 1,12412955994061E-02 
530	 1,09190431092855E-02 
531	 1,10647689131653E-02 
532	 1,14517494643041E-02 
533	 1,17864303362214E-02 
534	 1,14413779684812E-02 
535	 1,12272296972119E-02 
536	 1,16325397725804E-02 
537	 1,26207656054335E-02 
538	 1,30901517737568E-02 
539	 1,09345902277241E-02 
540	 9,87743262786725E-03 
541	 1,08016513347848E-02 
542	 1,17299420949542E-02 
543	 1,21040055457628E-02 
544	 1,15466595080385E-02 
545	 1,16476068614231E-02 
546	 1,21570821919365E-02 
547	 1,13190493179984E-02 
548	 1,07460872178284E-02 
549	 1,11847887169727E-02 
550	 1,19875649324702E-02 
551	 1,24489923053227E-02 
552	 1,16126108622556E-02 
553	 0,010935024124905 
554	 1,07350719190491E-02 
555	 1,03394742250925E-02 
556	 9,96416683816634E-03 
557	 9,85350936451512E-03 
558	 1,07317866152454E-02 
559	 1,18977591184911E-02 
560	 1,12734313536126E-02 
561	 1,09843228212542E-02 
562	 1,16363955028095E-02 
563	 1,13779488003559E-02 
564	 1,06232940468026E-02 
565	 1,01128136932809E-02 
566	 1,06592480346954E-02 
567	 1,19665927186403E-02 
568	 1,23109905098727E-02 
569	 1,19377190937121E-02 
570	 1,11661351329741E-02 
571	 1,12939300908853E-02 
572	 1,20922741241477E-02 
573	 1,27150317049379E-02 
574	 1,23404572588548E-02 
575	 1,11032831121999E-02 
576	 0,011670012298732 
577	 1,24227016647966E-02 
578	 1,13979559875491E-02 
579	 1,16362020651341E-02 
580	 1,31779082429264E-02 
581	 0,014069145491811 
582	 1,42382919364441E-02 
583	 1,37257716914917E-02 
584	 1,36216485688982E-02 
585	 1,36870328198844E-02 
586	 1,31503182179929E-02 
587	 1,31941848980482E-02 
588	 1,39516697128664E-02 
589	 1,44268344094883E-02 
590	 1,43618226957758E-02 
591	 1,36173242608439E-02 
592	 1,32290759411655E-02 
593	 1,32652994262971E-02 
594	 1,31917390801992E-02 
595	 1,34684197696777E-02 
596	 1,41495455966792E-02 
597	 1,42413019377982E-02 
598	 1,39384971700193E-02 
599	 1,36874734285762E-02 
600	 1,36468663683054E-02 
601	 0,013847961455464 
602	 1,41711057030563E-02 
603	 1,42758552822714E-02 
604	 1,39284535022727E-02 
605	 1,37174044018805E-02 
606	 0,013570938245428 
607	 1,29995709784147E-02 
608	 0,012625515454285 
609	 1,25758765501525E-02 
610	 1,19982981839957E-02 
611	 1,16213219679411E-02 
612	 1,24024872025891E-02 
613	 1,27814231645558E-02 
614	 1,25628140057055E-02 
615	 1,24941730494187E-02 
616	 1,25037688511359E-02 
617	 1,25366849931584E-02 
618	 1,24109968952781E-02 
619	 1,22898423040061E-02 
620	 1,25461280486983E-02 
621	 1,28335306616903E-02 
622	 1,30078429281845E-02 
623	 1,30959462553673E-02 
624	 1,27927212785626E-02 
625	 1,18596805573525E-02 
626	 1,21840601771705E-02 
627	 1,34265544195836E-02 
628	 1,34564767731817E-02 
629	 1,30192036182496E-02 
630	 1,25414047190967E-02 
631	 1,22497815234698E-02 
632	 1,24611720788872E-02 
633	 1,36468883840963E-02 
634	 0,014222213923958 
635	 0,013823382449662 
636	 1,30554387069245E-02 
637	 1,29192836974456E-02 
638	 1,41028924597478E-02 
639	 1,41757077870331E-02 
640	 1,34851750546943E-02 
641	 1,41482318195271E-02 
642	 1,46065895387338E-02 
643	 1,43781303528685E-02 
644	 1,44700152738754E-02 
645	 1,47302407656597E-02 
646	 1,48463155523509E-02 
647	 1,47826141968492E-02 
648	 1,46910397429174E-02 
649	 1,51659744230697E-02 
650	 1,55807625405704E-02 
651	 1,54788838783745E-02 
652	 1,47742892595538E-02 
653	 1,40424880278711E-02 
654	 0,014470932801212 
655	 1,47034225585596E-02 
656	 1,43702986648902E-02 
657	 1,41229251079275E-02 
658	 1,38531554752895E-02 
659	 1,34290522958858E-02 
660	 0,013313332073017 
661	 1,33439980939022E-02 
662	 1,27920998436627E-02 
663	 1,20605356330572E-02 
664	 1,14677119339027E-02 
665	 1,16547595224454E-02 
666	 1,21379305036665E-02 
667	 1,20617952772473E-02 
668	 1,19415308927153E-02 
669	 1,18414854089019E-02 
670	 1,13982668062368E-02 
671	 0,011261353191344 
672	 1,18766993579593E-02 
673	 1,20143991360892E-02 
674	 1,18156308595632E-02 
675	 0,012201480157835 
676	 1,24516892857518E-02 
677	 1,22932837264906E-02 
678	 1,17004362279766E-02 
679	 1,13328140043024E-02 
680	 1,19453485890263E-02 
681	 1,19667856760981E-02 
682	 1,13775738928783E-02 
683	 1,12704462206931E-02 
684	 1,17821604631962E-02 
685	 1,28349713399155E-02 
686	 1,29947952283917E-02 
687	 1,27897482647393E-02 
688	 1,34908718558271E-02 
689	 1,45321576006595E-02 
690	 1,54927853919761E-02 
691	 1,52727372964233E-02 
692	 1,51539626622879E-02 
693	 1,63126726125041E-02 
694	 1,80547249418344E-02 
695	 2,00292111701633E-02 
696	 0,021635392407933 
697	 0,023756031087029 
698	 2,66524392889413E-02 
699	 2,94759578465142E-02 
700	 3,24531651822184E-02 
701	 3,59667981957526E-02 
702	 3,97649105106749E-02 
703	 4,38057741587723E-02 
704	 4,81808856724615E-02 
705	 5,27655559964292E-02 
706	 0,057414560538407 
707	 6,17447227186663E-02 
708	 6,59328811420407E-02 
709	 7,03861833775717E-02 
710	 7,50169781758311E-02 
711	 7,96634366790044E-02 
712	 8,37728549181414E-02 
713	 8,75782640788781E-02 
714	 0,091320172202907 
715	 9,46267007683806E-02 
716	 9,77870433368443E-02 
717	 0,101800358474971 
718	 0,105256340528523 
719	 0,10769840358443 
720	 0,110305124961061 
721	 0,112865874514975 
722	 0,114987694148857 
723	 0,117051476938118 
724	 0,119136079421291 
725	 0,121184321074778 
726	 0,123142738911395 
727	 0,124925427931709 
728	 0,126180793117906 
729	 0,127193960087705 
730	 0,12855526271828 
731	 0,129686233402554 
732	 0,130561736620201 
733	 0,13183319631924 
734	 0,133082434888245 
735	 0,133925712231679 
736	 0,134528134237791 
737	 0,135048215541664 
738	 0,135811006761258 
739	 0,136421702782981 
740	 0,136810822474446 
741	 0,137497357366478 
742	 0,138159269597325 
743	 0,138389433476437 
744	 0,138709396277699 
745	 0,13923045149267 
746	 0,139902017030014 
747	 0,140535219336966 
748	 0,141014031187604 
749	 0,141415947865341 
750	 0,141682009750007 
751	 0,141706955106779 
752	 0,141733614246574 
753	 0,141901609305012 
754	 0,14242628269334 
755	 0,142846681790609 
756	 0,142878119570762 
757	 0,14327696320123 
758	 0,14378351729628 
759	 0,143580024119922 
760	 0,143816363112666 
761	 0,144625684401365 
762	 0,144774226473669 
763	 0,144659562570158 
764	 0,144717883389347 
765	 0,144837983082874 
766	 0,145033971663474 
767	 0,145401221752626 
768	 0,145565044612172 
769	 0,145496375241344 
770	 0,146008365914979 
771	 0,146589758188424 
772	 0,146577374648329 
773	 0,146715423149479 
774	 0,146969973256209 
775	 0,146638515290497 
776	 0,146629820478723 
777	 0,147293618085853 
778	 0,147469992224638 
779	 0,1474728588722 
780	 0,147960948739213 
781	 0,148110163228595 
782	 0,147883957450643 
783	 0,147889916265529 
784	 0,148227462982849 
785	 0,148862244958464 
786	 0,148924927638783 
787	 0,148647492402915 
788	 0,148660701642248 
789	 0,148869755005979 
790	 0,14916942139657 
791	 0,149234560846699 
792	 0,148985975347139 
793	 0,148491430114243 
794	 0,149103232128158 
795	 0,150171862099269 
796	 0,149796557149283 
797	 0,14967967407536 
798	 0,150204733789218 
799	 0,15037773751864 
800	 0,150324106470604 
801	 0,150219074483321 
802	 0,15017783239358 
803	 0,150293830667284 
804	 0,150749776343678 
805	 0,151052635334729 
806	 0,151065388087358 
807	 0,151229623778299 
808	 0,151371253246413 
809	 0,151294992922444 
810	 0,15151705514252 
811	 0,151969513897434 
812	 0,152162556341241 
813	 0,152340740978752 
814	 0,152548824675919 
815	 0,152456365106623 
816	 0,152374797822494 
817	 0,152691345018846 
818	 0,153038215531421 
819	 0,153314382429289 
820	 0,15349379062012 
821	 0,153680638466555 
822	 0,153884414283441 
823	 0,153805196765297 
824	 0,153704606495857 
825	 0,153947307635091 
826	 0,154461449604001 
827	 0,154946497013128 
828	 0,154562810090749 
829	 0,154049020834817 
830	 0,153850105915748 
831	 0,154010843263179 
832	 0,154380653843402 
833	 0,154738207568045 
834	 0,154998629561374 
835	 0,155065204071681 
836	 0,154704071929068 
837	 0,154580337229095 
838	 0,15500695112411 
839	 0,155359641364238 
840	 0,155529727657639 
841	 0,155481254230973 
842	 0,15513833672401 
843	 0,154844671519051 
844	 0,155815027574421 
845	 0,156307157700871 
846	 0,155585152372154 
847	 0,155868528713708 
848	 0,156494514148072 
849	 0,156196088480724 
850	 0,155951775825634 
851	 0,155955159842182 
852	 0,156052137347525 
853	 0,155961407624613 
854	 0,155632914552645 
855	 0,155907749636899 
856	 0,156306510122157 
857	 0,156062175529389 
858	 0,156071590361433 
859	 0,156370429562028 
860	 0,156314927470703 
861	 0,156445628890426 
862	 0,156884056275157 
863	 0,156456151561227 
864	 0,156004698488511 
865	 0,156750132998273 
866	 0,15763193586405 
867	 0,158310486865781 
868	 0,158644716591868 
869	 0,158809234487888 
870	 0,158838699242725 
871	 0,158322251941822 
872	 0,157940983483894 
873	 0,158500891487573 
874	 0,158554764127789 
875	 0,158223238048367 
876	 0,158907008037656 
877	 0,159065128536701 
878	 0,158343776138241 
879	 0,158743070595182 
880	 0,159212644375164 
881	 0,158545758564362 
882	 0,158672727367852 
883	 0,15935654869231 
884	 0,15888928226555 
885	 0,158766852052524 
886	 0,159332037958536 
887	 0,159484770601041 
888	 0,159376104374004 
889	 0,159237179933809 
890	 0,159374939935454 
891	 0,159705569732572 
892	 0,1598992626502 
893	 0,160130760142713 
894	 0,160394256899272 
895	 0,160500522673846 
896	 0,160413488427584 
897	 0,160139449870748 
898	 0,159877922315409 
899	 0,159848418973377 
900	 0,160351713125151 
901	 0,160924107680584 
902	 0,161299904846587 
903	 0,161063897119822 
904	 0,161135189629691 
905	 0,161913644571414 
906	 0,161801744444362 
907	 0,161180995090008 
908	 0,160874096784022 
909	 0,161033295227663 
910	 0,161404891827431 
911	 0,160876472545774 
912	 0,161120315350884 
913	 0,162492655578046 
914	 0,162080632704826 
915	 0,161245786569139 
916	 0,16171700970676 
917	 0,16195242678315 
918	 0,16172680252653 
919	 0,16120991017749 
920	 0,160862157554079 
921	 0,160883698650443 
922	 0,161272516462111 
923	 0,161348647921548 
924	 0,160621264651772 
925	 0,160095253425791 
926	 0,159694944608744 
927	 0,158934605064556 
928	 0,158940900883234 
929	 0,159651508679867 
930	 0,159725625769506 
931	 0,159221465599656 
932	 0,15835963755748 
933	 0,158465298481151 
934	 0,158589861750412 
935	 0,157388885469315 
936	 0,157156198903948 
937	 0,157515664808403 
938	 0,155784071558844 
939	 0,154885748436049 
940	 0,155515900006976 
941	 0,155092031503175 
942	 0,154366874001783 
943	 0,154110631106253 
944	 0,153902573739749 
945	 0,153440220342802 
946	 0,152322160585263 
947	 0,150691937313706 
948	 0,149092024767093 
949	 0,149288431008423 
950	 0,14912827771481 
951	 0,147592947430948 
952	 0,146836354261399 
953	 0,146422919910486 
954	 0,145556154465974 
955	 0,14393505223482 
956	 0,142251613034599 
957	 0,142428094265712 
958	 0,142592900407397 
959	 0,142096511412175 
960	 0,141173713552183 
961	 0,140761653043538 
962	 0,141257031369335 
963	 0,139634013986454 
964	 0,137549425506007 
965	 0,138105184482791 
966	 0,140181932487664 
967	 0,141716194643412 
968	 0,136979291127919 
969	 0,134691697841667 
970	 0,137711955937757 
971	 0,139015005045341 
972	 0,139192399064952 
973	 0,139135620337803 
974	 0,138145194845501 
975	 0,137298126091956 
976	 0,13861910123368 
977	 0,13891991654423 
978	 0,137992667657288 
979	 0,138300940158018 
980	 0,13917877190119 
981	 0,14008981861544 
982	 0,140090705902127 
983	 0,13924557674763 
984	 0,13782572427388 
985	 0,136788902069712 
986	 0,13679294525627 
987	 0,138656792545272 
988	 0,139494060939589 
989	 0,139400267804501 
990	 0,142476583326104 
991	 0,143531238050187 
992	 0,140719161065972 
993	 0,140394022052259 
994	 0,142134781241118 
995	 0,144643853795986 
996	 0,144825590929878 
997	 0,143341068142048 
998	 0,142638416714951 
999	 0,143960903562036 
1000	 0,146751084999704 
1001	 0,147584927186483 
1002	 0,148058348147538 
1003	 0,1486937029075 
1004	 0,147933969201771 
1005	 0,146666786206894 
1006	 0,145925153997537 
1007	 0,146026167817674 
1008	 0,146484906955309 
1009	 0,146220705239541 
1010	 0,149664414804469 
1011	 0,155197307309459 
1012	 0,154271573890729 
1013	 0,151236656615761 
1014	 0,148517068566182 
1015	 0,147497610164141 
1016	 0,148791466390252 
1017	 0,152251337304078 
1018	 0,153824304230073 
1019	 0,153441378013988 
1020	 0,152059512004554 
1021	 0,150353627906741 
1022	 0,150875172793641 
1023	 0,160488283695822 
1024	 0,164473940017827 
1025	 0,159821242535313 
1026	 0,158904128168677 
1027	 0,159364616003896 
1028	 0,159053573955009 
1029	 0,154284496186781 
1030	 0,152632589043095 
1031	 0,162094155590459 
1032	 0,162650853953402 
1033	 0,156869867072903 
1034	 0,158138666669307 
1035	 0,160112753272856 
1036	 0,161001033465391 
1037	 0,159494662045605 
1038	 0,162810595569993 
1039	 0,171092904956008 
1040	 0,168160409254207 
1041	 0,160617449979252 
1042	 0,155552844358648 
1043	 0,156731850902929 
1044	 0,160653165607896 
1045	 0,162018674642295 
1046	 0,16443869215807 
1047	 0,167837943051673 
1048	 0,171466624104819 
1049	 0,165455823934607 
1050	 0,153432740163268 
1051	 0,161905314161051 
1052	 0,17004818492116 
1053	 0,168553510277718 
1054	 0,168015870257205 
1055	 0,16996844349974 
1056	 0,174127141683436 
1057	 0,17073819827113 
1058	 0,164669729156738 
1059	 0,164731981844041 
1060	 0,167968327246673 
1061	 0,168612733527524 
1062	 0,155044789771918 
1063	 0,153812660182505 
1064	 0,166562565384488 
1065	 0,165900315540621 
1066	 0,166738250467714 
1067	 0,172624576760699 
1068	 0,16557989671012 
1069	 0,163737464104704 
1070	 0,177661762540574 
1071	 0,173494444699182 
1072	 0,161666994518373 
1073	 0,158948247110798 
1074	 0,163355201551957 
1075	 0,170645464299259 
