Wavelength	GRA-VAN00342.asd
325	 0,394274757296212 
326	 0,368018496805795 
327	 0,470369735190714 
328	 0,608408721577459 
329	 0,449322609090666 
330	 0,155894833180797 
331	 0,206469062837582 
332	 0,283192385463564 
333	 0,314260561442893 
334	 0,116171195518648 
335	 0,048779956374271 
336	 0,195685241298059 
337	 0,172489789428337 
338	 0,106946248302733 
339	 0,103538689009364 
340	 0,153537697479803 
341	 0,1912297362791 
342	 0,12428895190305 
343	 9,42911479643022E-02 
344	 0,141552752604708 
345	 0,185521727191193 
346	 0,21466475486079 
347	 0,201185970384553 
348	 0,124016589856134 
349	 2,04249694574051E-02 
350	 3,59334482423523E-02 
351	 8,20154593285884E-02 
352	 0,107197776594328 
353	 9,78483529244497E-02 
354	 6,91478176813787E-02 
355	 4,02227319378982E-02 
356	 6,37727717755495E-02 
357	 0,108191068168159 
358	 6,11677373035575E-02 
359	 3,04009872237756E-02 
360	 0,065229102627544 
361	 8,69270239751496E-02 
362	 9,05386399491058E-02 
363	 7,71972716843761E-02 
364	 6,12904667966894E-02 
365	 0,050808053814091 
366	 5,20775587100677E-02 
367	 7,54361331263591E-02 
368	 0,117462930527074 
369	 0,110457696977921 
370	 0,073547922586495 
371	 4,96812481705122E-02 
372	 0,067820836109746 
373	 0,111040734577462 
374	 8,73760158057754E-02 
375	 0,053009308672847 
376	 0,055434646608466 
377	 6,61837309760584E-02 
378	 7,20527081558393E-02 
379	 5,07838348038478E-02 
380	 0,041524856282922 
381	 5,17100798745691E-02 
382	 5,50847373327704E-02 
383	 5,90046429719321E-02 
384	 7,09342225446204E-02 
385	 7,13619260723196E-02 
386	 5,95522287671025E-02 
387	 3,75051422579646E-02 
388	 3,66185328609083E-02 
389	 6,20739447261493E-02 
390	 5,60406023672845E-02 
391	 3,75982452189389E-02 
392	 3,35344748610504E-02 
393	 3,16534306899018E-02 
394	 3,12475977293524E-02 
395	 3,67211992138548E-02 
396	 4,30536036093069E-02 
397	 4,74497974406823E-02 
398	 5,25556744524114E-02 
399	 5,07492774534113E-02 
400	 2,95643232732511E-02 
401	 2,42635299904234E-02 
402	 3,56567983607504E-02 
403	 3,12373154497182E-02 
404	 1,99679668601073E-02 
405	 1,07137847235556E-02 
406	 2,25132426169947E-02 
407	 4,12880656844108E-02 
408	 0,037005238724404 
409	 3,48727038930718E-02 
410	 3,88760567448196E-02 
411	 3,06527500985331E-02 
412	 2,38431775023471E-02 
413	 3,09665305959711E-02 
414	 3,26410071506076E-02 
415	 2,89325030761929E-02 
416	 2,94675244717611E-02 
417	 0,027366329999913 
418	 2,21191279315345E-02 
419	 2,72256195530509E-02 
420	 3,50815534723866E-02 
421	 3,54663717014838E-02 
422	 3,40848365746416E-02 
423	 3,26209625342426E-02 
424	 3,22830452251334E-02 
425	 3,16746536384698E-02 
426	 3,01757119705843E-02 
427	 3,02899165477152E-02 
428	 3,09581256432086E-02 
429	 2,99533437987553E-02 
430	 2,66755733467929E-02 
431	 2,27120179211991E-02 
432	 2,56754200031935E-02 
433	 2,97469023052646E-02 
434	 0,02957284596126 
435	 2,59956024088441E-02 
436	 2,16425833011039E-02 
437	 2,29215117042108E-02 
438	 0,023973206959099 
439	 2,27518651604413E-02 
440	 2,16600278071595E-02 
441	 2,26439022312694E-02 
442	 2,78063637817882E-02 
443	 2,91362205196163E-02 
444	 0,026601853935976 
445	 2,71741457460382E-02 
446	 2,74937770198038E-02 
447	 2,59313220410672E-02 
448	 2,71288365988117E-02 
449	 2,93638983710533E-02 
450	 2,83353215208295E-02 
451	 2,69102531047415E-02 
452	 0,026233735550751 
453	 2,72273515183962E-02 
454	 2,81132376818281E-02 
455	 2,73802657609749E-02 
456	 2,89526557294751E-02 
457	 3,12931216645652E-02 
458	 2,82785425064185E-02 
459	 2,61929248721155E-02 
460	 2,73045529862285E-02 
461	 2,70012723638256E-02 
462	 2,63408456190494E-02 
463	 2,72693184832533E-02 
464	 2,77829804715224E-02 
465	 2,75813763040568E-02 
466	 2,70383027207597E-02 
467	 0,02866676392683 
468	 3,33472693450045E-02 
469	 3,34495192412686E-02 
470	 3,01489105884369E-02 
471	 2,76498374531296E-02 
472	 2,73867365257979E-02 
473	 2,92361190603237E-02 
474	 2,89344158185994E-02 
475	 2,88912637511173E-02 
476	 3,15144720133836E-02 
477	 3,16749490429003E-02 
478	 3,01130577448442E-02 
479	 3,21326083382393E-02 
480	 3,19985075795261E-02 
481	 2,81063528656899E-02 
482	 2,92231177388945E-02 
483	 3,20275343103277E-02 
484	 3,03286948671607E-02 
485	 2,93434760028106E-02 
486	 0,029943379666368 
487	 3,01995911359325E-02 
488	 2,94906009959228E-02 
489	 2,76233822450017E-02 
490	 2,75560992964517E-02 
491	 2,90514735906613E-02 
492	 3,06435464295081E-02 
493	 3,12604578493222E-02 
494	 3,06939692593716E-02 
495	 3,09318940062626E-02 
496	 3,06451881887323E-02 
497	 2,82450030192043E-02 
498	 2,81103116731797E-02 
499	 3,01831023539671E-02 
500	 3,12887742279156E-02 
501	 3,12650327040673E-02 
502	 3,02610153868562E-02 
503	 3,06542460859861E-02 
504	 3,17361011386797E-02 
505	 3,16243127696662E-02 
506	 3,24139287500005E-02 
507	 3,41174414026117E-02 
508	 3,42605043457601E-02 
509	 3,36386472065486E-02 
510	 3,30967513623624E-02 
511	 3,28179661600748E-02 
512	 3,25935443858017E-02 
513	 3,13768252141442E-02 
514	 3,17579701775945E-02 
515	 3,42190036774251E-02 
516	 3,41480790848668E-02 
517	 3,30071027012542E-02 
518	 3,34510777474794E-02 
519	 3,39227654174354E-02 
520	 3,41516740486971E-02 
521	 3,48603303428642E-02 
522	 3,41729226331799E-02 
523	 3,11755133815121E-02 
524	 3,13292481473071E-02 
525	 3,35645123715258E-02 
526	 3,35338669103331E-02 
527	 3,34090597431874E-02 
528	 3,37275818502246E-02 
529	 3,36018142815996E-02 
530	 3,37882465777454E-02 
531	 3,51659852263777E-02 
532	 3,49663545345397E-02 
533	 3,34161131602567E-02 
534	 3,31653982647048E-02 
535	 3,35848218489621E-02 
536	 3,42384398193156E-02 
537	 0,034580457571508 
538	 3,48385687818973E-02 
539	 3,56551842011747E-02 
540	 3,61408930443862E-02 
541	 0,036004058508556 
542	 3,52410680500807E-02 
543	 3,47930807474995E-02 
544	 3,54963226158458E-02 
545	 3,53885336893833E-02 
546	 3,47757740042822E-02 
547	 3,57806112333089E-02 
548	 3,63839784380563E-02 
549	 3,57699162377842E-02 
550	 3,56125540065112E-02 
551	 3,58333268362073E-02 
552	 3,60281446401544E-02 
553	 0,035857775975498 
554	 3,54402173043139E-02 
555	 3,56941998560486E-02 
556	 3,61049717784109E-02 
557	 3,62477637825133E-02 
558	 3,66792985843476E-02 
559	 3,71753541788898E-02 
560	 3,69435534751354E-02 
561	 3,67203711492502E-02 
562	 3,68361073900491E-02 
563	 3,73686427789863E-02 
564	 3,76876639106619E-02 
565	 3,69732605762869E-02 
566	 3,69187445961271E-02 
567	 3,75622070208583E-02 
568	 3,74086209511557E-02 
569	 3,69849720614121E-02 
570	 3,67532043597993E-02 
571	 3,74266359250116E-02 
572	 3,84792596305644E-02 
573	 3,84841582992273E-02 
574	 3,88694257227971E-02 
575	 0,039918609575436 
576	 4,04098837871344E-02 
577	 4,06885003096949E-02 
578	 4,12196978281331E-02 
579	 4,10716850829859E-02 
580	 4,05980372445062E-02 
581	 4,15193466308623E-02 
582	 4,24573724717917E-02 
583	 4,26754738110742E-02 
584	 4,31189412761722E-02 
585	 4,35320924819186E-02 
586	 4,32320723215376E-02 
587	 4,32360992737443E-02 
588	 4,37532604117677E-02 
589	 4,41610282914783E-02 
590	 4,45339835905813E-02 
591	 4,49380889132083E-02 
592	 4,48279593745209E-02 
593	 4,44127768402958E-02 
594	 4,45239367020775E-02 
595	 4,46909910128538E-02 
596	 4,47479663983131E-02 
597	 4,50784777182845E-02 
598	 4,54307546947804E-02 
599	 4,53958178486513E-02 
600	 4,50205597527491E-02 
601	 4,46162566001531E-02 
602	 4,53462766543106E-02 
603	 4,59253449118785E-02 
604	 4,53471886453698E-02 
605	 4,44462449066988E-02 
606	 4,36589109801036E-02 
607	 4,36217208465599E-02 
608	 4,37848276191727E-02 
609	 4,39266259691135E-02 
610	 0,044194933685419 
611	 4,41328989288819E-02 
612	 4,31929286138777E-02 
613	 4,34220607343805E-02 
614	 4,44676448951241E-02 
615	 4,33148620446741E-02 
616	 4,23382788411637E-02 
617	 0,042930268373794 
618	 4,29839242762758E-02 
619	 4,26877533935644E-02 
620	 4,30756426384511E-02 
621	 4,29867571004028E-02 
622	 4,23040012859039E-02 
623	 4,22993947327098E-02 
624	 4,27570966940675E-02 
625	 4,33514509381935E-02 
626	 0,043582357116181 
627	 4,34434971350161E-02 
628	 4,33035193632684E-02 
629	 0,043159945927056 
630	 4,31138546685014E-02 
631	 4,37801905690232E-02 
632	 4,44858459354994E-02 
633	 4,40244099893693E-02 
634	 4,39485533361432E-02 
635	 0,044610593053472 
636	 4,55535577859642E-02 
637	 4,58556064196699E-02 
638	 4,49027122489916E-02 
639	 4,51122585369261E-02 
640	 4,62544544995967E-02 
641	 4,65959989974853E-02 
642	 4,67603982143598E-02 
643	 4,69687586810923E-02 
644	 4,72765891700635E-02 
645	 4,75657888636661E-02 
646	 0,047674521007942 
647	 4,76011020805334E-02 
648	 4,73236231860823E-02 
649	 4,66965636699375E-02 
650	 4,63706303719227E-02 
651	 4,66894372874934E-02 
652	 4,64544923642973E-02 
653	 4,59773745061992E-02 
654	 4,63800588477342E-02 
655	 4,59929740633341E-02 
656	 4,45456502371624E-02 
657	 4,35690773058113E-02 
658	 4,30697898795556E-02 
659	 4,29311237745817E-02 
660	 4,27249187468192E-02 
661	 4,22604808754913E-02 
662	 4,12739953141832E-02 
663	 4,06393591417707E-02 
664	 4,07276225397745E-02 
665	 0,040685575945165 
666	 4,03650071758483E-02 
667	 3,96920676810853E-02 
668	 3,93244175331255E-02 
669	 3,93714957209824E-02 
670	 3,93960411085309E-02 
671	 3,93905935002709E-02 
672	 3,93555730389039E-02 
673	 3,93250297214623E-02 
674	 3,92738529175014E-02 
675	 3,91341980184836E-02 
676	 3,88808139534884E-02 
677	 3,86636072512176E-02 
678	 3,92299187264197E-02 
679	 4,02396979678704E-02 
680	 4,12052910701908E-02 
681	 4,11905061460648E-02 
682	 4,04893070565875E-02 
683	 4,07529896759561E-02 
684	 4,14065890156645E-02 
685	 4,20394603466621E-02 
686	 4,20770932332147E-02 
687	 4,21667141495061E-02 
688	 4,36685944305709E-02 
689	 4,43334480028135E-02 
690	 4,40629342368952E-02 
691	 4,55279605969078E-02 
692	 4,76354861176789E-02 
693	 4,93237299902517E-02 
694	 5,11094679802257E-02 
695	 5,30775553109832E-02 
696	 5,51840519481649E-02 
697	 5,77428297210388E-02 
698	 6,07986651730493E-02 
699	 6,36438835258296E-02 
700	 6,68500826549647E-02 
701	 7,12161481859943E-02 
702	 7,52358623548135E-02 
703	 7,87667993855031E-02 
704	 8,27529416164234E-02 
705	 8,69055270522637E-02 
706	 9,09752580215494E-02 
707	 9,45903983042884E-02 
708	 9,80064202504169E-02 
709	 0,101794351520352 
710	 0,105418362836357 
711	 0,10871086811428 
712	 0,111721692092935 
713	 0,114566930901375 
714	 0,117353631537755 
715	 0,120096769308843 
716	 0,122743404061491 
717	 0,125193166214137 
718	 0,127235418607008 
719	 0,128843969322504 
720	 0,130389266886027 
721	 0,132022739363033 
722	 0,133880798395949 
723	 0,135368696098718 
724	 0,136522779003523 
725	 0,137983608516956 
726	 0,139424842355068 
727	 0,140615870035765 
728	 0,141409233117772 
729	 0,142032263599854 
730	 0,142922721664677 
731	 0,143747083511364 
732	 0,144389448874472 
733	 0,144804255331541 
734	 0,145157781604654 
735	 0,145599800445882 
736	 0,146044836178389 
737	 0,146567749996573 
738	 0,147425629849556 
739	 0,148120186650687 
740	 0,148455696682946 
741	 0,148631530884093 
742	 0,148670356167177 
743	 0,148590338813851 
744	 0,148906993231932 
745	 0,149492784974322 
746	 0,149560209990089 
747	 0,149619079900184 
748	 0,149943154145403 
749	 0,15046997099826 
750	 0,150861469544268 
751	 0,15061312119374 
752	 0,150523606212847 
753	 0,150816804511593 
754	 0,151431230796794 
755	 0,151809126221814 
756	 0,151596449748284 
757	 0,151568002335799 
758	 0,151720665878557 
759	 0,151760737438817 
760	 0,151964651715234 
761	 0,152357057751682 
762	 0,15265097357709 
763	 0,152870173963322 
764	 0,153047193335828 
765	 0,153061026128157 
766	 0,153079707140771 
767	 0,153671532701511 
768	 0,153780160856428 
769	 0,153197961065259 
770	 0,153342352578233 
771	 0,153920463477628 
772	 0,154428917338013 
773	 0,154435973396661 
774	 0,154128920030152 
775	 0,154461357296497 
776	 0,154723981067086 
777	 0,154599149729376 
778	 0,154591196066503 
779	 0,154672789967011 
780	 0,154719069580709 
781	 0,154836127858538 
782	 0,155021581553425 
783	 0,155204933840841 
784	 0,15525439332932 
785	 0,15512496794708 
786	 0,155207765611557 
787	 0,155434713310534 
788	 0,155578734927856 
789	 0,155707262615037 
790	 0,155882943413158 
791	 0,156366338074027 
792	 0,156577586746256 
793	 0,15613132088478 
794	 0,15611207005426 
795	 0,156460382090877 
796	 0,156648790527831 
797	 0,156778436993089 
798	 0,156838512443749 
799	 0,156696415682264 
800	 0,156685118976323 
801	 0,157078493640976 
802	 0,157119019148674 
803	 0,156989235955356 
804	 0,157622889257028 
805	 0,157738568801929 
806	 0,157127610475449 
807	 0,157436687825573 
808	 0,157897985347068 
809	 0,15760653956434 
810	 0,157532392425935 
811	 0,157799576246134 
812	 0,158196673318884 
813	 0,158541811189042 
814	 0,158735651452664 
815	 0,158849353728972 
816	 0,158910181553522 
817	 0,158938234757647 
818	 0,158587380851806 
819	 0,158167929757864 
820	 0,158874062689995 
821	 0,159211192097723 
822	 0,158659421611299 
823	 0,158888863280074 
824	 0,159463041313957 
825	 0,159615529109027 
826	 0,159704193637649 
827	 0,159689422652277 
828	 0,159133469236841 
829	 0,159050844392951 
830	 0,159762221541297 
831	 0,159498516666546 
832	 0,158927876861393 
833	 0,159207096788732 
834	 0,15966588079195 
835	 0,160063384809139 
836	 0,160186828527308 
837	 0,16023019731581 
838	 0,1602769512827 
839	 0,160102648734912 
840	 0,159904196408015 
841	 0,159981224586799 
842	 0,159864297715612 
843	 0,159622997143973 
844	 0,159892612387578 
845	 0,16013827926092 
846	 0,160073674877438 
847	 0,159932927797349 
848	 0,159883309030317 
849	 0,160114161367716 
850	 0,160294022391741 
851	 0,160364861358809 
852	 0,160451704341845 
853	 0,160564483649058 
854	 0,160660645211767 
855	 0,1604375849313 
856	 0,160030414419024 
857	 0,159670868967081 
858	 0,15958813998225 
859	 0,159824473133316 
860	 0,160329230790639 
861	 0,160623689411916 
862	 0,160501721971304 
863	 0,160556290627354 
864	 0,160542504083144 
865	 0,160078768525476 
866	 0,160078453518034 
867	 0,160427274125185 
868	 0,160047720927902 
869	 0,15980583756428 
870	 0,160071395354763 
871	 0,160454636836061 
872	 0,160584960478376 
873	 0,160104968542259 
874	 0,160246084222145 
875	 0,160850777646387 
876	 0,160620491465114 
877	 0,160443536179529 
878	 0,160667733460032 
879	 0,16106591698226 
880	 0,161255345270562 
881	 0,160895703214218 
882	 0,16112627254489 
883	 0,161626714726504 
884	 0,160869932955132 
885	 0,160426179580527 
886	 0,160751287805215 
887	 0,161015268639537 
888	 0,16112990137282 
889	 0,16105361192748 
890	 0,160748733825674 
891	 0,160536039859053 
892	 0,161148681069918 
893	 0,161327202995223 
894	 0,160901350541762 
895	 0,161119949623482 
896	 0,161466877053969 
897	 0,161541013092179 
898	 0,161928895425048 
899	 0,162189486333168 
900	 0,161381736205858 
901	 0,161218545022351 
902	 0,161741942663066 
903	 0,160954259447787 
904	 0,160849179930793 
905	 0,162368097417845 
906	 0,162657287736252 
907	 0,162145115001257 
908	 0,161953359424414 
909	 0,161942314929359 
910	 0,162077964427443 
911	 0,162251317594703 
912	 0,162337577187201 
913	 0,162290050394569 
914	 0,162335199751086 
915	 0,162163578802987 
916	 0,16147508447631 
917	 0,161417727310653 
918	 0,161969476277221 
919	 0,16248511606615 
920	 0,162850521108933 
921	 0,162902860571055 
922	 0,162392377792558 
923	 0,161587842963139 
924	 0,160856999715962 
925	 0,16133337382936 
926	 0,162291740800571 
927	 0,162168070165003 
928	 0,161116127202258 
929	 0,159772838618945 
930	 0,160338511342538 
931	 0,160707803252634 
932	 0,159903200743191 
933	 0,160491375156081 
934	 0,161244979536748 
935	 0,160316168327173 
936	 0,159664703865878 
937	 0,159421770523583 
938	 0,158470969446051 
939	 0,158649425768432 
940	 0,160157200387519 
941	 0,16033438994716 
942	 0,159745440552305 
943	 0,159076801046878 
944	 0,158532296181128 
945	 0,158255860444944 
946	 0,158412441931834 
947	 0,157706858362108 
948	 0,156439433232503 
949	 0,157279233432869 
950	 0,157612587374378 
951	 0,156159889391562 
952	 0,155069580772095 
953	 0,154688184630724 
954	 0,155108961472507 
955	 0,155890791882942 
956	 0,15617217603911 
957	 0,153947648378882 
958	 0,153125760547823 
959	 0,154371974814063 
960	 0,153878187939046 
961	 0,152930653141897 
962	 0,152682565916241 
963	 0,153442438373885 
964	 0,154067553982753 
965	 0,152800605992235 
966	 0,152096115700265 
967	 0,152184834827282 
968	 0,151510773568652 
969	 0,152167452740328 
970	 0,15427123102958 
971	 0,153637101734956 
972	 0,152035247275419 
973	 0,151426638228928 
974	 0,15208112751138 
975	 0,153272533671917 
976	 0,153620849553154 
977	 0,152675494232589 
978	 0,151312819439464 
979	 0,15314431134806 
980	 0,154200054863212 
981	 0,152897440913375 
982	 0,152304958587771 
983	 0,15315531267831 
984	 0,155571486132914 
985	 0,155074586924483 
986	 0,152833428294423 
987	 0,152722101903158 
988	 0,15353095316784 
989	 0,154945873891028 
990	 0,15695178413867 
991	 0,15834340450256 
992	 0,158465937329899 
993	 0,158024484157539 
994	 0,156434360039574 
995	 0,153408515583257 
996	 0,153476477261232 
997	 0,156198625779069 
998	 0,158998255240534 
999	 0,160598808515028 
1000	 0,160472017769655 
1001	 0,15851312383534 
1002	 0,158440918911333 
1003	 0,161038925675942 
1004	 0,158610250877874 
1005	 0,15565629852528 
1006	 0,156933231480779 
1007	 0,159049437022324 
1008	 0,160056245507676 
1009	 0,157541957448667 
1010	 0,159135425357471 
1011	 0,164328973122339 
1012	 0,164700099569366 
1013	 0,162888029074846 
1014	 0,160732387207656 
1015	 0,161501627330063 
1016	 0,164265348968694 
1017	 0,16741033989328 
1018	 0,166034011493029 
1019	 0,162130158637949 
1020	 0,159955983458779 
1021	 0,160761302946826 
1022	 0,162961308574854 
1023	 0,160395890295592 
1024	 0,162489808928768 
1025	 0,169829316121178 
1026	 0,170272572146915 
1027	 0,169207246894439 
1028	 0,170263667029303 
1029	 0,171165390468671 
1030	 0,171758345463719 
1031	 0,171955586600182 
1032	 0,169781762684085 
1033	 0,167573385215998 
1034	 0,17088877387099 
1035	 0,168275106108925 
1036	 0,16173583429399 
1037	 0,171014824975697 
1038	 0,173870127952602 
1039	 0,164605078223365 
1040	 0,170118265033197 
1041	 0,177341855264974 
1042	 0,174808919063523 
1043	 0,170538066112448 
1044	 0,167226065630823 
1045	 0,167141051383915 
1046	 0,16824136171841 
1047	 0,17023887116696 
1048	 0,173374969556078 
1049	 0,178959188523559 
1050	 0,184505885932516 
1051	 0,180083600281153 
1052	 0,178818092306741 
1053	 0,185011539084539 
1054	 0,180589219329323 
1055	 0,178191122005818 
1056	 0,18703547107037 
1057	 0,180863089229361 
1058	 0,171965351955654 
1059	 0,181963260309173 
1060	 0,181486663916471 
1061	 0,172981295374766 
1062	 0,176185103356213 
1063	 0,181745787520979 
1064	 0,185299643410136 
1065	 0,180750546979256 
1066	 0,171868883116298 
1067	 0,163653273827123 
1068	 0,166735484317018 
1069	 0,172809583013524 
1070	 0,175598217350091 
1071	 0,180340154061995 
1072	 0,184920123350374 
1073	 0,185837435044803 
1074	 0,17735750029662 
1075	 0,1703106425653 
