Wavelength	GRA-VIE00033.asd
325	 0,181963427167377 
326	 0,287645844303412 
327	 0,310259215889531 
328	 0,20070509724507 
329	 0,132992527122564 
330	 0,103585677788683 
331	 0,142832398191165 
332	 0,19903461498927 
333	 0,249258130029573 
334	 0,115327195819856 
335	 0,123430893156639 
336	 0,276437991306045 
337	 0,289347063852352 
338	 0,258478063011957 
339	 0,246607564718965 
340	 0,189078812257113 
341	 0,10593513443457 
342	 0,097753259501984 
343	 0,14326790299363 
344	 0,200190351179392 
345	 0,161048957021158 
346	 0,107979775585628 
347	 0,135490315268584 
348	 0,135873139798129 
349	 0,105265889116914 
350	 0,092828551877705 
351	 7,57280240457023E-02 
352	 0,052025535081491 
353	 7,79483160836371E-02 
354	 0,119087798368546 
355	 0,134130660263423 
356	 0,15635891932171 
357	 0,173075116283686 
358	 0,126746155554882 
359	 9,82558746736292E-02 
360	 0,118131499393544 
361	 0,110590379911679 
362	 9,48649392454037E-02 
363	 0,107656394342201 
364	 0,111748149692484 
365	 0,10440522576209 
366	 0,107954821582206 
367	 0,114386525509944 
368	 0,116258061740875 
369	 9,51077140016991E-02 
370	 7,76195314009826E-02 
371	 0,114110457780136 
372	 0,116681018575471 
373	 7,50453116312862E-02 
374	 6,55790515306763E-02 
375	 6,63453392627287E-02 
376	 5,95007462658791E-02 
377	 0,070373992892426 
378	 8,96467858656092E-02 
379	 0,089786555585121 
380	 8,70992738103686E-02 
381	 8,40667166893464E-02 
382	 6,69680748618239E-02 
383	 5,60015387302727E-02 
384	 7,12409641534285E-02 
385	 9,02908521784044E-02 
386	 0,102262404489602 
387	 9,58616937216685E-02 
388	 8,89200059364295E-02 
389	 8,96967489748202E-02 
390	 9,79714079790571E-02 
391	 0,10354939201159 
392	 9,47365869729338E-02 
393	 0,084628075376567 
394	 7,83569037608441E-02 
395	 8,17568248872595E-02 
396	 8,78767638190118E-02 
397	 0,091769626022712 
398	 8,42181881196722E-02 
399	 7,14937295863829E-02 
400	 6,24410859479076E-02 
401	 6,77719590170798E-02 
402	 8,22158614174414E-02 
403	 7,60302072821717E-02 
404	 7,17348338262129E-02 
405	 8,26522935299083E-02 
406	 7,58355889631222E-02 
407	 6,07815814856628E-02 
408	 6,67628811106235E-02 
409	 6,81047347050099E-02 
410	 6,12839587156593E-02 
411	 6,44545637179401E-02 
412	 7,22163307036329E-02 
413	 7,81767651077413E-02 
414	 7,14436750555828E-02 
415	 0,05959241879061 
416	 6,79730691654478E-02 
417	 7,28468352698074E-02 
418	 6,67733433448177E-02 
419	 6,51919213923562E-02 
420	 6,64999458351397E-02 
421	 6,70075580022787E-02 
422	 6,37944664195384E-02 
423	 5,90564718494628E-02 
424	 6,23747310492913E-02 
425	 6,42460726278555E-02 
426	 5,97199977755533E-02 
427	 5,89481017907254E-02 
428	 6,12333963594154E-02 
429	 6,31127585149826E-02 
430	 6,36404337443391E-02 
431	 6,27997504670571E-02 
432	 6,24840645088657E-02 
433	 6,30208843044763E-02 
434	 6,45587261393128E-02 
435	 6,66137391637796E-02 
436	 6,75872693312349E-02 
437	 6,33009103287415E-02 
438	 6,14480344031498E-02 
439	 0,064779746405937 
440	 6,87446013101708E-02 
441	 7,05534911333678E-02 
442	 6,75397384987261E-02 
443	 6,48413007286329E-02 
444	 6,38041677233661E-02 
445	 6,35635658848985E-02 
446	 6,50666255554799E-02 
447	 6,83016905320949E-02 
448	 6,83978330339744E-02 
449	 6,68519725145934E-02 
450	 6,78258116258785E-02 
451	 6,78035187802529E-02 
452	 6,64375126203831E-02 
453	 6,70349550986754E-02 
454	 6,75835939748823E-02 
455	 6,62770690203053E-02 
456	 6,67617183266418E-02 
457	 6,87352460794932E-02 
458	 0,069794630529604 
459	 6,95653373975447E-02 
460	 6,82562234683311E-02 
461	 6,89376628040838E-02 
462	 6,96368110001977E-02 
463	 6,73693216377864E-02 
464	 0,065562688166344 
465	 6,51181915817134E-02 
466	 6,61227724986839E-02 
467	 6,61821230685728E-02 
468	 6,41708226512566E-02 
469	 6,53200152607048E-02 
470	 6,81491950021743E-02 
471	 6,83492104711807E-02 
472	 6,87520601141852E-02 
473	 6,92412987013534E-02 
474	 6,47177043225209E-02 
475	 0,061967288016945 
476	 6,73636823222473E-02 
477	 6,89287475849608E-02 
478	 0,066226327660949 
479	 6,50318221960926E-02 
480	 6,47978084178912E-02 
481	 6,49694253408629E-02 
482	 6,20334808701129E-02 
483	 5,98164790889008E-02 
484	 6,45400291598922E-02 
485	 6,73777847646425E-02 
486	 0,066545084475909 
487	 6,48141507866895E-02 
488	 6,47151122175718E-02 
489	 6,76666818271868E-02 
490	 6,75796375957105E-02 
491	 6,51506422762172E-02 
492	 0,064146553077646 
493	 6,37871945835152E-02 
494	 6,37575144166222E-02 
495	 6,29245383990793E-02 
496	 6,24448933373144E-02 
497	 6,36751849482488E-02 
498	 6,58618106817837E-02 
499	 6,75023460084678E-02 
500	 6,48018866809277E-02 
501	 6,21744801024653E-02 
502	 6,21353899785505E-02 
503	 6,25651840272612E-02 
504	 6,33273269559172E-02 
505	 6,48137980111058E-02 
506	 0,065100755421947 
507	 6,42245672801456E-02 
508	 6,52781979962881E-02 
509	 6,60561559484392E-02 
510	 6,46373502648452E-02 
511	 6,48493739523781E-02 
512	 6,65200229942717E-02 
513	 6,74579949675694E-02 
514	 6,75466109471499E-02 
515	 6,70309319632087E-02 
516	 6,83358109768604E-02 
517	 6,98073728787305E-02 
518	 6,88537495389474E-02 
519	 6,85122940739007E-02 
520	 6,90350482125046E-02 
521	 6,81986838084219E-02 
522	 6,77504624211997E-02 
523	 6,87857599805487E-02 
524	 6,84899121223449E-02 
525	 6,75551559435557E-02 
526	 0,068678779973202 
527	 6,91914623061633E-02 
528	 6,84011654394254E-02 
529	 6,79595912260692E-02 
530	 6,73906691165704E-02 
531	 6,60337839901547E-02 
532	 6,60003201806079E-02 
533	 6,69894510303958E-02 
534	 6,64418789714846E-02 
535	 6,60520482411969E-02 
536	 6,67454804402268E-02 
537	 6,75967140404503E-02 
538	 6,79181949563607E-02 
539	 6,65626583419102E-02 
540	 6,65288172839659E-02 
541	 6,81018987423362E-02 
542	 6,77704321494514E-02 
543	 0,067022325512281 
544	 6,74428275718043E-02 
545	 6,79470646672154E-02 
546	 6,82119112552322E-02 
547	 6,79523072439101E-02 
548	 6,76096696968979E-02 
549	 6,74890948877607E-02 
550	 6,79686406137617E-02 
551	 6,85939545876174E-02 
552	 6,86372325880553E-02 
553	 6,81557436881524E-02 
554	 6,73946241015415E-02 
555	 6,72551563222125E-02 
556	 6,71450634589861E-02 
557	 6,66253474424744E-02 
558	 6,68686964831403E-02 
559	 6,76070949180977E-02 
560	 6,77370126995367E-02 
561	 6,75758373485934E-02 
562	 0,067261784790312 
563	 6,70230603216323E-02 
564	 6,67800622044658E-02 
565	 6,63884430803585E-02 
566	 6,62072590554765E-02 
567	 0,066409513796627 
568	 6,73564934358994E-02 
569	 6,77603309487931E-02 
570	 0,066928312475687 
571	 0,067540715307844 
572	 6,90420656702968E-02 
573	 6,93281241090576E-02 
574	 6,93480367760694E-02 
575	 0,069555134481698 
576	 7,06996700311474E-02 
577	 7,18558668398314E-02 
578	 7,19732075812264E-02 
579	 7,30469099566668E-02 
580	 7,50186395114373E-02 
581	 7,63492958476762E-02 
582	 7,72530537677587E-02 
583	 7,78397532281813E-02 
584	 7,82185529144222E-02 
585	 7,86185902577848E-02 
586	 7,93402850830904E-02 
587	 8,04688513386406E-02 
588	 8,17963798666344E-02 
589	 8,23979093038171E-02 
590	 8,26294561978707E-02 
591	 8,28682793106119E-02 
592	 0,083037312057781 
593	 8,31391733888498E-02 
594	 8,30549336397011E-02 
595	 8,34924763848828E-02 
596	 8,45962675413724E-02 
597	 8,49364246571657E-02 
598	 8,47979020251569E-02 
599	 0,084865345069916 
600	 8,44880828591075E-02 
601	 0,08373955736067 
602	 0,083505511815404 
603	 0,083362764730481 
604	 8,29663553873791E-02 
605	 8,25776090475603E-02 
606	 8,20739464617016E-02 
607	 8,09369750993925E-02 
608	 8,04185491961246E-02 
609	 8,07227103286816E-02 
610	 0,079916094379971 
611	 7,89216093559067E-02 
612	 7,90610227192137E-02 
613	 7,87847024108056E-02 
614	 7,79795093604408E-02 
615	 7,75230824081929E-02 
616	 7,73450943573546E-02 
617	 0,077369432234835 
618	 7,72159413374143E-02 
619	 7,71180798423351E-02 
620	 7,77623628061425E-02 
621	 7,76483156091809E-02 
622	 7,65982039457511E-02 
623	 7,63356416402877E-02 
624	 7,64256315417471E-02 
625	 7,63234192031754E-02 
626	 7,63248155158578E-02 
627	 7,66023842815324E-02 
628	 7,76278105459993E-02 
629	 7,81523680863351E-02 
630	 0,077668866088928 
631	 7,76582428501311E-02 
632	 7,81564523598882E-02 
633	 7,89215051274432E-02 
634	 7,95280796653609E-02 
635	 0,079907876329401 
636	 8,03954308990821E-02 
637	 8,11744766040681E-02 
638	 8,23276445599109E-02 
639	 8,29536723263586E-02 
640	 8,31618699705043E-02 
641	 8,35920894183255E-02 
642	 8,44864336043088E-02 
643	 8,57340997137697E-02 
644	 8,59099799219451E-02 
645	 8,57647069776335E-02 
646	 8,64447782924238E-02 
647	 8,63839811542992E-02 
648	 8,56612969575848E-02 
649	 8,59419115793106E-02 
650	 8,61889225610172E-02 
651	 8,56760240371374E-02 
652	 8,45615630827496E-02 
653	 8,32187060073631E-02 
654	 0,08228955224899 
655	 8,16231801832624E-02 
656	 8,09998025875181E-02 
657	 0,079552142480493 
658	 7,80235145252373E-02 
659	 7,71990529186305E-02 
660	 7,57889695009864E-02 
661	 7,38687799706163E-02 
662	 7,23520518164419E-02 
663	 7,12757792018079E-02 
664	 7,05644408834652E-02 
665	 6,93189141310945E-02 
666	 6,80103579104564E-02 
667	 0,067534577242395 
668	 6,70983030747885E-02 
669	 6,65106289145119E-02 
670	 6,58821134826575E-02 
671	 6,57057325732126E-02 
672	 6,62556030291644E-02 
673	 6,59157683691833E-02 
674	 6,50278475247963E-02 
675	 6,51243624333683E-02 
676	 6,52483415273148E-02 
677	 6,50586587388116E-02 
678	 6,45491263166541E-02 
679	 6,43470763612504E-02 
680	 6,51709622760268E-02 
681	 0,065556652254565 
682	 6,54341486978107E-02 
683	 6,56909202429414E-02 
684	 6,64393137474463E-02 
685	 0,067710241867569 
686	 6,89783037984389E-02 
687	 7,04175944508069E-02 
688	 7,24192856418045E-02 
689	 7,51198240406291E-02 
690	 7,84466040582998E-02 
691	 8,17364933242119E-02 
692	 8,56800219488953E-02 
693	 9,08942445864174E-02 
694	 0,096774926756488 
695	 0,103273195293985 
696	 0,110489299173267 
697	 0,118870739022211 
698	 0,128454823569408 
699	 0,138372127071796 
700	 0,148512529296049 
701	 0,158849498621345 
702	 0,169600969629614 
703	 0,180681632013763 
704	 0,191757782501531 
705	 0,202578029484686 
706	 0,212955150332199 
707	 0,223031426014494 
708	 0,23272406739426 
709	 0,241813133127597 
710	 0,250569415118488 
711	 0,258985278827416 
712	 0,266640663270131 
713	 0,27361778557925 
714	 0,280045915415875 
715	 0,286008253183639 
716	 0,291698015986005 
717	 0,297577926802591 
718	 0,302845303686284 
719	 0,307250046900762 
720	 0,311488269752144 
721	 0,31543464730112 
722	 0,318869732316387 
723	 0,322223948321127 
724	 0,325440808548773 
725	 0,327946734499752 
726	 0,330318524079048 
727	 0,332867380147628 
728	 0,335013063307219 
729	 0,336792622402413 
730	 0,338402399883418 
731	 0,339864616380996 
732	 0,341295005094055 
733	 0,343066764020639 
734	 0,344692625354779 
735	 0,345766705811084 
736	 0,346958482180182 
737	 0,348107480158809 
738	 0,348414578085511 
739	 0,349056395462227 
740	 0,350348269338432 
741	 0,351289973029331 
742	 0,351931757757105 
743	 0,352435183447846 
744	 0,353011296290158 
745	 0,353746338077183 
746	 0,354715984125374 
747	 0,355575222275507 
748	 0,35613882188863 
749	 0,356643852295407 
750	 0,357016987701917 
751	 0,357082188643783 
752	 0,357568887440981 
753	 0,35841695284683 
754	 0,358555924868348 
755	 0,358644625873353 
756	 0,359161663435916 
757	 0,359750989128665 
758	 0,360268544912001 
759	 0,360543829909554 
760	 0,360735436818542 
761	 0,360974262809901 
762	 0,361603595548872 
763	 0,36211788150596 
764	 0,36206292195231 
765	 0,362174157789419 
766	 0,362517390714089 
767	 0,362874910878118 
768	 0,363209562722834 
769	 0,363493327034895 
770	 0,363718113137258 
771	 0,364033383211683 
772	 0,364604593912806 
773	 0,365102391066615 
774	 0,365444366694673 
775	 0,365691993292799 
776	 0,36571659602172 
777	 0,365538952525508 
778	 0,365694714648022 
779	 0,366147877467167 
780	 0,366754231536115 
781	 0,367023749662464 
782	 0,366908717833217 
783	 0,366727564807488 
784	 0,366945206032345 
785	 0,367744489351347 
786	 0,367882345784159 
787	 0,367607774230528 
788	 0,367677919765803 
789	 0,367931104848807 
790	 0,368315253183931 
791	 0,36877874983791 
792	 0,369004926948967 
793	 0,368808579777269 
794	 0,369035253222498 
795	 0,36949465455718 
796	 0,369437574450751 
797	 0,369606214920118 
798	 0,370078355852743 
799	 0,369964208644933 
800	 0,369955880490957 
801	 0,370667152567852 
802	 0,370754868228932 
803	 0,370469345633818 
804	 0,371139459837891 
805	 0,371595987839041 
806	 0,371583413199286 
807	 0,372185475617092 
808	 0,372785541167457 
809	 0,372685518577713 
810	 0,372783000608571 
811	 0,37314727389142 
812	 0,373415049484591 
813	 0,373739889078823 
814	 0,374124883906497 
815	 0,374275846240207 
816	 0,374329923849098 
817	 0,374481984888818 
818	 0,374764011699251 
819	 0,375193095063409 
820	 0,375834668867172 
821	 0,376221476565824 
822	 0,376177948262629 
823	 0,376226028185926 
824	 0,37635557184401 
825	 0,376482358623806 
826	 0,3770187875898 
827	 0,377634691738503 
828	 0,376884908571081 
829	 0,37677911504964 
830	 0,378053225885704 
831	 0,377958855477049 
832	 0,37741904955006 
833	 0,378072687024758 
834	 0,378829541156901 
835	 0,379276499619096 
836	 0,378917809361064 
837	 0,378875159286677 
838	 0,379600542016029 
839	 0,379494588473526 
840	 0,379219697022194 
841	 0,379936214462604 
842	 0,380366237793425 
843	 0,380401577697267 
844	 0,380862514564752 
845	 0,381015245955531 
846	 0,380649095721993 
847	 0,38128755220807 
848	 0,382098520341989 
849	 0,38169798691501 
850	 0,381752216246325 
851	 0,382300309860744 
852	 0,381978652991482 
853	 0,381956965817554 
854	 0,38273301371271 
855	 0,383117813742721 
856	 0,383060044088626 
857	 0,382692995877509 
858	 0,382800585479457 
859	 0,383373567433135 
860	 0,383628356881163 
861	 0,384016029670679 
862	 0,384629149354951 
863	 0,384562199402219 
864	 0,384309480359422 
865	 0,38462336518449 
866	 0,385001618061266 
867	 0,385348473158365 
868	 0,385786848110761 
869	 0,385962706640579 
870	 0,385805578355234 
871	 0,38602683330795 
872	 0,386312626086756 
873	 0,386226444600829 
874	 0,386589275866099 
875	 0,387290349340827 
876	 0,387512224169244 
877	 0,387631205089564 
878	 0,387828835932043 
879	 0,388315044365291 
880	 0,38846642729501 
881	 0,38770406021123 
882	 0,388087833353868 
883	 0,389397064003921 
884	 0,390067015564707 
885	 0,389830414295875 
886	 0,388971059982092 
887	 0,389807799460122 
888	 0,390628875055467 
889	 0,389830768809007 
890	 0,38968578160793 
891	 0,390315250848786 
892	 0,391150321805875 
893	 0,391240276030994 
894	 0,390652735662878 
895	 0,391442675217832 
896	 0,391922505848494 
897	 0,390947496722751 
898	 0,391235118002869 
899	 0,392324916114727 
900	 0,39267021904351 
901	 0,392461363335508 
902	 0,39214916152101 
903	 0,393411121955706 
904	 0,394120269471541 
905	 0,393217530501714 
906	 0,393553926861415 
907	 0,394230321546266 
908	 0,393501738942363 
909	 0,393593279815564 
910	 0,394489384098306 
911	 0,39443692037885 
912	 0,394158053569875 
913	 0,393938399349455 
914	 0,393326258513799 
915	 0,393117651904926 
916	 0,39411700124375 
917	 0,394283266723476 
918	 0,393680742634237 
919	 0,393571177574547 
920	 0,393521455580739 
921	 0,393487582921152 
922	 0,393902529002158 
923	 0,393825793558667 
924	 0,392666394487098 
925	 0,39273048212482 
926	 0,393483796309179 
927	 0,393323583264198 
928	 0,392387099513213 
929	 0,391118238398877 
930	 0,390906164194979 
931	 0,39149797649615 
932	 0,392479960732721 
933	 0,392317646378719 
934	 0,391553020982458 
935	 0,391127825336918 
936	 0,390953900214133 
937	 0,390737816370624 
938	 0,389508824074022 
939	 0,38907281576873 
940	 0,389679948048111 
941	 0,388763793963125 
942	 0,387530988929999 
943	 0,387221601733867 
944	 0,388071568379677 
945	 0,388498984622006 
946	 0,385537128330777 
947	 0,383106718459077 
948	 0,382290886896418 
949	 0,382481497209702 
950	 0,382336091786152 
951	 0,381005505870313 
952	 0,378682191779482 
953	 0,376624976170389 
954	 0,376248535655655 
955	 0,375685201637681 
956	 0,374627169901512 
957	 0,3732802935897 
958	 0,372628432561234 
959	 0,372798094167774 
960	 0,37264051654588 
961	 0,371960238377782 
962	 0,370741383946851 
963	 0,369801781709641 
964	 0,369401507601244 
965	 0,369691356086896 
966	 0,370740719289916 
967	 0,371267282473575 
968	 0,366988666117042 
969	 0,36560223700755 
970	 0,369238496563545 
971	 0,369593318304376 
972	 0,369231893208972 
973	 0,370789943709387 
974	 0,371713300738444 
975	 0,371423759031368 
976	 0,369608106104045 
977	 0,368969556792858 
978	 0,369781520481075 
979	 0,370069699922167 
980	 0,369681550132347 
981	 0,368922496994371 
982	 0,370354042245441 
983	 0,371444826284667 
984	 0,369774597047283 
985	 0,370717088356839 
986	 0,37296718220483 
987	 0,372064857690214 
988	 0,371847931522082 
989	 0,373020753787543 
990	 0,373903974925345 
991	 0,375499799949323 
992	 0,377703508861027 
993	 0,376865695330603 
994	 0,375652226730356 
995	 0,376883225975816 
996	 0,376251502441393 
997	 0,375737296914887 
998	 0,380681162338225 
999	 0,382786127513379 
1000	 0,380909972325097 
1001	 0,380175045731978 
1002	 0,380209899243078 
1003	 0,380936451641153 
1004	 0,382157280732054 
1005	 0,383551008615328 
1006	 0,384789687965361 
1007	 0,385728966964686 
1008	 0,386134958992516 
1009	 0,385661231174647 
1010	 0,386577871112569 
1011	 0,389009535340908 
1012	 0,391612153014878 
1013	 0,391610127353527 
1014	 0,388814548786019 
1015	 0,389037144978978 
1016	 0,391767837794779 
1017	 0,395331829631327 
1018	 0,392428478712713 
1019	 0,387647785590358 
1020	 0,389356121835174 
1021	 0,391373994618854 
1022	 0,39348239484787 
1023	 0,399695349574714 
1024	 0,402174662226997 
1025	 0,399191328438712 
1026	 0,39585919146235 
1027	 0,397958617861082 
1028	 0,406508547951984 
1029	 0,400970174661992 
1030	 0,394413791847048 
1031	 0,403368062979989 
1032	 0,40335162988305 
1033	 0,395995301696192 
1034	 0,394248604584262 
1035	 0,39501490086493 
1036	 0,397336134979962 
1037	 0,399788419073339 
1038	 0,403644227809403 
1039	 0,408355491529995 
1040	 0,410293511915988 
1041	 0,407598981609337 
1042	 0,400390876898471 
1043	 0,400744215204912 
1044	 0,406567026419714 
1045	 0,412561354328411 
1046	 0,412491457022582 
1047	 0,407990458597628 
1048	 0,407027555036191 
1049	 0,40496081278356 
1050	 0,403054050351563 
1051	 0,410959711126485 
1052	 0,416656067654636 
1053	 0,414831323181084 
1054	 0,412434676064133 
1055	 0,410767449952286 
1056	 0,410997688168874 
1057	 0,415780377449737 
1058	 0,419902124174444 
1059	 0,416031801120505 
1060	 0,416142131618799 
1061	 0,417293674171701 
1062	 0,406533416093581 
1063	 0,409339388887316 
1064	 0,424078670616349 
1065	 0,413662302920778 
1066	 0,406916718634843 
1067	 0,413765550081948 
1068	 0,415350780403521 
1069	 0,416024977933629 
1070	 0,419436520548266 
1071	 0,42276993316645 
1072	 0,423111607357364 
1073	 0,418337722000768 
1074	 0,421751847927871 
1075	 0,431573148922149 
