Wavelength	GRA-VIE00794.asd
325	 0,371915348540512 
326	 0,277800487764321 
327	 0,218413862387141 
328	 0,259973963377112 
329	 0,392711550962202 
330	 0,44466453297527 
331	 0,26209756409384 
332	 0,252919544955853 
333	 0,364368863348315 
334	 0,297059711053348 
335	 0,297441712139466 
336	 0,380274503209496 
337	 0,351198984317771 
338	 0,303654917899934 
339	 0,299499095690649 
340	 0,2498912363606 
341	 0,19167155195409 
342	 0,287515035878718 
343	 0,32496987322948 
344	 0,274054458316798 
345	 0,256018745863313 
346	 0,249616325898056 
347	 0,231412791540288 
348	 0,204239720157732 
349	 0,19156039979321 
350	 0,260736756234434 
351	 0,264476161574369 
352	 0,184491613685218 
353	 0,21581030647427 
354	 0,290013596682202 
355	 0,311940012219207 
356	 0,29981514749504 
357	 0,262726364472439 
358	 0,212785493593433 
359	 0,188530179695899 
360	 0,206954851341284 
361	 0,25074434106291 
362	 0,281586983176839 
363	 0,258558334301377 
364	 0,227810968935682 
365	 0,206713675156058 
366	 0,209771816840384 
367	 0,227172196390409 
368	 0,247632303704227 
369	 0,242866859165842 
370	 0,227702943798007 
371	 0,233481290911024 
372	 0,228235714725058 
373	 0,212360511961211 
374	 0,229644359378051 
375	 0,237385019923936 
376	 0,206421608584477 
377	 0,201146110247279 
378	 0,222507929125068 
379	 0,248261044507514 
380	 0,255608248936641 
381	 0,243758822856125 
382	 0,244880701670086 
383	 0,242082702826828 
384	 0,219953298045351 
385	 0,238392591443708 
386	 0,273531832448506 
387	 0,243693596905887 
388	 0,223401094047445 
389	 0,238451175003759 
390	 0,251078259486601 
391	 0,25711554173752 
392	 0,2550962485925 
393	 0,235941817775812 
394	 0,210866719946257 
395	 0,218805736613444 
396	 0,235293352047446 
397	 0,246756032473167 
398	 0,246394673665259 
399	 0,23626583371813 
400	 0,219513298727548 
401	 0,220889148006349 
402	 0,238334478663179 
403	 0,2389814140846 
404	 0,235280949361558 
405	 0,236309369223337 
406	 0,239219080074471 
407	 0,24143352749027 
408	 0,238027955096429 
409	 0,236447173616725 
410	 0,237577203740535 
411	 0,234534252996719 
412	 0,232699051140009 
413	 0,236668221162757 
414	 0,232444897911701 
415	 0,223757515744108 
416	 0,226774083505581 
417	 0,230823228759527 
418	 0,2314330846984 
419	 0,228688620930839 
420	 0,226473498441305 
421	 0,229621578113613 
422	 0,227937542027626 
423	 0,222721360409244 
424	 0,226489659183061 
425	 0,227758570044728 
426	 0,221097579060542 
427	 0,223604905813054 
428	 0,230255257376266 
429	 0,228480663380374 
430	 0,226486581042887 
431	 0,226276024816662 
432	 0,22580579950801 
433	 0,225110645710595 
434	 0,22449505154354 
435	 0,227898948966512 
436	 0,23264412847315 
437	 0,230438954208448 
438	 0,228153135308569 
439	 0,228180961209154 
440	 0,226808783484485 
441	 0,225161886124518 
442	 0,224914911165407 
443	 0,225193509329528 
444	 0,226467596911342 
445	 0,231418274251051 
446	 0,23435102480813 
447	 0,232134949150289 
448	 0,229734817226987 
449	 0,228848138260839 
450	 0,231188307690271 
451	 0,233452796886466 
452	 0,234133097594377 
453	 0,232078935868028 
454	 0,230431447020115 
455	 0,232051801563235 
456	 0,23460882578237 
457	 0,236043799267862 
458	 0,231945483786734 
459	 0,229521535119826 
460	 0,231581643812473 
461	 0,234335462818459 
462	 0,235198879508258 
463	 0,231327271321599 
464	 0,230826619591666 
465	 0,234074455848136 
466	 0,234657926990601 
467	 0,234540038083863 
468	 0,234950304987862 
469	 0,234828778815215 
470	 0,234144640776661 
471	 0,232824547883239 
472	 0,233366856605819 
473	 0,235677404501461 
474	 0,235044134924899 
475	 0,23389389994001 
476	 0,234803236779884 
477	 0,236071369187263 
478	 0,236627482935066 
479	 0,234378059521966 
480	 0,232518158499392 
481	 0,232575913850573 
482	 0,233434678501801 
483	 0,233961298977342 
484	 0,232603606118833 
485	 0,233646649299317 
486	 0,2364527609086 
487	 0,233981036582637 
488	 0,231875920437865 
489	 0,234250476662083 
490	 0,236772345760858 
491	 0,237423354299918 
492	 0,232837281736699 
493	 0,230637132931978 
494	 0,232574842806496 
495	 0,231309242364154 
496	 0,22960912279352 
497	 0,231111924180617 
498	 0,232737491510878 
499	 0,23353317205989 
500	 0,23284715426149 
501	 0,232526197425563 
502	 0,23348911711856 
503	 0,233664906477772 
504	 0,233760835150319 
505	 0,235569973070905 
506	 0,236436506177343 
507	 0,235930922233206 
508	 0,235789864032421 
509	 0,236570171274779 
510	 0,238499259302028 
511	 0,237781203465009 
512	 0,235907644105781 
513	 0,238889672290241 
514	 0,240512201048253 
515	 0,238819799672005 
516	 0,239942682929153 
517	 0,241841097674837 
518	 0,240905908687705 
519	 0,240121090742931 
520	 0,240168422766825 
521	 0,240567309706721 
522	 0,241009588162017 
523	 0,241238422541246 
524	 0,241069361016851 
525	 0,240789307392506 
526	 0,241188874883183 
527	 0,241133959197212 
528	 0,240343969725655 
529	 0,239625383086983 
530	 0,238944148944011 
531	 0,238186869664915 
532	 0,238299591202788 
533	 0,239004038505919 
534	 0,238728046209509 
535	 0,238598076154485 
536	 0,239208046536044 
537	 0,239803400582294 
538	 0,239879162943466 
539	 0,238642635534254 
540	 0,237967682564528 
541	 0,238317022413013 
542	 0,238637515405757 
543	 0,238894211303377 
544	 0,239093459815018 
545	 0,23890585748038 
546	 0,238718386929111 
547	 0,239973974261728 
548	 0,240246983371426 
549	 0,238731915386956 
550	 0,238830975785183 
551	 0,239745182357013 
552	 0,239621769382254 
553	 0,239640905650828 
554	 0,239864819401172 
555	 0,239331988447673 
556	 0,238627353601924 
557	 0,238280960787283 
558	 0,238385406999475 
559	 0,238645413740466 
560	 0,238300071836763 
561	 0,237837370019383 
562	 0,23751815976425 
563	 0,237682781870984 
564	 0,237783245264205 
565	 0,237063633087913 
566	 0,237009623425188 
567	 0,237709512220595 
568	 0,238015682413573 
569	 0,238343038707807 
570	 0,238986777039339 
571	 0,239899072524098 
572	 0,240865740583201 
573	 0,241409540437376 
574	 0,242203047969506 
575	 0,243445804132398 
576	 0,244871626094988 
577	 0,245924693943062 
578	 0,246077993597567 
579	 0,247920086616928 
580	 0,251050379533493 
581	 0,252450913687672 
582	 0,25315696422994 
583	 0,253817649466653 
584	 0,254825743748743 
585	 0,256070985635411 
586	 0,257213828738726 
587	 0,258449371795223 
588	 0,259790500916671 
589	 0,261159716367748 
590	 0,262217035944396 
591	 0,262667964409626 
592	 0,262885241513916 
593	 0,263179252201218 
594	 0,264141185678035 
595	 0,264974199671428 
596	 0,26535132151741 
597	 0,26599282864385 
598	 0,266330263411079 
599	 0,265394465304343 
600	 0,265060082937375 
601	 0,265490569600849 
602	 0,265093704392271 
603	 0,264390699102148 
604	 0,263829587074809 
605	 0,263435231213624 
606	 0,262935064935065 
607	 0,261545061870543 
608	 0,260542965591757 
609	 0,260250831953409 
610	 0,259291084027336 
611	 0,258420943362766 
612	 0,25869320053799 
613	 0,25808074132399 
614	 0,256721189949183 
615	 0,256794378055627 
616	 0,257085287240989 
617	 0,256793609217522 
618	 0,25616013217556 
619	 0,255544361263427 
620	 0,255565185441967 
621	 0,255839953320074 
622	 0,256144071352481 
623	 0,256134387941135 
624	 0,25586466983569 
625	 0,255455643950582 
626	 0,255831173387325 
627	 0,256865758922645 
628	 0,257713252187091 
629	 0,25791927553402 
630	 0,257426097243051 
631	 0,257885410556307 
632	 0,258793534592765 
633	 0,258973049394817 
634	 0,259605554505883 
635	 0,260782366212908 
636	 0,261477343828022 
637	 0,262018129814667 
638	 0,26272633145899 
639	 0,263739283488002 
640	 0,264874477951673 
641	 0,265613469846302 
642	 0,266256823110255 
643	 0,26698841223109 
644	 0,268183995993299 
645	 0,269367663370875 
646	 0,269891641224158 
647	 0,269740618558598 
648	 0,269198303216945 
649	 0,269265380414732 
650	 0,269157081404645 
651	 0,268350814584809 
652	 0,267268794779941 
653	 0,265960704509787 
654	 0,264328361813564 
655	 0,262926628893057 
656	 0,261826333241522 
657	 0,260348664185567 
658	 0,25855027914497 
659	 0,256546087542796 
660	 0,254367179406898 
661	 0,252280038281781 
662	 0,250951302095418 
663	 0,24957851172216 
664	 0,247850272808671 
665	 0,246706748883602 
666	 0,245826813930528 
667	 0,244520865415044 
668	 0,243724502188164 
669	 0,243527631821708 
670	 0,243171010389779 
671	 0,242991638190611 
672	 0,243215711183985 
673	 0,2430820299762 
674	 0,24270953140278 
675	 0,242716336790601 
676	 0,242748951734374 
677	 0,242695117901292 
678	 0,242583597249004 
679	 0,242671656274998 
680	 0,243248116788221 
681	 0,243754015012368 
682	 0,24413028989299 
683	 0,244637823782629 
684	 0,245243853226788 
685	 0,246061766330513 
686	 0,248026584743569 
687	 0,250560792863814 
688	 0,252281063185915 
689	 0,255757712837411 
690	 0,261195574588796 
691	 0,265730326291537 
692	 0,270758333318869 
693	 0,277595817377193 
694	 0,285214960210237 
695	 0,293592775349977 
696	 0,303177287825462 
697	 0,313640315671897 
698	 0,324703741267968 
699	 0,335828024526362 
700	 0,347382103374249 
701	 0,359889515293098 
702	 0,372472649086324 
703	 0,384770886833237 
704	 0,396609772900704 
705	 0,407989675766245 
706	 0,418936763750718 
707	 0,42979904638484 
708	 0,440328706609314 
709	 0,449920859460741 
710	 0,459260765916126 
711	 0,468389256072925 
712	 0,476487670152006 
713	 0,483865391426832 
714	 0,49086256682653 
715	 0,497290503531056 
716	 0,503194946194967 
717	 0,508739318648911 
718	 0,513887828227119 
719	 0,518669268625879 
720	 0,523171105567968 
721	 0,527401795198732 
722	 0,531387169224814 
723	 0,534814504825225 
724	 0,537769582313311 
725	 0,540796143518202 
726	 0,543688002500355 
727	 0,546267852092125 
728	 0,548234922051713 
729	 0,549767922467416 
730	 0,551236077394345 
731	 0,552633176373665 
732	 0,553989923507338 
733	 0,55531612333006 
734	 0,556569434079697 
735	 0,557716592784936 
736	 0,558904925028698 
737	 0,559950871311602 
738	 0,560299594732496 
739	 0,560726749425345 
740	 0,561484127980351 
741	 0,5620933520135 
742	 0,562625507708358 
743	 0,563200781943945 
744	 0,563545318320381 
745	 0,563833904642942 
746	 0,564814949859109 
747	 0,5655978140165 
748	 0,565788561367793 
749	 0,566350817502065 
750	 0,56692298707763 
751	 0,566764327510024 
752	 0,566940604830559 
753	 0,567605704893261 
754	 0,568193155377082 
755	 0,568414725324562 
756	 0,568168331642211 
757	 0,568617255749233 
758	 0,569351768602253 
759	 0,569084972017175 
760	 0,569457294104816 
761	 0,570569509320665 
762	 0,570285051225663 
763	 0,569732793336162 
764	 0,570039050889951 
765	 0,570258876541189 
766	 0,570279272408859 
767	 0,570231608798455 
768	 0,570327889072522 
769	 0,570628536604659 
770	 0,570883516643153 
771	 0,57107096578672 
772	 0,571193463488027 
773	 0,571204331838408 
774	 0,571139387605745 
775	 0,571105154261494 
776	 0,571169366009637 
777	 0,571327147419825 
778	 0,571246168501747 
779	 0,571120485617552 
780	 0,571282894362937 
781	 0,571511910022936 
782	 0,571712859115208 
783	 0,571746588154735 
784	 0,571934726342819 
785	 0,572398260474531 
786	 0,572253784326981 
787	 0,571829625734261 
788	 0,571928668842883 
789	 0,571976353357864 
790	 0,571943728143813 
791	 0,572395522806759 
792	 0,572898917193246 
793	 0,573111058674498 
794	 0,57344333056433 
795	 0,573720454188415 
796	 0,573402818920942 
797	 0,573318263566128 
798	 0,5736066404884 
799	 0,57344922914974 
800	 0,573234361846181 
801	 0,573336581309931 
802	 0,573189495531845 
803	 0,572977967089885 
804	 0,573504427950819 
805	 0,573625027574376 
806	 0,573159397210865 
807	 0,573604146960805 
808	 0,574268508063312 
809	 0,574338323047454 
810	 0,57483037722777 
811	 0,575564213285135 
812	 0,575471446173484 
813	 0,575363262724562 
814	 0,575570918414065 
815	 0,575822643279899 
816	 0,576138999318908 
817	 0,576553731521565 
818	 0,576601135110534 
819	 0,57653383315327 
820	 0,577467623249882 
821	 0,578220261706308 
822	 0,578260127185071 
823	 0,578187339125679 
824	 0,578176173757897 
825	 0,578366743516233 
826	 0,57842601766645 
827	 0,578316387147696 
828	 0,57816719657937 
829	 0,578129524845527 
830	 0,578280224401393 
831	 0,578489665943891 
832	 0,578694888045812 
833	 0,578836224219537 
834	 0,578865078881813 
835	 0,578718600889552 
836	 0,578206403951152 
837	 0,577823167081646 
838	 0,57788594952534 
839	 0,578463556403793 
840	 0,579039116101594 
841	 0,57890457114874 
842	 0,578664053501192 
843	 0,578660345891901 
844	 0,579550620028425 
845	 0,579938921230043 
846	 0,57923329953163 
847	 0,579193152238727 
848	 0,579560321210196 
849	 0,579681116288512 
850	 0,57995023048694 
851	 0,580309153644967 
852	 0,580316203357676 
853	 0,580237470297461 
854	 0,580274182126789 
855	 0,580767407870908 
856	 0,581120982193724 
857	 0,580499549282249 
858	 0,580456484987929 
859	 0,5811116978584 
860	 0,581589087795083 
861	 0,581686063657741 
862	 0,581414834097811 
863	 0,581734211027011 
864	 0,582336279755265 
865	 0,582679818314095 
866	 0,582953548682354 
867	 0,583184162758932 
868	 0,583497833723352 
869	 0,582987803133702 
870	 0,581714435392949 
871	 0,582817259366433 
872	 0,584416516297867 
873	 0,583945935405523 
874	 0,582935916694491 
875	 0,582198491720188 
876	 0,583036370339471 
877	 0,583933197734685 
878	 0,584244905260276 
879	 0,584542158845949 
880	 0,584561186157154 
881	 0,584051803843822 
882	 0,584298195607953 
883	 0,584995405240434 
884	 0,58456531514726 
885	 0,584447035867173 
886	 0,585036883466254 
887	 0,585592188299978 
888	 0,585841761259695 
889	 0,585618610338188 
890	 0,585582532181492 
891	 0,58583820660622 
892	 0,586340152447437 
893	 0,586683403744346 
894	 0,586661641061785 
895	 0,586018803992311 
896	 0,58590107571991 
897	 0,58699214778272 
898	 0,586675424292756 
899	 0,585977895767811 
900	 0,587488732360188 
901	 0,587970428745034 
902	 0,587158981783382 
903	 0,587725585895545 
904	 0,588392398555626 
905	 0,588453416389438 
906	 0,589071284430313 
907	 0,589603533491952 
908	 0,588989676855096 
909	 0,588575941204755 
910	 0,588626152575632 
911	 0,588787942389237 
912	 0,58903978390444 
913	 0,589420126797083 
914	 0,590415215038277 
915	 0,591111775915162 
916	 0,590538707859824 
917	 0,590319166880589 
918	 0,590450570694603 
919	 0,590006135689063 
920	 0,589675293635379 
921	 0,589710365449187 
922	 0,590131709734812 
923	 0,590329928629983 
924	 0,589893508168223 
925	 0,590039250133199 
926	 0,590432314849546 
927	 0,590153627970481 
928	 0,589179209024832 
929	 0,588015071544071 
930	 0,588419279396903 
931	 0,589236150156009 
932	 0,589686333427246 
933	 0,589705066788298 
934	 0,589314649230054 
935	 0,588609482663277 
936	 0,588433550847951 
937	 0,588643274946848 
938	 0,588163301199974 
939	 0,588037812811433 
940	 0,588452690678343 
941	 0,588222322344267 
942	 0,588002448551172 
943	 0,58833017333561 
944	 0,587969139932551 
945	 0,587079495575234 
946	 0,586318018245854 
947	 0,586124144857514 
948	 0,586133351514723 
949	 0,584511041684053 
950	 0,582579248697597 
951	 0,58137211783834 
952	 0,582068254987821 
953	 0,58307354676069 
954	 0,582346236308506 
955	 0,580964453558717 
956	 0,579651534339449 
957	 0,579605977407797 
958	 0,579850033796312 
959	 0,579769112168367 
960	 0,578248721556287 
961	 0,577110192991646 
962	 0,577634985774869 
963	 0,578100671880659 
964	 0,578011926556643 
965	 0,577034658934315 
966	 0,577757262831877 
967	 0,579426369314362 
968	 0,577487807773236 
969	 0,576414543590937 
970	 0,577770934285613 
971	 0,578779425008642 
972	 0,579261869117087 
973	 0,57923866476333 
974	 0,579130855718328 
975	 0,579389513929867 
976	 0,580686206484862 
977	 0,580307771850882 
978	 0,578599138808619 
979	 0,579533434684495 
980	 0,580293470624552 
981	 0,579837277374839 
982	 0,581094692572236 
983	 0,58126427781728 
984	 0,577868482866604 
985	 0,57900141680388 
986	 0,582352279289212 
987	 0,580435971284995 
988	 0,580368890369723 
989	 0,583150628031108 
990	 0,584905420174807 
991	 0,586263158760133 
992	 0,587114459708286 
993	 0,58505182589699 
994	 0,583610159803263 
995	 0,586295272828245 
996	 0,588691653330381 
997	 0,589574994324828 
998	 0,588234423116879 
999	 0,58838775516288 
1000	 0,590676939193216 
1001	 0,593353307097926 
1002	 0,593922110315261 
1003	 0,591992958566594 
1004	 0,593491058198368 
1005	 0,596491750496919 
1006	 0,598355901356258 
1007	 0,596187587200583 
1008	 0,593179800274526 
1009	 0,595732708777717 
1010	 0,598549301842932 
1011	 0,600331460879737 
1012	 0,602350248286244 
1013	 0,601659913995037 
1014	 0,598090215523729 
1015	 0,5974263694175 
1016	 0,598590864949517 
1017	 0,600404171059284 
1018	 0,604002371491712 
1019	 0,607270309125783 
1020	 0,607003488640702 
1021	 0,606829104704015 
1022	 0,607826831972583 
1023	 0,610680176984178 
1024	 0,610999378737229 
1025	 0,608643375570148 
1026	 0,610362692099123 
1027	 0,613187339991692 
1028	 0,61463202421709 
1029	 0,61272029410768 
1030	 0,611929338753459 
1031	 0,616995102647314 
1032	 0,616090634901171 
1033	 0,61064550261665 
1034	 0,608322832333737 
1035	 0,608804851206136 
1036	 0,612092867642242 
1037	 0,61845984848234 
1038	 0,620834864404803 
1039	 0,617234316289757 
1040	 0,616429416440135 
1041	 0,620009222990857 
1042	 0,627176372228645 
1043	 0,623527579576098 
1044	 0,615207165915726 
1045	 0,61264928250607 
1046	 0,613228072398277 
1047	 0,615569537395728 
1048	 0,61735042913396 
1049	 0,617582279158308 
1050	 0,617280385557525 
1051	 0,621300442828762 
1052	 0,629238836482225 
1053	 0,638167410029254 
1054	 0,634048426276365 
1055	 0,628356753814513 
1056	 0,630944901446669 
1057	 0,629219403976865 
1058	 0,623103341350597 
1059	 0,615641772704427 
1060	 0,621404782274507 
1061	 0,631600018948642 
1062	 0,619782000303673 
1063	 0,623056874352646 
1064	 0,640805206532392 
1065	 0,626240976438267 
1066	 0,618376098418278 
1067	 0,630481682719627 
1068	 0,636383985091842 
1069	 0,637742829927191 
1070	 0,636814877349296 
1071	 0,633980426336859 
1072	 0,630218848314033 
1073	 0,626704476440783 
1074	 0,627682110536685 
1075	 0,633539504724726 
