Wavelength	GRA-VAN00008.asd
325	 0,505282865037066 
326	 0,427004459834099 
327	 0,320760673833225 
328	 0,288361633248455 
329	 0,150816342890736 
330	 0,133355520425992 
331	 0,411215690756266 
332	 0,426775999016903 
333	 0,323574659139678 
334	 0,227438455112771 
335	 0,257118232504315 
336	 0,385673419488636 
337	 0,346223891166122 
338	 0,255403580494716 
339	 0,202720551996057 
340	 0,22854650216944 
341	 0,283353137187108 
342	 0,292002196335604 
343	 0,263372852128752 
344	 0,224174710778129 
345	 0,222190008473787 
346	 0,252980860954137 
347	 0,301188294987944 
348	 0,26647786546289 
349	 0,178438595832864 
350	 0,170868006362618 
351	 0,208553973405433 
352	 0,253052190121156 
353	 0,240884551016729 
354	 0,206265751077272 
355	 0,192481508488888 
356	 0,213654376064256 
357	 0,252960665563406 
358	 0,268334291945102 
359	 0,267168092758998 
360	 0,255083111710232 
361	 0,250433712080403 
362	 0,246732528649392 
363	 0,232520008377885 
364	 0,237835511866907 
365	 0,258564388501852 
366	 0,248180908667062 
367	 0,249448494829672 
368	 0,280579803337334 
369	 0,270074441984441 
370	 0,240744097147847 
371	 0,247649318588633 
372	 0,248686115447969 
373	 0,238686332429315 
374	 0,244965635049383 
375	 0,260235918821664 
376	 0,274610551926258 
377	 0,268053677706314 
378	 0,248359660551364 
379	 0,238861146157866 
380	 0,241366460463293 
381	 0,253773554480344 
382	 0,261779529745901 
383	 0,265563709631277 
384	 0,266608432442286 
385	 0,263075811022013 
386	 0,255342008635392 
387	 0,23983385302774 
388	 0,240875950678491 
389	 0,262441989321334 
390	 0,262419244885051 
391	 0,251369943892987 
392	 0,245204788810496 
393	 0,250474001656065 
394	 0,262050643708884 
395	 0,259912209218717 
396	 0,257135682421511 
397	 0,259201220990699 
398	 0,255034245477044 
399	 0,248168499679536 
400	 0,244798084945601 
401	 0,245019082961932 
402	 0,247545785506777 
403	 0,247877396425941 
404	 0,246777145031839 
405	 0,245394551750999 
406	 0,249118637376125 
407	 0,255769530069287 
408	 0,261927823161777 
409	 0,258722309044267 
410	 0,247285981801065 
411	 0,245021963705991 
412	 0,247627834758233 
413	 0,250011476884852 
414	 0,248920534576995 
415	 0,245353652061929 
416	 0,242819882299848 
417	 0,244338897502257 
418	 0,24961593810465 
419	 0,247554323619899 
420	 0,246393929302504 
421	 0,257294971062001 
422	 0,259972993011794 
423	 0,252676100672389 
424	 0,245328637743895 
425	 0,242119639924282 
426	 0,24535208054095 
427	 0,251459148877979 
428	 0,256347887498038 
429	 0,254659888872073 
430	 0,248777364024213 
431	 0,242214919394972 
432	 0,246011349145128 
433	 0,252253877691071 
434	 0,25339842095292 
435	 0,246985198293236 
436	 0,238815001262601 
437	 0,245421749399055 
438	 0,249806597814247 
439	 0,246378963523169 
440	 0,24547249188865 
441	 0,247336261827532 
442	 0,251078759212609 
443	 0,252598329600739 
444	 0,251568308638916 
445	 0,250654017346923 
446	 0,250389654700362 
447	 0,250983607002943 
448	 0,250521490690869 
449	 0,250002992234208 
450	 0,251860363352743 
451	 0,253154648190054 
452	 0,252899496847533 
453	 0,25109889726192 
454	 0,249820621909237 
455	 0,250995543524114 
456	 0,254971530879683 
457	 0,258474886641298 
458	 0,252525084770219 
459	 0,249601019300015 
460	 0,253777336066609 
461	 0,252887535531312 
462	 0,250430348268274 
463	 0,252486419060853 
464	 0,253301628168911 
465	 0,252267427253007 
466	 0,252044582160391 
467	 0,253849472497458 
468	 0,257830715706688 
469	 0,257774985084119 
470	 0,254956797013058 
471	 0,253480737296152 
472	 0,253541089242229 
473	 0,254630069886295 
474	 0,252766500601947 
475	 0,252158475245922 
476	 0,256858837401488 
477	 0,25928590403409 
478	 0,258853034466447 
479	 0,258519667776466 
480	 0,25819837235395 
481	 0,257959024453137 
482	 0,257814088756948 
483	 0,257105014263854 
484	 0,254766710839662 
485	 0,254974771065486 
486	 0,257463491426777 
487	 0,256561594826748 
488	 0,256020004854815 
489	 0,258307856798789 
490	 0,257144251183808 
491	 0,254368519524868 
492	 0,256464986848971 
493	 0,258307384991731 
494	 0,258124557080984 
495	 0,256778865160476 
496	 0,254917975622754 
497	 0,253216605190883 
498	 0,253011074897535 
499	 0,254307975772852 
500	 0,256477376889391 
501	 0,25690333775603 
502	 0,25458715126248 
503	 0,254252338586636 
504	 0,256088734804759 
505	 0,259538216901249 
506	 0,260472546321842 
507	 0,258793161749065 
508	 0,260493476767298 
509	 0,262176026408316 
510	 0,260696760342375 
511	 0,259483302996583 
512	 0,259109525243955 
513	 0,25912640476462 
514	 0,25979341905277 
515	 0,260974242192305 
516	 0,261335858616838 
517	 0,261285854646369 
518	 0,26160062959102 
519	 0,261418576705719 
520	 0,261035097948675 
521	 0,262449484279891 
522	 0,262987865705647 
523	 0,260992931267583 
524	 0,260840408966116 
525	 0,262157649370241 
526	 0,262644776241969 
527	 0,262453265522959 
528	 0,261720445675453 
529	 0,261278142047373 
530	 0,26141188709646 
531	 0,262325487893454 
532	 0,262581491979845 
533	 0,26194561343335 
534	 0,260708755882134 
535	 0,260183484070122 
536	 0,260995043611845 
537	 0,261106523702526 
538	 0,260961881265551 
539	 0,26195694973233 
540	 0,262694502480555 
541	 0,262681787649725 
542	 0,261769506981409 
543	 0,261144797263874 
544	 0,261920453956414 
545	 0,262894599850981 
546	 0,263566858806177 
547	 0,263349910290769 
548	 0,263031677984354 
549	 0,263017893379253 
550	 0,263119108718656 
551	 0,263180572905677 
552	 0,262999144363287 
553	 0,262652349744099 
554	 0,262309007273203 
555	 0,262440003122488 
556	 0,262873145404399 
557	 0,263386678463524 
558	 0,263228003484884 
559	 0,262613526351352 
560	 0,262450372607175 
561	 0,262161185117062 
562	 0,261722831261359 
563	 0,262341341203853 
564	 0,263006331256273 
565	 0,26228191903734 
566	 0,262004396018044 
567	 0,262228232968239 
568	 0,261209141984735 
569	 0,26086343623812 
570	 0,262391747590959 
571	 0,263591540728521 
572	 0,26421055656135 
573	 0,264454984750871 
574	 0,265301972863563 
575	 0,266833627962911 
576	 0,267281094284775 
577	 0,267685149102633 
578	 0,26931312329043 
579	 0,270532007391073 
580	 0,2711972736121 
581	 0,272076958958157 
582	 0,27303518626333 
583	 0,273985994589569 
584	 0,274765822691832 
585	 0,27548876713565 
586	 0,276430091216354 
587	 0,277015055632566 
588	 0,277241131121702 
589	 0,277912687977106 
590	 0,278633600670369 
591	 0,27902374713515 
592	 0,279592274329739 
593	 0,280259789232642 
594	 0,280511000477011 
595	 0,280873017799026 
596	 0,281544395222603 
597	 0,282148336440079 
598	 0,282486290960268 
599	 0,282352872999151 
600	 0,281707292332349 
601	 0,280894166439947 
602	 0,281150218372665 
603	 0,281605873190247 
604	 0,281472205973843 
605	 0,280111417116445 
606	 0,278403426957091 
607	 0,278764215150405 
608	 0,279113476021113 
609	 0,278689978620051 
610	 0,278007735539652 
611	 0,277307752934643 
612	 0,27683714573502 
613	 0,27621884383525 
614	 0,275493382501108 
615	 0,27499938027742 
616	 0,27492083993169 
617	 0,275332849892977 
618	 0,275905593867217 
619	 0,276089542602738 
620	 0,27484922459139 
621	 0,274392986121257 
622	 0,275099378689266 
623	 0,274752195893078 
624	 0,274301748403209 
625	 0,274815257907144 
626	 0,275144845074128 
627	 0,275206244783636 
628	 0,275498150893705 
629	 0,275793694947261 
630	 0,275989712723361 
631	 0,276194144033092 
632	 0,276393993492432 
633	 0,276516486610716 
634	 0,277128673447788 
635	 0,278205476343803 
636	 0,278963152728721 
637	 0,279427780587024 
638	 0,279691368960944 
639	 0,280392643066839 
640	 0,281334222877241 
641	 0,281637138846713 
642	 0,282242212632783 
643	 0,283395291144801 
644	 0,284266319128123 
645	 0,284612924249086 
646	 0,284239971818614 
647	 0,284035256063332 
648	 0,284022467492767 
649	 0,283309477119375 
650	 0,282744170572971 
651	 0,282771005609576 
652	 0,281870436182527 
653	 0,280556959947575 
654	 0,280396880938213 
655	 0,279815101794251 
656	 0,278358997365804 
657	 0,276538100888526 
658	 0,274845868789267 
659	 0,27375748278929 
660	 0,27314858916785 
661	 0,272616348743998 
662	 0,271140071704438 
663	 0,269629083391612 
664	 0,268587608784109 
665	 0,268039088119419 
666	 0,267522701416049 
667	 0,266302340952069 
668	 0,265551294010122 
669	 0,265432573786932 
670	 0,265124118122322 
671	 0,264989435546063 
672	 0,265274001489832 
673	 0,26520205961374 
674	 0,264790766986072 
675	 0,26434873661642 
676	 0,264250232368451 
677	 0,26459321765201 
678	 0,264919594289836 
679	 0,265129603768055 
680	 0,265161258220287 
681	 0,265021342260976 
682	 0,264975133160268 
683	 0,265736692766251 
684	 0,266867704957543 
685	 0,268036817280271 
686	 0,268799737756026 
687	 0,269639423116078 
688	 0,271507758346914 
689	 0,273477022356527 
690	 0,275597137556938 
691	 0,279092573798065 
692	 0,283606617841754 
693	 0,288770683741348 
694	 0,294515536452681 
695	 0,300697666215148 
696	 0,306988366927197 
697	 0,314070621782757 
698	 0,322188121748398 
699	 0,330794849762446 
700	 0,340059043374725 
701	 0,350247726838405 
702	 0,359967489508569 
703	 0,369051979280098 
704	 0,378319898926293 
705	 0,387958998987853 
706	 0,397891638402471 
707	 0,40662323439705 
708	 0,414569274924271 
709	 0,422859315988729 
710	 0,431044040122403 
711	 0,438825456649342 
712	 0,445381627126624 
713	 0,451629389345717 
714	 0,45838438240077 
715	 0,464423926922699 
716	 0,469691936899874 
717	 0,474592038435414 
718	 0,47942820235891 
719	 0,484253294542291 
720	 0,488337464749179 
721	 0,491819839948985 
722	 0,494984791316468 
723	 0,497798939721186 
724	 0,500430645881556 
725	 0,503373175116606 
726	 0,505957079156987 
727	 0,507791397864282 
728	 0,509260177327051 
729	 0,510738681918235 
730	 0,512792533088725 
731	 0,514560271130491 
732	 0,515792158228321 
733	 0,516709078254184 
734	 0,517517845927441 
735	 0,518396525470589 
736	 0,51923229692032 
737	 0,520087561875949 
738	 0,521207267444032 
739	 0,522059395151054 
740	 0,522491032245962 
741	 0,52297157464208 
742	 0,523421815037603 
743	 0,523709814619432 
744	 0,52410429081207 
745	 0,524602206051196 
746	 0,524992299066706 
747	 0,525362738975509 
748	 0,525730905055421 
749	 0,525888016625115 
750	 0,526011071831995 
751	 0,526407330303889 
752	 0,526656245061005 
753	 0,526725659267453 
754	 0,526929055539727 
755	 0,52730172402266 
756	 0,52779881832712 
757	 0,527733329625716 
758	 0,527443102781642 
759	 0,527840493846571 
760	 0,528179104722725 
761	 0,528220894811456 
762	 0,528022551289994 
763	 0,528011003075242 
764	 0,528519127800705 
765	 0,52832611318035 
766	 0,527686774261235 
767	 0,527870731236949 
768	 0,528131587664963 
769	 0,528219908292908 
770	 0,528398186306083 
771	 0,528707773484148 
772	 0,529159419380364 
773	 0,52896724898115 
774	 0,528316681080301 
775	 0,528317526300324 
776	 0,528464364151309 
777	 0,528471677516139 
778	 0,528224000900224 
779	 0,527953528862333 
780	 0,528021198284997 
781	 0,527976778227551 
782	 0,527791447485298 
783	 0,527839550930558 
784	 0,527774215296232 
785	 0,527430007050512 
786	 0,52747800807708 
787	 0,527652406952863 
788	 0,527311576069141 
789	 0,526974204193383 
790	 0,526845702057651 
791	 0,527112356514932 
792	 0,52723684149546 
793	 0,526806108697758 
794	 0,526239357501346 
795	 0,525810990716954 
796	 0,525952014116098 
797	 0,525930895387116 
798	 0,525608576995921 
799	 0,525658794388195 
800	 0,525720776431455 
801	 0,525448678443293 
802	 0,525254604942481 
803	 0,525229886530325 
804	 0,525414332019353 
805	 0,525524444587195 
806	 0,525538924183755 
807	 0,526119254982179 
808	 0,526345731069123 
809	 0,525298493533222 
810	 0,52535540425602 
811	 0,526261023258042 
812	 0,525812870231532 
813	 0,525548721138451 
814	 0,525964170824926 
815	 0,525994786360836 
816	 0,525891006314562 
817	 0,526043027850238 
818	 0,525945211125355 
819	 0,525697357979946 
820	 0,525953691819226 
821	 0,526071909449759 
822	 0,525778708282236 
823	 0,525415004259727 
824	 0,525273041114577 
825	 0,525663452454754 
826	 0,526228310446857 
827	 0,526665411903502 
828	 0,526344096467639 
829	 0,526268461181455 
830	 0,52678327475514 
831	 0,526365408243084 
832	 0,525600026934651 
833	 0,525491051186025 
834	 0,525746365657103 
835	 0,526164200968683 
836	 0,526321923207231 
837	 0,526389962597951 
838	 0,526415726219212 
839	 0,526071942575615 
840	 0,525761724452929 
841	 0,526080361867002 
842	 0,525977418747518 
843	 0,52554104054119 
844	 0,526019250019127 
845	 0,526337822498726 
846	 0,525958875632463 
847	 0,525598002165988 
848	 0,525390331758933 
849	 0,525400001320954 
850	 0,525530811480542 
851	 0,52560729766112 
852	 0,525125243105146 
853	 0,524965961913128 
854	 0,525460792812779 
855	 0,525348128659006 
856	 0,524822539575622 
857	 0,524352404507721 
858	 0,52430526519837 
859	 0,524644591143335 
860	 0,524894844875604 
861	 0,525122902338627 
862	 0,52524195165198 
863	 0,524605424120106 
864	 0,523774249617955 
865	 0,523549161496782 
866	 0,524020518006051 
867	 0,524754218746354 
868	 0,524293324822398 
869	 0,524259091255384 
870	 0,525159717022917 
871	 0,525072611675324 
872	 0,524495897072886 
873	 0,52425794725526 
874	 0,524852277480985 
875	 0,525782876213662 
876	 0,525268902207483 
877	 0,524820638225171 
878	 0,525019917727108 
879	 0,525170200383019 
880	 0,525479198157814 
881	 0,526169606046736 
882	 0,526365398782442 
883	 0,525968402847723 
884	 0,524997472924188 
885	 0,525338124603591 
886	 0,527054071580703 
887	 0,526459801886387 
888	 0,525504339781169 
889	 0,526080599057933 
890	 0,525588979052488 
891	 0,52465291304944 
892	 0,525648296377627 
893	 0,526281643106947 
894	 0,525980772383431 
895	 0,525760647579684 
896	 0,525769663476803 
897	 0,526078200360137 
898	 0,52639776744916 
899	 0,526556160036005 
900	 0,526391065435316 
901	 0,525515967672417 
902	 0,524376911244998 
903	 0,524964181151808 
904	 0,525407729797895 
905	 0,524720212090962 
906	 0,525069186766992 
907	 0,525640777913615 
908	 0,524951438315169 
909	 0,524453548349788 
910	 0,5244758543052 
911	 0,524883511782413 
912	 0,525205425109903 
913	 0,52515629162556 
914	 0,524634506007958 
915	 0,524329439876835 
916	 0,524926003038205 
917	 0,524681678129135 
918	 0,523812851515088 
919	 0,523722951943888 
920	 0,52402921825094 
921	 0,524472721946085 
922	 0,524390455948493 
923	 0,524129532589517 
924	 0,523998072977545 
925	 0,523865759449095 
926	 0,523342859097554 
927	 0,521714681239198 
928	 0,521236639207305 
929	 0,522021903876887 
930	 0,521889279475091 
931	 0,521475414427428 
932	 0,521178303221678 
933	 0,521155875132946 
934	 0,520978895679646 
935	 0,520093426701641 
936	 0,519082734271926 
937	 0,51813993987087 
938	 0,517266424017885 
939	 0,51698725138954 
940	 0,517364465592789 
941	 0,517753906712334 
942	 0,517354952100626 
943	 0,51569443461686 
944	 0,515218632306278 
945	 0,514975397519828 
946	 0,512361767492006 
947	 0,511109476800993 
948	 0,511613193830779 
949	 0,511168776548766 
950	 0,510153686642675 
951	 0,50888986028045 
952	 0,508203257788311 
953	 0,507559743889812 
954	 0,506229334174197 
955	 0,50514003485083 
956	 0,504198817365845 
957	 0,502500255023027 
958	 0,501850952387886 
959	 0,502335782374677 
960	 0,501352521917447 
961	 0,499927883883004 
962	 0,499096618617703 
963	 0,500018077703515 
964	 0,501141751598992 
965	 0,499927868919709 
966	 0,498529806454832 
967	 0,497680703900956 
968	 0,497771600984699 
969	 0,498213590963412 
970	 0,498627976516619 
971	 0,498694798835701 
972	 0,498522605628975 
973	 0,498327773227782 
974	 0,499100279393544 
975	 0,499947096347583 
976	 0,498982221881657 
977	 0,498911458649443 
978	 0,500063726613579 
979	 0,501128594198675 
980	 0,500391404744799 
981	 0,497649659440522 
982	 0,497071311672739 
983	 0,497711052712075 
984	 0,498157536983894 
985	 0,497869264224491 
986	 0,497435203968032 
987	 0,498255200040357 
988	 0,499193992981374 
989	 0,499876397901038 
990	 0,500277797861631 
991	 0,500493980054102 
992	 0,500545549242568 
993	 0,500394851848484 
994	 0,499154725585089 
995	 0,496488755203182 
996	 0,500221688535962 
997	 0,506272380934005 
998	 0,503972623484119 
999	 0,503497823157448 
1000	 0,505648691642066 
1001	 0,502304842739701 
1002	 0,501332242744578 
1003	 0,505374261654109 
1004	 0,505094194241046 
1005	 0,503368642168903 
1006	 0,503693785052564 
1007	 0,504845404108857 
1008	 0,505757691715726 
1009	 0,504868954194699 
1010	 0,504806855980214 
1011	 0,505764104012354 
1012	 0,505521868961714 
1013	 0,507399293107773 
1014	 0,511685528341175 
1015	 0,511750068198513 
1016	 0,512081335399429 
1017	 0,515895973586667 
1018	 0,514346166786214 
1019	 0,509612039179113 
1020	 0,506987572861277 
1021	 0,507396718245614 
1022	 0,510489546702974 
1023	 0,514552644148402 
1024	 0,516686962120656 
1025	 0,516259636302278 
1026	 0,516954513887006 
1027	 0,51549668623222 
1028	 0,511201096503104 
1029	 0,514561000736448 
1030	 0,51988095131158 
1031	 0,519319205127006 
1032	 0,516605473384195 
1033	 0,514356244465244 
1034	 0,516592507553805 
1035	 0,514588908506839 
1036	 0,509442669169636 
1037	 0,514301787651164 
1038	 0,517727478616902 
1039	 0,515502902523359 
1040	 0,514230840007871 
1041	 0,515878883179416 
1042	 0,521118321772901 
1043	 0,524939473909075 
1044	 0,524397293687768 
1045	 0,517142134691009 
1046	 0,509825879239427 
1047	 0,506610014868908 
1048	 0,513056434734138 
1049	 0,519288848677807 
1050	 0,522263431910171 
1051	 0,524624709484534 
1052	 0,528394674782294 
1053	 0,532661302609485 
1054	 0,527872945099032 
1055	 0,521994075183203 
1056	 0,522191512589024 
1057	 0,522258306333229 
1058	 0,522234140115292 
1059	 0,523236092940207 
1060	 0,525250854934447 
1061	 0,526152916395984 
1062	 0,521139339040955 
1063	 0,518096901162682 
1064	 0,518087850174991 
1065	 0,514700203574599 
1066	 0,518744126618143 
1067	 0,530317086289839 
1068	 0,525995067214839 
1069	 0,518374575445227 
1070	 0,518450610423783 
1071	 0,52921936628107 
1072	 0,537715181074392 
1073	 0,528744629364413 
1074	 0,51522923486017 
1075	 0,508703255555071 
