Wavelength	GRA-VAN00278.asd
325	 0,493165038575936 
326	 0,433495143857957 
327	 0,397439995010953 
328	 0,425519187214495 
329	 0,260477704696501 
330	 0,125131042516016 
331	 0,339352331817699 
332	 0,349162691452638 
333	 0,270014195635667 
334	 0,252840155274925 
335	 0,288457581120373 
336	 0,344379798827502 
337	 0,365352650681044 
338	 0,333867111399728 
339	 0,222129127649088 
340	 0,176757049561911 
341	 0,203246422850275 
342	 0,227118522793204 
343	 0,233714854007276 
344	 0,21486390936014 
345	 0,181656077378995 
346	 0,153540028534534 
347	 0,162244637034313 
348	 0,161357987194971 
349	 0,146087420620525 
350	 0,122749428438448 
351	 0,128306774878827 
352	 0,160699307682066 
353	 0,156717016590296 
354	 0,137014364668627 
355	 0,128835690473556 
356	 0,131040559202504 
357	 0,137129105006464 
358	 0,128530980222066 
359	 0,127409946779999 
360	 0,142368567953178 
361	 0,154891264785374 
362	 0,158242209676177 
363	 0,144392740888067 
364	 0,135067591355907 
365	 0,136376341572412 
366	 0,14790851419068 
367	 0,152373074986836 
368	 0,141724504388002 
369	 0,139118010649963 
370	 0,140296374630955 
371	 0,131284306944671 
372	 0,137054638266884 
373	 0,152922609485093 
374	 0,134962444086496 
375	 0,117248013997316 
376	 0,125817048679068 
377	 0,110986456018615 
378	 8,73587705534737E-02 
379	 0,106015298451982 
380	 0,123217731583437 
381	 0,127635162010831 
382	 0,132256528134832 
383	 0,132984224033092 
384	 0,126625636857707 
385	 0,132427026484744 
386	 0,141160942899431 
387	 0,12097413241376 
388	 0,101619268622009 
389	 9,83595822559522E-02 
390	 0,110110841432853 
391	 0,120406283308939 
392	 0,111425146169382 
393	 0,110711731717415 
394	 0,120089616439589 
395	 0,127744763026522 
396	 0,128027626897608 
397	 0,119915269038396 
398	 0,119660749814004 
399	 0,119925408158382 
400	 0,106338643108252 
401	 0,105505289164847 
402	 0,115808477018583 
403	 0,106711785503166 
404	 9,42062052504048E-02 
405	 9,04524769149629E-02 
406	 9,11640000276403E-02 
407	 9,65609383951611E-02 
408	 0,110001902186486 
409	 0,116933671319347 
410	 0,113770727507601 
411	 0,109175303327365 
412	 0,106475971042771 
413	 0,107882577218377 
414	 0,103085746635306 
415	 9,56273100768547E-02 
416	 9,91769385492718E-02 
417	 0,102367981128004 
418	 0,101520370855722 
419	 0,105372151757178 
420	 0,109877841938957 
421	 0,109549287825379 
422	 0,106727529383321 
423	 0,103390521247193 
424	 0,104049598754477 
425	 0,104032323700584 
426	 0,101029064260944 
427	 0,101205556864089 
428	 0,102856002516586 
429	 0,10157124293565 
430	 0,10014456763029 
431	 9,92543129871983E-02 
432	 9,78654500777179E-02 
433	 0,09828171486944 
434	 0,102063319404739 
435	 0,10226452565841 
436	 9,93798976792236E-02 
437	 0,097936546267666 
438	 9,72519418266847E-02 
439	 9,71373895516078E-02 
440	 9,71553376124007E-02 
441	 0,09735778757618 
442	 9,78833793744646E-02 
443	 9,73435201962886E-02 
444	 9,64915700567203E-02 
445	 9,94537833670053E-02 
446	 0,100097694519075 
447	 9,55453561932846E-02 
448	 9,62318365901925E-02 
449	 9,92978202389857E-02 
450	 9,64158165192167E-02 
451	 9,67353371509629E-02 
452	 0,101156226220815 
453	 0,101113070899893 
454	 0,098802504030203 
455	 9,68506483717722E-02 
456	 9,93231112293195E-02 
457	 0,103291468298476 
458	 9,82864594681585E-02 
459	 9,67567830315173E-02 
460	 0,102398818147246 
461	 0,102054064425102 
462	 0,099123871650676 
463	 9,97156985150501E-02 
464	 9,81907850349717E-02 
465	 9,53983780616532E-02 
466	 9,88334735468948E-02 
467	 0,102388238926283 
468	 0,102116291337667 
469	 0,101219269571689 
470	 0,100717202457717 
471	 0,101837713615892 
472	 0,101405830968899 
473	 9,92121452187565E-02 
474	 9,94014933154341E-02 
475	 0,100330229899568 
476	 0,100183318888195 
477	 0,100114810153034 
478	 0,100322099231587 
479	 0,101028110629775 
480	 0,10045495368319 
481	 9,83094191657846E-02 
482	 9,88083553548062E-02 
483	 0,10045691569002 
484	 0,100454712785639 
485	 9,98951198809864E-02 
486	 9,91906188563655E-02 
487	 9,87747963663933E-02 
488	 0,098938326364251 
489	 9,96739353984826E-02 
490	 0,098187521380164 
491	 9,62108031753821E-02 
492	 9,88682778623344E-02 
493	 0,100473879448165 
494	 9,94680149048988E-02 
495	 9,92130794154181E-02 
496	 9,92161803421972E-02 
497	 9,86549433707092E-02 
498	 9,81165923888878E-02 
499	 0,09825603759022 
500	 0,101165971758832 
501	 0,101594745084997 
502	 9,74513875443405E-02 
503	 9,74891112840788E-02 
504	 0,100298206806783 
505	 0,101566345028788 
506	 0,101308057561463 
507	 0,100140014548197 
508	 0,101486143411921 
509	 0,102436095438799 
510	 0,100462145703064 
511	 0,100560094309699 
512	 0,101895404635494 
513	 9,93437546766102E-02 
514	 9,89527078544348E-02 
515	 0,102437100434237 
516	 0,103006276405302 
517	 0,101762964762283 
518	 0,101166288753556 
519	 0,101418944911568 
520	 0,102264267693002 
521	 0,102382307898029 
522	 0,101929237863132 
523	 0,101173541930331 
524	 0,101594799674939 
525	 0,102502872206519 
526	 0,101863159821349 
527	 0,10087508416737 
528	 0,100101843259583 
529	 0,100147712043955 
530	 0,100616233213573 
531	 0,100989303210649 
532	 0,10084973952708 
533	 0,100368687691869 
534	 0,100417553212158 
535	 0,100642139845873 
536	 0,10078098144961 
537	 0,100419281544138 
538	 0,100096220730363 
539	 0,100897077134581 
540	 0,101872027861804 
541	 0,102420624251519 
542	 0,101462009084111 
543	 0,100186056619787 
544	 9,97911281604315E-02 
545	 0,099447342396395 
546	 9,91853292186682E-02 
547	 9,94457036561894E-02 
548	 0,100161931417494 
549	 0,101158492892563 
550	 0,101638041902305 
551	 0,101635056262177 
552	 0,101386097680769 
553	 0,100722595342687 
554	 9,98621917475853E-02 
555	 9,96047356667276E-02 
556	 9,97432474262443E-02 
557	 0,100053003823446 
558	 0,100243082364407 
559	 0,100217585347329 
560	 9,98956970421601E-02 
561	 9,96712930539081E-02 
562	 9,97299588616284E-02 
563	 0,100050261398311 
564	 0,100263581589613 
565	 9,99060738664885E-02 
566	 9,97072705887338E-02 
567	 9,96405463296749E-02 
568	 9,87617304432859E-02 
569	 9,83939789848224E-02 
570	 9,93487768410725E-02 
571	 9,98389672014636E-02 
572	 0,100014593482803 
573	 0,10086990924383 
574	 0,101738518374426 
575	 0,102365812137868 
576	 0,102746427509882 
577	 0,103056956017717 
578	 0,103491835517338 
579	 0,10372036473347 
580	 0,103914231991436 
581	 0,104878348824813 
582	 0,105552062058429 
583	 0,10548668414408 
584	 0,106319886501361 
585	 0,10755475021468 
586	 0,108007051621398 
587	 0,107806254369028 
588	 0,107366420259931 
589	 0,108296684310466 
590	 0,109637110790671 
591	 0,110388019534954 
592	 0,110174431622126 
593	 0,109540584645718 
594	 0,110207402504872 
595	 0,110793743242114 
596	 0,110744630252627 
597	 0,110944747801022 
598	 0,111212290455627 
599	 0,111177497772235 
600	 0,110331395879614 
601	 0,109083404584254 
602	 0,10950704318997 
603	 0,110249404997123 
604	 0,110160671930578 
605	 0,109291813589661 
606	 0,108146996458833 
607	 0,107870196964771 
608	 0,108008270313113 
609	 0,108264205248349 
610	 0,107890441306026 
611	 0,107360242091621 
612	 0,107334452874581 
613	 0,107525026925382 
614	 0,107666847917173 
615	 0,107123340235621 
616	 0,106546636713006 
617	 0,106410038789599 
618	 0,106945363369605 
619	 0,107487451648371 
620	 0,106653513958622 
621	 0,106034001669164 
622	 0,106097514933806 
623	 0,10624067629139 
624	 0,106514332269162 
625	 0,106980503761623 
626	 0,107111883240446 
627	 0,106918000010005 
628	 0,106767441067074 
629	 0,106695535782591 
630	 0,106759009248624 
631	 0,107077222778789 
632	 0,10746590795584 
633	 0,107615697018658 
634	 0,107735413276201 
635	 0,108012144975262 
636	 0,109017329227805 
637	 0,109715281853995 
638	 0,109291419633596 
639	 0,109078052455176 
640	 0,109388086000609 
641	 0,110309596016442 
642	 0,111472916209988 
643	 0,112496308372703 
644	 0,112405927522253 
645	 0,111997583791768 
646	 0,112412688028401 
647	 0,11247402824143 
648	 0,112013286456069 
649	 0,111428225306548 
650	 0,111107544552858 
651	 0,111243262660849 
652	 0,110921552553692 
653	 0,110459094334064 
654	 0,11088069602923 
655	 0,11070089273438 
656	 0,109557958494628 
657	 0,108358084771597 
658	 0,107250196487277 
659	 0,106332254455851 
660	 0,1055717337488 
661	 0,104950111141497 
662	 0,104477026734304 
663	 0,103870228359868 
664	 0,103111858767243 
665	 0,103283836574318 
666	 0,103493964111861 
667	 0,102152730048395 
668	 0,101378789566125 
669	 0,101518872975643 
670	 0,101341182305729 
671	 0,101166454061552 
672	 0,101263098052938 
673	 0,10146245507537 
674	 0,101627187948873 
675	 0,101507535310045 
676	 0,101383718559126 
677	 0,101370354059261 
678	 0,101368651170406 
679	 0,101657569682965 
680	 0,102550424895632 
681	 0,102409960898093 
682	 0,10152664468955 
683	 0,102100253096147 
684	 0,102926446332438 
685	 0,103305816469198 
686	 0,103580317728744 
687	 0,104129653990772 
688	 0,105576975154491 
689	 0,106715960529327 
690	 0,107561388149886 
691	 0,109758260387525 
692	 0,112689531882746 
693	 0,115766937053185 
694	 0,119350747565447 
695	 0,123690473670843 
696	 0,129308684808483 
697	 0,135174631372862 
698	 0,141065711677767 
699	 0,148432671139513 
700	 0,15687000651969 
701	 0,165667796165513 
702	 0,17483778639146 
703	 0,184193951160232 
704	 0,193327708521486 
705	 0,202817786374093 
706	 0,21288393510481 
707	 0,222315239644351 
708	 0,231416426029128 
709	 0,241117387474723 
710	 0,249986918916581 
711	 0,257856802725359 
712	 0,266103189412453 
713	 0,274156155471923 
714	 0,281429560010375 
715	 0,288174490440967 
716	 0,294548955162851 
717	 0,300845002751044 
718	 0,306659201385921 
719	 0,3118450257125 
720	 0,316462280639739 
721	 0,320981653385233 
722	 0,325989626594423 
723	 0,329927170022202 
724	 0,3328702483308 
725	 0,336347396143684 
726	 0,339847351412434 
727	 0,342985585483257 
728	 0,345250107433651 
729	 0,347075034003832 
730	 0,349357633133203 
731	 0,351472247564033 
732	 0,35326484383764 
733	 0,354865441011588 
734	 0,356398413922407 
735	 0,357958013517256 
736	 0,359283955920117 
737	 0,360509348614141 
738	 0,362132588956533 
739	 0,363434230927023 
740	 0,364203871838309 
741	 0,364963100152786 
742	 0,365792683468077 
743	 0,366727720090447 
744	 0,367660674579999 
745	 0,368479743669062 
746	 0,368879765249318 
747	 0,369568794879093 
748	 0,3707938349772 
749	 0,371404189115183 
750	 0,371550967870541 
751	 0,371662287136153 
752	 0,37221824055597 
753	 0,373216856465304 
754	 0,3740864288457 
755	 0,374580025762283 
756	 0,374591583545208 
757	 0,37490400978811 
758	 0,375442367262045 
759	 0,375755063346375 
760	 0,376269712790054 
761	 0,376957825547712 
762	 0,377059221563732 
763	 0,377085978463012 
764	 0,377543726489038 
765	 0,378091258191388 
766	 0,378553089413691 
767	 0,378634426837348 
768	 0,378773870841491 
769	 0,379149310539376 
770	 0,379632016355566 
771	 0,380090685452408 
772	 0,380385001186045 
773	 0,380548844125232 
774	 0,380666225024523 
775	 0,380897617019911 
776	 0,381435467111137 
777	 0,382229814620223 
778	 0,382224514170016 
779	 0,381865194935829 
780	 0,381973089949917 
781	 0,382216146313105 
782	 0,38245569696112 
783	 0,3824602615221 
784	 0,38248271989657 
785	 0,382709377361571 
786	 0,383162362236787 
787	 0,383734226500845 
788	 0,384261837565203 
789	 0,384385747870712 
790	 0,384198367454944 
791	 0,384636042663933 
792	 0,384918004106167 
793	 0,384486959694786 
794	 0,384543815544264 
795	 0,384959552851983 
796	 0,385032868687862 
797	 0,384989611803658 
798	 0,384960987580658 
799	 0,385277649392703 
800	 0,385572241999663 
801	 0,38551634213705 
802	 0,38571279519122 
803	 0,386099312003772 
804	 0,386206727761385 
805	 0,386405709129121 
806	 0,386796510743067 
807	 0,387228091578184 
808	 0,387364976187734 
809	 0,386929562159139 
810	 0,387321332422117 
811	 0,388409135275037 
812	 0,388995737630965 
813	 0,389423639128345 
814	 0,389795958071649 
815	 0,390051535531289 
816	 0,390264061464753 
817	 0,390519612103994 
818	 0,390698673052784 
819	 0,390904120524457 
820	 0,391581571303114 
821	 0,391890519556876 
822	 0,391568606292683 
823	 0,391738923777449 
824	 0,392234651165327 
825	 0,392693072067713 
826	 0,393759871638791 
827	 0,39505777373776 
828	 0,395053077434385 
829	 0,394739557881254 
830	 0,394683819681545 
831	 0,394897810856237 
832	 0,395160231637996 
833	 0,395156677591847 
834	 0,395492855340559 
835	 0,396085337596694 
836	 0,396189631585579 
837	 0,39619149169565 
838	 0,396294688913349 
839	 0,396377415826609 
840	 0,396433031688535 
841	 0,396463676147971 
842	 0,396658653351749 
843	 0,397094929541683 
844	 0,397966526965368 
845	 0,398249502781634 
846	 0,397572671933037 
847	 0,397658359364965 
848	 0,398225927611149 
849	 0,398593597006719 
850	 0,398687836013134 
851	 0,398579727979183 
852	 0,398586780081886 
853	 0,398951697819436 
854	 0,399597707899005 
855	 0,398991747188428 
856	 0,398169719369348 
857	 0,398751253810694 
858	 0,399305547708064 
859	 0,399579238047645 
860	 0,399955329218901 
861	 0,400255030720819 
862	 0,400435228224798 
863	 0,400879363891716 
864	 0,401183431364065 
865	 0,400801997865673 
866	 0,400999190927758 
867	 0,401682194523874 
868	 0,40153414873788 
869	 0,401661270804933 
870	 0,402474110272477 
871	 0,403121425496123 
872	 0,403430685444027 
873	 0,403325471091021 
874	 0,403730243555567 
875	 0,404500841766924 
876	 0,404656732312218 
877	 0,404371615604469 
878	 0,403915688229021 
879	 0,404339118798539 
880	 0,405138092794238 
881	 0,405680765434511 
882	 0,406366188162594 
883	 0,407001600288572 
884	 0,406916348633316 
885	 0,406920416447963 
886	 0,40726744338319 
887	 0,407494160285549 
888	 0,407945019891218 
889	 0,408840237798086 
890	 0,408376462345608 
891	 0,407566727701968 
892	 0,409416755039447 
893	 0,410424826544625 
894	 0,409844886557867 
895	 0,409864252761835 
896	 0,410156880092746 
897	 0,410406252190161 
898	 0,410529267324539 
899	 0,410690677290355 
900	 0,411263023491683 
901	 0,41099635968325 
902	 0,410048943089392 
903	 0,410320901141898 
904	 0,411061603159895 
905	 0,411733174809854 
906	 0,412292177151042 
907	 0,41240275150835 
908	 0,411654641987472 
909	 0,411737851873942 
910	 0,41263060338334 
911	 0,412933487021168 
912	 0,41253285011244 
913	 0,411669411054716 
914	 0,412245416575477 
915	 0,413107128130745 
916	 0,412852665334894 
917	 0,413214370272206 
918	 0,413951677934385 
919	 0,413497546720667 
920	 0,413879258760943 
921	 0,415120406364742 
922	 0,413912341575092 
923	 0,412138162443864 
924	 0,411601015275097 
925	 0,41270877948293 
926	 0,413968021618362 
927	 0,412580719094813 
928	 0,412064803745226 
929	 0,412792963221023 
930	 0,412206382458841 
931	 0,41150593470326 
932	 0,41141035414347 
933	 0,411790499845296 
934	 0,411856330465769 
935	 0,410677903285661 
936	 0,409969104051631 
937	 0,409696397180831 
938	 0,408409784943937 
939	 0,408132659211143 
940	 0,40921458516132 
941	 0,409377169262254 
942	 0,408669375662151 
943	 0,407375405879254 
944	 0,406599639054934 
945	 0,406581046440051 
946	 0,407440232718421 
947	 0,406113284185263 
948	 0,402911628596729 
949	 0,402531204291729 
950	 0,402249124235606 
951	 0,400755694128838 
952	 0,400585013089069 
953	 0,399971899521782 
954	 0,396703435918168 
955	 0,39534383014806 
956	 0,395405945045839 
957	 0,392721385464192 
958	 0,392237107869343 
959	 0,394459766274673 
960	 0,393603792279555 
961	 0,392704128585576 
962	 0,393880468350395 
963	 0,393427057908097 
964	 0,391767274829235 
965	 0,390328139439748 
966	 0,389849468718559 
967	 0,39005138654779 
968	 0,389038655969024 
969	 0,389472145756939 
970	 0,391811394020717 
971	 0,392412809957501 
972	 0,391158316722525 
973	 0,388604564466873 
974	 0,389208989479709 
975	 0,391475394965468 
976	 0,391289673726198 
977	 0,391416160337493 
978	 0,392326359996589 
979	 0,393273510823602 
980	 0,393469715675187 
981	 0,392587825220964 
982	 0,390820530419122 
983	 0,391431530479591 
984	 0,396898413056914 
985	 0,39704188234018 
986	 0,393559829450242 
987	 0,393430311002091 
988	 0,394624367418329 
989	 0,396456030306944 
990	 0,398209391784217 
991	 0,398977507795882 
992	 0,398515631191982 
993	 0,39852324637221 
994	 0,398945425339371 
995	 0,399524028403838 
996	 0,399575093209439 
997	 0,400127710576595 
998	 0,403437114529343 
999	 0,405646659991054 
1000	 0,40555077450597 
1001	 0,403339173532076 
1002	 0,401164082643971 
1003	 0,400746190951578 
1004	 0,404305951221296 
1005	 0,408315704252019 
1006	 0,409231738276191 
1007	 0,408767518922772 
1008	 0,408218555181828 
1009	 0,409343399421082 
1010	 0,410028587445051 
1011	 0,410135268770717 
1012	 0,411105373813016 
1013	 0,412216121445734 
1014	 0,413488801288773 
1015	 0,416775139347232 
1016	 0,419291107686712 
1017	 0,418970215191184 
1018	 0,419297845853295 
1019	 0,420305203340613 
1020	 0,421203069272995 
1021	 0,420878650702831 
1022	 0,419552646440925 
1023	 0,418188236088186 
1024	 0,419663771892657 
1025	 0,424572817210473 
1026	 0,431434880352769 
1027	 0,433012064252043 
1028	 0,426107865687692 
1029	 0,42401170609148 
1030	 0,425572023985123 
1031	 0,427565107580873 
1032	 0,429463565043292 
1033	 0,431390208661394 
1034	 0,434295927337687 
1035	 0,43218855655049 
1036	 0,426579244326486 
1037	 0,429052578006333 
1038	 0,430428348555127 
1039	 0,427759948616518 
1040	 0,428285995131657 
1041	 0,431395577256692 
1042	 0,435508803122998 
1043	 0,435475781514124 
1044	 0,431680928070652 
1045	 0,426420549673912 
1046	 0,430314097590528 
1047	 0,439337373166902 
1048	 0,438190402051006 
1049	 0,439618159087384 
1050	 0,445017707925317 
1051	 0,445537699179899 
1052	 0,445033210408974 
1053	 0,444869638014347 
1054	 0,440763364946454 
1055	 0,439104842921765 
1056	 0,444534128125596 
1057	 0,446037399597581 
1058	 0,445219855218162 
1059	 0,446415810065374 
1060	 0,444934721074418 
1061	 0,442439990006806 
1062	 0,445034080809315 
1063	 0,444185191954932 
1064	 0,438792087625517 
1065	 0,433686771959553 
1066	 0,436729419341393 
1067	 0,448413811634839 
1068	 0,452787570956199 
1069	 0,454125922582485 
1070	 0,456463382744701 
1071	 0,462405167165206 
1072	 0,463060921910344 
1073	 0,449157434386335 
1074	 0,439408435172842 
1075	 0,440029586364039 
