Wavelength	GRA-VAN00382.asd
325	 0,271487023085169 
326	 0,245747451392922 
327	 0,166217132700868 
328	 0,116527619608194 
329	 0,179984806898737 
330	 0,30588651302105 
331	 0,302560795422078 
332	 0,284271558321138 
333	 0,260935591429798 
334	 0,214969780354774 
335	 0,232470421900988 
336	 0,298476479440945 
337	 0,259573162050878 
338	 0,160574340279828 
339	 3,04090685066535E-02 
340	 7,11132881984979E-02 
341	 0,190076230996982 
342	 0,190822988105256 
343	 0,167459078127408 
344	 0,151711081846458 
345	 0,117627716709153 
346	 0,102588897191332 
347	 0,148820052451506 
348	 9,15326926417304E-02 
349	-2,62051294880936E-02 
350	 1,52856273367533E-02 
351	 7,64478400746118E-02 
352	 9,24294368259885E-02 
353	 8,67521479536358E-02 
354	 6,68096752021944E-02 
355	 3,98588899484102E-02 
356	 0,044888816736598 
357	 7,23588884574254E-02 
358	 8,14918782908783E-02 
359	 7,29025775022027E-02 
360	 5,51366181492866E-02 
361	 8,01838857690608E-02 
362	 0,109007191945933 
363	 8,30185543206473E-02 
364	 4,62845710645289E-02 
365	 1,97791444175468E-02 
366	 3,44352969273881E-02 
367	 5,35593234589648E-02 
368	 5,62410051172584E-02 
369	 7,38692770417168E-02 
370	 8,88180215428078E-02 
371	 0,062230822434119 
372	 0,041373875520913 
373	 4,06659603421835E-02 
374	 3,70400093244904E-02 
375	 4,14816304281532E-02 
376	 5,97567736155266E-02 
377	 6,03463526200735E-02 
378	 4,81105878965719E-02 
379	 4,36311085334476E-02 
380	 4,31857832391482E-02 
381	 4,94244052821907E-02 
382	 8,06469903156766E-02 
383	 9,71614165230818E-02 
384	 0,067072913679789 
385	 6,63480113933898E-02 
386	 8,06691812435711E-02 
387	 3,03038642260434E-02 
388	 9,66136464285178E-03 
389	 0,048022431915108 
390	 5,76348260014152E-02 
391	 4,96669066972285E-02 
392	 4,51537046058902E-02 
393	 3,94750461063646E-02 
394	 3,40585746897619E-02 
395	 3,25658602058495E-02 
396	 3,53719037912072E-02 
397	 4,20947047993389E-02 
398	 5,15362787601661E-02 
399	 5,39303446466493E-02 
400	 3,50821825067573E-02 
401	 2,80520542836922E-02 
402	 3,52561791299309E-02 
403	 3,04566489326281E-02 
404	 2,22375335085089E-02 
405	 1,80170260720054E-02 
406	 2,47666772559045E-02 
407	 3,55876532047684E-02 
408	 3,78319186892393E-02 
409	 0,03357425830801 
410	 2,56720040845412E-02 
411	 2,28087979142516E-02 
412	 2,59237340034245E-02 
413	 0,034383623896236 
414	 0,030569959360826 
415	 0,018093044506992 
416	 1,25214945473807E-02 
417	 1,38257317928359E-02 
418	 2,14988361993601E-02 
419	 3,11439536736052E-02 
420	 3,68530194027353E-02 
421	 3,27373978393296E-02 
422	 2,92445700659411E-02 
423	 2,84665626235644E-02 
424	 2,82975412279136E-02 
425	 2,60247946810031E-02 
426	 2,08981221246248E-02 
427	 2,16365351139393E-02 
428	 2,53312220581843E-02 
429	 2,51707299906752E-02 
430	 2,16542830960403E-02 
431	 1,66272334696403E-02 
432	 0,017400517033812 
433	 2,16000061566384E-02 
434	 2,63105078123693E-02 
435	 2,41949189119199E-02 
436	 1,80505656120762E-02 
437	 1,84253606107853E-02 
438	 2,04276672961129E-02 
439	 2,17437578987303E-02 
440	 1,99610109192269E-02 
441	 1,88161989132167E-02 
442	 2,32275883824459E-02 
443	 2,46483946670427E-02 
444	 2,25111973182093E-02 
445	 2,22869824297681E-02 
446	 0,021961673025497 
447	 2,02991454374212E-02 
448	 1,71389853254481E-02 
449	 1,50763160534101E-02 
450	 1,90303628411502E-02 
451	 2,18786679671732E-02 
452	 2,17409516018387E-02 
453	 2,15951612244367E-02 
454	 2,12860771052426E-02 
455	 2,06521049072219E-02 
456	 2,13647008690138E-02 
457	 0,022205029442301 
458	 0,018682031962815 
459	 1,74219724292004E-02 
460	 2,05226909349033E-02 
461	 2,11289187772532E-02 
462	 2,11099389615859E-02 
463	 2,38592678627296E-02 
464	 2,17540131029458E-02 
465	 1,62885595049187E-02 
466	 1,89823484303431E-02 
467	 2,34241957409864E-02 
468	 2,51236774975492E-02 
469	 2,42982547326803E-02 
470	 2,25228949153967E-02 
471	 2,29410551236967E-02 
472	 2,26256797990844E-02 
473	 2,11098856448695E-02 
474	 2,04376213796506E-02 
475	 2,06252090151467E-02 
476	 2,15679862132909E-02 
477	 2,31980022815384E-02 
478	 2,48220529686183E-02 
479	 2,53426618311414E-02 
480	 2,33065313609965E-02 
481	 1,90827809417139E-02 
482	 0,020179039335793 
483	 2,27120894725029E-02 
484	 1,97713821248864E-02 
485	 1,94246627373023E-02 
486	 2,20374167497515E-02 
487	 2,08034935695381E-02 
488	 1,83564977035628E-02 
489	 1,69461695844512E-02 
490	 1,74035160884847E-02 
491	 1,93164404483874E-02 
492	 0,021846891866496 
493	 2,22761647923705E-02 
494	 2,02567446219819E-02 
495	 2,04562493884292E-02 
496	 2,04281292711159E-02 
497	 1,71204997480639E-02 
498	 1,65486953574065E-02 
499	 1,88077996678339E-02 
500	 1,99435715004201E-02 
501	 2,04338324463589E-02 
502	 0,0204963375071 
503	 2,00601806089147E-02 
504	 1,99259390517195E-02 
505	 2,15542869215372E-02 
506	 2,18079725777385E-02 
507	 2,06052800428117E-02 
508	 2,21668362841883E-02 
509	 2,34025017505421E-02 
510	 0,021535576209584 
511	 2,02206860879857E-02 
512	 1,97939441616925E-02 
513	 1,89828061086328E-02 
514	 1,91360998754546E-02 
515	 2,05394305612563E-02 
516	 2,12300387107381E-02 
517	 2,14468974335578E-02 
518	 2,18406007226757E-02 
519	 0,021811927164737 
520	 2,14721261476346E-02 
521	 2,17940302946378E-02 
522	 2,17402363211903E-02 
523	 2,06608543322755E-02 
524	 0,020010897318085 
525	 2,01415862729345E-02 
526	 2,14691438335251E-02 
527	 2,19602028976487E-02 
528	 2,10774895792056E-02 
529	 2,04377970925377E-02 
530	 2,00524707800856E-02 
531	 1,97760107645304E-02 
532	 1,91920598459769E-02 
533	 0,018602477758197 
534	 1,93628506822978E-02 
535	 1,97279984753118E-02 
536	 1,88652865600626E-02 
537	 1,90175961220578E-02 
538	 0,019986941959621 
539	 2,09319886915681E-02 
540	 2,13121137757418E-02 
541	 2,09640247308642E-02 
542	 2,02695264875034E-02 
543	 1,95918123610027E-02 
544	 1,92542642746792E-02 
545	 1,89036870368017E-02 
546	 1,85981292295782E-02 
547	 1,85745223706772E-02 
548	 1,92228932733201E-02 
549	 2,04937393970264E-02 
550	 2,07417031351849E-02 
551	 2,03433085595821E-02 
552	 0,020201446997336 
553	 1,98227598442845E-02 
554	 1,91912313682458E-02 
555	 0,018474975477354 
556	 1,85593473035269E-02 
557	 1,99708046007744E-02 
558	 1,97351425522699E-02 
559	 1,84228062293425E-02 
560	 1,88745532502269E-02 
561	 1,92805653218077E-02 
562	 1,91060605700416E-02 
563	 1,95902628345205E-02 
564	 2,00314208092588E-02 
565	 1,93913120498272E-02 
566	 1,92038441221957E-02 
567	 1,96044291538865E-02 
568	 1,96310796611478E-02 
569	 1,93298164201807E-02 
570	 1,88254573594056E-02 
571	 0,019045977439692 
572	 1,96551063870131E-02 
573	 1,95632303245812E-02 
574	 1,97299038898421E-02 
575	 2,03164656393722E-02 
576	 2,03326382323451E-02 
577	 2,04271122405253E-02 
578	 2,13666686897057E-02 
579	 2,16669051034471E-02 
580	 2,12572735513846E-02 
581	 2,09877270596433E-02 
582	 2,10091367613066E-02 
583	 2,13716719020769E-02 
584	 2,14307700994921E-02 
585	 2,16076357679524E-02 
586	 2,29112936795573E-02 
587	 2,30017856978344E-02 
588	 2,17615178512011E-02 
589	 2,20912571204436E-02 
590	 2,28455203423747E-02 
591	 2,28695062593702E-02 
592	 2,31455312332585E-02 
593	 2,35505429398927E-02 
594	 2,32706935016522E-02 
595	 2,29559567818844E-02 
596	 2,29098808766504E-02 
597	 2,29401185253915E-02 
598	 2,29984096648263E-02 
599	 2,30657624787398E-02 
600	 0,022516906672817 
601	 2,15977476425873E-02 
602	 2,18743667033148E-02 
603	 2,25840794438447E-02 
604	 2,30255921477502E-02 
605	 0,02273066602395 
606	 2,20197386463549E-02 
607	 2,18594149648304E-02 
608	 2,19462810164258E-02 
609	 2,20440321888813E-02 
610	 2,12771935338993E-02 
611	 2,06575530178702E-02 
612	 2,14923582130438E-02 
613	 2,17010465968484E-02 
614	 2,10780313049311E-02 
615	 2,07541536143948E-02 
616	 0,020557028708489 
617	 2,04377521572947E-02 
618	 2,09226002496631E-02 
619	 2,14210918716755E-02 
620	 2,06163452430951E-02 
621	 2,01093340675603E-02 
622	 2,02977487059463E-02 
623	 2,02372417564174E-02 
624	 2,02419340564094E-02 
625	 0,020659245352988 
626	 2,07049189716504E-02 
627	 2,05340517694176E-02 
628	 2,11855660174215E-02 
629	 2,14630649109324E-02 
630	 2,09249138718698E-02 
631	 2,11654622502991E-02 
632	 2,18182117133569E-02 
633	 2,20056594819149E-02 
634	 2,18585425218691E-02 
635	 2,15396894065415E-02 
636	 2,15757237130528E-02 
637	 2,18862229985276E-02 
638	 2,23443837733455E-02 
639	 2,23965356087714E-02 
640	 2,22327474586397E-02 
641	 2,25589128189844E-02 
642	 2,32386825645325E-02 
643	 2,40408690828983E-02 
644	 2,38846452968571E-02 
645	 2,35906324123699E-02 
646	 2,43485227647037E-02 
647	 2,42376993388941E-02 
648	 2,31948451891626E-02 
649	 2,26530847891799E-02 
650	 2,25845184608171E-02 
651	 2,29261434826444E-02 
652	 2,32028177940888E-02 
653	 2,33330858679738E-02 
654	 2,34096146776108E-02 
655	 2,30175490963992E-02 
656	 2,20924452929032E-02 
657	 2,09068351375105E-02 
658	 2,02651167250111E-02 
659	 2,09046278291113E-02 
660	 2,11074668424036E-02 
661	 2,06785634510234E-02 
662	 2,02241188841785E-02 
663	 1,99285380857027E-02 
664	 1,98763750892612E-02 
665	 1,97932004340874E-02 
666	 1,95040233098817E-02 
667	 1,87668457258974E-02 
668	 1,85707117700387E-02 
669	 1,90259552103526E-02 
670	 1,93121247499153E-02 
671	 1,95940092017038E-02 
672	 1,99567854651542E-02 
673	 1,96267302604571E-02 
674	 1,89825715956452E-02 
675	 1,92945929694834E-02 
676	 1,92403250945281E-02 
677	 1,86056120907466E-02 
678	 1,89841228191735E-02 
679	 1,98557871603261E-02 
680	 2,04444692594346E-02 
681	 2,00262443834641E-02 
682	 1,90824239593274E-02 
683	 1,97162926690572E-02 
684	 0,020636117829721 
685	 0,020987397954742 
686	 2,04055426375124E-02 
687	 1,97989743410534E-02 
688	 0,020888080548479 
689	 2,15940970930007E-02 
690	 2,15134286850638E-02 
691	 2,17662546209369E-02 
692	 2,25895378529888E-02 
693	 2,41270167369949E-02 
694	 2,58394773425254E-02 
695	 2,76547772745231E-02 
696	 2,96560544191345E-02 
697	 0,032112443473011 
698	 3,50758216732869E-02 
699	 3,80243122315143E-02 
700	 4,12625117289959E-02 
701	 4,52305586877496E-02 
702	 4,93344691312979E-02 
703	 5,34406131765183E-02 
704	 5,76090173380653E-02 
705	 6,23240541653202E-02 
706	 6,77454181858775E-02 
707	 7,25165144595347E-02 
708	 7,70619876049838E-02 
709	 8,25689879452725E-02 
710	 8,77149458371913E-02 
711	 9,22332586055296E-02 
712	 9,69036538618927E-02 
713	 0,101593271226364 
714	 0,106110776745391 
715	 0,109907603466991 
716	 0,113352425334056 
717	 0,117735286209484 
718	 0,121643689806064 
719	 0,124620197944838 
720	 0,127742893130116 
721	 0,130796594246825 
722	 0,133391474215037 
723	 0,135774804029664 
724	 0,138075628891641 
725	 0,140529839695166 
726	 0,14259228086233 
727	 0,144012632573467 
728	 0,14567945454468 
729	 0,147482864908764 
730	 0,14902246962388 
731	 0,150160839625373 
732	 0,150999823551958 
733	 0,152200514879973 
734	 0,15340928421334 
735	 0,154300306717782 
736	 0,155023704945593 
737	 0,155707428246819 
738	 0,156638499660053 
739	 0,157320444570419 
740	 0,15764283618232 
741	 0,158139815731117 
742	 0,158744806981183 
743	 0,159324663576801 
744	 0,159815688543469 
745	 0,16019889640826 
746	 0,160482106694904 
747	 0,160728110982031 
748	 0,161018010146047 
749	 0,161675674186428 
750	 0,162240727716709 
751	 0,161949493238566 
752	 0,161979443931299 
753	 0,162499601967537 
754	 0,162813763456886 
755	 0,162979142802384 
756	 0,16304505399253 
757	 0,163008981702909 
758	 0,163053722929101 
759	 0,163537488294173 
760	 0,164003849764852 
761	 0,164264088660218 
762	 0,164274031895556 
763	 0,164217897909148 
764	 0,164287444523701 
765	 0,164671128354728 
766	 0,165133241751256 
767	 0,164978695210829 
768	 0,164753267327127 
769	 0,164739440413926 
770	 0,165156968353205 
771	 0,16569032779161 
772	 0,165944341062164 
773	 0,165959931692936 
774	 0,165818034259002 
775	 0,165718908730916 
776	 0,165733699184393 
777	 0,165900041805305 
778	 0,166131899439595 
779	 0,166350016736872 
780	 0,166469454840157 
781	 0,166293603782425 
782	 0,16598114564207 
783	 0,166254170531708 
784	 0,166625665229981 
785	 0,166769731596649 
786	 0,166890352591023 
787	 0,166961691629515 
788	 0,166898019391483 
789	 0,166759030732893 
790	 0,16669116251244 
791	 0,167214643385774 
792	 0,16756936108781 
793	 0,167206303729926 
794	 0,167165287274804 
795	 0,167440839754813 
796	 0,167685463812791 
797	 0,167510847976565 
798	 0,167000316270371 
799	 0,16727742700881 
800	 0,167755800727519 
801	 0,167837123883082 
802	 0,167830150037746 
803	 0,16783542913035 
804	 0,168010658687947 
805	 0,167975309229932 
806	 0,167722772810574 
807	 0,168045785605099 
808	 0,168417792595412 
809	 0,168240090460252 
810	 0,168051222022133 
811	 0,16808066614067 
812	 0,168625486720879 
813	 0,169263478859835 
814	 0,169696659201309 
815	 0,169472205571569 
816	 0,169135000007894 
817	 0,169364870558935 
818	 0,169574910755072 
819	 0,16966296384493 
820	 0,169724413970141 
821	 0,169795773389166 
822	 0,169906891205293 
823	 0,17010549535874 
824	 0,170244112612296 
825	 0,170140705888581 
826	 0,170625196321274 
827	 0,171475900832374 
828	 0,171394323957722 
829	 0,171099673649687 
830	 0,170957322225675 
831	 0,170730082571288 
832	 0,170541377618782 
833	 0,170571369521758 
834	 0,171141520285986 
835	 0,171942851863932 
836	 0,171769835711834 
837	 0,171486181804218 
838	 0,171528569125624 
839	 0,171317975272326 
840	 0,171321737383355 
841	 0,172254595688273 
842	 0,17213668357927 
843	 0,171094281515544 
844	 0,171282550849844 
845	 0,171606957204157 
846	 0,17156608046086 
847	 0,172096470586701 
848	 0,172646031501728 
849	 0,172330610379725 
850	 0,172176825328809 
851	 0,172362564462515 
852	 0,172581427950156 
853	 0,172698031952083 
854	 0,17255629908578 
855	 0,171630411520117 
856	 0,171003613936478 
857	 0,172174146635224 
858	 0,172557681960148 
859	 0,17194287929467 
860	 0,171835567929268 
861	 0,171955540844329 
862	 0,172143594964785 
863	 0,17217111384356 
864	 0,172119385885691 
865	 0,172132090102802 
866	 0,171965935556346 
867	 0,171863289363489 
868	 0,172714247807398 
869	 0,173589016891989 
870	 0,173964148591822 
871	 0,173782729448747 
872	 0,173369937134528 
873	 0,173126350849429 
874	 0,172835491796952 
875	 0,172682454520389 
876	 0,173288166309446 
877	 0,173905923172906 
878	 0,174122839016818 
879	 0,17367757562519 
880	 0,173362850261885 
881	 0,173999295211448 
882	 0,1745283402733 
883	 0,174519253209585 
884	 0,173236771531717 
885	 0,173205178705295 
886	 0,174846246481256 
887	 0,174993859046153 
888	 0,174674940983299 
889	 0,174956265013353 
890	 0,174464062654506 
891	 0,173760067390995 
892	 0,174580674958813 
893	 0,175046440079798 
894	 0,174797560659164 
895	 0,175193951169371 
896	 0,175617903444102 
897	 0,175569865496077 
898	 0,175423175580869 
899	 0,175236575752828 
900	 0,174983919369926 
901	 0,175207266589543 
902	 0,175795247926564 
903	 0,17569884080889 
904	 0,175709308474825 
905	 0,176209989136243 
906	 0,176135610607995 
907	 0,175780651002862 
908	 0,175739388497476 
909	 0,175949081502127 
910	 0,176211130456229 
911	 0,175957972742482 
912	 0,175554714657721 
913	 0,175211506021649 
914	 0,174968556112507 
915	 0,174991271811074 
916	 0,175410971823854 
917	 0,175495053729302 
918	 0,17537798593851 
919	 0,175877528137321 
920	 0,175982406569494 
921	 0,175464273705789 
922	 0,175018094596572 
923	 0,174802931821325 
924	 0,174852122787012 
925	 0,174288457317176 
926	 0,173697094029064 
927	 0,174392473354542 
928	 0,174411052558213 
929	 0,173604265730201 
930	 0,173792598878938 
931	 0,173211413810652 
932	 0,171267853126318 
933	 0,171340614527408 
934	 0,172372575563301 
935	 0,172498556354875 
936	 0,171090621451001 
937	 0,169027645435279 
938	 0,169319404490743 
939	 0,169163346280051 
940	 0,167990614200214 
941	 0,168760752041964 
942	 0,169234380327214 
943	 0,167490043564592 
944	 0,166337371370956 
945	 0,16587525234313 
946	 0,165405797242686 
947	 0,16433755396459 
948	 0,162911886544431 
949	 0,16280263840406 
950	 0,162489330927063 
951	 0,161265391322729 
952	 0,160780153039928 
953	 0,160214465044494 
954	 0,15847059585091 
955	 0,157693167885748 
956	 0,157529690524862 
957	 0,1557429487291 
958	 0,154931184072855 
959	 0,155369084504009 
960	 0,154017295198971 
961	 0,152540983022083 
962	 0,152364359773401 
963	 0,153550710509201 
964	 0,154712033177489 
965	 0,15380394590055 
966	 0,152381654645352 
967	 0,150917892648554 
968	 0,149226067426066 
969	 0,149214553338246 
970	 0,151264530077005 
971	 0,152893613575277 
972	 0,152579675577533 
973	 0,149652362305949 
974	 0,150440179785467 
975	 0,152693599755996 
976	 0,150412042015576 
977	 0,149398343223329 
978	 0,150742522567652 
979	 0,152668247783964 
980	 0,153336687797503 
981	 0,152228735039391 
982	 0,152595686206881 
983	 0,153135422855429 
984	 0,15243437985342 
985	 0,153271598387759 
986	 0,154780393596849 
987	 0,15433430534339 
988	 0,153996038054159 
989	 0,154643399478597 
990	 0,157542263061693 
991	 0,15818980394606 
992	 0,155041858536247 
993	 0,154491860857517 
994	 0,15424274513393 
995	 0,151804047704801 
996	 0,153827412607119 
997	 0,158122966909638 
998	 0,158119526853499 
999	 0,159282046779978 
1000	 0,161699182349081 
1001	 0,160411367573901 
1002	 0,158588779877602 
1003	 0,157998805368357 
1004	 0,158701086937328 
1005	 0,159624517722914 
1006	 0,159783756050809 
1007	 0,160683911272273 
1008	 0,16153983993685 
1009	 0,160531680131232 
1010	 0,16231496301897 
1011	 0,165632698918665 
1012	 0,161789041792691 
1013	 0,160691638954528 
1014	 0,165568242196639 
1015	 0,168622223728861 
1016	 0,16986993517002 
1017	 0,169650951632175 
1018	 0,167013122584831 
1019	 0,165083588809466 
1020	 0,168348626287043 
1021	 0,170025743777264 
1022	 0,1693304507196 
1023	 0,168355759475333 
1024	 0,170602375181405 
1025	 0,175591424725863 
1026	 0,17567788872408 
1027	 0,172958119233814 
1028	 0,170093832102242 
1029	 0,173854069337256 
1030	 0,177692013992063 
1031	 0,173885267620273 
1032	 0,176212790877006 
1033	 0,18180946139601 
1034	 0,179632779395768 
1035	 0,177024427935147 
1036	 0,1771517695926 
1037	 0,184227912510719 
1038	 0,1849307203655 
1039	 0,176457778906814 
1040	 0,178965823209171 
1041	 0,183444365572274 
1042	 0,181560749665482 
1043	 0,176272286294912 
1044	 0,171199394860595 
1045	 0,170915630616412 
1046	 0,175199150785975 
1047	 0,181430501673778 
1048	 0,183365216251683 
1049	 0,190332627250442 
1050	 0,198838930156865 
1051	 0,185650814751985 
1052	 0,177642348980504 
1053	 0,186214683104182 
1054	 0,186429305800264 
1055	 0,186989770205482 
1056	 0,195174409537507 
1057	 0,198074238499899 
1058	 0,196710910754256 
1059	 0,195232022068727 
1060	 0,194942347911636 
1061	 0,197260085344772 
1062	 0,204483016612977 
1063	 0,205048012658944 
1064	 0,197522812720941 
1065	 0,19104180097174 
1066	 0,184403771356579 
1067	 0,179615448844071 
1068	 0,186442618802871 
1069	 0,189995171162706 
1070	 0,181296680667462 
1071	 0,183728723826667 
1072	 0,19227272084967 
1073	 0,196367721862808 
1074	 0,187679873814393 
1075	 0,180246140527815 
