Wavelength	GRA-VAN00353.asd
325	 0,108595413162623 
326	-2,29529872852723E-02 
327	 3,05696089054498E-02 
328	 0,259641591278423 
329	 0,134004680085967 
330	 1,53798152924536E-02 
331	 0,285064339610833 
332	 0,294243294270106 
333	 0,151435519901401 
334	-0,108891454965358 
335	-0,163753846302828 
336	 4,70996219441833E-02 
337	 8,71388397388608E-02 
338	 5,08626542298837E-02 
339	 7,26269098077871E-03 
340	 0,042344746952326 
341	 0,104322776142974 
342	 9,83669031512438E-02 
343	 7,90390448025078E-02 
344	 6,58598745994951E-02 
345	 2,21296666230603E-02 
346	 1,87957286106818E-02 
347	 0,124307109693807 
348	 6,86256484539193E-02 
349	-0,088809109824083 
350	-4,41107422883944E-02 
351	 3,58748745872567E-02 
352	 6,55655039275729E-02 
353	 3,51067404083753E-02 
354	-3,09529264442345E-03 
355	 1,27488717108305E-02 
356	 3,35362735709734E-02 
357	 4,36974518456503E-02 
358	 3,22342748382595E-02 
359	 0,026891838677942 
360	 4,24529106771551E-02 
361	 7,78608545656677E-02 
362	 9,39660115653109E-02 
363	 3,55285227126604E-02 
364	 5,72361031166349E-03 
365	 1,69415970716244E-02 
366	 4,29672773010587E-03 
367	 9,95441871512695E-03 
368	 5,10103011597389E-02 
369	 0,059693272284454 
370	 4,41491250013107E-02 
371	 3,19539318769962E-02 
372	 2,34174959255132E-02 
373	 1,85779653632293E-02 
374	 1,10011789365877E-03 
375	-2,78316738838741E-03 
376	 2,45916012373202E-02 
377	 2,99193281983057E-02 
378	 2,05509838415134E-02 
379	 3,12751347548935E-02 
380	 0,032344544134644 
381	 2,25991527126674E-02 
382	 4,00781939785225E-02 
383	 5,27926376005078E-02 
384	 3,27753608464724E-02 
385	 2,90471908444242E-02 
386	 0,035993828945149 
387	 1,16410841538013E-02 
388	 3,99652846591539E-03 
389	 2,71738473420867E-02 
390	 3,57494534321612E-02 
391	 3,06598063238395E-02 
392	 1,76276907937405E-02 
393	 1,20164712635026E-02 
394	 1,28491228829412E-02 
395	 2,89011086838916E-03 
396	 3,04609125401468E-03 
397	 2,02046832010007E-02 
398	 2,53509803359942E-02 
399	 2,07748792101996E-02 
400	 1,44651762646907E-02 
401	 1,35998822031136E-02 
402	 1,75973051398604E-02 
403	 1,67523658191005E-02 
404	 0,01056880624813 
405	 4,76668889684752E-04 
406	 3,33663710084223E-03 
407	 1,31032817296551E-02 
408	 0,014599024229743 
409	 1,48945959435396E-02 
410	 1,54028867983936E-02 
411	 1,42887112508137E-02 
412	 1,23982052810847E-02 
413	 1,06811541688889E-02 
414	 1,08473571057899E-02 
415	 1,02561482807073E-02 
416	-3,08406212583302E-04 
417	-2,39257344027824E-03 
418	 9,02467134409428E-03 
419	 1,33740401818837E-02 
420	 1,44320904263089E-02 
421	 1,94274299142736E-02 
422	 0,018493130125452 
423	 1,23967850104757E-02 
424	 1,04678782282539E-02 
425	 1,05889730655832E-02 
426	 1,11548599755114E-02 
427	 9,33069268585129E-03 
428	 8,48071867148688E-03 
429	 1,58856781374335E-02 
430	 1,79155680572072E-02 
431	 1,21888537711805E-02 
432	 6,94892358035342E-03 
433	 6,55269993080778E-03 
434	 1,35576484769825E-02 
435	 1,59722896607453E-02 
436	 1,28711186129702E-02 
437	 7,38392471227258E-03 
438	 5,1805435539431E-03 
439	 7,7408437418248E-03 
440	 6,7838103385693E-03 
441	 6,3367779355253E-03 
442	 1,23459638941519E-02 
443	 1,15240205172305E-02 
444	 5,31863067576032E-03 
445	 9,94954808017238E-03 
446	 1,29647380130562E-02 
447	 7,66436257775119E-03 
448	 7,26092570434851E-03 
449	 9,94874670830235E-03 
450	 8,9175191837772E-03 
451	 8,58752944273361E-03 
452	 9,90185035281418E-03 
453	 0,011166367115825 
454	 1,23719991953431E-02 
455	 1,35038131657843E-02 
456	 1,38592607915898E-02 
457	 1,28833408307454E-02 
458	 8,99098963465902E-03 
459	 7,17982454379066E-03 
460	 9,13972138281421E-03 
461	 9,44873392988989E-03 
462	 9,66458069118903E-03 
463	 0,012600859405428 
464	 1,08146703354115E-02 
465	 5,55748408808461E-03 
466	 7,61123349172823E-03 
467	 1,09210782850624E-02 
468	 1,14048494667541E-02 
469	 1,05821408635749E-02 
470	 9,47986654041432E-03 
471	 9,5452907678176E-03 
472	 1,10510058812275E-02 
473	 1,31683227820447E-02 
474	 1,18740240311235E-02 
475	 9,55190928479852E-03 
476	 8,88058573357789E-03 
477	 1,13000359778774E-02 
478	 1,51640866264605E-02 
479	 1,58692144170937E-02 
480	 1,39244584660011E-02 
481	 1,04447749594571E-02 
482	 1,16354200972398E-02 
483	 1,41540514582599E-02 
484	 0,012096339239918 
485	 1,17601333346911E-02 
486	 1,33738993436435E-02 
487	 1,10110030187485E-02 
488	 9,64071626349302E-03 
489	 1,26288358708702E-02 
490	 1,32324120030432E-02 
491	 1,17505729612462E-02 
492	 1,13032438128273E-02 
493	 1,16199299191692E-02 
494	 1,23846371669369E-02 
495	 1,17932062797887E-02 
496	 1,08547272891286E-02 
497	 0,010844031353172 
498	 1,09321139744457E-02 
499	 0,010915627130339 
500	 0,010724637989145 
501	 1,05732134868359E-02 
502	 1,06278494842422E-02 
503	 1,12069142490727E-02 
504	 1,17163919545424E-02 
505	 1,09739636812551E-02 
506	 1,13407575724688E-02 
507	 0,012889050175319 
508	 1,28747659339435E-02 
509	 1,18176780154885E-02 
510	 1,04261783903091E-02 
511	 0,010762462373828 
512	 1,19561203999078E-02 
513	 1,04246929916765E-02 
514	 1,00403174698055E-02 
515	 1,19567127796967E-02 
516	 1,22159698282935E-02 
517	 1,14270630139193E-02 
518	 1,09572219417145E-02 
519	 1,12837570974639E-02 
520	 1,23046659405082E-02 
521	 1,32786047390898E-02 
522	 0,013072010740613 
523	 1,11747964901735E-02 
524	 1,12703964943802E-02 
525	 1,27927679744323E-02 
526	 1,32512962900781E-02 
527	 1,30616088047703E-02 
528	 1,22674969166623E-02 
529	 1,05845628206988E-02 
530	 9,79529005515888E-03 
531	 1,18305151363044E-02 
532	 1,26169121839537E-02 
533	 1,16605741270753E-02 
534	 1,03931157187011E-02 
535	 1,04028831013599E-02 
536	 1,22531329771463E-02 
537	 1,18805351964285E-02 
538	 1,05484089700974E-02 
539	 1,16454316597135E-02 
540	 1,24862466994873E-02 
541	 1,23352118715099E-02 
542	 1,17879388769018E-02 
543	 1,13721821706873E-02 
544	 1,15385008467362E-02 
545	 1,11899255839634E-02 
546	 1,06776851625532E-02 
547	 1,16310597404962E-02 
548	 1,26198761557476E-02 
549	 0,012871528323592 
550	 1,23580740723299E-02 
551	 1,17288739239816E-02 
552	 1,19895687671071E-02 
553	 1,20729877275075E-02 
554	 1,17087419896906E-02 
555	 1,11006161508655E-02 
556	 1,05542214137156E-02 
557	 0,010347108959697 
558	 1,06669862876088E-02 
559	 1,12561579893748E-02 
560	 1,15127352187902E-02 
561	 0,011299021779481 
562	 1,06994087770576E-02 
563	 1,06875714333543E-02 
564	 1,10062900486544E-02 
565	 1,11954028669247E-02 
566	 1,11570845497839E-02 
567	 1,08572195147677E-02 
568	 1,02018088462567E-02 
569	 1,01462603279495E-02 
570	 1,12377606385933E-02 
571	 1,18484982010777E-02 
572	 1,19133480985954E-02 
573	 1,19260694224181E-02 
574	 1,17244608118913E-02 
575	 1,15391886884635E-02 
576	 1,26771208220216E-02 
577	 0,013853917943963 
578	 1,35541860477898E-02 
579	 1,30835754810783E-02 
580	 1,29070217238603E-02 
581	 1,34596902107808E-02 
582	 1,39145487896163E-02 
583	 1,39147920095049E-02 
584	 1,48605437632904E-02 
585	 1,58492943594334E-02 
586	 1,49727052254845E-02 
587	 1,43956861027678E-02 
588	 1,47389454175806E-02 
589	 1,55967754330708E-02 
590	 0,015925412724679 
591	 1,49122053613833E-02 
592	 1,55359487898528E-02 
593	 1,71244950677451E-02 
594	 1,61073002634383E-02 
595	 1,53330070672998E-02 
596	 1,59831240578413E-02 
597	 1,65806609003929E-02 
598	 1,67049448939939E-02 
599	 1,59909674854258E-02 
600	 1,49150568823385E-02 
601	 1,39935137754684E-02 
602	 1,43800966254495E-02 
603	 1,52532341999394E-02 
604	 1,58025904377257E-02 
605	 1,47372157218063E-02 
606	 0,013117496048097 
607	 1,41551998733113E-02 
608	 1,48975650397713E-02 
609	 1,43759297134297E-02 
610	 1,38733984056709E-02 
611	 1,36496172447713E-02 
612	 1,38835757894426E-02 
613	 0,014075050131873 
614	 1,40265474117315E-02 
615	 1,35495103480464E-02 
616	 1,31882735948254E-02 
617	 0,013311379627225 
618	 1,38459746809202E-02 
619	 1,43007998405649E-02 
620	 1,37685225667944E-02 
621	 0,013102595011318 
622	 1,27289239804577E-02 
623	 1,31083880179297E-02 
624	 1,36432252414906E-02 
625	 1,36916229670761E-02 
626	 1,33672825469593E-02 
627	 1,30517080429261E-02 
628	 1,38640686701662E-02 
629	 1,42432748590513E-02 
630	 0,013590581286182 
631	 1,39515164815746E-02 
632	 1,47015898943349E-02 
633	 1,44352068434021E-02 
634	 1,43325803401327E-02 
635	 1,46458227311341E-02 
636	 1,49834793780611E-02 
637	 1,51427518106211E-02 
638	 1,49995956472005E-02 
639	 1,52107177184842E-02 
640	 1,55637716971614E-02 
641	 1,50887792490214E-02 
642	 1,51939010373776E-02 
643	 1,62072821040061E-02 
644	 1,63199910786536E-02 
645	 1,62897019807877E-02 
646	 1,73122804047872E-02 
647	 1,74226624322106E-02 
648	 1,64817398561436E-02 
649	 1,57089014281581E-02 
650	 0,015471175686745 
651	 1,59055297167767E-02 
652	 1,56682390882569E-02 
653	 0,015186262208925 
654	 1,58703501834024E-02 
655	 1,58399921761554E-02 
656	 1,47091915202498E-02 
657	 1,38652170759884E-02 
658	 0,013376318357766 
659	 1,32113602320745E-02 
660	 1,31554261300096E-02 
661	 1,30145336488288E-02 
662	 1,24157053710647E-02 
663	 1,18994557868195E-02 
664	 1,17548041939082E-02 
665	 1,18829270466335E-02 
666	 1,19732437134314E-02 
667	 1,15735445201051E-02 
668	 1,11644200473203E-02 
669	 1,09382142258014E-02 
670	 1,09994220045682E-02 
671	 1,12220913980661E-02 
672	 0,011488544199919 
673	 1,17950997758855E-02 
674	 1,19705678383957E-02 
675	 1,16007071992106E-02 
676	 1,13223898858075E-02 
677	 1,13968416896464E-02 
678	 1,16948141203335E-02 
679	 1,21524161622883E-02 
680	 1,26965511149581E-02 
681	 0,012363916235845 
682	 1,15662833612635E-02 
683	 1,23764342247773E-02 
684	 1,32155583258988E-02 
685	 1,31690788577614E-02 
686	 1,28572299504546E-02 
687	 1,28378580481266E-02 
688	 1,40191759223016E-02 
689	 1,42928926613239E-02 
690	 1,35699666197662E-02 
691	 1,43679145092901E-02 
692	 0,016026083071621 
693	 1,78292024572432E-02 
694	 1,95307590555426E-02 
695	 2,12281824980246E-02 
696	 2,33443455069833E-02 
697	 0,025720368448255 
698	 2,84321222165049E-02 
699	 3,21421364187894E-02 
700	 0,036419063825212 
701	 4,06238727254493E-02 
702	 4,57108305233747E-02 
703	 5,14857694666737E-02 
704	 5,64559074531136E-02 
705	 6,21931196679646E-02 
706	 0,069469840537929 
707	 0,075963960196327 
708	 8,19529091149078E-02 
709	 8,85648312190896E-02 
710	 9,52635404431482E-02 
711	 0,101870376398249 
712	 0,108255755923706 
713	 0,114576578532321 
714	 0,120963974156368 
715	 0,127165917092926 
716	 0,133140444432864 
717	 0,138943211670505 
718	 0,144416357760634 
719	 0,149481805797797 
720	 0,154019790291983 
721	 0,158376833373657 
722	 0,163009304260768 
723	 0,167029890196197 
724	 0,170439700548998 
725	 0,173922850321739 
726	 0,177458427024736 
727	 0,180935529724758 
728	 0,183473900248565 
729	 0,185491642205082 
730	 0,187966966842784 
731	 0,190080195456141 
732	 0,191704517303593 
733	 0,193343341652567 
734	 0,194922074980008 
735	 0,196367023276837 
736	 0,197723493875741 
737	 0,199075619934327 
738	 0,200660582685193 
739	 0,201941524205401 
740	 0,202760550135801 
741	 0,203546795114049 
742	 0,204372047862831 
743	 0,205267753003079 
744	 0,205991769200182 
745	 0,206482610724902 
746	 0,206693558491585 
747	 0,207064093642867 
748	 0,207822393018344 
749	 0,208685172003144 
750	 0,209467095970843 
751	 0,209964428668843 
752	 0,210165677114091 
753	 0,21021997927438 
754	 0,210661191579918 
755	 0,211142354440874 
756	 0,211401812759462 
757	 0,211502280184639 
758	 0,211673123758394 
759	 0,212390039614941 
760	 0,212856132931513 
761	 0,212883058127331 
762	 0,212974405852319 
763	 0,213122201199565 
764	 0,213282203918182 
765	 0,21316705763078 
766	 0,213023570555677 
767	 0,213653604186801 
768	 0,214176348372574 
769	 0,214288683860255 
770	 0,214481431368425 
771	 0,214763745099466 
772	 0,215094586960751 
773	 0,21532696107147 
774	 0,215406021061929 
775	 0,215289852786802 
776	 0,215139023143984 
777	 0,215080248203182 
778	 0,215282930521439 
779	 0,21555299629004 
780	 0,215590746226032 
781	 0,215346984578886 
782	 0,215032760350319 
783	 0,21544557233895 
784	 0,215836892336995 
785	 0,215743003644649 
786	 0,215746222482094 
787	 0,215864149813519 
788	 0,215979042624029 
789	 0,216123190025334 
790	 0,216302527050892 
791	 0,216575902475182 
792	 0,216629658251959 
793	 0,216256364971097 
794	 0,215984959442308 
795	 0,215973931208737 
796	 0,216388695590579 
797	 0,216475432370702 
798	 0,216113049020957 
799	 0,216112792776628 
800	 0,216291200203435 
801	 0,216437619631633 
802	 0,216658339103923 
803	 0,21683028600533 
804	 0,216581265612117 
805	 0,216493547990524 
806	 0,216743221088601 
807	 0,216987666994467 
808	 0,217053908116202 
809	 0,216819273450825 
810	 0,217043213219763 
811	 0,217598266401222 
812	 0,217627580398189 
813	 0,217841327140157 
814	 0,218434492868568 
815	 0,218733937598562 
816	 0,218824744988846 
817	 0,218883881683479 
818	 0,219038731385729 
819	 0,219190219180428 
820	 0,218879618996149 
821	 0,218785023631443 
822	 0,219189204716222 
823	 0,219619891277241 
824	 0,219843348493851 
825	 0,219643690313858 
826	 0,219829191405823 
827	 0,220366779313302 
828	 0,220493056854561 
829	 0,220558859191815 
830	 0,220682202443035 
831	 0,220448747312418 
832	 0,220068537167898 
833	 0,219877212382552 
834	 0,220037599607729 
835	 0,220472614632804 
836	 0,220834861453749 
837	 0,220890865482516 
838	 0,220589125999564 
839	 0,220594227766531 
840	 0,22079257884218 
841	 0,220909257058445 
842	 0,220841224035831 
843	 0,220726203146246 
844	 0,221132601941024 
845	 0,221529301343912 
846	 0,221622164301339 
847	 0,221634242044296 
848	 0,221613214106284 
849	 0,221594209599041 
850	 0,221403797893031 
851	 0,221085719111547 
852	 0,220874064862392 
853	 0,22085692423981 
854	 0,221044396388739 
855	 0,221116611315428 
856	 0,221153193187349 
857	 0,221316709081176 
858	 0,221047428596761 
859	 0,220506134792203 
860	 0,220665996252657 
861	 0,22069465413509 
862	 0,220307800027457 
863	 0,220710975099619 
864	 0,221134468900055 
865	 0,220459185341119 
866	 0,220090129016179 
867	 0,220321393021333 
868	 0,220934280855312 
869	 0,221658857517079 
870	 0,222277939096749 
871	 0,222647528752489 
872	 0,222617214824919 
873	 0,222070818743338 
874	 0,222127477954491 
875	 0,222636174069195 
876	 0,222333223173833 
877	 0,222218596615954 
878	 0,222648949454201 
879	 0,223146993468909 
880	 0,223422389947895 
881	 0,223247758985549 
882	 0,223596937815358 
883	 0,22409723518776 
884	 0,223065858690046 
885	 0,223016851469686 
886	 0,224378935833409 
887	 0,224268320925931 
888	 0,223764732613964 
889	 0,224018680301139 
890	 0,224421663908963 
891	 0,224744673109419 
892	 0,224752678967659 
893	 0,224261561991867 
894	 0,223654333365778 
895	 0,2249348503794 
896	 0,22567669247186 
897	 0,224196156631589 
898	 0,223932981357716 
899	 0,224485520675882 
900	 0,224145268457935 
901	 0,22435878339607 
902	 0,225022148507466 
903	 0,224202034493788 
904	 0,223797717189821 
905	 0,224776297936885 
906	 0,224730662619518 
907	 0,224407559897391 
908	 0,225256069835899 
909	 0,225493835839679 
910	 0,224959397500221 
911	 0,224570508849691 
912	 0,224180360432829 
913	 0,223803702238927 
914	 0,223790135452621 
915	 0,223606834995343 
916	 0,222724859606963 
917	 0,22295124189076 
918	 0,224061738555923 
919	 0,224647739450335 
920	 0,22467979203224 
921	 0,224164996330231 
922	 0,223566038562695 
923	 0,222837252290227 
924	 0,221957820660384 
925	 0,221200876254581 
926	 0,220620980745963 
927	 0,22021668294994 
928	 0,219748448427088 
929	 0,219165061897173 
930	 0,218550670028998 
931	 0,218128717605196 
932	 0,218009741297506 
933	 0,218164618798046 
934	 0,217649095055217 
935	 0,215376946068182 
936	 0,213910190445369 
937	 0,213513344231054 
938	 0,213148566085646 
939	 0,212619199089265 
940	 0,211771697027181 
941	 0,210587738841569 
942	 0,20954546977588 
943	 0,209058150474738 
944	 0,208986937276616 
945	 0,208683300400763 
946	 0,207059492697952 
947	 0,205143531763452 
948	 0,203413188949188 
949	 0,202427532676303 
950	 0,200907635723984 
951	 0,198356449516615 
952	 0,196774607497426 
953	 0,19547086525174 
954	 0,193411329657997 
955	 0,192404317094284 
956	 0,191906089257105 
957	 0,189360001828137 
958	 0,188397758451051 
959	 0,189283684299554 
960	 0,187320744654341 
961	 0,184473081295337 
962	 0,182667569226942 
963	 0,183506435662451 
964	 0,185202604863488 
965	 0,184720603166247 
966	 0,183701956701094 
967	 0,182657420285346 
968	 0,18177487651847 
969	 0,181767359856193 
970	 0,182590718474299 
971	 0,18245809264842 
972	 0,18097377285623 
973	 0,178401047759702 
974	 0,180248016025933 
975	 0,183842675582452 
976	 0,182807818522827 
977	 0,18140900690253 
978	 0,180942179037856 
979	 0,181697962349774 
980	 0,18272577276431 
981	 0,183292134232007 
982	 0,182408794427289 
983	 0,181489854352084 
984	 0,181990055480875 
985	 0,182370281361953 
986	 0,182917455582569 
987	 0,184730768936431 
988	 0,185976215476429 
989	 0,186158749924008 
990	 0,185573510884049 
991	 0,185462477613934 
992	 0,186538550259395 
993	 0,18884444311489 
994	 0,18951150690261 
995	 0,186288247923382 
996	 0,188507601265914 
997	 0,193426212917419 
998	 0,192386292808133 
999	 0,19077572804912 
1000	 0,190563802692303 
1001	 0,193439792371652 
1002	 0,19435948013897 
1003	 0,191765608254034 
1004	 0,192950851719196 
1005	 0,194941182966164 
1006	 0,194374523506511 
1007	 0,192983342580225 
1008	 0,192175622209803 
1009	 0,193787902498318 
1010	 0,19804735708972 
1011	 0,202556745251673 
1012	 0,199506167675582 
1013	 0,198606907112744 
1014	 0,202781301922365 
1015	 0,202449070181627 
1016	 0,202975026807995 
1017	 0,208223751829985 
1018	 0,207662874236672 
1019	 0,203317348269536 
1020	 0,200707646193881 
1021	 0,202654682726705 
1022	 0,207526512939433 
1023	 0,2082036749949 
1024	 0,210812293781704 
1025	 0,215481951127971 
1026	 0,214386389469201 
1027	 0,210672348250344 
1028	 0,207722607698353 
1029	 0,21162439119748 
1030	 0,21617330008361 
1031	 0,213715414346026 
1032	 0,210836090304033 
1033	 0,212409041007451 
1034	 0,22602604244278 
1035	 0,223202605635687 
1036	 0,206158203293049 
1037	 0,213730018985349 
1038	 0,220018598256249 
1039	 0,2157604855251 
1040	 0,216384494362779 
1041	 0,220224918825121 
1042	 0,22442632493509 
1043	 0,222918676463121 
1044	 0,218226232253074 
1045	 0,215530368341278 
1046	 0,220906448287224 
1047	 0,229378488406137 
1048	 0,225706313042823 
1049	 0,227449137234362 
1050	 0,235166260981478 
1051	 0,230089923029855 
1052	 0,228511317989331 
1053	 0,235660502331071 
1054	 0,230011386000249 
1055	 0,225190211461456 
1056	 0,231796426900483 
1057	 0,224592461275859 
1058	 0,218397529818307 
1059	 0,23698249680496 
1060	 0,231243761295735 
1061	 0,213238726805937 
1062	 0,234871780828301 
1063	 0,248182317063808 
1064	 0,241942148305262 
1065	 0,227950611331105 
1066	 0,217922768490415 
1067	 0,218528971668162 
1068	 0,227044472366273 
1069	 0,231767691803461 
1070	 0,226053685831958 
1071	 0,231050109855203 
1072	 0,234227935142139 
1073	 0,219720315406522 
1074	 0,217802779154249 
1075	 0,225874039533838 
