Wavelength	GRA-VIE00205.asd
325	-4,91713229300793E-02 
326	 1,69920738297813E-02 
327	 0,137996787796185 
328	 0,153895564212637 
329	 0,194503932960781 
330	 0,179842510000077 
331	 6,78952393324714E-02 
332	 0,111669579044307 
333	 0,260178761395275 
334	 0,170771283213248 
335	 0,14882715611934 
336	 0,233884388572224 
337	 0,212847972289687 
338	 0,175570710785842 
339	 0,182097735364544 
340	 0,156055681124052 
341	 0,117554332182465 
342	 0,164845769906121 
343	 0,197183528501085 
344	 0,194061174028511 
345	 0,206899459828768 
346	 0,188246765406695 
347	 9,18248292386405E-02 
348	 9,06457984521657E-02 
349	 0,165186893926339 
350	 0,177104897319023 
351	 0,154597798762136 
352	 0,119688789163351 
353	 0,166807087909456 
354	 0,223412107055513 
355	 0,205046816612438 
356	 0,186784586903621 
357	 0,17671481219275 
358	 0,146846191904199 
359	 0,13859376439871 
360	 0,167037107727544 
361	 0,189563844564231 
362	 0,197435702315352 
363	 0,189747036403967 
364	 0,177052386288613 
365	 0,164571598063933 
366	 0,158673998804798 
367	 0,154143708215882 
368	 0,1476861766685 
369	 0,139518718842414 
370	 0,136062243610932 
371	 0,147132722613456 
372	 0,171431468354041 
373	 0,197170877605118 
374	 0,178771176327981 
375	 0,157785620027411 
376	 0,164296202418571 
377	 0,153634875784648 
378	 0,136329523924818 
379	 0,150702288318368 
380	 0,161954275855251 
381	 0,163233568821457 
382	 0,173148885906928 
383	 0,178920572863 
384	 0,168057470766833 
385	 0,1697978438958 
386	 0,177426825779226 
387	 0,158776356100198 
388	 0,153184559739041 
389	 0,171570183988014 
390	 0,180505434528791 
391	 0,179865413158744 
392	 0,172774385016513 
393	 0,160458594159741 
394	 0,14955233561509 
395	 0,157349711477845 
396	 0,170658600023323 
397	 0,18096115624682 
398	 0,173948949558785 
399	 0,159535109656338 
400	 0,152856355367725 
401	 0,159681110337124 
402	 0,175711136477333 
403	 0,180833843405185 
404	 0,18070339394602 
405	 0,179962417388823 
406	 0,181790544461829 
407	 0,184452703084777 
408	 0,183507102001108 
409	 0,179712340717628 
410	 0,174350593646671 
411	 0,171645166592598 
412	 0,172275652762357 
413	 0,176099439224704 
414	 0,174250906535335 
415	 0,169258067226623 
416	 0,1730671863961 
417	 0,171956665427556 
418	 0,163325228296176 
419	 0,165196149047865 
420	 0,172821831009591 
421	 0,178425970753371 
422	 0,177073393959457 
423	 0,171391859649305 
424	 0,174708963626288 
425	 0,175249151744793 
426	 0,167384606829051 
427	 0,167415441965205 
428	 0,172840135929854 
429	 0,17563178105738 
430	 0,177576990692553 
431	 0,179023216140996 
432	 0,180921468701157 
433	 0,18167066606643 
434	 0,180076335760569 
435	 0,180782794451566 
436	 0,182124149540535 
437	 0,176871523463622 
438	 0,17542625137062 
439	 0,180765134950605 
440	 0,182834835043496 
441	 0,182754043030376 
442	 0,183142019467063 
443	 0,182815033729 
444	 0,181988187661229 
445	 0,181864001912457 
446	 0,182324778767484 
447	 0,183202429557491 
448	 0,183570101942889 
449	 0,184060298574938 
450	 0,186246157613137 
451	 0,187121771289957 
452	 0,186345602451739 
453	 0,187021054714941 
454	 0,187935211108507 
455	 0,18791381021941 
456	 0,18878508793146 
457	 0,189913119056017 
458	 0,18857131530505 
459	 0,188048818538564 
460	 0,189363886163361 
461	 0,18901985566375 
462	 0,189028549777077 
463	 0,192455308032724 
464	 0,194027509453279 
465	 0,193165524740108 
466	 0,192923731009582 
467	 0,192303048440345 
468	 0,190829493586181 
469	 0,190160030221662 
470	 0,190339232862053 
471	 0,190740389039941 
472	 0,192935210181751 
473	 0,196353603100255 
474	 0,196323930236848 
475	 0,19541630728526 
476	 0,196294363267335 
477	 0,195327144871214 
478	 0,193249419717215 
479	 0,193859401439204 
480	 0,195149125007539 
481	 0,195991969531413 
482	 0,195654507336428 
483	 0,194840759949107 
484	 0,194633065273999 
485	 0,196594502335609 
486	 0,199624659864624 
487	 0,197704654708731 
488	 0,197006159964775 
489	 0,201517167755924 
490	 0,200842588840751 
491	 0,196472946792602 
492	 0,195163411248159 
493	 0,196066571591213 
494	 0,198438814246769 
495	 0,198888438916568 
496	 0,198220993592973 
497	 0,197692098197542 
498	 0,199021305406854 
499	 0,201406945865701 
500	 0,201306023480677 
501	 0,200233761158065 
502	 0,199415664056727 
503	 0,201241568584097 
504	 0,204090774969987 
505	 0,204723563261253 
506	 0,205020409425047 
507	 0,205525056510159 
508	 0,206277402235854 
509	 0,206796832935986 
510	 0,206709490119693 
511	 0,207191111723263 
512	 0,208489312556295 
513	 0,211035207254316 
514	 0,211605976937642 
515	 0,209567681200542 
516	 0,210861752148014 
517	 0,213303512285524 
518	 0,213073927944716 
519	 0,21321618552644 
520	 0,214182368222025 
521	 0,21483478412959 
522	 0,215075402967045 
523	 0,214939119310695 
524	 0,215466644872923 
525	 0,216502048242722 
526	 0,21744456295727 
527	 0,217661821340302 
528	 0,21708578720779 
529	 0,216807206565603 
530	 0,216802022317098 
531	 0,21692800587842 
532	 0,217218536823783 
533	 0,217576114968381 
534	 0,217711699087622 
535	 0,217908992829399 
536	 0,2183547571073 
537	 0,219198473769415 
538	 0,21986425546447 
539	 0,219242607880827 
540	 0,218992776105978 
541	 0,219552513219632 
542	 0,22026536384735 
543	 0,220759751095043 
544	 0,220720917550554 
545	 0,220348871038171 
546	 0,22024658466137 
547	 0,22195516108854 
548	 0,223515505258311 
549	 0,223936226227338 
550	 0,223808103572285 
551	 0,223627770056211 
552	 0,224050396809406 
553	 0,224344277338055 
554	 0,22433247040775 
555	 0,22422976799298 
556	 0,22401367150193 
557	 0,223698973503127 
558	 0,223758522270648 
559	 0,224004935373926 
560	 0,223738420444016 
561	 0,223535906109057 
562	 0,223606082783017 
563	 0,22378335479397 
564	 0,2236955413875 
565	 0,222868998068378 
566	 0,223373134858299 
567	 0,225133368727395 
568	 0,225949652570285 
569	 0,226326370227088 
570	 0,22673683255317 
571	 0,22821561568915 
572	 0,230249554989457 
573	 0,231427993431635 
574	 0,23206435130865 
575	 0,232598252442092 
576	 0,234981336909861 
577	 0,237069436713875 
578	 0,236428039282885 
579	 0,237791860810191 
580	 0,240944360367572 
581	 0,241641079861333 
582	 0,24238867556421 
583	 0,244435244743785 
584	 0,245801447312364 
585	 0,246867069056582 
586	 0,24878282800811 
587	 0,25022892275122 
588	 0,251028071325488 
589	 0,252359847659515 
590	 0,253416473487452 
591	 0,253473141769856 
592	 0,254154937245376 
593	 0,255266325321399 
594	 0,255318579575678 
595	 0,255451997782566 
596	 0,256144667524643 
597	 0,256883263749268 
598	 0,257339597146142 
599	 0,257118664801839 
600	 0,256868587308079 
601	 0,256845201487725 
602	 0,257214700085821 
603	 0,257486141360788 
604	 0,25722832309655 
605	 0,256177930168298 
606	 0,254902835939571 
607	 0,254893481157761 
608	 0,254658989866911 
609	 0,25372937374302 
610	 0,252794713582679 
611	 0,252275446120419 
612	 0,252595019717758 
613	 0,25255089518121 
614	 0,252071201367806 
615	 0,252058898560346 
616	 0,252016322616511 
617	 0,251645269431049 
618	 0,251226490212079 
619	 0,250984477103273 
620	 0,251310639962015 
621	 0,251362672316587 
622	 0,250996137772525 
623	 0,251025307675905 
624	 0,251163091630779 
625	 0,251087584309571 
626	 0,251438480759679 
627	 0,252128542483641 
628	 0,252570022039863 
629	 0,252767068254928 
630	 0,252809292315925 
631	 0,253449008176409 
632	 0,254228754633337 
633	 0,254228563030974 
634	 0,254783904501171 
635	 0,256086509049505 
636	 0,257183337897996 
637	 0,258330229214666 
638	 0,259694002051585 
639	 0,26022614946312 
640	 0,260330730062958 
641	 0,261479510995753 
642	 0,262802837734982 
643	 0,263812609382178 
644	 0,263862253145364 
645	 0,263583260660652 
646	 0,26386451321641 
647	 0,264508221989105 
648	 0,265086756556512 
649	 0,264392061038677 
650	 0,26326597197294 
651	 0,262240224118764 
652	 0,260574914337571 
653	 0,258729140073458 
654	 0,257857766765536 
655	 0,256390071325126 
656	 0,25407680350848 
657	 0,252510170715976 
658	 0,250880356191471 
659	 0,248293227199134 
660	 0,245784259476527 
661	 0,243462034309412 
662	 0,240898432919213 
663	 0,238434820061939 
664	 0,236321260244235 
665	 0,234975424890254 
666	 0,233760607782719 
667	 0,231594208427439 
668	 0,230113711345476 
669	 0,229582194272349 
670	 0,229058969857615 
671	 0,228581445679119 
672	 0,228188707173241 
673	 0,227853641584458 
674	 0,227589004036245 
675	 0,227390157617627 
676	 0,227514646562654 
677	 0,227972031955072 
678	 0,228201779908336 
679	 0,22848636501016 
680	 0,229209395632996 
681	 0,230170294123309 
682	 0,231406661524269 
683	 0,233201653691843 
684	 0,234974351790543 
685	 0,236536212220455 
686	 0,23927066350372 
687	 0,242916632500036 
688	 0,246635303476262 
689	 0,25098312111494 
690	 0,255960421580464 
691	 0,260838382461632 
692	 0,266354523404923 
693	 0,273136259541326 
694	 0,280097724488889 
695	 0,287331782395415 
696	 0,295783292941077 
697	 0,304123372614158 
698	 0,311971411941482 
699	 0,320875647133508 
700	 0,330081122204894 
701	 0,338446819326677 
702	 0,346379532870579 
703	 0,354145293874087 
704	 0,362399479983337 
705	 0,370304684576404 
706	 0,377274441623739 
707	 0,383328763540087 
708	 0,388929861565481 
709	 0,394917987710959 
710	 0,400249594198098 
711	 0,404816083357491 
712	 0,409653834339346 
713	 0,41419118953962 
714	 0,417894373106171 
715	 0,421220672729194 
716	 0,424398832062054 
717	 0,427799617188012 
718	 0,430800577097136 
719	 0,433195076286832 
720	 0,435434117961206 
721	 0,437550265589059 
722	 0,439535340799344 
723	 0,441874573452779 
724	 0,444357548765343 
725	 0,445938720763021 
726	 0,447238894291669 
727	 0,448637028555444 
728	 0,449861725962289 
729	 0,450967528641758 
730	 0,452087280120278 
731	 0,453273123994989 
732	 0,454400108886687 
733	 0,45481954410351 
734	 0,455325562875077 
735	 0,456567121001079 
736	 0,457425958517813 
737	 0,457913403948465 
738	 0,458571325411585 
739	 0,459250518701281 
740	 0,459900009371096 
741	 0,460451746345348 
742	 0,461010831111643 
743	 0,461698925021691 
744	 0,462178459210254 
745	 0,462567664321278 
746	 0,463449563425009 
747	 0,464437454163477 
748	 0,465260030038055 
749	 0,465647904763211 
750	 0,465815387735599 
751	 0,466130624136505 
752	 0,466647296257057 
753	 0,467314621895737 
754	 0,467822284149695 
755	 0,468334820906621 
756	 0,468958311310589 
757	 0,469546373015521 
758	 0,469884943081914 
759	 0,469512667436337 
760	 0,469744992267832 
761	 0,470793492682156 
762	 0,471394841047653 
763	 0,471639939603446 
764	 0,471707928563024 
765	 0,472078925927033 
766	 0,472655979184421 
767	 0,472891681058778 
768	 0,473206791697442 
769	 0,473691226490875 
770	 0,473851502558257 
771	 0,474047622496287 
772	 0,474732342450048 
773	 0,475309372832629 
774	 0,47561961354029 
775	 0,475615000596268 
776	 0,475728199264327 
777	 0,476152435194366 
778	 0,476409168090057 
779	 0,476657153275876 
780	 0,477209256366732 
781	 0,477559029006762 
782	 0,477631579988764 
783	 0,477675059008655 
784	 0,477778851548817 
785	 0,477978215565601 
786	 0,477960932261302 
787	 0,477948812939388 
788	 0,478416068943873 
789	 0,478823530907119 
790	 0,479014001873719 
791	 0,479082474073201 
792	 0,479223013544288 
793	 0,479570802276667 
794	 0,479851912495738 
795	 0,480000862263453 
796	 0,479980423731639 
797	 0,479966294467892 
798	 0,480053619742589 
799	 0,480282170662872 
800	 0,480690073195036 
801	 0,481264823775917 
802	 0,48133590175212 
803	 0,481185707465314 
804	 0,48190710461833 
805	 0,482411813964254 
806	 0,48243357892972 
807	 0,482871423547034 
808	 0,483308857734326 
809	 0,483279868333979 
810	 0,483829279757823 
811	 0,48474541531026 
812	 0,484854200621213 
813	 0,484819186721564 
814	 0,484925503943909 
815	 0,485064474785985 
816	 0,485438876130797 
817	 0,486257071702899 
818	 0,486459067111076 
819	 0,486140052282014 
820	 0,48636988263215 
821	 0,486536130947767 
822	 0,486483692583584 
823	 0,487124485031613 
824	 0,48773096109956 
825	 0,487289694420902 
826	 0,487443315146654 
827	 0,488171752195394 
828	 0,48809362862694 
829	 0,488035511197254 
830	 0,488373725961099 
831	 0,488603450242149 
832	 0,488772116394201 
833	 0,489013754830708 
834	 0,489403955898771 
835	 0,489758492900515 
836	 0,489395497706439 
837	 0,489196897349752 
838	 0,48955498358977 
839	 0,489489849003988 
840	 0,489371341842549 
841	 0,489858796186832 
842	 0,49003215410966 
843	 0,48986304434437 
844	 0,490126965514031 
845	 0,490075675373361 
846	 0,489521376545553 
847	 0,490260675018094 
848	 0,491033543767702 
849	 0,489833153272932 
850	 0,489643820603467 
851	 0,490619830919237 
852	 0,490708567387479 
853	 0,490478225581952 
854	 0,49025678150005 
855	 0,490216392201277 
856	 0,490245855396868 
857	 0,490153942673998 
858	 0,490370295244969 
859	 0,490811775965084 
860	 0,490931580695064 
861	 0,490760447197524 
862	 0,490412311903155 
863	 0,490448796556891 
864	 0,490924118359122 
865	 0,491796176774888 
866	 0,492354058834485 
867	 0,492409484969699 
868	 0,491958829747361 
869	 0,491836619657872 
870	 0,492385469388789 
871	 0,492823494136461 
872	 0,493226353247247 
873	 0,493750947235713 
874	 0,493575193468906 
875	 0,493188114032119 
876	 0,494549000815175 
877	 0,495550898866201 
878	 0,495498151773428 
879	 0,4960862379581 
880	 0,496566793722345 
881	 0,496107916116456 
882	 0,496931401998187 
883	 0,498438980425281 
884	 0,497869886194467 
885	 0,497267753260957 
886	 0,497401412565477 
887	 0,498150900901381 
888	 0,49894727547774 
889	 0,499268421681678 
890	 0,499628255061585 
891	 0,499939506096729 
892	 0,499762327684799 
893	 0,50004085713005 
894	 0,500910933159455 
895	 0,501484884367782 
896	 0,501839562109452 
897	 0,502038033895624 
898	 0,501833083720775 
899	 0,501614545480183 
900	 0,502097808144425 
901	 0,502713242546066 
902	 0,503245592357782 
903	 0,503624955450095 
904	 0,503785605740518 
905	 0,503677346647609 
906	 0,503216505452009 
907	 0,502777749964643 
908	 0,502875419737904 
909	 0,50287238209267 
910	 0,502852072103146 
911	 0,503644976572406 
912	 0,504139650905446 
913	 0,503915452690179 
914	 0,503860139325702 
915	 0,504330253149229 
916	 0,505530488636409 
917	 0,505632244146657 
918	 0,504863077914184 
919	 0,504826317857067 
920	 0,504542618105193 
921	 0,503921099004433 
922	 0,504036804687098 
923	 0,50402068428575 
924	 0,503265136691692 
925	 0,50359183094113 
926	 0,504407443973374 
927	 0,504147672223398 
928	 0,503719138403317 
929	 0,503324358544101 
930	 0,502756353298249 
931	 0,502256729157093 
932	 0,501981601481139 
933	 0,501865447640731 
934	 0,501932550457785 
935	 0,50219667900041 
936	 0,501855001362903 
937	 0,500986892044999 
938	 0,50019926637509 
939	 0,500386359170983 
940	 0,501391556244965 
941	 0,500510801078552 
942	 0,498941202462174 
943	 0,497972782614533 
944	 0,497996433985784 
945	 0,498227241017227 
946	 0,497058331408319 
947	 0,496378931393826 
948	 0,496049662877381 
949	 0,493480757646896 
950	 0,491191114552138 
951	 0,49055144113397 
952	 0,490237651341965 
953	 0,489457145084593 
954	 0,487538756146227 
955	 0,487278970452858 
956	 0,487812278952709 
957	 0,485186938484958 
958	 0,483838524639747 
959	 0,484632641615255 
960	 0,484124780683243 
961	 0,483002279800721 
962	 0,482032084304824 
963	 0,482300994437359 
964	 0,483133202159229 
965	 0,483246962218918 
966	 0,48312874695847 
967	 0,482702688131233 
968	 0,481268715321632 
969	 0,480753640071165 
970	 0,481814373475215 
971	 0,483126853884587 
972	 0,483274787067381 
973	 0,481336253518123 
974	 0,480661323395026 
975	 0,481311859100254 
976	 0,48232551783436 
977	 0,482464391817466 
978	 0,481784780833764 
979	 0,481976291667367 
980	 0,482112555617846 
981	 0,482073174568537 
982	 0,484041146582378 
983	 0,485355997170117 
984	 0,483485687015393 
985	 0,483239924922398 
986	 0,484466498875182 
987	 0,485082523809086 
988	 0,485359587143008 
989	 0,485716453779885 
990	 0,48753445384814 
991	 0,489697326909788 
992	 0,491113279976611 
993	 0,489352046923994 
994	 0,487434376214357 
995	 0,488515999859011 
996	 0,489784082594555 
997	 0,490648420521014 
998	 0,491001357136072 
999	 0,491108636680063 
1000	 0,491454749818257 
1001	 0,493322663036667 
1002	 0,495305955259576 
1003	 0,496605281054424 
1004	 0,49754397257208 
1005	 0,498479971301807 
1006	 0,499517254558331 
1007	 0,497885254334387 
1008	 0,495262370786294 
1009	 0,495215112341692 
1010	 0,499293594395407 
1011	 0,505432666227786 
1012	 0,506229013416164 
1013	 0,504037262829276 
1014	 0,501071835855706 
1015	 0,503029388982626 
1016	 0,505595620020083 
1017	 0,505041909203846 
1018	 0,505355436220291 
1019	 0,506499905733363 
1020	 0,507562557193484 
1021	 0,505747487231706 
1022	 0,503102485828521 
1023	 0,507652510292834 
1024	 0,50815562878857 
1025	 0,50335742818567 
1026	 0,506018477400918 
1027	 0,510000459152912 
1028	 0,511113482409598 
1029	 0,511379868542141 
1030	 0,513982430467084 
1031	 0,521300367839228 
1032	 0,517319119324478 
1033	 0,507722870966668 
1034	 0,51047959323625 
1035	 0,513522406355067 
1036	 0,514753798207461 
1037	 0,518809311568507 
1038	 0,521878390099178 
1039	 0,521779177074811 
1040	 0,517876530028354 
1041	 0,514495175105932 
1042	 0,514826708674462 
1043	 0,51254225949213 
1044	 0,510309038011961 
1045	 0,512459487906293 
1046	 0,516019861046761 
1047	 0,519155360071056 
1048	 0,519955236742755 
1049	 0,516898170388469 
1050	 0,512245108564787 
1051	 0,515770743197873 
1052	 0,522723572565249 
1053	 0,528573576692626 
1054	 0,524231687573446 
1055	 0,514823631546854 
1056	 0,507325401339655 
1057	 0,51470303923109 
1058	 0,523226258433877 
1059	 0,512001539892849 
1060	 0,510106976711118 
1061	 0,514730870316332 
1062	 0,505336371711035 
1063	 0,50410805677965 
1064	 0,512733319384643 
1065	 0,510356210696658 
1066	 0,514531209252225 
1067	 0,529049126283806 
1068	 0,531212620660841 
1069	 0,528865508964338 
1070	 0,52917485450402 
1071	 0,531603002652462 
1072	 0,527462425141633 
1073	 0,508552436990089 
1074	 0,508341546967631 
1075	 0,523014646636992 
