Wavelength	GRA-VAN00211.asd
325	 0,321824468165416 
326	 0,347092706838047 
327	 0,40227313475885 
328	 0,430698263617868 
329	 0,193582250793057 
330	-1,12987769365172E-02 
331	 0,275878020043374 
332	 0,356437612413839 
333	 0,314423426100162 
334	 0,164817453687779 
335	 0,118431023171024 
336	 0,22474349094401 
337	 0,211213232235269 
338	 0,187121804711022 
339	 0,243203548546082 
340	 0,224942389619584 
341	 0,167286952556811 
342	 0,16337501497148 
343	 0,186056757016113 
344	 0,208230143419475 
345	 0,177554717212395 
346	 0,167121849113849 
347	 0,247352593729065 
348	 0,218607821367515 
349	 0,114800545388589 
350	 0,125246398011426 
351	 0,164263609343426 
352	 0,186469012115564 
353	 0,18665532423238 
354	 0,170286602914361 
355	 0,143751696034274 
356	 0,146570386268243 
357	 0,171379077581989 
358	 0,179543045260394 
359	 0,184656677654843 
360	 0,189031911289005 
361	 0,176613848620362 
362	 0,154070253415532 
363	 0,130920180427755 
364	 0,136454625215851 
365	 0,167738325244519 
366	 0,18195428756087 
367	 0,195651122926535 
368	 0,215555671996911 
369	 0,208882552079956 
370	 0,189140419701788 
371	 0,184247105847367 
372	 0,196325060944708 
373	 0,214810933442353 
374	 0,205195632775584 
375	 0,185452530342767 
376	 0,172279114879533 
377	 0,156409698667625 
378	 0,148880893293508 
379	 0,181131097664364 
380	 0,194636328918215 
381	 0,181919933579818 
382	 0,201565948615272 
383	 0,212905472839325 
384	 0,18049482633225 
385	 0,184667431272731 
386	 0,212651366742156 
387	 0,194652898469424 
388	 0,184023812794414 
389	 0,197381040330434 
390	 0,194105871986917 
391	 0,181075339005321 
392	 0,169779749420449 
393	 0,174633736685611 
394	 0,188716403088345 
395	 0,181365619157838 
396	 0,175583368151834 
397	 0,18177560216427 
398	 0,186488943204433 
399	 0,185940508032578 
400	 0,176269780928402 
401	 0,177989580500071 
402	 0,189303761730236 
403	 0,184537885377256 
404	 0,177382055373408 
405	 0,177696597998657 
406	 0,177963067651783 
407	 0,179759967198073 
408	 0,189428812812854 
409	 0,193252811190901 
410	 0,187503797692108 
411	 0,17580608621583 
412	 0,170903380573484 
413	 0,183157885574545 
414	 0,190666334184757 
415	 0,189435619928778 
416	 0,178733981749282 
417	 0,174295164357395 
418	 0,181398506642039 
419	 0,185679551622507 
420	 0,188485016007281 
421	 0,193511689843102 
422	 0,189178071534418 
423	 0,179016109646331 
424	 0,182988169517567 
425	 0,187530216032678 
426	 0,185294384127746 
427	 0,18827850488476 
428	 0,193368475729248 
429	 0,192836467447205 
430	 0,189361362164562 
431	 0,184394554018631 
432	 0,179823137314953 
433	 0,180335634739703 
434	 0,188817855523548 
435	 0,189922241884298 
436	 0,18505421028451 
437	 0,185651776761669 
438	 0,185236618015145 
439	 0,182566661374432 
440	 0,185037814895467 
441	 0,188632750742581 
442	 0,187554146657501 
443	 0,186856097246815 
444	 0,188121653979904 
445	 0,19338150386113 
446	 0,1941457483617 
447	 0,186579172808481 
448	 0,186361701440646 
449	 0,190696654208518 
450	 0,190264529012833 
451	 0,189292970865946 
452	 0,189068056969591 
453	 0,190093544774637 
454	 0,19100158194656 
455	 0,1906839652414 
456	 0,193256797071643 
457	 0,196547026121594 
458	 0,192362132673163 
459	 0,191135654876465 
460	 0,195882038136286 
461	 0,194870105227166 
462	 0,191498015252086 
463	 0,1916756200158 
464	 0,189950444726518 
465	 0,186969871552884 
466	 0,189022129681397 
467	 0,192814537360618 
468	 0,195904304923178 
469	 0,19780167643151 
470	 0,197737427804152 
471	 0,19422251698302 
472	 0,192574550390256 
473	 0,194020840379128 
474	 0,194469965525166 
475	 0,194728996458899 
476	 0,195737609094391 
477	 0,195763944300974 
478	 0,195304449738714 
479	 0,196856324602923 
480	 0,19743592017324 
481	 0,195879656302505 
482	 0,194581068671228 
483	 0,194394448026733 
484	 0,196181265051366 
485	 0,1963949234485 
486	 0,194809167641405 
487	 0,194536311767009 
488	 0,194931706878889 
489	 0,195431399354789 
490	 0,195675559757527 
491	 0,195941187373596 
492	 0,19737063441496 
493	 0,197136263556678 
494	 0,194960747092487 
495	 0,19527833769629 
496	 0,195803911669437 
497	 0,193673301057863 
498	 0,194285465866218 
499	 0,196941072052368 
500	 0,195673862256658 
501	 0,194453632304842 
502	 0,195466540340984 
503	 0,197144627882385 
504	 0,198514400483771 
505	 0,198200612589603 
506	 0,198784453474679 
507	 0,200280683690434 
508	 0,199149126255445 
509	 0,197765037971818 
510	 0,198359109513614 
511	 0,199710356033032 
512	 0,200688355725491 
513	 0,19861157011174 
514	 0,19868990584155 
515	 0,202272687643939 
516	 0,202198047277661 
517	 0,200695982314968 
518	 0,20184378212379 
519	 0,202339553313986 
520	 0,201894735660813 
521	 0,202734306506704 
522	 0,202546927002731 
523	 0,200057764898243 
524	 0,200548727513906 
525	 0,203199199591115 
526	 0,20463284844206 
527	 0,204329776389228 
528	 0,202456379042905 
529	 0,201707769417966 
530	 0,201637265379843 
531	 0,201466578706972 
532	 0,202235982311955 
533	 0,203306189199604 
534	 0,201961513804967 
535	 0,201119486558245 
536	 0,202291958534491 
537	 0,202590090426083 
538	 0,202285763899312 
539	 0,202568026643508 
540	 0,203247371886451 
541	 0,20399511677073 
542	 0,203507393628355 
543	 0,202918395486221 
544	 0,203372346033753 
545	 0,204117282939114 
546	 0,204718254757112 
547	 0,204352266363581 
548	 0,2043158794131 
549	 0,205124572818824 
550	 0,205577338134278 
551	 0,205580501026504 
552	 0,205202048421328 
553	 0,204982553794412 
554	 0,205006940470778 
555	 0,204768608237042 
556	 0,204712124643581 
557	 0,205157413304036 
558	 0,205261530077672 
559	 0,204932337341696 
560	 0,204283010527609 
561	 0,203825167662663 
562	 0,203882901842015 
563	 0,204925871387843 
564	 0,205564382489117 
565	 0,203968916213804 
566	 0,203549239135867 
567	 0,204504093423826 
568	 0,204152708747211 
569	 0,203693558434695 
570	 0,203964788690576 
571	 0,204395005043735 
572	 0,2051544716374 
573	 0,206890848297525 
574	 0,208158750861833 
575	 0,208647761038754 
576	 0,209839056188725 
577	 0,211319604151969 
578	 0,212509023280268 
579	 0,213969762592939 
580	 0,215547687502218 
581	 0,216452309586149 
582	 0,217120836759648 
583	 0,217838370455034 
584	 0,218707951033484 
585	 0,21962920198326 
586	 0,220432310542819 
587	 0,220759787801484 
588	 0,22077696840661 
589	 0,221744770541704 
590	 0,222679335107063 
591	 0,222678562787375 
592	 0,223216465768108 
593	 0,224180369063227 
594	 0,224442590482803 
595	 0,224759897859857 
596	 0,225350936161028 
597	 0,225272887054328 
598	 0,224992484354473 
599	 0,225358792411649 
600	 0,225146350096659 
601	 0,224435068272371 
602	 0,224880893681687 
603	 0,225501716753078 
604	 0,22542177927075 
605	 0,224120703458329 
606	 0,222443209904389 
607	 0,222672599696906 
608	 0,222830984700403 
609	 0,222213637819627 
610	 0,221362527128787 
611	 0,220595544433763 
612	 0,220243397082276 
613	 0,219913561594319 
614	 0,219498619020253 
615	 0,218980472033545 
616	 0,218535692386259 
617	 0,218299280705548 
618	 0,218381365174895 
619	 0,218519479481088 
620	 0,218187821581534 
621	 0,217821329293902 
622	 0,217584833718175 
623	 0,217485778519836 
624	 0,217515965969091 
625	 0,217658902528113 
626	 0,217814917977864 
627	 0,218024170259039 
628	 0,2185465778237 
629	 0,218839076355111 
630	 0,218663395047024 
631	 0,218474122505129 
632	 0,218591849031399 
633	 0,219435787196448 
634	 0,220020174884848 
635	 0,220365528509685 
636	 0,221955546779794 
637	 0,223378899952469 
638	 0,223475882108487 
639	 0,223736439259942 
640	 0,224260884321324 
641	 0,224444573527134 
642	 0,225321690359676 
643	 0,226967521985948 
644	 0,227209789069804 
645	 0,226956076127038 
646	 0,227641478790762 
647	 0,227958298066987 
648	 0,227533053772522 
649	 0,226137951395075 
650	 0,225159448143715 
651	 0,225353825391364 
652	 0,224365416106712 
653	 0,222761156727375 
654	 0,22248856842399 
655	 0,221760977111263 
656	 0,220150189631008 
657	 0,218618987242173 
658	 0,217162742997446 
659	 0,215718383948521 
660	 0,214169130159345 
661	 0,212617237565014 
662	 0,211439066945615 
663	 0,210247608118703 
664	 0,208943516486221 
665	 0,208285401233346 
666	 0,207931305920457 
667	 0,207244581960688 
668	 0,206216338335658 
669	 0,205176760130594 
670	 0,205431574296195 
671	 0,205870870412791 
672	 0,205588394487038 
673	 0,205244352519304 
674	 0,20497764298811 
675	 0,204869038405871 
676	 0,20467070466128 
677	 0,20441432225305 
678	 0,204790799545114 
679	 0,205398413481693 
680	 0,205696390267535 
681	 0,205428295143063 
682	 0,204988630327642 
683	 0,205716386206074 
684	 0,207013256499266 
685	 0,208444319546195 
686	 0,20945342674248 
687	 0,210640563740751 
688	 0,213275218727766 
689	 0,215285819467588 
690	 0,216618493283803 
691	 0,219690675234466 
692	 0,224064856927297 
693	 0,229254529447291 
694	 0,235272109567277 
695	 0,241751132323061 
696	 0,2478300447986 
697	 0,254567926082717 
698	 0,262332829452382 
699	 0,270398985456896 
700	 0,278863204182037 
701	 0,28792338224874 
702	 0,296766191474406 
703	 0,305134740325902 
704	 0,313017059807037 
705	 0,321109480637493 
706	 0,329651716869775 
707	 0,336816552326246 
708	 0,343180069094049 
709	 0,350273477058382 
710	 0,35699215640106 
711	 0,363030536015034 
712	 0,368589005088413 
713	 0,373690509221066 
714	 0,378349700371807 
715	 0,382535529984209 
716	 0,386447871891571 
717	 0,390554951269528 
718	 0,394460274820448 
719	 0,397949753507973 
720	 0,400779065234639 
721	 0,403308147396931 
722	 0,406028301534646 
723	 0,408142246522376 
724	 0,409780665802426 
725	 0,412000378675194 
726	 0,414045246028216 
727	 0,415494417377737 
728	 0,416952485929505 
729	 0,418429222706746 
730	 0,419817127684145 
731	 0,420824223852299 
732	 0,421488304182403 
733	 0,422356245686279 
734	 0,423371949918888 
735	 0,424419167383715 
736	 0,424807087005117 
737	 0,42491297313354 
738	 0,425985313615854 
739	 0,427110443627901 
740	 0,427874925509255 
741	 0,428091140501545 
742	 0,428143305583367 
743	 0,428495291949125 
744	 0,429096626805214 
745	 0,429687270004851 
746	 0,42943604290087 
747	 0,429472706183434 
748	 0,430280945521962 
749	 0,430574991256746 
750	 0,430641837167163 
751	 0,431167254645869 
752	 0,431430940706989 
753	 0,431418364240205 
754	 0,431827321915958 
755	 0,432302052736908 
756	 0,432554681458825 
757	 0,432484010900395 
758	 0,432355501508815 
759	 0,432733990525192 
760	 0,433127673732928 
761	 0,433361196541281 
762	 0,433419665986906 
763	 0,433562506870557 
764	 0,433998364676119 
765	 0,434054614928738 
766	 0,433806964350427 
767	 0,433765286483243 
768	 0,433845948832593 
769	 0,434057489637152 
770	 0,434513489682878 
771	 0,435008538001791 
772	 0,435290852846547 
773	 0,435069784266615 
774	 0,434623140699292 
775	 0,43498807762905 
776	 0,435361199981427 
777	 0,435334846509257 
778	 0,435205387420287 
779	 0,435089451760212 
780	 0,435101157748881 
781	 0,435366204727942 
782	 0,435753705775098 
783	 0,435697664187189 
784	 0,435578311446913 
785	 0,435650880047685 
786	 0,435747543897358 
787	 0,435937080189259 
788	 0,436387528139809 
789	 0,436685671859112 
790	 0,436753116389303 
791	 0,436940463077779 
792	 0,436822407113031 
793	 0,436161036196189 
794	 0,436207688254715 
795	 0,436731058602869 
796	 0,436785667303551 
797	 0,436723810611207 
798	 0,436675468713758 
799	 0,436796982355556 
800	 0,436908458093192 
801	 0,436832571515322 
802	 0,436553382763712 
803	 0,436403249392895 
804	 0,437331840382783 
805	 0,437672169570714 
806	 0,437054080089399 
807	 0,437257889974644 
808	 0,437529827930712 
809	 0,437002707438893 
810	 0,43734043566796 
811	 0,438362167607549 
812	 0,438597882569193 
813	 0,438854431167983 
814	 0,439321075102229 
815	 0,439188621690353 
816	 0,438795053549316 
817	 0,438624692241431 
818	 0,438719449082771 
819	 0,439021098566446 
820	 0,439322839964872 
821	 0,439471609664831 
822	 0,43941477214143 
823	 0,439430169523759 
824	 0,439458764718252 
825	 0,439391472608474 
826	 0,439779201331714 
827	 0,440402459003979 
828	 0,440167695741524 
829	 0,439900463082407 
830	 0,439955944443272 
831	 0,439591995519102 
832	 0,439187421163725 
833	 0,439341151440317 
834	 0,439801944292844 
835	 0,440390451932558 
836	 0,440796406362034 
837	 0,441059186175363 
838	 0,44114538655465 
839	 0,44075791083191 
840	 0,440238290400644 
841	 0,440095465243643 
842	 0,439812806432168 
843	 0,439574746177824 
844	 0,440447351249761 
845	 0,441063683770248 
846	 0,440746693120085 
847	 0,440582800475448 
848	 0,440641586521924 
849	 0,440837864480048 
850	 0,441014944435863 
851	 0,441062295342443 
852	 0,440769037228929 
853	 0,440683759587296 
854	 0,441001769107687 
855	 0,440815181634275 
856	 0,44043486206577 
857	 0,440419425712786 
858	 0,440522669012511 
859	 0,440717655729341 
860	 0,441118194553582 
861	 0,441430317834319 
862	 0,441460027432286 
863	 0,441109743089936 
864	 0,440697217746687 
865	 0,440635532731858 
866	 0,440704867183188 
867	 0,440864217243702 
868	 0,44116464671112 
869	 0,441378039584075 
870	 0,441422524175362 
871	 0,441580259652716 
872	 0,441752457616884 
873	 0,441795691616248 
874	 0,442007016054745 
875	 0,44216742641801 
876	 0,441393419315071 
877	 0,441018986942113 
878	 0,441500506012588 
879	 0,441781338002846 
880	 0,442072136378821 
881	 0,442642616645435 
882	 0,442684134618612 
883	 0,442167798353404 
884	 0,441327282104177 
885	 0,44112355537037 
886	 0,441824047621293 
887	 0,442666882664906 
888	 0,44292700903008 
889	 0,442102285384543 
890	 0,441980632677132 
891	 0,442649144978933 
892	 0,443604296901323 
893	 0,443878811151694 
894	 0,443343748879 
895	 0,443185600802133 
896	 0,443184530914299 
897	 0,443156741297418 
898	 0,443373254160936 
899	 0,44349378321743 
900	 0,442845533492063 
901	 0,442562400448083 
902	 0,442930916867366 
903	 0,443731518679588 
904	 0,444052325016554 
905	 0,443485337583537 
906	 0,443662208407456 
907	 0,444187850456871 
908	 0,444217887087088 
909	 0,443578779711318 
910	 0,442721139806723 
911	 0,443186352017262 
912	 0,443780662560291 
913	 0,44380860568494 
914	 0,442811050581811 
915	 0,442007131464324 
916	 0,442702618533856 
917	 0,44287431856378 
918	 0,442666454122263 
919	 0,443561477333311 
920	 0,444317769044366 
921	 0,444370864683213 
922	 0,443267714504021 
923	 0,442352999690731 
924	 0,442730310671125 
925	 0,443577469396012 
926	 0,444130418636022 
927	 0,443325921891482 
928	 0,442382316086243 
929	 0,441682701780105 
930	 0,441141447045712 
931	 0,440565021360192 
932	 0,440023526904848 
933	 0,440827445520882 
934	 0,441943711376888 
935	 0,441896799423088 
936	 0,441151532371097 
937	 0,439909313443625 
938	 0,438216627626312 
939	 0,4378546675149 
940	 0,439052787806209 
941	 0,439071285071493 
942	 0,438417619397822 
943	 0,437724603992009 
944	 0,437222071593087 
945	 0,436859993412 
946	 0,436447741493277 
947	 0,43541630218252 
948	 0,434119232488171 
949	 0,434553373241181 
950	 0,434421726084663 
951	 0,432805153532202 
952	 0,433096748700536 
953	 0,433575877953784 
954	 0,431875202041583 
955	 0,431021985306658 
956	 0,430735746136064 
957	 0,428507060715244 
958	 0,427020535051244 
959	 0,427006853323331 
960	 0,427276747890042 
961	 0,427014816269742 
962	 0,425880740738794 
963	 0,426481528801442 
964	 0,427342548852989 
965	 0,425732819869435 
966	 0,424122976802112 
967	 0,423487383801248 
968	 0,42474063455406 
969	 0,426072196982636 
970	 0,426411935065377 
971	 0,425088205699605 
972	 0,423652485215422 
973	 0,423542812177124 
974	 0,423906132127523 
975	 0,424335131142567 
976	 0,424341848406925 
977	 0,424824240781811 
978	 0,425776107892468 
979	 0,426380185081291 
980	 0,426611732937765 
981	 0,426375380128399 
982	 0,4252355479655 
983	 0,424345694680557 
984	 0,424845537131879 
985	 0,425745632542703 
986	 0,426352306592429 
987	 0,425659777009825 
988	 0,426244825791844 
989	 0,42820145158692 
990	 0,429212909057658 
991	 0,428612822951503 
992	 0,426770122034376 
993	 0,428037404166032 
994	 0,430341680171686 
995	 0,431172801248143 
996	 0,431568691382823 
997	 0,431935637544521 
998	 0,432804493577216 
999	 0,433220631017935 
1000	 0,432774106139172 
1001	 0,430820516979735 
1002	 0,430318739238496 
1003	 0,432390977624572 
1004	 0,433879658477191 
1005	 0,434707650379081 
1006	 0,43500188179329 
1007	 0,433949358967839 
1008	 0,432386616366748 
1009	 0,431856192615999 
1010	 0,434606002146579 
1011	 0,438563350984295 
1012	 0,434679899632541 
1013	 0,43385748487006 
1014	 0,438598957571339 
1015	 0,434346786163041 
1016	 0,431935550936363 
1017	 0,439527862866595 
1018	 0,440302288614205 
1019	 0,437747026143579 
1020	 0,440678089602878 
1021	 0,442402916088851 
1022	 0,442612989132051 
1023	 0,444844140922741 
1024	 0,444669955239247 
1025	 0,442478815313373 
1026	 0,447356974887847 
1027	 0,449273184865147 
1028	 0,443171275727258 
1029	 0,444084003723561 
1030	 0,447243072472899 
1031	 0,445636180916186 
1032	 0,447056181106489 
1033	 0,450348736190431 
1034	 0,450453884729532 
1035	 0,447933855702322 
1036	 0,44544529043677 
1037	 0,452250560333292 
1038	 0,454353506124285 
1039	 0,447629781564734 
1040	 0,446220816358508 
1041	 0,448965696211964 
1042	 0,453311004936358 
1043	 0,452679061254262 
1044	 0,448631939600198 
1045	 0,445112981145656 
1046	 0,445171224504979 
1047	 0,448362422652401 
1048	 0,451445249595159 
1049	 0,458016878907214 
1050	 0,464834059603081 
1051	 0,457131839886394 
1052	 0,451555508420611 
1053	 0,456566051836871 
1054	 0,464815115595522 
1055	 0,46856432980643 
1056	 0,462088062520577 
1057	 0,453618841664049 
1058	 0,448353380442451 
1059	 0,451477139114801 
1060	 0,444925393986866 
1061	 0,436426358276122 
1062	 0,453401776293457 
1063	 0,457395219915078 
1064	 0,445334707713045 
1065	 0,451248547328058 
1066	 0,454285491655456 
1067	 0,447915666315489 
1068	 0,450566041178241 
1069	 0,451647973082618 
1070	 0,445814163956396 
1071	 0,461031050639278 
1072	 0,474253000877192 
1073	 0,456509237767572 
1074	 0,446593197981589 
1075	 0,45267935378773 
