Wavelength	GRA-BER00079.asd
325	 7,97796471565228E-02 
326	 0,218531608845185 
327	 0,229696527855251 
328	 9,13995140968416E-02 
329	 8,20862209178983E-02 
330	 0,146581296861207 
331	 0,229528363701058 
332	 0,254807787330764 
333	 0,213987645723485 
334	 8,16343390252525E-02 
335	 1,19471846294646E-02 
336	 7,93197217926593E-02 
337	 0,170150144811845 
338	 0,217558690163667 
339	 0,188277892765221 
340	 0,146903917675118 
341	 0,114741755970007 
342	 7,35604935252258E-02 
343	 6,06825504866512E-02 
344	 8,50370213945385E-02 
345	 0,107528482125944 
346	 0,127677013800076 
347	 0,143770695845709 
348	 0,138771242559005 
349	 0,118753666669142 
350	 0,107213617458846 
351	 9,22296320040028E-02 
352	 7,38798523891731E-02 
353	 5,88708401558376E-02 
354	 6,27763781981944E-02 
355	 0,102656258171187 
356	 0,110714507016647 
357	 8,91436877819893E-02 
358	 7,86262232890739E-02 
359	 7,24048632481534E-02 
360	 6,88784764830084E-02 
361	 7,62757332371347E-02 
362	 8,32117853391175E-02 
363	 7,22008984042232E-02 
364	 7,96066802931791E-02 
365	 9,70395060193399E-02 
366	 0,065690220741866 
367	 3,68477990121949E-02 
368	 4,40057254306921E-02 
369	 6,48576846346811E-02 
370	 0,083472476759451 
371	 7,99254813491955E-02 
372	 7,71746359203469E-02 
373	 8,03960444741258E-02 
374	 0,080243370765397 
375	 7,48842784544213E-02 
376	 6,34736423279809E-02 
377	 5,48254722760772E-02 
378	 5,58382333161612E-02 
379	 7,91718683674402E-02 
380	 8,08938856333405E-02 
381	 5,37720155329047E-02 
382	 4,47465897148037E-02 
383	 4,93124314854997E-02 
384	 0,058759188268462 
385	 5,04075153623691E-02 
386	 3,31438856149333E-02 
387	 4,42631544345768E-02 
388	 5,16535514307956E-02 
389	 4,58584061983848E-02 
390	 4,40770295940212E-02 
391	 4,99480069542669E-02 
392	 6,50489994012354E-02 
393	 7,37661264903757E-02 
394	 7,12021186355956E-02 
395	 5,21055121995279E-02 
396	 3,65942498047472E-02 
397	 0,035878104210952 
398	 3,64809749169335E-02 
399	 0,03439432382385 
400	 2,54167667564039E-02 
401	 3,30978879903829E-02 
402	 5,24538316911487E-02 
403	 4,51135376698784E-02 
404	 0,036930978559659 
405	 4,44777436732625E-02 
406	 4,23107473131353E-02 
407	 3,66622566761097E-02 
408	 4,78726046967664E-02 
409	 4,98935634620421E-02 
410	 3,85052532668221E-02 
411	 3,21155790543546E-02 
412	 3,08176580669726E-02 
413	 3,37164652239265E-02 
414	 4,18666054367797E-02 
415	 4,92785256429213E-02 
416	 4,19923756254272E-02 
417	 3,41664011241669E-02 
418	 3,14914151093934E-02 
419	 2,76415466948135E-02 
420	 2,55117683618813E-02 
421	 2,92335332184851E-02 
422	 3,06247262134445E-02 
423	 2,93516823364996E-02 
424	 3,08560441123482E-02 
425	 3,39061797266788E-02 
426	 3,70511286900877E-02 
427	 3,47925311331544E-02 
428	 3,08587486589122E-02 
429	 3,32522276663551E-02 
430	 0,034372501537151 
431	 0,032886125575124 
432	 3,29188180887448E-02 
433	 3,45408852792651E-02 
434	 0,037200931493803 
435	 3,35306277945683E-02 
436	 2,67902491297037E-02 
437	 2,84910682537284E-02 
438	 3,15995636535299E-02 
439	 3,34055150953488E-02 
440	 0,035359477291377 
441	 3,71073103705021E-02 
442	 3,81995226606375E-02 
443	 3,64967875585947E-02 
444	 3,29986582394106E-02 
445	 3,19173244512435E-02 
446	 0,033816572887935 
447	 3,80363302294721E-02 
448	 3,55978018801304E-02 
449	 3,03900752213826E-02 
450	 3,17592715715732E-02 
451	 3,40264947051332E-02 
452	 3,50647570293609E-02 
453	 3,33107589658462E-02 
454	 3,11817235267193E-02 
455	 3,10964940266421E-02 
456	 3,35199650596397E-02 
457	 3,64778361427175E-02 
458	 3,48223404165719E-02 
459	 3,25519544618332E-02 
460	 3,15371163089776E-02 
461	 3,17587640070941E-02 
462	 3,28467255104796E-02 
463	 3,42932874460634E-02 
464	 3,42048735509322E-02 
465	 3,24750796300343E-02 
466	 3,03397336352026E-02 
467	 2,96842889100964E-02 
468	 3,14522613909944E-02 
469	 3,18279281327232E-02 
470	 0,031306180995038 
471	 3,21280633923572E-02 
472	 3,24644253425136E-02 
473	 0,031798434327822 
474	 3,02159812386691E-02 
475	 2,98280897436475E-02 
476	 3,24475300169629E-02 
477	 3,25669199475897E-02 
478	 3,02275517450006E-02 
479	 2,83893562860728E-02 
480	 2,84472076249936E-02 
481	 3,06563451097476E-02 
482	 3,12477895443895E-02 
483	 3,09151350709278E-02 
484	 3,13615651224755E-02 
485	 3,09206913065138E-02 
486	 0,029612036851571 
487	 2,87837358853613E-02 
488	 0,029300067810436 
489	 3,15170385204059E-02 
490	 3,24610211449683E-02 
491	 3,19878878003592E-02 
492	 3,06644568815104E-02 
493	 3,10763843207984E-02 
494	 3,32407732529024E-02 
495	 3,14756811796978E-02 
496	 2,94047498266345E-02 
497	 3,14920521282319E-02 
498	 3,07471366062717E-02 
499	 2,77297952204691E-02 
500	 2,90101601072846E-02 
501	 3,07958812625853E-02 
502	 3,10806787123112E-02 
503	 3,22854579075499E-02 
504	 3,33136059998868E-02 
505	 3,16866416327926E-02 
506	 0,031012526266013 
507	 3,21896055363547E-02 
508	 3,39965189806893E-02 
509	 0,035001015999032 
510	 3,40746671201107E-02 
511	 3,32825553247218E-02 
512	 3,29078268046314E-02 
513	 0,032354917130133 
514	 3,25556475805271E-02 
515	 3,37117218386738E-02 
516	 3,45836493946697E-02 
517	 3,47110149644178E-02 
518	 3,36667740516187E-02 
519	 3,28309638521244E-02 
520	 3,26170405197688E-02 
521	 3,27845610299581E-02 
522	 3,35401919133175E-02 
523	 3,48446279943257E-02 
524	 3,47000893585131E-02 
525	 3,37926552665801E-02 
526	 3,43892813383071E-02 
527	 3,49559857696294E-02 
528	 0,035071142223707 
529	 3,53844579768172E-02 
530	 3,55776465266555E-02 
531	 3,52604171250231E-02 
532	 3,56648367367793E-02 
533	 3,65875519376492E-02 
534	 3,64972010743858E-02 
535	 3,63315037737673E-02 
536	 3,65528090416493E-02 
537	 3,60522368624773E-02 
538	 3,54735205199371E-02 
539	 3,62475487226313E-02 
540	 3,69107903697645E-02 
541	 3,72096599421941E-02 
542	 3,82092323439505E-02 
543	 3,94604157422516E-02 
544	 4,04477095462152E-02 
545	 4,06702839733744E-02 
546	 4,05691706853687E-02 
547	 4,17788891245152E-02 
548	 4,24412850512211E-02 
549	 4,18272792098529E-02 
550	 4,15696792805399E-02 
551	 4,19817971953459E-02 
552	 4,32519628911816E-02 
553	 4,41463604198526E-02 
554	 4,43783078867868E-02 
555	 4,43231574137408E-02 
556	 4,50000698353625E-02 
557	 4,70936174903152E-02 
558	 4,83284955451698E-02 
559	 4,87220725736116E-02 
560	 4,95262979976146E-02 
561	 4,97910527259268E-02 
562	 4,93796973665552E-02 
563	 4,95891621572659E-02 
564	 5,03542130490367E-02 
565	 5,14222977434575E-02 
566	 5,20304254201212E-02 
567	 5,20230385913688E-02 
568	 5,16745350713973E-02 
569	 0,051582822450447 
570	 5,20665303990031E-02 
571	 5,18189698849855E-02 
572	 0,051066420868713 
573	 5,07359692581227E-02 
574	 5,03831491118843E-02 
575	 5,00572314415265E-02 
576	 5,07364338543008E-02 
577	 5,12587987790057E-02 
578	 5,02999386241944E-02 
579	 4,99144033572222E-02 
580	 5,00413464245145E-02 
581	 4,87584910945634E-02 
582	 4,81878478005253E-02 
583	 0,049285891358408 
584	 4,93379628900147E-02 
585	 4,87673064505991E-02 
586	 4,90121544752637E-02 
587	 4,87302983891728E-02 
588	 4,79224076344962E-02 
589	 4,83721984717358E-02 
590	 4,88717005544145E-02 
591	 4,83054695348339E-02 
592	 0,048496591372675 
593	 4,93151235398424E-02 
594	 4,94581963881672E-02 
595	 4,94661207961734E-02 
596	 4,94918894054888E-02 
597	 4,88488842525965E-02 
598	 4,84542857106022E-02 
599	 4,97720833298511E-02 
600	 5,05427314498832E-02 
601	 5,02343354377187E-02 
602	 4,95543159042715E-02 
603	 4,88717893265302E-02 
604	 4,84549224762137E-02 
605	 4,77979362671804E-02 
606	 0,046986234062127 
607	 0,046480191594776 
608	 4,57763270627267E-02 
609	 4,47139363939863E-02 
610	 4,34916459031489E-02 
611	 4,24736461186693E-02 
612	 4,20668722752435E-02 
613	 4,16964569308638E-02 
614	 4,12783285981352E-02 
615	 4,11233748947532E-02 
616	 4,08039001379123E-02 
617	 4,00719125702901E-02 
618	 3,93388140514783E-02 
619	 0,038731428156138 
620	 3,83484122141465E-02 
621	 3,79880752237489E-02 
622	 3,77032593608579E-02 
623	 3,80746181221257E-02 
624	 3,85941121677851E-02 
625	 3,87083773526414E-02 
626	 3,85032691158285E-02 
627	 3,81837248172625E-02 
628	 0,038337706263893 
629	 3,82626548286235E-02 
630	 3,77224522108758E-02 
631	 3,78332184378092E-02 
632	 3,81395518067723E-02 
633	 3,76825130558962E-02 
634	 3,74803420276886E-02 
635	 3,77361597380885E-02 
636	 3,79855464520348E-02 
637	 3,82051055042011E-02 
638	 3,83891346611277E-02 
639	 3,86193461320796E-02 
640	 3,89075479304275E-02 
641	 3,92438000176192E-02 
642	 3,95974049226612E-02 
643	 0,039935785536102 
644	 4,02515787668576E-02 
645	 4,03004759701878E-02 
646	 3,97761755089401E-02 
647	 3,97497316764526E-02 
648	 4,00161110529421E-02 
649	 3,87734212166336E-02 
650	 3,78220161592047E-02 
651	 3,81761238600946E-02 
652	 3,72395517791624E-02 
653	 3,55703954331552E-02 
654	 3,50324136021572E-02 
655	 3,49280803115049E-02 
656	 3,48289927797119E-02 
657	 3,37208695629202E-02 
658	 3,24335862163168E-02 
659	 0,031882756058587 
660	 3,15852111364083E-02 
661	 3,12598498352509E-02 
662	 3,02748600534692E-02 
663	 2,98775009336408E-02 
664	 3,05403220181254E-02 
665	 3,07070470004419E-02 
666	 3,05479336790497E-02 
667	 3,06317900697043E-02 
668	 3,06366892683544E-02 
669	 3,06455319354119E-02 
670	 0,031226383128888 
671	 3,20592130157444E-02 
672	 3,28279793478685E-02 
673	 3,30865889359148E-02 
674	 3,31093295708986E-02 
675	 3,37422332491154E-02 
676	 3,44486467882291E-02 
677	 3,50702356450624E-02 
678	 3,58457791661416E-02 
679	 3,66263399288587E-02 
680	 3,72198489565474E-02 
681	 0,037379831906926 
682	 3,73131229331115E-02 
683	 3,78041941003905E-02 
684	 0,03848987510872 
685	 3,91410765137926E-02 
686	 3,97467563961251E-02 
687	 4,03484521596357E-02 
688	 4,09948985626263E-02 
689	 4,20295508634491E-02 
690	 4,35430016606731E-02 
691	 0,045300520259153 
692	 4,73898717113755E-02 
693	 4,99006511317177E-02 
694	 5,27966972245498E-02 
695	 5,62170464351427E-02 
696	 6,04980949475821E-02 
697	 6,53596047863166E-02 
698	 7,06044233567173E-02 
699	 7,58800430884062E-02 
700	 8,14234576292061E-02 
701	 8,75885839270939E-02 
702	 9,42537396569725E-02 
703	 0,101153526468014 
704	 0,107635993840628 
705	 0,114221494606856 
706	 0,121270030142163 
707	 0,129011328063932 
708	 0,136963415736569 
709	 0,14417987440411 
710	 0,151468833180732 
711	 0,159101617564332 
712	 0,167118202822616 
713	 0,175047122113605 
714	 0,182532464843427 
715	 0,190863691179449 
716	 0,199698477026237 
717	 0,207615456365187 
718	 0,215185702482896 
719	 0,222657692765381 
720	 0,23023672778718 
721	 0,237849011262539 
722	 0,245371421956569 
723	 0,2529507742178 
724	 0,260314892174334 
725	 0,266496665747445 
726	 0,272634764722785 
727	 0,27931908824038 
728	 0,285239777887559 
729	 0,290568514125961 
730	 0,29591555855698 
731	 0,301043209722296 
732	 0,305841313365511 
733	 0,310095453902506 
734	 0,313898664304291 
735	 0,317369611851141 
736	 0,320756019873463 
737	 0,324049776740955 
738	 0,327158365321324 
739	 0,329633620195198 
740	 0,331506245781212 
741	 0,333967562796194 
742	 0,336443789580912 
743	 0,338171573795682 
744	 0,339519320048081 
745	 0,340629857373653 
746	 0,341609431091741 
747	 0,342821996471024 
748	 0,344341496153741 
749	 0,345163972788441 
750	 0,345554930987617 
751	 0,346091377545218 
752	 0,34706612978441 
753	 0,348189308090702 
754	 0,347992309810526 
755	 0,347698517605073 
756	 0,348195070197448 
757	 0,348775078798545 
758	 0,349214239101176 
759	 0,349284952665426 
760	 0,3493383588351 
761	 0,349422970411279 
762	 0,349100658449166 
763	 0,348966480069365 
764	 0,349530321213619 
765	 0,349545314990633 
766	 0,349157512477853 
767	 0,349418325643387 
768	 0,349563985715523 
769	 0,349375579232096 
770	 0,349378886966151 
771	 0,349494227162962 
772	 0,349573829086317 
773	 0,349480401481191 
774	 0,349210494017962 
775	 0,348802539904818 
776	 0,348696826170744 
777	 0,349068382432792 
778	 0,349298903250206 
779	 0,349499071973718 
780	 0,34995525864292 
781	 0,349849951707372 
782	 0,349364468755013 
783	 0,349988914258291 
784	 0,350459034446265 
785	 0,350029054770336 
786	 0,349879214126232 
787	 0,350148872514987 
788	 0,350812786097735 
789	 0,351054523719774 
790	 0,350725104989532 
791	 0,350402649818567 
792	 0,350323569136625 
793	 0,350615275823173 
794	 0,35061675442592 
795	 0,350416197571504 
796	 0,35044529976797 
797	 0,350575510408705 
798	 0,350736624573495 
799	 0,350796334808822 
800	 0,350702164770417 
801	 0,350455604268959 
802	 0,350692683409713 
803	 0,351186991808568 
804	 0,351036625162416 
805	 0,350929153138509 
806	 0,351094080791973 
807	 0,351372097689104 
808	 0,351504350088549 
809	 0,351250379054371 
810	 0,351102573284942 
811	 0,351247830521929 
812	 0,351898638429531 
813	 0,352464151970763 
814	 0,352679674570073 
815	 0,352796909369232 
816	 0,352827733259739 
817	 0,352770360060731 
818	 0,352791817048509 
819	 0,352967149239192 
820	 0,353391833904571 
821	 0,353763110027136 
822	 0,353906704951574 
823	 0,353778133915532 
824	 0,353716434726366 
825	 0,354143805596698 
826	 0,354337747482123 
827	 0,354128143279009 
828	 0,353454895287125 
829	 0,353416767151034 
830	 0,354375520512372 
831	 0,354514998076756 
832	 0,354088156995574 
833	 0,353727465810176 
834	 0,353581189497933 
835	 0,353686490108635 
836	 0,353964663880503 
837	 0,354061337389741 
838	 0,353813949528871 
839	 0,353634638624347 
840	 0,353539950783937 
841	 0,353481127047046 
842	 0,353422931624392 
843	 0,353395103744389 
844	 0,353580969484842 
845	 0,353539870059526 
846	 0,353137085290734 
847	 0,353276403739668 
848	 0,353571523996346 
849	 0,353341601904161 
850	 0,353371771013199 
851	 0,353624435236898 
852	 0,353293515605917 
853	 0,35310624711202 
854	 0,353399232407297 
855	 0,353601704201171 
856	 0,353563616735993 
857	 0,353184076380886 
858	 0,352640736585124 
859	 0,352196100302508 
860	 0,35242516080582 
861	 0,352808985231218 
862	 0,353059298924631 
863	 0,353314437113978 
864	 0,353438859070384 
865	 0,353260691186848 
866	 0,353303250534407 
867	 0,353597239395206 
868	 0,353821695384554 
869	 0,354052635299989 
870	 0,354209123180582 
871	 0,353567841086387 
872	 0,353171598506388 
873	 0,354271119922472 
874	 0,354828505815816 
875	 0,354680948334758 
876	 0,354777635706161 
877	 0,354741140794524 
878	 0,354568751715424 
879	 0,355016528906711 
880	 0,355474329005641 
881	 0,355269982488369 
882	 0,355316760257933 
883	 0,355667308286604 
884	 0,355978408121813 
885	 0,356237333798325 
886	 0,356333833659206 
887	 0,355746928049174 
888	 0,355634087650162 
889	 0,356953648495988 
890	 0,357516746502528 
891	 0,357167437668028 
892	 0,356442116607994 
893	 0,356164533699407 
894	 0,356532472930813 
895	 0,356835290392421 
896	 0,357036010540731 
897	 0,357116644634454 
898	 0,357078340018712 
899	 0,357007065901038 
900	 0,357009243763333 
901	 0,357722104080341 
902	 0,358724017585336 
903	 0,357739034360765 
904	 0,35702081593144 
905	 0,357789176022575 
906	 0,357817824571487 
907	 0,357193115446566 
908	 0,356438516493139 
909	 0,356432204086761 
910	 0,357174210196584 
911	 0,357980665239593 
912	 0,358141636553503 
913	 0,357407249150686 
914	 0,356695263246775 
915	 0,356302695348696 
916	 0,356426344979971 
917	 0,356587633155753 
918	 0,356555477671462 
919	 0,35598800513109 
920	 0,355864956141044 
921	 0,356273829073423 
922	 0,355751568610903 
923	 0,355410190181284 
924	 0,356052086290786 
925	 0,355572261656053 
926	 0,35464848380224 
927	 0,355123179599432 
928	 0,354721377872833 
929	 0,353329316996949 
930	 0,353039897923159 
931	 0,352603714226244 
932	 0,351434785887804 
933	 0,35086469396345 
934	 0,350451145190995 
935	 0,34948273048385 
936	 0,349500892670202 
937	 0,350271919559559 
938	 0,350292362172737 
939	 0,349681794871197 
940	 0,348553124058983 
941	 0,347396463659841 
942	 0,346716579671966 
943	 0,346809113436441 
944	 0,346465543100053 
945	 0,345270487292427 
946	 0,342850181557084 
947	 0,341384818306016 
948	 0,341207265325518 
949	 0,340930260653022 
950	 0,340076347010997 
951	 0,338509466299987 
952	 0,337499844372615 
953	 0,33671469255134 
954	 0,335585297320725 
955	 0,334441574204262 
956	 0,333169679216701 
957	 0,331149637782411 
958	 0,330415401863086 
959	 0,331005515156724 
960	 0,329485982132312 
961	 0,328189266838255 
962	 0,328767202173512 
963	 0,328551525288652 
964	 0,328129083782661 
965	 0,328937425276427 
966	 0,327470885840473 
967	 0,32450019239719 
968	 0,325303782540759 
969	 0,325268821058752 
970	 0,323149233129197 
971	 0,323489827774326 
972	 0,324140632775953 
973	 0,32309673227243 
974	 0,32333302769687 
975	 0,324324690097021 
976	 0,324290198718366 
977	 0,324301128332317 
978	 0,324555604985738 
979	 0,324824620671621 
980	 0,324776767486843 
981	 0,32437452436761 
982	 0,32448790228892 
983	 0,324576408604111 
984	 0,324115022267722 
985	 0,324555636725125 
986	 0,325215407481476 
987	 0,324269170193546 
988	 0,323822217341576 
989	 0,324265898642042 
990	 0,324635993673589 
991	 0,325025232733942 
992	 0,325447417941507 
993	 0,32579036472083 
994	 0,326365139073949 
995	 0,327373653292242 
996	 0,32732432366033 
997	 0,326334934161709 
998	 0,325067548603965 
999	 0,326045564491121 
1000	 0,329160942826836 
1001	 0,331815336683603 
1002	 0,331264798809607 
1003	 0,32701895259868 
1004	 0,325002264921716 
1005	 0,325785943355394 
1006	 0,329028666420752 
1007	 0,330840372612207 
1008	 0,33196926718725 
1009	 0,335113773449142 
1010	 0,33537067965356 
1011	 0,333454725249175 
1012	 0,336341909001023 
1013	 0,337545581467112 
1014	 0,335396669469955 
1015	 0,336563028621159 
1016	 0,339085833283266 
1017	 0,340744291738347 
1018	 0,339858937693727 
1019	 0,338254497909374 
1020	 0,338932827595482 
1021	 0,339307938821356 
1022	 0,339311211235501 
1023	 0,340529907827373 
1024	 0,341256795264499 
1025	 0,340973096644458 
1026	 0,340282816367088 
1027	 0,339827960650228 
1028	 0,340086848624841 
1029	 0,340977807365642 
1030	 0,342254359510225 
1031	 0,343603320164719 
1032	 0,343927186575405 
1033	 0,344384342745214 
1034	 0,347861913948131 
1035	 0,347959546392038 
1036	 0,345023582371036 
1037	 0,346833899072375 
1038	 0,34905673167955 
1039	 0,349436566995429 
1040	 0,346443356959171 
1041	 0,346581538125578 
1042	 0,35380421259171 
1043	 0,354384879995401 
1044	 0,351897434431217 
1045	 0,353733295769693 
1046	 0,354266303817807 
1047	 0,35318647032982 
1048	 0,352368971113705 
1049	 0,351740070916355 
1050	 0,352416448146378 
1051	 0,358365160874092 
1052	 0,362675048211576 
1053	 0,361697111277621 
1054	 0,358167929774769 
1055	 0,354030680037454 
1056	 0,351237595811617 
1057	 0,351145992989018 
1058	 0,353174624838902 
1059	 0,355814590923838 
1060	 0,350921578524378 
1061	 0,34503873920616 
1062	 0,356296096211769 
1063	 0,364025185359975 
1064	 0,362348214400498 
1065	 0,355551102204409 
1066	 0,351420006479255 
1067	 0,354144686024922 
1068	 0,360396785039209 
1069	 0,368614333356242 
1070	 0,376024663246042 
1071	 0,370373140172377 
1072	 0,361157009959281 
1073	 0,360176797842209 
1074	 0,349662323070062 
1075	 0,337318269229169 
