Wavelength	GRA-VIE00968.asd
325	 0,33970444048055 
326	 0,549718704098883 
327	 0,615924084489919 
328	 0,453024979957684 
329	 0,5421539825952 
330	 0,618180280694022 
331	 0,457838182256837 
332	 0,387859475855935 
333	 0,363819141517741 
334	 0,265250697484819 
335	 0,321470247797227 
336	 0,483119463595756 
337	 0,486001227112733 
338	 0,435234767538993 
339	 0,400048676764423 
340	 0,335630675301352 
341	 0,266091684663111 
342	 0,297938529179974 
343	 0,33484363992435 
344	 0,343105275322376 
345	 0,327730213292909 
346	 0,284852998469608 
347	 0,217997950133825 
348	 0,20391136701647 
349	 0,230938542760014 
350	 0,235697805891039 
351	 0,201773966212697 
352	 0,138874220713702 
353	 0,179702547762198 
354	 0,247106532564165 
355	 0,245256532302752 
356	 0,229164369422834 
357	 0,212067037627614 
358	 0,197196306505518 
359	 0,192036860697282 
360	 0,198819103676294 
361	 0,205712230413881 
362	 0,213362864314449 
363	 0,226342952919896 
364	 0,216365991695333 
365	 0,189922746086746 
366	 0,192990925971716 
367	 0,208544929235187 
368	 0,220565748060932 
369	 0,196281394265385 
370	 0,166288345484559 
371	 0,188036650889549 
372	 0,20327877045147 
373	 0,19983465229285 
374	 0,204511516507607 
375	 0,205371935852477 
376	 0,192538923069479 
377	 0,163343234893619 
378	 0,140279864323101 
379	 0,170964262626376 
380	 0,190372603416287 
381	 0,185677404585978 
382	 0,19281630235241 
383	 0,198236740718061 
384	 0,187917009343483 
385	 0,190686170106187 
386	 0,200416349312911 
387	 0,188146859447995 
388	 0,185215924100247 
389	 0,198691437740094 
390	 0,194052942951017 
391	 0,182626034228983 
392	 0,180902948276125 
393	 0,169190628906887 
394	 0,153390782630854 
395	 0,165455712525526 
396	 0,176335306783727 
397	 0,173664050903331 
398	 0,176791512483228 
399	 0,177674428018626 
400	 0,161201708852037 
401	 0,153136340719072 
402	 0,156367146336367 
403	 0,152469230260219 
404	 0,152149363473012 
405	 0,16151534495796 
406	 0,164651162790698 
407	 0,162181654075462 
408	 0,160051153974695 
409	 0,158089609853208 
410	 0,156001945176762 
411	 0,151086671983344 
412	 0,148519585067832 
413	 0,152609479830625 
414	 0,15419182349266 
415	 0,151870679743414 
416	 0,146184052065299 
417	 0,143994423032314 
418	 0,147342357495999 
419	 0,150265384557406 
420	 0,152574610721654 
421	 0,155005765157917 
422	 0,149665995605718 
423	 0,140239211051265 
424	 0,143966998815273 
425	 0,146555439677016 
426	 0,140560745931116 
427	 0,141095399288432 
428	 0,14601019090241 
429	 0,148330241599974 
430	 0,149288704457213 
431	 0,149297285618303 
432	 0,150179903754627 
433	 0,149025620950852 
434	 0,143814314184346 
435	 0,144822038180154 
436	 0,149604557257782 
437	 0,146971602102424 
438	 0,145734247697126 
439	 0,148534348901549 
440	 0,149106944981064 
441	 0,147773997075605 
442	 0,145644583285049 
443	 0,143503789107263 
444	 0,142578182834152 
445	 0,145708791261215 
446	 0,149232038716695 
447	 0,15061813979909 
448	 0,149046378593634 
449	 0,147146987338699 
450	 0,150390200955847 
451	 0,148900276174338 
452	 0,142360111106913 
453	 0,143672296276466 
454	 0,146616878474567 
455	 0,14523374627112 
456	 0,147311785160797 
457	 0,151217699622427 
458	 0,148850850857989 
459	 0,146847856088517 
460	 0,147698096322108 
461	 0,148325743617772 
462	 0,147495988902532 
463	 0,14399519221365 
464	 0,142285770239404 
465	 0,14341686883416 
466	 0,146987355330046 
467	 0,148527459931338 
468	 0,145769284097563 
469	 0,147356607450988 
470	 0,150127155819231 
471	 0,144834337080239 
472	 0,144385328021348 
473	 0,149916713726711 
474	 0,145482765842702 
475	 0,140407152804734 
476	 0,144249231727671 
477	 0,145892671754476 
478	 0,144367456225078 
479	 0,143257826016569 
480	 0,142897027372879 
481	 0,143172144756419 
482	 0,14099175148464 
483	 0,139193111790612 
484	 0,142442925624027 
485	 0,144776006108516 
486	 0,14485753430608 
487	 0,144088075873284 
488	 0,144344969782756 
489	 0,146767760080852 
490	 0,14805799367769 
491	 0,147392554722258 
492	 0,143766408611683 
493	 0,142247173382628 
494	 0,143901602332034 
495	 0,14292238070672 
496	 0,141843519364878 
497	 0,143904354754156 
498	 0,144458671789989 
499	 0,143068303799295 
500	 0,141526849353661 
501	 0,141143387182983 
502	 0,142476523665554 
503	 0,143143615806258 
504	 0,143077330986783 
505	 0,14276263370996 
506	 0,142662888017663 
507	 0,14270124857544 
508	 0,141605897292929 
509	 0,140904264753433 
510	 0,141906261206203 
511	 0,142262727670688 
512	 0,141870491421778 
513	 0,141645395074541 
514	 0,141612792882792 
515	 0,141845773030037 
516	 0,142511282750457 
517	 0,143089533497105 
518	 0,142855869110847 
519	 0,143232194896962 
520	 0,144075153531539 
521	 0,143370607489299 
522	 0,143033388698048 
523	 0,144251457456071 
524	 0,143781498295581 
525	 0,142532372331216 
526	 0,143810249589415 
527	 0,144529738337542 
528	 0,143895907930862 
529	 0,143686657332627 
530	 0,143724917178164 
531	 0,143658214665313 
532	 0,14426505229458 
533	 0,145022185226264 
534	 0,14355546717034 
535	 0,143146696998109 
536	 0,145432381715463 
537	 0,146937126579674 
538	 0,146962806879355 
539	 0,145051552665723 
540	 0,14392854835406 
541	 0,144551894787857 
542	 0,146534943981852 
543	 0,148055455582775 
544	 0,147467908394645 
545	 0,147338486767301 
546	 0,147956263239961 
547	 0,148579145099365 
548	 0,148964482591774 
549	 0,149094453005367 
550	 0,149964708702949 
551	 0,15102568814785 
552	 0,151227094383451 
553	 0,152106295572734 
554	 0,153547350590848 
555	 0,153294687067925 
556	 0,152952916254349 
557	 0,153888776328354 
558	 0,155476363008425 
559	 0,156811388560123 
560	 0,155774283018487 
561	 0,155710600828318 
562	 0,157596993889122 
563	 0,158327179362728 
564	 0,158237882533938 
565	 0,15815181415991 
566	 0,158242793018033 
567	 0,158627161280246 
568	 0,15946158666888 
569	 0,159889104920085 
570	 0,159388795655876 
571	 0,15905216058048 
572	 0,159298534897392 
573	 0,16088389056417 
574	 0,160778238981492 
575	 0,158495370163211 
576	 0,157886105377986 
577	 0,157923657310469 
578	 0,157165693481894 
579	 0,157535229982775 
580	 0,158649756260683 
581	 0,158095018450185 
582	 0,15728178565327 
583	 0,156995720587374 
584	 0,156728500033902 
585	 0,156291989037514 
586	 0,155377385751182 
587	 0,155259300715416 
588	 0,156003801050082 
589	 0,156013040523477 
590	 0,1557845154923 
591	 0,155871154431081 
592	 0,156532109726843 
593	 0,157460078407697 
594	 0,157723213896422 
595	 0,157741451593289 
596	 0,157767497057793 
597	 0,158181716131802 
598	 0,158666960776969 
599	 0,158708987397769 
600	 0,158287203557801 
601	 0,15760345267814 
602	 0,157396705748588 
603	 0,157472170119132 
604	 0,157570964213335 
605	 0,156744882078486 
606	 0,155300728862974 
607	 0,154303793422826 
608	 0,153750492781581 
609	 0,153452390924236 
610	 0,152025567811911 
611	 0,150531267963053 
612	 0,15039826194656 
613	 0,150057229983044 
614	 0,149335934247667 
615	 0,148997918177832 
616	 0,148799339332373 
617	 0,148572613355957 
618	 0,148274258942765 
619	 0,147964600175582 
620	 0,147752328448975 
621	 0,147847638754224 
622	 0,14814130302788 
623	 0,147814546533596 
624	 0,147219013060702 
625	 0,146783628015066 
626	 0,14673261176596 
627	 0,146953829860011 
628	 0,147002837337931 
629	 0,146784605771565 
630	 0,146327857043183 
631	 0,146307160044533 
632	 0,146512966273061 
633	 0,146466082216887 
634	 0,146447725822736 
635	 0,146603766273656 
636	 0,147270224732702 
637	 0,147704878202311 
638	 0,147324530278199 
639	 0,147126485408528 
640	 0,147285358065526 
641	 0,147723931885356 
642	 0,148285020667727 
643	 0,148793169344535 
644	 0,148808232113898 
645	 0,148677364140992 
646	 0,148904560356217 
647	 0,148797827407244 
648	 0,148336363259388 
649	 0,148128801540498 
650	 0,147626716873975 
651	 0,146534185474275 
652	 0,145707883371189 
653	 0,145102583660627 
654	 0,144332576545941 
655	 0,143546306812799 
656	 0,14283739430114 
657	 0,142439456184246 
658	 0,142065820160938 
659	 0,141422300127281 
660	 0,14100206021528 
661	 0,140731256546131 
662	 0,140035101368667 
663	 0,139598936584408 
664	 0,139696443643224 
665	 0,139583542052025 
666	 0,13939076672406 
667	 0,139461442790877 
668	 0,139532405920988 
669	 0,139585573970023 
670	 0,139786286576025 
671	 0,140270428353019 
672	 0,14107194563328 
673	 0,141331366387694 
674	 0,14120499286625 
675	 0,141446103490594 
676	 0,141696591507638 
677	 0,141839542653199 
678	 0,141826404097981 
679	 0,142023081426528 
680	 0,142848217222034 
681	 0,143333892700082 
682	 0,143403650738381 
683	 0,143644030936549 
684	 0,143804176353813 
685	 0,143791711062883 
686	 0,144065597047864 
687	 0,144405225670256 
688	 0,144217063702401 
689	 0,145054853486589 
690	 0,146954673055234 
691	 0,147771716512581 
692	 0,148734928034702 
693	 0,151004050371644 
694	 0,153896324683491 
695	 0,15711761569725 
696	 0,160182004016564 
697	 0,164018016988494 
698	 0,168787149584277 
699	 0,172904048828195 
700	 0,17729118847398 
701	 0,183289273940076 
702	 0,189576427006939 
703	 0,19590195267629 
704	 0,202637238459158 
705	 0,209637070852274 
706	 0,216804824141266 
707	 0,224182283630801 
708	 0,231841164368693 
709	 0,239880446837438 
710	 0,248095046713483 
711	 0,256428033969979 
712	 0,264943158706017 
713	 0,273583161130132 
714	 0,282319866083121 
715	 0,291174873629633 
716	 0,300144141601738 
717	 0,309216307861007 
718	 0,318429205536061 
719	 0,327747497605871 
720	 0,336853958435815 
721	 0,345613597098313 
722	 0,353965417848396 
723	 0,362454381103922 
724	 0,370995701663654 
725	 0,3788839829615 
726	 0,386599465530582 
727	 0,394360747035498 
728	 0,401493370343999 
729	 0,408135629952244 
730	 0,414707046221688 
731	 0,420836183423623 
732	 0,426467636058024 
733	 0,431839216368617 
734	 0,436910785064179 
735	 0,441640291174691 
736	 0,44615976876658 
737	 0,450304544891618 
738	 0,453558046769196 
739	 0,456711318849813 
740	 0,460030432431691 
741	 0,463138121990286 
742	 0,465746460321327 
743	 0,467582508285774 
744	 0,46965712221779 
745	 0,472024262196812 
746	 0,474076401478077 
747	 0,475775230713578 
748	 0,477126366932947 
749	 0,478456980079191 
750	 0,479719344938242 
751	 0,480764301073471 
752	 0,481723305044977 
753	 0,482629095974129 
754	 0,483450210315581 
755	 0,484148668377629 
756	 0,484735685553147 
757	 0,485630167897388 
758	 0,486471566939621 
759	 0,486373889681021 
760	 0,486424718328174 
761	 0,486925848477781 
762	 0,487460617650996 
763	 0,487751600706166 
764	 0,487591597841076 
765	 0,487632969175545 
766	 0,487841937496642 
767	 0,487738846085869 
768	 0,487775232069198 
769	 0,488068711653708 
770	 0,488177753189912 
771	 0,488311697717146 
772	 0,488745317191309 
773	 0,488847315494791 
774	 0,48860446318365 
775	 0,488426106946411 
776	 0,488303703564688 
777	 0,488266870118865 
778	 0,488453525650905 
779	 0,488594543911469 
780	 0,488284362918307 
781	 0,488113269009216 
782	 0,488235056014471 
783	 0,488553284645052 
784	 0,488973388353361 
785	 0,489335383411245 
786	 0,488967601660191 
787	 0,488266396599075 
788	 0,488087815112603 
789	 0,487974119542625 
790	 0,48785903280863 
791	 0,48803111029578 
792	 0,488002461429137 
793	 0,487469754914632 
794	 0,487651329780721 
795	 0,488121257865201 
796	 0,487505266951217 
797	 0,487078701708246 
798	 0,487191667178873 
799	 0,487316057173586 
800	 0,487420237417519 
801	 0,48747572897473 
802	 0,487194883252618 
803	 0,48678142662565 
804	 0,486838714168702 
805	 0,487123053233516 
806	 0,487496187719382 
807	 0,487711766987473 
808	 0,487806000487218 
809	 0,487845859645494 
810	 0,48784450711345 
811	 0,487919575853352 
812	 0,488427773447187 
813	 0,488617073083002 
814	 0,488244273810614 
815	 0,487969253940733 
816	 0,487971404071925 
817	 0,488371563533472 
818	 0,488688261059959 
819	 0,488827961296006 
820	 0,488916376259096 
821	 0,488953353967316 
822	 0,488977185558512 
823	 0,489190484802994 
824	 0,489358980259198 
825	 0,489168032690192 
826	 0,489353727572051 
827	 0,489741442741501 
828	 0,489193988535725 
829	 0,488688455631886 
830	 0,488706592483166 
831	 0,488718974053884 
832	 0,488767053070262 
833	 0,488975875753025 
834	 0,489162013798368 
835	 0,489193260605257 
836	 0,488812836954896 
837	 0,488454247450545 
838	 0,488426586125434 
839	 0,489034199952754 
840	 0,489579389458207 
841	 0,489068855881437 
842	 0,488673087582983 
843	 0,48861935899861 
844	 0,488558223766312 
845	 0,488588050945365 
846	 0,488738211543504 
847	 0,488919829440824 
848	 0,488935238492284 
849	 0,488537383992083 
850	 0,488470464498718 
851	 0,488730362228135 
852	 0,488673889614666 
853	 0,488348780045826 
854	 0,487855422943673 
855	 0,487714438534142 
856	 0,48776398416056 
857	 0,487693680578229 
858	 0,487897969913621 
859	 0,488243053655105 
860	 0,48804322696818 
861	 0,487711743387792 
862	 0,487536599545859 
863	 0,487838423880484 
864	 0,488243264494092 
865	 0,48822913501274 
866	 0,488704951156395 
867	 0,489468580700699 
868	 0,489316903415272 
869	 0,488852851656926 
870	 0,488549042131505 
871	 0,489440060539141 
872	 0,490188088105085 
873	 0,489148129806769 
874	 0,488729934106765 
875	 0,488977496296198 
876	 0,488295536520586 
877	 0,488153246651426 
878	 0,488989935934141 
879	 0,489656263296762 
880	 0,489751099504722 
881	 0,489029797622641 
882	 0,488954739859316 
883	 0,489444918117386 
884	 0,48945349887206 
885	 0,489250657139886 
886	 0,489104838702007 
887	 0,490032958168331 
888	 0,490767997948862 
889	 0,490161157444344 
890	 0,489882782399472 
891	 0,490030560705274 
892	 0,490143752378941 
893	 0,490042709394468 
894	 0,489832563259153 
895	 0,490389990557344 
896	 0,490716717625356 
897	 0,490143914537389 
898	 0,490333684680211 
899	 0,490881225738487 
900	 0,490594901788795 
901	 0,490547985312164 
902	 0,490983137171422 
903	 0,491754803372299 
904	 0,491807392204463 
905	 0,490724450732895 
906	 0,490718149866337 
907	 0,491079065512032 
908	 0,490416793620773 
909	 0,489996720152592 
910	 0,490087525312264 
911	 0,49064588028132 
912	 0,49054732389409 
913	 0,489547236590732 
914	 0,489811001661702 
915	 0,490188809278156 
916	 0,489301175795494 
917	 0,489543291213158 
918	 0,490331029310465 
919	 0,488888686444453 
920	 0,488082401110174 
921	 0,488594443349698 
922	 0,488592367996637 
923	 0,488122795430337 
924	 0,487378993661862 
925	 0,487297486093034 
926	 0,487431180644987 
927	 0,486692398344824 
928	 0,48598527120721 
929	 0,485502791591665 
930	 0,484947504525552 
931	 0,484486081382947 
932	 0,484139956028697 
933	 0,483348664329325 
934	 0,482554077304265 
935	 0,482372933023439 
936	 0,482198988160182 
937	 0,481719666639486 
938	 0,480349858706209 
939	 0,479725443197086 
940	 0,480131787908259 
941	 0,479482376714456 
942	 0,478436332866735 
943	 0,47767699907517 
944	 0,476860830983973 
945	 0,475975586153306 
946	 0,475126667783358 
947	 0,473534822795922 
948	 0,471484538523783 
949	 0,4709269307027 
950	 0,470033646914724 
951	 0,467962744892679 
952	 0,466672993729848 
953	 0,465296547488523 
954	 0,462715030050456 
955	 0,46279642498807 
956	 0,464450710529168 
957	 0,462769788136245 
958	 0,461424705235667 
959	 0,461098481859727 
960	 0,459016074917115 
961	 0,457128984732244 
962	 0,456836127110796 
963	 0,456038350282181 
964	 0,455596476660373 
965	 0,457198863691447 
966	 0,457848519829527 
967	 0,457039534652203 
968	 0,455641484620925 
969	 0,454876118461189 
970	 0,455193004326293 
971	 0,455366295225286 
972	 0,455619052054256 
973	 0,456158486509402 
974	 0,45644489714522 
975	 0,456141125821181 
976	 0,454819290009193 
977	 0,454295929727834 
978	 0,454701146989868 
979	 0,454352150492477 
980	 0,454753755756935 
981	 0,456385422049075 
982	 0,457815277875564 
983	 0,45773342405528 
984	 0,455269086047374 
985	 0,454415010349601 
986	 0,455436279998719 
987	 0,457270920183068 
988	 0,457955712720986 
989	 0,457644004514895 
990	 0,45947176654668 
991	 0,461095265860814 
992	 0,461171926847028 
993	 0,459441088237302 
994	 0,458967899354764 
995	 0,462499788113114 
996	 0,464330732476321 
997	 0,464482514764956 
998	 0,465210757252409 
999	 0,465313061633367 
1000	 0,465107821358036 
1001	 0,466795924300003 
1002	 0,467568681500183 
1003	 0,466616164413715 
1004	 0,468001092336505 
1005	 0,470846113197551 
1006	 0,473574475346247 
1007	 0,471843266907664 
1008	 0,468762062350855 
1009	 0,471086641543161 
1010	 0,471949167895147 
1011	 0,471401784629813 
1012	 0,476137927229842 
1013	 0,478569778635805 
1014	 0,476296758507768 
1015	 0,475427520470841 
1016	 0,476507386456411 
1017	 0,479275065115368 
1018	 0,480387681387624 
1019	 0,479160755991757 
1020	 0,475588433028714 
1021	 0,477686902774397 
1022	 0,484373725046918 
1023	 0,487135815446463 
1024	 0,488560542530369 
1025	 0,488930362362841 
1026	 0,486210582039028 
1027	 0,486278813204301 
1028	 0,491409672209468 
1029	 0,488065878884092 
1030	 0,485541110986252 
1031	 0,495190254347212 
1032	 0,498276940017787 
1033	 0,494853659054352 
1034	 0,49266986491217 
1035	 0,489724685420022 
1036	 0,488093656225312 
1037	 0,496052828164826 
1038	 0,5015285866756 
1039	 0,498948467033648 
1040	 0,492576175489934 
1041	 0,48930690988702 
1042	 0,493849379510124 
1043	 0,495208269707076 
1044	 0,494426601905436 
1045	 0,495043065267458 
1046	 0,495574563214275 
1047	 0,496846412498755 
1048	 0,501594941306385 
1049	 0,502485859084061 
1050	 0,499782291076378 
1051	 0,503931080706367 
1052	 0,509652666041601 
1053	 0,513376313658287 
1054	 0,511497614314381 
1055	 0,507374092664492 
1056	 0,505056234376021 
1057	 0,510276333476061 
1058	 0,515043011519622 
1059	 0,507743697278842 
1060	 0,508043594866192 
1061	 0,51441525949346 
1062	 0,514360279519243 
1063	 0,51120285290056 
1064	 0,507761124998623 
1065	 0,510890874272969 
1066	 0,517032711604966 
1067	 0,522747850343522 
1068	 0,520015236386121 
1069	 0,511340716747677 
1070	 0,502046598453511 
1071	 0,511088970560235 
1072	 0,518894478738352 
1073	 0,502177917140373 
1074	 0,498442113176982 
1075	 0,507886188473127 
