Wavelength	GRA-VAN00331.asd
325	 0,356058158319871 
326	 0,224058266399296 
327	 0,229196061770644 
328	 0,417307520057325 
329	 0,320417924805601 
330	 0,148157084616025 
331	 0,251772094377461 
332	 0,251121066213846 
333	 0,188678705446062 
334	 0,116441452508476 
335	 9,87655516524274E-02 
336	 0,150873321040803 
337	 0,172707960085863 
338	 0,178991528425527 
339	 0,181354361754559 
340	 0,217501756468542 
341	 0,246794266897569 
342	 0,201473349209584 
343	 0,183022330009567 
344	 0,214077605217698 
345	 0,213017340032222 
346	 0,197068854710277 
347	 0,187357750122042 
348	 0,146113034901474 
349	 8,74529352163416E-02 
350	 8,53910401653053E-02 
351	 0,11402597280251 
352	 0,14710674344295 
353	 0,151913956357045 
354	 0,145266909163949 
355	 0,146313750043585 
356	 0,141580673929415 
357	 0,132498911433415 
358	 0,123175326275975 
359	 0,134884584637713 
360	 0,1663934466191 
361	 0,147712521831194 
362	 0,121711346500024 
363	 0,154478771438149 
364	 0,160588567309143 
365	 0,134835942787101 
366	 0,140469484691887 
367	 0,149689380937417 
368	 0,146995906295006 
369	 0,1564194612759 
370	 0,161294445834163 
371	 0,123016705652567 
372	 0,124466813707867 
373	 0,165497296581428 
374	 0,143233630073774 
375	 0,113168798792388 
376	 0,122144268170058 
377	 0,145203376337836 
378	 0,166919873933564 
379	 0,157260417146718 
380	 0,154793008713032 
381	 0,166686375510535 
382	 0,167241688706636 
383	 0,158013110606873 
384	 0,142424455335932 
385	 0,141359394126253 
386	 0,146964706594936 
387	 0,124308926395325 
388	 0,125285609876046 
389	 0,159063433963531 
390	 0,143267779720698 
391	 0,120881750546333 
392	 0,146821585685259 
393	 0,152344779159923 
394	 0,135080924134656 
395	 0,132316731608105 
396	 0,135518880068202 
397	 0,13961792027202 
398	 0,140344885750077 
399	 0,136546395847334 
400	 0,126690492243576 
401	 0,127181208277949 
402	 0,136954214282371 
403	 0,137960780215739 
404	 0,130592010281468 
405	 0,117527191481792 
406	 0,122084201062547 
407	 0,13546588258613 
408	 0,135455556526642 
409	 0,136201552348403 
410	 0,139047219221333 
411	 0,131657003286062 
412	 0,124503294704579 
413	 0,127404653059036 
414	 0,13005371380047 
415	 0,130603773063627 
416	 0,1289863779037 
417	 0,129270034739245 
418	 0,132712166785299 
419	 0,13538332225791 
420	 0,137187218769211 
421	 0,138667755988541 
422	 0,136815940208088 
423	 0,132742348362912 
424	 0,131836850445149 
425	 0,132237829854059 
426	 0,132929175992951 
427	 0,135931178817227 
428	 0,138404432913949 
429	 0,135175838630265 
430	 0,131582842163441 
431	 0,128966819730773 
432	 0,12460431879714 
433	 0,124077252441531 
434	 0,131357917844911 
435	 0,132344055159317 
436	 0,128244932073525 
437	 0,129084924430539 
438	 0,130257911588636 
439	 0,130234328588026 
440	 0,13026868646968 
441	 0,130873106004612 
442	 0,132556379204996 
443	 0,131973886088866 
444	 0,130243156663096 
445	 0,134339122008802 
446	 0,136305864440397 
447	 0,131853426345926 
448	 0,129314189731146 
449	 0,129672421719793 
450	 0,13259793034696 
451	 0,134559876623679 
452	 0,134484958017932 
453	 0,133858840453658 
454	 0,133257672791362 
455	 0,133231556584939 
456	 0,135051890670892 
457	 0,137119152952266 
458	 0,134382076532957 
459	 0,133453297755968 
460	 0,136380286595498 
461	 0,136191423826316 
462	 0,135532343342915 
463	 0,138784979733797 
464	 0,137326164995256 
465	 0,13211121954271 
466	 0,133783701022204 
467	 0,137456550806612 
468	 0,139650720508754 
469	 0,140025730441414 
470	 0,139319272040583 
471	 0,13921910238482 
472	 0,138903926673338 
473	 0,138177735980688 
474	 0,136799945939604 
475	 0,136397990760421 
476	 0,138434230947534 
477	 0,139030170784438 
478	 0,138562553614695 
479	 0,140809293356954 
480	 0,141109442801403 
481	 0,137942365290131 
482	 0,137125439481091 
483	 0,13775430432998 
484	 0,137537767549173 
485	 0,137414573307371 
486	 0,137556643875201 
487	 0,138090471502404 
488	 0,137783960390744 
489	 0,135919777358458 
490	 0,135150976304476 
491	 0,135665795437116 
492	 0,137108064666512 
493	 0,137020782618654 
494	 0,13518180490053 
495	 0,136193674084733 
496	 0,136772474740009 
497	 0,132993822679678 
498	 0,133424780358382 
499	 0,137529331309237 
500	 0,137927871258584 
501	 0,13616782498645 
502	 0,133624320554244 
503	 0,133912320561435 
504	 0,136245762723029 
505	 0,13845418452589 
506	 0,139965751368466 
507	 0,140732482003651 
508	 0,142135104948545 
509	 0,142911931341458 
510	 0,142010329377402 
511	 0,142140906716087 
512	 0,142862710823049 
513	 0,141143714012371 
514	 0,141639355313164 
515	 0,145498874265266 
516	 0,146416008896581 
517	 0,145418647745311 
518	 0,144810291580751 
519	 0,144848997596593 
520	 0,145676662906238 
521	 0,14742853019222 
522	 0,148002037451748 
523	 0,146171800252015 
524	 0,146073956501494 
525	 0,147501025313507 
526	 0,148725570653833 
527	 0,148492741515467 
528	 0,146703521264541 
529	 0,145839640383469 
530	 0,145776065657911 
531	 0,146105629189086 
532	 0,146005103335159 
533	 0,145387153197667 
534	 0,144614395187656 
535	 0,144334942934867 
536	 0,144894083726001 
537	 0,145576998688883 
538	 0,146243158047891 
539	 0,146903012410928 
540	 0,147214532204731 
541	 0,147076078899845 
542	 0,146628576128741 
543	 0,14604671625611 
544	 0,145517972637248 
545	 0,145390210033176 
546	 0,145843064226122 
547	 0,147340194534631 
548	 0,147974922684207 
549	 0,147097885733884 
550	 0,147553688127739 
551	 0,148458408039804 
552	 0,147944575618709 
553	 0,147356492380109 
554	 0,146979308491674 
555	 0,14630763973394 
556	 0,145800855235207 
557	 0,145823332134202 
558	 0,145943860346441 
559	 0,145894817035504 
560	 0,145227834454425 
561	 0,1445454645191 
562	 0,144186916904293 
563	 0,144499479403829 
564	 0,144830327630003 
565	 0,144311734274856 
566	 0,143261096176677 
567	 0,142162075804473 
568	 0,142150737149257 
569	 0,142967052797081 
570	 0,144320137553347 
571	 0,145261683390833 
572	 0,146003782090976 
573	 0,147367199653206 
574	 0,149193346180364 
575	 0,151189832497924 
576	 0,152146472240828 
577	 0,153044898034607 
578	 0,155033022896241 
579	 0,15582888222123 
580	 0,155747757744911 
581	 0,157363211127131 
582	 0,159298684028439 
583	 0,160759273246613 
584	 0,162000092160546 
585	 0,163233478306846 
586	 0,164875623832082 
587	 0,165656757957388 
588	 0,165661075283801 
589	 0,167093969063116 
590	 0,168624677503773 
591	 0,168976761624115 
592	 0,169486047943487 
593	 0,170179510241493 
594	 0,170387248086544 
595	 0,170580888360392 
596	 0,170984369257136 
597	 0,171636937329415 
598	 0,171927885711318 
599	 0,170943679162587 
600	 0,1703067999874 
601	 0,170318145271251 
602	 0,170141879733602 
603	 0,16984747706799 
604	 0,169436360758531 
605	 0,16806592469456 
606	 0,166482360462883 
607	 0,166965648200764 
608	 0,166747059094226 
609	 0,165087470217577 
610	 0,16431992996701 
611	 0,163856719028435 
612	 0,162739780507482 
613	 0,162064028768042 
614	 0,161834926986243 
615	 0,161187125334523 
616	 0,160465171288398 
617	 0,159922222583332 
618	 0,159750315930722 
619	 0,159748506887372 
620	 0,159457101625927 
621	 0,159265827727558 
622	 0,159304193543066 
623	 0,159579227204714 
624	 0,159784153791481 
625	 0,15962508218056 
626	 0,159633729395957 
627	 0,159870130095009 
628	 0,160178155984246 
629	 0,160350798415442 
630	 0,160338963993675 
631	 0,160616178558586 
632	 0,161244652920549 
633	 0,162231951800073 
634	 0,16317165660265 
635	 0,163910518709744 
636	 0,164436773324423 
637	 0,165065759312401 
638	 0,166058228672961 
639	 0,167163127171259 
640	 0,16822130349177 
641	 0,169003428073326 
642	 0,169633067854625 
643	 0,170228398673598 
644	 0,171207606230252 
645	 0,17211833269422 
646	 0,172337728287523 
647	 0,172307639233541 
648	 0,172056638846613 
649	 0,171216624230394 
650	 0,170571264039903 
651	 0,170488514096784 
652	 0,16916001885434 
653	 0,167149470240657 
654	 0,166185840118145 
655	 0,164928075183421 
656	 0,163035378056943 
657	 0,161129057682447 
658	 0,158988837208976 
659	 0,156395886114543 
660	 0,154276489248345 
661	 0,152669175289843 
662	 0,151056997143469 
663	 0,14950720057177 
664	 0,14802714177034 
665	 0,146553705570836 
666	 0,145184685972488 
667	 0,144074319592444 
668	 0,143125451769377 
669	 0,142432694554851 
670	 0,142534899508507 
671	 0,142490448268599 
672	 0,141607663068347 
673	 0,14119679697109 
674	 0,141188165304566 
675	 0,14080104485772 
676	 0,140721108855925 
677	 0,141067685530858 
678	 0,141024205141072 
679	 0,141066843162207 
680	 0,141820050306285 
681	 0,14197417448334 
682	 0,14171686939013 
683	 0,142599315943237 
684	 0,143848112240199 
685	 0,145026918011824 
686	 0,146362199089416 
687	 0,148194555727208 
688	 0,151073593348681 
689	 0,154152339074606 
690	 0,157349775855207 
691	 0,161322521847615 
692	 0,166364040424857 
693	 0,17271353740369 
694	 0,18007418913264 
695	 0,188180822468676 
696	 0,196557846917317 
697	 0,205625141092997 
698	 0,215554748800648 
699	 0,226218078091938 
700	 0,237657331743593 
701	 0,249919192460481 
702	 0,262118751258823 
703	 0,273978917678506 
704	 0,285611432394895 
705	 0,297304732453011 
706	 0,309136995472097 
707	 0,320399692163278 
708	 0,331213226945958 
709	 0,341972013870436 
710	 0,352176407346492 
711	 0,3616634454186 
712	 0,370413637033717 
713	 0,378727273063044 
714	 0,386857445680975 
715	 0,394438011731254 
716	 0,4014730119231 
717	 0,408135108282051 
718	 0,414319240974456 
719	 0,420019349058257 
720	 0,42533490734631 
721	 0,430233475070855 
722	 0,434678833208858 
723	 0,43844344424474 
724	 0,441799612897169 
725	 0,445782669797927 
726	 0,449325308561263 
727	 0,451830501764716 
728	 0,45415718537085 
729	 0,456483580046984 
730	 0,458931089268776 
731	 0,460798233640337 
732	 0,462099982939461 
733	 0,463904962709061 
734	 0,465678673563713 
735	 0,466936779458661 
736	 0,468023927792865 
737	 0,469076537916163 
738	 0,470314584256477 
739	 0,471243509295269 
740	 0,471770994101213 
741	 0,472546116826481 
742	 0,473378587772004 
743	 0,473988998458853 
744	 0,474680998966076 
745	 0,475380696463244 
746	 0,47561399394148 
747	 0,476017739312542 
748	 0,476845329467056 
749	 0,477249883891833 
750	 0,477463719445946 
751	 0,47801694649066 
752	 0,478064258757887 
753	 0,477737443821559 
754	 0,478411028204156 
755	 0,479121519528969 
756	 0,479186501783978 
757	 0,479302764028697 
758	 0,479544500046664 
759	 0,47983755187261 
760	 0,480192031073308 
761	 0,480539938632199 
762	 0,480607445989193 
763	 0,480613268230624 
764	 0,480764417087486 
765	 0,480761645579897 
766	 0,480670919418164 
767	 0,480810880555588 
768	 0,480866476214849 
769	 0,480830084204427 
770	 0,481452922647641 
771	 0,481971638312423 
772	 0,48145510446312 
773	 0,481272291996791 
774	 0,481526608939151 
775	 0,481489695961556 
776	 0,481516605639161 
777	 0,481736654105834 
778	 0,481773084714757 
779	 0,481710636463435 
780	 0,481733906995807 
781	 0,481776787047419 
782	 0,481842002222292 
783	 0,482031101263413 
784	 0,481989089669973 
785	 0,481577767959019 
786	 0,481694598814356 
787	 0,482181410609628 
788	 0,482545666155363 
789	 0,482591715927502 
790	 0,482395118471689 
791	 0,482699355053238 
792	 0,482704016489552 
793	 0,481884637286332 
794	 0,48190498012093 
795	 0,482469035517767 
796	 0,48234093444783 
797	 0,482135322184195 
798	 0,482091680165263 
799	 0,482500570872816 
800	 0,48257895808753 
801	 0,481686149439451 
802	 0,481590488228784 
803	 0,482156602553477 
804	 0,482149236927887 
805	 0,482104701742158 
806	 0,482261868628798 
807	 0,483029547020163 
808	 0,48349864412806 
809	 0,482761898552664 
810	 0,48290922650372 
811	 0,483751206684241 
812	 0,483429085081017 
813	 0,483388681094518 
814	 0,484031279922361 
815	 0,483966955815473 
816	 0,483646816064111 
817	 0,483738750511137 
818	 0,483844105395991 
819	 0,483952613609974 
820	 0,484308079443356 
821	 0,484512246436225 
822	 0,484424908847797 
823	 0,484517240337085 
824	 0,484668758697256 
825	 0,484668718255535 
826	 0,484955412532084 
827	 0,48536147169356 
828	 0,485012519321368 
829	 0,484806404843496 
830	 0,485103027991618 
831	 0,484876200244409 
832	 0,48457079397857 
833	 0,484921956638354 
834	 0,485542578973743 
835	 0,486039241267621 
836	 0,485433370139865 
837	 0,485171366006285 
838	 0,485885582326359 
839	 0,486027403789834 
840	 0,485629324393046 
841	 0,484999880463976 
842	 0,484584968824803 
843	 0,484643563338307 
844	 0,485559761860224 
845	 0,48621294117097 
846	 0,486021994266805 
847	 0,485819321567101 
848	 0,485783247703568 
849	 0,486018405839937 
850	 0,485959114561275 
851	 0,4856188205299 
852	 0,485518595498046 
853	 0,485639860329905 
854	 0,485868055861985 
855	 0,485432467276043 
856	 0,484916487138901 
857	 0,485217392581935 
858	 0,485943621496119 
859	 0,486680522922751 
860	 0,486483433675252 
861	 0,486188909825688 
862	 0,486223961778325 
863	 0,486248062968266 
864	 0,486237129199358 
865	 0,486198345655198 
866	 0,48604728475924 
867	 0,485857413803489 
868	 0,485860929702207 
869	 0,486086341807163 
870	 0,486486959956172 
871	 0,486774948293399 
872	 0,486697101899484 
873	 0,486040923531026 
874	 0,486254436108427 
875	 0,487186415271618 
876	 0,487564744764476 
877	 0,48709638805683 
878	 0,485953393062294 
879	 0,48592993920303 
880	 0,486640405646393 
881	 0,487438106241142 
882	 0,487324599425177 
883	 0,486505126983113 
884	 0,485964569365652 
885	 0,486390029234358 
886	 0,487668603743619 
887	 0,487575261006379 
888	 0,487312966489076 
889	 0,488019592844586 
890	 0,487652109150967 
891	 0,486956456810312 
892	 0,488470608772391 
893	 0,488657668020137 
894	 0,487142122301624 
895	 0,487740655525336 
896	 0,488597153494076 
897	 0,488243217430221 
898	 0,488075676873229 
899	 0,488225610949646 
900	 0,488591963369252 
901	 0,488231683688463 
902	 0,487432951129907 
903	 0,488402572313179 
904	 0,489182778830971 
905	 0,488603718050734 
906	 0,487827753538748 
907	 0,487491406955443 
908	 0,488253642875771 
909	 0,488369842815896 
910	 0,48784251506027 
911	 0,488127018067175 
912	 0,488673555150339 
913	 0,489081601416081 
914	 0,488597767418068 
915	 0,487980982761802 
916	 0,488122196186565 
917	 0,488269063960462 
918	 0,488338331128083 
919	 0,488530793636999 
920	 0,488629975376328 
921	 0,488466486210114 
922	 0,487624709585259 
923	 0,486985536559353 
924	 0,487215678803459 
925	 0,487292106973162 
926	 0,486755076033002 
927	 0,485027748148286 
928	 0,485037593900666 
929	 0,48662195958774 
930	 0,485877581997206 
931	 0,484649569279857 
932	 0,484164706091263 
933	 0,48488700813933 
934	 0,485600556143413 
935	 0,484730107871992 
936	 0,483909498017234 
937	 0,483309402158734 
938	 0,48223207861993 
939	 0,481618604767964 
940	 0,481672700644861 
941	 0,481460148983319 
942	 0,48110830581677 
943	 0,480725004957471 
944	 0,479702797536084 
945	 0,478531901208528 
946	 0,478273965339479 
947	 0,47765099693171 
948	 0,476658968915545 
949	 0,476854383087297 
950	 0,476165179983916 
951	 0,47376721028853 
952	 0,472673191669871 
953	 0,471901922276507 
954	 0,469983024535692 
955	 0,469843362332785 
956	 0,470427022077045 
957	 0,467217523267828 
958	 0,465960583601497 
959	 0,467585661288442 
960	 0,466609518653205 
961	 0,46540084784785 
962	 0,465881163334945 
963	 0,467266103352116 
964	 0,468142596408649 
965	 0,4666203170349 
966	 0,464901980167833 
967	 0,463776811834931 
968	 0,463597175492246 
969	 0,463929152770004 
970	 0,464518247062109 
971	 0,465451795512641 
972	 0,465466618156268 
973	 0,463693035137515 
974	 0,46342108981734 
975	 0,463775767983598 
976	 0,46209490957289 
977	 0,462481097301838 
978	 0,464882539938701 
979	 0,465338721714714 
980	 0,464392255432803 
981	 0,462755668581388 
982	 0,463057409988009 
983	 0,463720411590656 
984	 0,463059405306956 
985	 0,463648422878318 
986	 0,464998147854686 
987	 0,465265217246668 
988	 0,46620151833084 
989	 0,467612138064754 
990	 0,4671170020961 
991	 0,466204223379973 
992	 0,465802854312961 
993	 0,466262303173018 
994	 0,466785569993002 
995	 0,466612074592794 
996	 0,467167652350467 
997	 0,468699378031116 
998	 0,471210395136483 
999	 0,472475849571562 
1000	 0,472210081104803 
1001	 0,47198424416656 
1002	 0,472204578620151 
1003	 0,47298958659361 
1004	 0,473251403258714 
1005	 0,473917739446278 
1006	 0,475693969040578 
1007	 0,475292425434016 
1008	 0,473594380171253 
1009	 0,473074072018557 
1010	 0,475340242979955 
1011	 0,47889386863451 
1012	 0,477443163488476 
1013	 0,475520642018514 
1014	 0,475427429890445 
1015	 0,477636931901586 
1016	 0,480454995829578 
1017	 0,482369329178018 
1018	 0,483983765416004 
1019	 0,483712321232008 
1020	 0,479437689039619 
1021	 0,478802943217943 
1022	 0,481994489753252 
1023	 0,483957735460809 
1024	 0,486877719721514 
1025	 0,490070340965629 
1026	 0,488945337509693 
1027	 0,485449653449212 
1028	 0,482251190772506 
1029	 0,486579348404657 
1030	 0,491453736782831 
1031	 0,488364521214614 
1032	 0,487363617346116 
1033	 0,489590696703075 
1034	 0,493591279096026 
1035	 0,491721602849768 
1036	 0,485018604105097 
1037	 0,485543217036025 
1038	 0,486800048513447 
1039	 0,486653939122998 
1040	 0,489794835401893 
1041	 0,492708801223212 
1042	 0,492307533444567 
1043	 0,489684372689637 
1044	 0,486096213904245 
1045	 0,483403021765132 
1046	 0,487480735914632 
1047	 0,494678632936081 
1048	 0,493059910825324 
1049	 0,497161191299155 
1050	 0,506973297054819 
1051	 0,50780467621668 
1052	 0,499375751311822 
1053	 0,485886232164136 
1054	 0,486884498467713 
1055	 0,496549060625693 
1056	 0,506211162903533 
1057	 0,498970559180161 
1058	 0,490012834686029 
1059	 0,503200718914692 
1060	 0,499244991694034 
1061	 0,487726027055303 
1062	 0,510148628010618 
1063	 0,516000678969019 
1064	 0,499031987366279 
1065	 0,494251761941244 
1066	 0,490866157773236 
1067	 0,486948876476518 
1068	 0,496220710687877 
1069	 0,499542848728361 
1070	 0,485618115367643 
1071	 0,48608730179739 
1072	 0,495574636867501 
1073	 0,50140528201667 
1074	 0,493090919242607 
1075	 0,484505510517331 
