Wavelength	GRA-VIE00627.asd
325	 0,338109694872007 
326	 0,344518194163456 
327	 0,28721069369525 
328	 0,243086933390866 
329	 0,331653657577941 
330	 0,378157935871384 
331	 0,234633046913825 
332	 0,176748108353035 
333	 0,176880634012511 
334	 0,161022377748249 
335	 0,233328608886684 
336	 0,335070964549617 
337	 0,273017286653194 
338	 0,21664879623973 
339	 0,273983143848583 
340	 0,228866529070287 
341	 0,136440426368797 
342	 0,270784077868569 
343	 0,331002552991982 
344	 0,26642841879876 
345	 0,210502380596537 
346	 0,167502534509145 
347	 0,147461074959832 
348	 0,133646844505981 
349	 0,135221006376012 
350	 0,193413434213497 
351	 0,19769121976075 
352	 0,133414951573358 
353	 0,137667258974723 
354	 0,179040043082122 
355	 0,205720293829301 
356	 0,207237533756643 
357	 0,181179576416411 
358	 0,121149244237119 
359	 0,108884656734757 
360	 0,171325399122024 
361	 0,194380890767538 
362	 0,185208113886904 
363	 0,176176172853848 
364	 0,162437237221585 
365	 0,145435277938817 
366	 0,124800866441262 
367	 0,126757434283815 
368	 0,16095981957678 
369	 0,168258065159061 
370	 0,157329849176172 
371	 0,154981193015607 
372	 0,16580491142822 
373	 0,183743121352305 
374	 0,174655948049547 
375	 0,155141292501347 
376	 0,139449828972982 
377	 0,135012790289412 
378	 0,142012916884929 
379	 0,155974032863014 
380	 0,169551721577673 
381	 0,176748833157406 
382	 0,161956162555618 
383	 0,146461214772596 
384	 0,15173304290829 
385	 0,155309037396764 
386	 0,154442241146051 
387	 0,152437029541012 
388	 0,157132488192219 
389	 0,167889386862146 
390	 0,163424630387669 
391	 0,155327794792907 
392	 0,158980813119648 
393	 0,153669590664753 
394	 0,140600495731841 
395	 0,13742546476838 
396	 0,139491897261187 
397	 0,144015437895349 
398	 0,151453613523195 
399	 0,152267991401275 
400	 0,132544443934035 
401	 0,128393196592952 
402	 0,142611210886344 
403	 0,147403389634237 
404	 0,15024056063377 
405	 0,155422991791569 
406	 0,150293007470274 
407	 0,14152752567968 
408	 0,146333583162495 
409	 0,148457141142011 
410	 0,144272642945001 
411	 0,138697546008535 
412	 0,137951616635956 
413	 0,146371746878383 
414	 0,142822204110904 
415	 0,13243371307806 
416	 0,139798438655042 
417	 0,142079220893926 
418	 0,133452125969877 
419	 0,136334069564995 
420	 0,142543893862363 
421	 0,139506664146192 
422	 0,137767645802458 
423	 0,139277651535111 
424	 0,143111615963278 
425	 0,142349828086503 
426	 0,134431746561376 
427	 0,136035091710426 
428	 0,142732974150935 
429	 0,142988448253211 
430	 0,142575874763996 
431	 0,143113467702171 
432	 0,145181702752223 
433	 0,145426161163414 
434	 0,141462318437514 
435	 0,143746781843023 
436	 0,149296806467533 
437	 0,145513506117476 
438	 0,143220720772822 
439	 0,145736828433359 
440	 0,144718859068244 
441	 0,143130627535483 
442	 0,145439613857729 
443	 0,146232513891592 
444	 0,145403322122079 
445	 0,147277107015983 
446	 0,148961429298925 
447	 0,148643469851437 
448	 0,146672354646851 
449	 0,14497983380551 
450	 0,14707461910833 
451	 0,147838562713692 
452	 0,147014045501188 
453	 0,151301833012031 
454	 0,155614523658887 
455	 0,155116109500361 
456	 0,154047859745632 
457	 0,153309914725877 
458	 0,152758368272457 
459	 0,153255409281283 
460	 0,154626815453358 
461	 0,153616364845301 
462	 0,151151100733744 
463	 0,148868647252953 
464	 0,149835518092317 
465	 0,153216037124983 
466	 0,153294460694416 
467	 0,152403748758025 
468	 0,15215292997053 
469	 0,152304324549612 
470	 0,152465716717872 
471	 0,151678721749902 
472	 0,152471476080075 
473	 0,154785242953052 
474	 0,154294724087305 
475	 0,15316644084794 
476	 0,153718745319264 
477	 0,154432613743632 
478	 0,154958505535886 
479	 0,155371790794463 
480	 0,154772707104087 
481	 0,152915648882169 
482	 0,150745892516725 
483	 0,150062150916854 
484	 0,153338105117944 
485	 0,155278251886453 
486	 0,154873548759423 
487	 0,154307556286891 
488	 0,154399189504705 
489	 0,155630531992871 
490	 0,156632801682125 
491	 0,156532982584696 
492	 0,153519403412828 
493	 0,152462823016842 
494	 0,154434124741412 
495	 0,154669765106682 
496	 0,153904360478784 
497	 0,153388168906317 
498	 0,153804574935087 
499	 0,154592432009219 
500	 0,153235924704248 
501	 0,152865416495437 
502	 0,154933034265297 
503	 0,155649228169634 
504	 0,15568242959769 
505	 0,157239982792419 
506	 0,157226682254331 
507	 0,155595733561683 
508	 0,156202771841074 
509	 0,157337277768195 
510	 0,157347618898785 
511	 0,157531173766799 
512	 0,158224376563397 
513	 0,159983273882152 
514	 0,160265593965417 
515	 0,158674609309411 
516	 0,160515607037481 
517	 0,16320221438972 
518	 0,162492773032055 
519	 0,162094527571023 
520	 0,162728653165913 
521	 0,163476548610484 
522	 0,163832150541693 
523	 0,163454384006363 
524	 0,162655684501871 
525	 0,162148118273218 
526	 0,16350491797002 
527	 0,164174884540387 
528	 0,163428250885584 
529	 0,162650353852467 
530	 0,162242104121781 
531	 0,162508259274866 
532	 0,162977499660631 
533	 0,163492650536925 
534	 0,164093598102296 
535	 0,164302084694836 
536	 0,163960105513443 
537	 0,164363457342257 
538	 0,164903718200428 
539	 0,164089182016483 
540	 0,163743684435639 
541	 0,164216248345477 
542	 0,164145274078302 
543	 0,164345077181258 
544	 0,165590141430783 
545	 0,165943216139953 
546	 0,165766513338324 
547	 0,167396899937474 
548	 0,168257567816744 
549	 0,167326383689269 
550	 0,166904978822025 
551	 0,16711052359888 
552	 0,167703056979286 
553	 0,168067100965586 
554	 0,167967669447998 
555	 0,16739542679013 
556	 0,166870607503183 
557	 0,166846640840925 
558	 0,167452938334285 
559	 0,168049027784047 
560	 0,166911820040633 
561	 0,166266976307829 
562	 0,166870973370549 
563	 0,167331613501031 
564	 0,167288435069098 
565	 0,166447887396302 
566	 0,166344502744284 
567	 0,167086275258846 
568	 0,167417055602138 
569	 0,167940622906412 
570	 0,169013791816218 
571	 0,169802758621013 
572	 0,170463283256691 
573	 0,171627233676996 
574	 0,172801566482108 
575	 0,173917767702255 
576	 0,175624905756843 
577	 0,177028324807619 
578	 0,1771520321266 
579	 0,178499252430265 
580	 0,180818693434036 
581	 0,181557563684106 
582	 0,18171993787397 
583	 0,182031401756993 
584	 0,183531704707734 
585	 0,185348115696333 
586	 0,185695131642731 
587	 0,186108806163042 
588	 0,186999140954811 
589	 0,18793105963658 
590	 0,188983215335878 
591	 0,190206819083517 
592	 0,191131975176129 
593	 0,191582519753676 
594	 0,191321875790263 
595	 0,191150217238756 
596	 0,191479523300698 
597	 0,192106149381717 
598	 0,192667504081522 
599	 0,192682342963155 
600	 0,192443583684998 
601	 0,192133665676187 
602	 0,192099420115211 
603	 0,192010915286033 
604	 0,191620173180759 
605	 0,191326714905958 
606	 0,191013000265041 
607	 0,190157812002614 
608	 0,189629822053852 
609	 0,189554522939016 
610	 0,18847187658107 
611	 0,187454614506302 
612	 0,187940604583757 
613	 0,18835920545737 
614	 0,188232658538501 
615	 0,187381744919411 
616	 0,186567992928524 
617	 0,18631167454648 
618	 0,1864275332607 
619	 0,186558034693139 
620	 0,186006955177975 
621	 0,185954351494721 
622	 0,186548030530553 
623	 0,186478294596974 
624	 0,186238534021251 
625	 0,186417804423766 
626	 0,187014547089255 
627	 0,187751632979945 
628	 0,187858360183193 
629	 0,18779478320518 
630	 0,187874374766428 
631	 0,188462140710857 
632	 0,189351429795287 
633	 0,19015361913484 
634	 0,190629015649461 
635	 0,190873857952038 
636	 0,191656616843755 
637	 0,192465152630624 
638	 0,192887469647992 
639	 0,193682706915757 
640	 0,194801170572353 
641	 0,195817870989224 
642	 0,196645874912645 
643	 0,197235409045174 
644	 0,197719416236493 
645	 0,198163303343462 
646	 0,19863358263453 
647	 0,198572516379564 
648	 0,198064550635789 
649	 0,197909625084499 
650	 0,197732400610015 
651	 0,197222694388214 
652	 0,195999651063631 
653	 0,194447455185446 
654	 0,193378646008358 
655	 0,192697736765205 
656	 0,192134166825024 
657	 0,190547554150263 
658	 0,188508613688089 
659	 0,186695784299508 
660	 0,185113920304097 
661	 0,183579889417839 
662	 0,18145420437373 
663	 0,179449370706799 
664	 0,177978382459438 
665	 0,177074597117243 
666	 0,176405926360232 
667	 0,175468087664809 
668	 0,174450689307482 
669	 0,173506844002011 
670	 0,172979227877279 
671	 0,172829568591869 
672	 0,172944731472973 
673	 0,172465832881689 
674	 0,171736186499663 
675	 0,171954490327224 
676	 0,172327093926321 
677	 0,172484363971895 
678	 0,172009536212335 
679	 0,171800425790835 
680	 0,172930738316091 
681	 0,173754233810971 
682	 0,174133496651739 
683	 0,174952790100475 
684	 0,175928659355739 
685	 0,177016977968409 
686	 0,179068706451376 
687	 0,18183262795251 
688	 0,184624785054125 
689	 0,188088292452385 
690	 0,192162227231457 
691	 0,195642314868649 
692	 0,199900460443676 
693	 0,206124533252337 
694	 0,212697039503286 
695	 0,219372090392815 
696	 0,226342191550459 
697	 0,234167366490985 
698	 0,242819991463853 
699	 0,250678169378951 
700	 0,258470888751872 
701	 0,267316107412192 
702	 0,275684226177609 
703	 0,283456582349189 
704	 0,291684671201119 
705	 0,299593582861842 
706	 0,30667902051268 
707	 0,31322045612069 
708	 0,319433832532214 
709	 0,325612961662994 
710	 0,331456976186232 
711	 0,336888197837729 
712	 0,342010965742087 
713	 0,346702880420746 
714	 0,350868590967884 
715	 0,35458341460045 
716	 0,358011490146629 
717	 0,361439239459422 
718	 0,36496014426804 
719	 0,36849318337269 
720	 0,371293547996072 
721	 0,373462545639865 
722	 0,375244624440618 
723	 0,377320284431598 
724	 0,379663581004805 
725	 0,381555097774505 
726	 0,383112212787914 
727	 0,38443071724978 
728	 0,38568429618148 
729	 0,387009257423224 
730	 0,388594689120552 
731	 0,389961852092596 
732	 0,391025066661894 
733	 0,392139940582612 
734	 0,393239978794643 
735	 0,394249132909714 
736	 0,395096828179326 
737	 0,395842661332465 
738	 0,39665982913948 
739	 0,397436915669871 
740	 0,398172670910978 
741	 0,399108563121263 
742	 0,399947990431478 
743	 0,400341985996124 
744	 0,400893084722748 
745	 0,401662584579332 
746	 0,402360541551251 
747	 0,403100354251144 
748	 0,403905457859059 
749	 0,404588252931192 
750	 0,405074603149093 
751	 0,405271137916219 
752	 0,405886120942648 
753	 0,406850455152364 
754	 0,407075516211514 
755	 0,407223243700444 
756	 0,407807015004194 
757	 0,408810027654795 
758	 0,409775783819235 
759	 0,409728047546737 
760	 0,410261103980179 
761	 0,411550206456027 
762	 0,411789176442637 
763	 0,411707165524738 
764	 0,412073990925115 
765	 0,412625042199164 
766	 0,413219417143293 
767	 0,413618859895164 
768	 0,413892920759927 
769	 0,414115028571365 
770	 0,414540300235372 
771	 0,41504378190051 
772	 0,415453564107378 
773	 0,415918785945406 
774	 0,416471462477661 
775	 0,417163519091772 
776	 0,417648982194435 
777	 0,417770750636124 
778	 0,417794908656588 
779	 0,418053834943175 
780	 0,418978852645116 
781	 0,419326403725989 
782	 0,419079857324586 
783	 0,419444513725606 
784	 0,42005719346695 
785	 0,420621037229348 
786	 0,420783964260328 
787	 0,420753532164098 
788	 0,420993580260331 
789	 0,421289384686279 
790	 0,42158260827219 
791	 0,421879972547753 
792	 0,422129428395612 
793	 0,422320952204053 
794	 0,42285383431567 
795	 0,423432068404659 
796	 0,423274922928381 
797	 0,42324011159765 
798	 0,423519838772104 
799	 0,423465025200036 
800	 0,423601653919796 
801	 0,424393559072969 
802	 0,424897530249456 
803	 0,425104431239314 
804	 0,425468690830436 
805	 0,425862267425067 
806	 0,426284037907708 
807	 0,426911862517345 
808	 0,427456041611654 
809	 0,427619346123904 
810	 0,427921243846078 
811	 0,428420755377089 
812	 0,428984284750353 
813	 0,429391054875133 
814	 0,429564338692166 
815	 0,429675888561929 
816	 0,430076771584229 
817	 0,431125147483285 
818	 0,431838570992213 
819	 0,432118396653301 
820	 0,432415520380815 
821	 0,432770049284408 
822	 0,433169723985495 
823	 0,43323946285816 
824	 0,433377774248197 
825	 0,434123135807014 
826	 0,434770957547671 
827	 0,434993143179841 
828	 0,434247567098458 
829	 0,434035883954324 
830	 0,435036933714685 
831	 0,435894897589842 
832	 0,436464480447491 
833	 0,436774493774255 
834	 0,437126406267211 
835	 0,437459671094142 
836	 0,437259580612973 
837	 0,437166232837022 
838	 0,437461591922762 
839	 0,437366123278912 
840	 0,437379321358442 
841	 0,438302575700497 
842	 0,43847545855614 
843	 0,438009714518887 
844	 0,43884610796215 
845	 0,439240459612541 
846	 0,438474740578126 
847	 0,438687091378235 
848	 0,439351888615368 
849	 0,439395413056619 
850	 0,439680993756718 
851	 0,440279118786686 
852	 0,440833892663633 
853	 0,440945837604356 
854	 0,44050940888144 
855	 0,440448679491858 
856	 0,440681183320549 
857	 0,440932323693049 
858	 0,441309830588584 
859	 0,441638883524931 
860	 0,441283128048703 
861	 0,441175433403734 
862	 0,441751849205866 
863	 0,44235496533983 
864	 0,442815765124946 
865	 0,443019203947225 
866	 0,443773342940495 
867	 0,444864555908852 
868	 0,445139225212756 
869	 0,444938223322013 
870	 0,444538930638322 
871	 0,444484179865976 
872	 0,444974708303715 
873	 0,446113220369743 
874	 0,446325948707048 
875	 0,445912946661727 
876	 0,44682740074014 
877	 0,447728904593499 
878	 0,448120994634697 
879	 0,448616784675692 
880	 0,449031259503361 
881	 0,449166133394001 
882	 0,449929251697051 
883	 0,450928350167696 
884	 0,450655945175365 
885	 0,450259972842132 
886	 0,450346103165068 
887	 0,451677026156495 
888	 0,452893790597676 
889	 0,452747967016291 
890	 0,452676290535924 
891	 0,452967503930177 
892	 0,453658085250608 
893	 0,454345259181201 
894	 0,454775925436167 
895	 0,454562640563715 
896	 0,454512156807427 
897	 0,45519695752884 
898	 0,455617139740971 
899	 0,455787599139144 
900	 0,456003143989635 
901	 0,456587552786646 
902	 0,457461942390157 
903	 0,458013779157119 
904	 0,458099668176014 
905	 0,457784513312912 
906	 0,458295015376825 
907	 0,458789454844471 
908	 0,457885389253131 
909	 0,458005598030818 
910	 0,459193432378356 
911	 0,459698484540692 
912	 0,459717529241134 
913	 0,459473931573804 
914	 0,459921276045181 
915	 0,460570780867459 
916	 0,460782053971081 
917	 0,460762447076397 
918	 0,460660859144568 
919	 0,460779121939292 
920	 0,460722174919857 
921	 0,460483522610486 
922	 0,460703215900442 
923	 0,460916036679891 
924	 0,460764326189032 
925	 0,461005392338231 
926	 0,461237548144331 
927	 0,460531609343836 
928	 0,460025371651331 
929	 0,46003615340025 
930	 0,460449975956683 
931	 0,460598658312474 
932	 0,460164842075606 
933	 0,460031124674666 
934	 0,459866833790548 
935	 0,459158368606821 
936	 0,459119916536635 
937	 0,459556817601732 
938	 0,459024800484699 
939	 0,45918846651086 
940	 0,460167568096233 
941	 0,459253564801976 
942	 0,457955171603792 
943	 0,457774519406368 
944	 0,458552659485922 
945	 0,459142139197779 
946	 0,457485870757989 
947	 0,45607565408996 
948	 0,455383580559081 
949	 0,454221289378928 
950	 0,453250163433883 
951	 0,452673920999756 
952	 0,451000303796874 
953	 0,450103322814911 
954	 0,452173207572192 
955	 0,451489295108301 
956	 0,448879468279129 
957	 0,449736568441685 
958	 0,450443034146111 
959	 0,449867250692536 
960	 0,448676100750454 
961	 0,447502959062405 
962	 0,446867007162336 
963	 0,446693709469536 
964	 0,447041762792013 
965	 0,447980610183012 
966	 0,448598753425115 
967	 0,448535951115686 
968	 0,447456582614226 
969	 0,446893184994436 
970	 0,447435302843606 
971	 0,44810379179153 
972	 0,448471365730442 
973	 0,44833267458631 
974	 0,449416620010365 
975	 0,450670358346923 
976	 0,449732162025712 
977	 0,448937747040607 
978	 0,449035559515585 
979	 0,450460419851389 
980	 0,450065747922536 
981	 0,447335308839865 
982	 0,449122671569783 
983	 0,45193949379354 
984	 0,451781701337759 
985	 0,451225604992493 
986	 0,450827457896501 
987	 0,450798896156564 
988	 0,450725108687585 
989	 0,451190376475786 
990	 0,454986566793565 
991	 0,456809501585017 
992	 0,454728097241734 
993	 0,455467733231756 
994	 0,457470999999295 
995	 0,458526539045439 
996	 0,458759773735838 
997	 0,459323697616446 
998	 0,462551644780041 
999	 0,463821350907927 
1000	 0,462436955355109 
1001	 0,461052952260418 
1002	 0,460027615914166 
1003	 0,46024819753065 
1004	 0,46508711173963 
1005	 0,468254331652192 
1006	 0,464255507716309 
1007	 0,464378077358132 
1008	 0,466983823823842 
1009	 0,465649805814955 
1010	 0,466853848605211 
1011	 0,470341653349468 
1012	 0,469838040851382 
1013	 0,468940508330078 
1014	 0,469257161818048 
1015	 0,470068053652098 
1016	 0,472873885850542 
1017	 0,478141754869474 
1018	 0,47973565808895 
1019	 0,478748734279126 
1020	 0,478224259731846 
1021	 0,476323863486418 
1022	 0,474846975631297 
1023	 0,4796083013409 
1024	 0,483321312551972 
1025	 0,483663575201962 
1026	 0,48289398719297 
1027	 0,484065846709333 
1028	 0,487891113314957 
1029	 0,48433070994724 
1030	 0,480820536833411 
1031	 0,486544920161771 
1032	 0,48861792243122 
1033	 0,485921155980609 
1034	 0,481336311408567 
1035	 0,480319705584643 
1036	 0,484092155107016 
1037	 0,49090726375519 
1038	 0,494520810440343 
1039	 0,492632476171099 
1040	 0,491622181891344 
1041	 0,491789512537807 
1042	 0,493157087061246 
1043	 0,495863648523832 
1044	 0,497020719349005 
1045	 0,493375165435238 
1046	 0,492988852924423 
1047	 0,49702290213362 
1048	 0,504341252017646 
1049	 0,500030835412233 
1050	 0,485591078973271 
1051	 0,485939716437839 
1052	 0,494908140057 
1053	 0,505813815947031 
1054	 0,50081968254138 
1055	 0,49374244245934 
1056	 0,49714424505587 
1057	 0,500290364242051 
1058	 0,502305570317672 
1059	 0,503741920180276 
1060	 0,502154819995213 
1061	 0,495384066790366 
1062	 0,478494149766872 
1063	 0,478821699460963 
1064	 0,498550143708223 
1065	 0,51218075015082 
1066	 0,510280854923749 
1067	 0,494291846098215 
1068	 0,495744323924209 
1069	 0,50549163075473 
1070	 0,512331303378034 
1071	 0,501636319691248 
1072	 0,487683527270227 
1073	 0,489091599794479 
1074	 0,50243835858583 
1075	 0,516284242072099 
