Wavelength	GRA-VIE00284.asd
325	 0,13262081674601 
326	 0,160529196574564 
327	 0,20475559736113 
328	 0,214436841576221 
329	 0,191336904323989 
330	 0,164967315571933 
331	 0,172890981187868 
332	 0,179756283288686 
333	 0,165932007553585 
334	 5,94516472288544E-02 
335	 9,40117638721565E-02 
336	 0,235104016266857 
337	 0,207693079050194 
338	 0,160285261884873 
339	 0,189227278225601 
340	 0,149141682767592 
341	 6,87310961982166E-02 
342	 0,103607228282661 
343	 0,168612239466008 
344	 0,215502391927191 
345	 0,179981638448235 
346	 0,127767242733869 
347	 0,134240167993102 
348	 0,098392086181009 
349	 5,24963576833299E-02 
350	 0,136617302170752 
351	 0,162409110191491 
352	 9,68524713753946E-02 
353	 0,112941865605485 
354	 0,161980768817089 
355	 0,171979653599693 
356	 0,169429409150028 
357	 0,157998266496404 
358	 0,132909762820707 
359	 0,11589003225311 
360	 0,117686970120491 
361	 0,13645065864085 
362	 0,159820319504465 
363	 0,174917163134691 
364	 0,167769358733799 
365	 0,143820630704723 
366	 0,130610786616943 
367	 0,142500221903242 
368	 0,177697309731649 
369	 0,147391420250282 
370	 9,85804558449771E-02 
371	 0,128153519256053 
372	 0,147054527002091 
373	 0,134794033221785 
374	 0,117887494139632 
375	 0,11668436808261 
376	 0,142471182226589 
377	 0,147320541186218 
378	 0,13421144970666 
379	 0,129600647237746 
380	 0,127228193698152 
381	 0,12630673652885 
382	 0,127928203985 
383	 0,134175317117785 
384	 0,146148054935474 
385	 0,15190352966146 
386	 0,148842233526033 
387	 0,135020516517183 
388	 0,12846893195317 
389	 0,136375801610219 
390	 0,150318902264313 
391	 0,160269544360064 
392	 0,155428961623546 
393	 0,138821987721265 
394	 0,120488898154905 
395	 0,128433279746939 
396	 0,138906994469063 
397	 0,140090514581172 
398	 0,134667772381306 
399	 0,129665271986222 
400	 0,134424410859479 
401	 0,138523570880107 
402	 0,138724575228066 
403	 0,134001596387037 
404	 0,132635560516053 
405	 0,138992169460629 
406	 0,136672315413651 
407	 0,130445928639061 
408	 0,135640986258484 
409	 0,134884576761885 
410	 0,126174007457142 
411	 0,122021088133055 
412	 0,127672495364091 
413	 0,145464863451201 
414	 0,142668508820372 
415	 0,12618007685656 
416	 0,130026743839535 
417	 0,133902911650777 
418	 0,131319998514213 
419	 0,133024370677208 
420	 0,136624652460458 
421	 0,138133376158591 
422	 0,137184179092481 
423	 0,134526945613246 
424	 0,132964436742279 
425	 0,131153607201538 
426	 0,128338338338338 
427	 0,124322286662933 
428	 0,122944545767504 
429	 0,131392908560418 
430	 0,134578051662465 
431	 0,13030627275938 
432	 0,131172932848689 
433	 0,13321140709714 
434	 0,132786654763533 
435	 0,136196548447507 
436	 0,14083654628711 
437	 0,137419315558094 
438	 0,134431834479951 
439	 0,135293770709713 
440	 0,138162471600405 
441	 0,139348909948438 
442	 0,134655256928565 
443	 0,134914380229617 
444	 0,139757273701307 
445	 0,138414367176973 
446	 0,136417809957132 
447	 0,137063595219942 
448	 0,13761443923368 
449	 0,138501847184654 
450	 0,141403527169242 
451	 0,142140892047721 
452	 0,140082124132775 
453	 0,138575965771269 
454	 0,138880493971266 
455	 0,141733033134378 
456	 0,141977360274366 
457	 0,140363439826829 
458	 0,141860226059491 
459	 0,142725941748971 
460	 0,14169327794539 
461	 0,141209273330102 
462	 0,141061797409947 
463	 0,140664369194026 
464	 0,139920242238566 
465	 0,139040607058545 
466	 0,13872398350292 
467	 0,139198903307054 
468	 0,140413047365452 
469	 0,140512873409544 
470	 0,140039229015432 
471	 0,14063153046479 
472	 0,141223838948428 
473	 0,141381029223708 
474	 0,140608176166163 
475	 0,14030441622645 
476	 0,141720093169001 
477	 0,141632182265273 
478	 0,139930040286118 
479	 0,137799480447178 
480	 0,137748837806098 
481	 0,140155897578626 
482	 0,138257172543729 
483	 0,135766234666953 
484	 0,139223202734242 
485	 0,142525422206252 
486	 0,14316757288172 
487	 0,138078460804405 
488	 0,134656202465473 
489	 0,138038622191492 
490	 0,139838646811951 
491	 0,13910276336845 
492	 0,136578771618239 
493	 0,136011980311738 
494	 0,13803885056813 
495	 0,13745688692993 
496	 0,136162648307142 
497	 0,136684741171704 
498	 0,136782776287317 
499	 0,136295304549351 
500	 0,136194067318264 
501	 0,136313767648042 
502	 0,136648253449112 
503	 0,137826367228621 
504	 0,139195590424998 
505	 0,139689515779369 
506	 0,1388889530251 
507	 0,137241013467992 
508	 0,137132189821793 
509	 0,13749611026673 
510	 0,13732044128373 
511	 0,137901475369661 
512	 0,138997124111891 
513	 0,139472027033035 
514	 0,139783464105313 
515	 0,140113470286726 
516	 0,140392320723281 
517	 0,140693053128837 
518	 0,141114614377119 
519	 0,141637788415685 
520	 0,142103479943817 
521	 0,14201794579551 
522	 0,141799714997546 
523	 0,141756737247977 
524	 0,141515100742186 
525	 0,141526375824077 
526	 0,143197863397001 
527	 0,143493105110444 
528	 0,141744198890622 
529	 0,140591120292334 
530	 0,140236621648758 
531	 0,140629914616082 
532	 0,140997037496812 
533	 0,141065219987083 
534	 0,140602388211499 
535	 0,14074030352093 
536	 0,141939675487537 
537	 0,142050591511142 
538	 0,141482619237996 
539	 0,141551425029034 
540	 0,141284567029058 
541	 0,140812594964119 
542	 0,142048696490509 
543	 0,143195347039601 
544	 0,142499047685324 
545	 0,142134440622341 
546	 0,142366347238491 
547	 0,142660634465649 
548	 0,142749398588935 
549	 0,142568131792045 
550	 0,142866203148725 
551	 0,14323978930081 
552	 0,142915243865697 
553	 0,142974676664011 
554	 0,143459488434986 
555	 0,143319110391329 
556	 0,142740819427483 
557	 0,142006033612723 
558	 0,142469359094028 
559	 0,143415416893992 
560	 0,142314976243859 
561	 0,141830193046652 
562	 0,142725956807455 
563	 0,142635314559077 
564	 0,142206110871095 
565	 0,14256551866268 
566	 0,142529674940746 
567	 0,142107733986579 
568	 0,142321589622731 
569	 0,14289415345849 
570	 0,143545576327355 
571	 0,143482554385392 
572	 0,143309661041014 
573	 0,144720156376455 
574	 0,145450090215847 
575	 0,145162716660771 
576	 0,146676677056975 
577	 0,14827240171869 
578	 0,147885557245857 
579	 0,148679732659961 
580	 0,150624478014313 
581	 0,151387822690536 
582	 0,151663103221379 
583	 0,151887112844907 
584	 0,152445828187254 
585	 0,153053819746909 
586	 0,153051602276715 
587	 0,153487823460207 
588	 0,154503507861557 
589	 0,155171477511981 
590	 0,155827620219947 
591	 0,156765189509031 
592	 0,156917489955667 
593	 0,156450424822287 
594	 0,15629880555822 
595	 0,156469095085032 
596	 0,156972732766988 
597	 0,157684536606642 
598	 0,158048089459838 
599	 0,157285895166768 
600	 0,156624322311857 
601	 0,156427970439809 
602	 0,156557593073734 
603	 0,156577941277238 
604	 0,156185822671429 
605	 0,156227254700292 
606	 0,156219440763318 
607	 0,154427108026238 
608	 0,15367173219034 
609	 0,15456104829076 
610	 0,153780745754581 
611	 0,152377244797702 
612	 0,151976580730353 
613	 0,151710158801254 
614	 0,151404665611357 
615	 0,151103432342829 
616	 0,150952451623649 
617	 0,151010771201486 
618	 0,150942410876893 
619	 0,150735990415331 
620	 0,150400882700032 
621	 0,150713821146765 
622	 0,151582999880539 
623	 0,151297538691116 
624	 0,150501074422375 
625	 0,149997680952811 
626	 0,150479144253853 
627	 0,151527118465052 
628	 0,151459373391277 
629	 0,151312109151068 
630	 0,151580476454902 
631	 0,151782912142507 
632	 0,152034225231706 
633	 0,152606359872253 
634	 0,15307069754165 
635	 0,153316593307666 
636	 0,15343436305559 
637	 0,153690384995966 
638	 0,154309304942783 
639	 0,155199730409774 
640	 0,156148657143034 
641	 0,15675651465661 
642	 0,157066636564504 
643	 0,157142993310135 
644	 0,157256710443856 
645	 0,157623005345634 
646	 0,158470243574132 
647	 0,158940688493816 
648	 0,158799103425676 
649	 0,158074847390056 
650	 0,157540188784749 
651	 0,157602185557902 
652	 0,156802624124692 
653	 0,15554187972794 
654	 0,15508016655308 
655	 0,154448203572799 
656	 0,153492130279071 
657	 0,153142045247624 
658	 0,152461489325632 
659	 0,150499858015967 
660	 0,149039983621712 
661	 0,148225159274342 
662	 0,14730542325803 
663	 0,146094861545519 
664	 0,144654550777338 
665	 0,144285660295998 
666	 0,144315705240302 
667	 0,143462248800523 
668	 0,142825008460989 
669	 0,142572766506627 
670	 0,142026875836793 
671	 0,141927724092484 
672	 0,142747395130731 
673	 0,14267091999589 
674	 0,141950562897305 
675	 0,141977180124818 
676	 0,14209808544747 
677	 0,142038182032779 
678	 0,141455983256474 
679	 0,141046433385308 
680	 0,141644423232071 
681	 0,142153153378826 
682	 0,142369142370017 
683	 0,142518304919996 
684	 0,142877047746905 
685	 0,143607831492588 
686	 0,144394449574058 
687	 0,145511142624414 
688	 0,14750161531376 
689	 0,149694339912704 
690	 0,1519860683179 
691	 0,154759994699343 
692	 0,15837214963783 
693	 0,163081748361529 
694	 0,168056665522332 
695	 0,173527793116325 
696	 0,180456110010161 
697	 0,188411190413992 
698	 0,197160826308548 
699	 0,20643616225324 
700	 0,216466477721186 
701	 0,227566491425058 
702	 0,239003338941378 
703	 0,250582940653551 
704	 0,262492551915035 
705	 0,27451172722381 
706	 0,286432653404528 
707	 0,298010546595958 
708	 0,309252164593439 
709	 0,320220125464082 
710	 0,330974524446256 
711	 0,341394281830044 
712	 0,350843111242588 
713	 0,359824841323844 
714	 0,368822950281438 
715	 0,377105611951549 
716	 0,384647810924823 
717	 0,391733269054139 
718	 0,398524099987293 
719	 0,405065586808852 
720	 0,410918312032514 
721	 0,416372065982363 
722	 0,421877481265034 
723	 0,426795377484128 
724	 0,430959608679769 
725	 0,4343358762492 
726	 0,437724417670543 
727	 0,441532714356228 
728	 0,444655073037431 
729	 0,447179001417525 
730	 0,449513649218462 
731	 0,451845382286862 
732	 0,454203305148934 
733	 0,456285724047277 
734	 0,458278237885421 
735	 0,460323257235792 
736	 0,462046702685683 
737	 0,4634098850806 
738	 0,464429297720237 
739	 0,465616206254612 
740	 0,467073623500726 
741	 0,468093225098115 
742	 0,46883170761137 
743	 0,469541260467905 
744	 0,470270057115817 
745	 0,471074305174863 
746	 0,472030600699386 
747	 0,473006360736177 
748	 0,47389605607255 
749	 0,474577090316106 
750	 0,475112911436645 
751	 0,475620188533292 
752	 0,476176088247397 
753	 0,476759384119933 
754	 0,477163688250413 
755	 0,477569820760054 
756	 0,478096431451418 
757	 0,478478463833743 
758	 0,478868452045767 
759	 0,479694905601199 
760	 0,480218178564138 
761	 0,480297252873796 
762	 0,480549342668276 
763	 0,480820367558531 
764	 0,48095132941988 
765	 0,48118926274883 
766	 0,481560381473297 
767	 0,482039837453277 
768	 0,482357415033309 
769	 0,482457772425096 
770	 0,482734995583988 
771	 0,483173466352169 
772	 0,483701807928701 
773	 0,483791783407188 
774	 0,483623468284298 
775	 0,484167116888628 
776	 0,484587247626401 
777	 0,484503664578664 
778	 0,484513276568072 
779	 0,484639147575029 
780	 0,484812904650365 
781	 0,4849695896309 
782	 0,485091375785228 
783	 0,485130329201405 
784	 0,485535470352455 
785	 0,48644100149742 
786	 0,486369150153642 
787	 0,48574770281019 
788	 0,485691666449843 
789	 0,485931482004453 
790	 0,486338491470869 
791	 0,486624741383866 
792	 0,486803537398587 
793	 0,486905539821312 
794	 0,487095115723605 
795	 0,487286338793941 
796	 0,487221851282775 
797	 0,487203859287598 
798	 0,487323274704046 
799	 0,487420181851465 
800	 0,487705906345535 
801	 0,488324861939238 
802	 0,488358596262101 
803	 0,4880387888162 
804	 0,488454729837481 
805	 0,488612178147691 
806	 0,488334733406264 
807	 0,488705802523129 
808	 0,489196132024178 
809	 0,489193735966231 
810	 0,489570652779209 
811	 0,490213149561297 
812	 0,490322513896779 
813	 0,490330447334295 
814	 0,490466205344879 
815	 0,490979442361937 
816	 0,491406307971339 
817	 0,491199209781373 
818	 0,49141311532527 
819	 0,491999280876843 
820	 0,492046913041403 
821	 0,492151165764608 
822	 0,492525705573518 
823	 0,492677908011111 
824	 0,492683910882823 
825	 0,492703823825136 
826	 0,492752933368679 
827	 0,492703792682684 
828	 0,492038512885995 
829	 0,491759437426924 
830	 0,492357547707991 
831	 0,493270220254061 
832	 0,493856512696694 
833	 0,493376561986898 
834	 0,493403989744224 
835	 0,493950492954071 
836	 0,493653326582998 
837	 0,493301029425709 
838	 0,493316683878456 
839	 0,493428081540771 
840	 0,493644743813221 
841	 0,494016297398402 
842	 0,493820612964327 
843	 0,493397788221688 
844	 0,494569901755012 
845	 0,495380153887024 
846	 0,494871818560806 
847	 0,494558864272135 
848	 0,49459297824188 
849	 0,494927122338042 
850	 0,495140375935898 
851	 0,495169758399533 
852	 0,495195377426205 
853	 0,495485529436092 
854	 0,496050798985784 
855	 0,495872686736885 
856	 0,495453696450278 
857	 0,495625537699134 
858	 0,495778695917966 
859	 0,495930625858736 
860	 0,496696057088718 
861	 0,496932590014966 
862	 0,496286241415101 
863	 0,496666297262899 
864	 0,497445134015265 
865	 0,497548680037592 
866	 0,497622246009739 
867	 0,497734235007253 
868	 0,497657875687212 
869	 0,497584284211866 
870	 0,497637551065319 
871	 0,497941811985988 
872	 0,498249006894421 
873	 0,498256941488104 
874	 0,498292802843039 
875	 0,498347225933305 
876	 0,498156497740782 
877	 0,498052907290917 
878	 0,498199590482158 
879	 0,498650130314556 
880	 0,49891411127907 
881	 0,498523052916304 
882	 0,498715369210942 
883	 0,499232794503525 
884	 0,498678805979034 
885	 0,498306984134706 
886	 0,498507076407105 
887	 0,49874359777558 
888	 0,499064931975401 
889	 0,49947375988996 
890	 0,49899129784851 
891	 0,498469157466896 
892	 0,500248319325121 
893	 0,500970175189337 
894	 0,500105968339817 
895	 0,500728585988934 
896	 0,501074380297765 
897	 0,499878309940708 
898	 0,499399856926638 
899	 0,499703294953605 
900	 0,500243434287835 
901	 0,500776132147589 
902	 0,501167141892983 
903	 0,50148044856687 
904	 0,501390877703315 
905	 0,50079703171595 
906	 0,500488515162121 
907	 0,500377260842847 
908	 0,500178677709174 
909	 0,500798053744917 
910	 0,501778969500463 
911	 0,50103328244164 
912	 0,500388660609205 
913	 0,500612128624265 
914	 0,500613626645649 
915	 0,500598525237041 
916	 0,500847419870455 
917	 0,500462906387794 
918	 0,499791331049692 
919	 0,500246491554856 
920	 0,500010248195861 
921	 0,498900776224417 
922	 0,499236422905686 
923	 0,499743754331369 
924	 0,499326581011068 
925	 0,498920224603862 
926	 0,498614059164889 
927	 0,498327800258934 
928	 0,497672578182359 
929	 0,496848781157519 
930	 0,496994431287343 
931	 0,4971390017381 
932	 0,49677785373253 
933	 0,496777314530417 
934	 0,496706718935415 
935	 0,49593783085389 
936	 0,495591227153927 
937	 0,495381355173737 
938	 0,493578083593813 
939	 0,492950509165589 
940	 0,493868158744619 
941	 0,492302714429262 
942	 0,490586831440305 
943	 0,490908641620315 
944	 0,491898047068964 
945	 0,492004439931653 
946	 0,488771645465961 
947	 0,487381877025641 
948	 0,487933037867046 
949	 0,484585849559527 
950	 0,482279712356367 
951	 0,483234370791081 
952	 0,482158415638152 
953	 0,480113755274998 
954	 0,479030036390087 
955	 0,477887308805266 
956	 0,476888853282499 
957	 0,477167255234847 
958	 0,476290138052017 
959	 0,473910975862017 
960	 0,472541768683456 
961	 0,472362881836013 
962	 0,473063922305267 
963	 0,471421791246882 
964	 0,469166758187462 
965	 0,469603550006302 
966	 0,470860395429864 
967	 0,471656435929432 
968	 0,469322355478319 
969	 0,468626903565035 
970	 0,470919004685454 
971	 0,471392281541252 
972	 0,470730028771695 
973	 0,469955582882626 
974	 0,469972220929979 
975	 0,470447575294609 
976	 0,470489236958241 
977	 0,469433953908326 
978	 0,467816060618818 
979	 0,468016498961291 
980	 0,469060688206533 
981	 0,470180321907395 
982	 0,470273759048492 
983	 0,469227852073674 
984	 0,467383692814789 
985	 0,468948772763756 
986	 0,471918394265188 
987	 0,470788204197417 
988	 0,471542343577753 
989	 0,474394602960479 
990	 0,4736355596058 
991	 0,473830040823829 
992	 0,476394085625597 
993	 0,47441309133855 
994	 0,472064005582782 
995	 0,473960604017088 
996	 0,475639927390284 
997	 0,476923085486412 
998	 0,479127551868068 
999	 0,479766846152137 
1000	 0,478953170289572 
1001	 0,479816761265428 
1002	 0,480216404279908 
1003	 0,479646694655395 
1004	 0,481691465256204 
1005	 0,483996178555102 
1006	 0,484062000359556 
1007	 0,483282742780379 
1008	 0,482086225291345 
1009	 0,480717344433132 
1010	 0,482321673211523 
1011	 0,486868568394857 
1012	 0,492234626020116 
1013	 0,492126701003321 
1014	 0,485864872672617 
1015	 0,4858106709332 
1016	 0,488512799290805 
1017	 0,490285667831033 
1018	 0,492198175649216 
1019	 0,491879381942162 
1020	 0,486043423464942 
1021	 0,485256027104355 
1022	 0,490550947725124 
1023	 0,497892691501286 
1024	 0,49898588103878 
1025	 0,493613644505153 
1026	 0,496428851270347 
1027	 0,499226423522479 
1028	 0,497042749670391 
1029	 0,496423214025777 
1030	 0,498071619033739 
1031	 0,501624085480931 
1032	 0,50246787082161 
1033	 0,500914089244012 
1034	 0,499710098140816 
1035	 0,49710422861075 
1036	 0,495304458986758 
1037	 0,50396724916922 
1038	 0,506874583979745 
1039	 0,498977086993654 
1040	 0,497144832626283 
1041	 0,49759172854319 
1042	 0,496793119960235 
1043	 0,497322466804271 
1044	 0,50055399328891 
1045	 0,507707197865755 
1046	 0,509827980807896 
1047	 0,506537310360997 
1048	 0,502437812516567 
1049	 0,499969164587767 
1050	 0,499688901039149 
1051	 0,498709637023532 
1052	 0,499902835822801 
1053	 0,503726805094251 
1054	 0,505073509063466 
1055	 0,504899008864069 
1056	 0,504155330125909 
1057	 0,500777078729041 
1058	 0,496885829383823 
1059	 0,495901882382906 
1060	 0,500222769402859 
1061	 0,503986710365807 
1062	 0,492980891382106 
1063	 0,497197344846292 
1064	 0,515186600447092 
1065	 0,50457092802448 
1066	 0,49996779862804 
1067	 0,511243255173968 
1068	 0,504417605163474 
1069	 0,499901649885574 
1070	 0,511309532604193 
1071	 0,50781918078062 
1072	 0,501207741972478 
1073	 0,508448127168337 
1074	 0,512176689538049 
1075	 0,514877626086089 
