Wavelength	GRA-BER00096.asd
325	 0,18556612804047 
326	 0,351759316784034 
327	 0,368460378944528 
328	 0,240061020396633 
329	 0,164238738420197 
330	 0,121441900483837 
331	 0,112908055004708 
332	 0,168020555390849 
333	 0,229731660772911 
334	 0,218905138096921 
335	 0,148615194643024 
336	 6,25350187140008E-02 
337	 0,090818073725748 
338	 0,124364111388844 
339	 7,95781758348603E-02 
340	 0,015176676886599 
341	-1,15223658773704E-02 
342	 7,24001895394774E-02 
343	 0,119128649884181 
344	 8,76886915267741E-02 
345	 0,097059102102671 
346	 0,114837978540303 
347	 0,106088746888353 
348	 9,49287383883305E-02 
349	 0,077158786267535 
350	 0,021382862494147 
351	 3,13782107244647E-02 
352	 0,113351494322051 
353	 9,55288275320291E-02 
354	 5,01747342155725E-02 
355	 7,85573005728875E-02 
356	 8,08148557210746E-02 
357	 6,09344041299866E-02 
358	 8,31558953526959E-02 
359	 0,107576061559166 
360	 0,113084882013748 
361	 9,97936630664931E-02 
362	 7,67140262110484E-02 
363	 5,57672255771403E-02 
364	 7,11897222194705E-02 
365	 0,104489491859 
366	 6,59532341176743E-02 
367	 3,34700015945789E-02 
368	 5,47024908065927E-02 
369	 7,89489797933909E-02 
370	 8,53681897517048E-02 
371	 4,70492255880531E-02 
372	 4,59867674025097E-02 
373	 8,73510387322944E-02 
374	 8,08159380842582E-02 
375	 6,69901791183904E-02 
376	 0,075994971324664 
377	 8,14884409747242E-02 
378	 7,96588749114958E-02 
379	 7,32758422790065E-02 
380	 5,62689907947693E-02 
381	 3,55557510345199E-02 
382	 4,91734989189596E-02 
383	 7,59783420420109E-02 
384	 9,32517928532736E-02 
385	 7,03403200277857E-02 
386	 2,92329770085317E-02 
387	 4,49939805115365E-02 
388	 6,33567723790855E-02 
389	 6,50349643431956E-02 
390	 6,19701313686769E-02 
391	 5,97629949507784E-02 
392	 6,37940009207133E-02 
393	 8,31072349758285E-02 
394	 0,10239442086053 
395	 7,44624833679567E-02 
396	 4,52408188733064E-02 
397	 4,09577805216046E-02 
398	 4,46277091366554E-02 
399	 4,98926553403373E-02 
400	 0,050389952687015 
401	 5,81016917470992E-02 
402	 6,90668412833479E-02 
403	 5,93217505474028E-02 
404	 5,19397288759651E-02 
405	 6,10371322660294E-02 
406	 5,86215921848312E-02 
407	 0,050069884476397 
408	 5,29752507723677E-02 
409	 5,93185877588447E-02 
410	 6,40154270461577E-02 
411	 0,055857823204762 
412	 0,047443989420536 
413	 5,07171085225444E-02 
414	 5,76142675287642E-02 
415	 6,49059484829791E-02 
416	 7,10265043835045E-02 
417	 6,79028954915418E-02 
418	 5,51764152610027E-02 
419	 0,052303067561679 
420	 5,43247311893892E-02 
421	 5,26119176575184E-02 
422	 5,37685096072239E-02 
423	 5,77036158296586E-02 
424	 5,98535519754233E-02 
425	 6,18002563963145E-02 
426	 6,40277854257114E-02 
427	 6,23950378722296E-02 
428	 5,90647687526036E-02 
429	 0,058493437369769 
430	 6,02991837004869E-02 
431	 6,28366926709138E-02 
432	 0,058948885698075 
433	 5,64472589467668E-02 
434	 6,16396865666073E-02 
435	 5,90286166784175E-02 
436	 5,16431442073994E-02 
437	 5,41665458500378E-02 
438	 5,86838737793797E-02 
439	 6,17214179592602E-02 
440	 6,22803734751065E-02 
441	 6,17833341656968E-02 
442	 6,21777861260553E-02 
443	 6,22492544010665E-02 
444	 6,21304833277248E-02 
445	 6,28052923587457E-02 
446	 6,47996739730731E-02 
447	 6,77042517493541E-02 
448	 6,51015201363357E-02 
449	 6,08668975187293E-02 
450	 6,36592974696162E-02 
451	 6,64474535885395E-02 
452	 6,67697553921351E-02 
453	 0,063924240323594 
454	 6,09411507701362E-02 
455	 6,08349939628346E-02 
456	 6,51191960115029E-02 
457	 7,02606769710073E-02 
458	 6,63603444410682E-02 
459	 6,33045290140146E-02 
460	 6,50535248126646E-02 
461	 6,79569566855521E-02 
462	 6,93505074717988E-02 
463	 0,06628544681219 
464	 6,53910530646716E-02 
465	 6,72857922610396E-02 
466	 6,77710897667573E-02 
467	 6,76984517132557E-02 
468	 6,76649152550619E-02 
469	 6,78357720279569E-02 
470	 0,06812404178951 
471	 6,82929415186371E-02 
472	 6,83545662535226E-02 
473	 6,81901823832639E-02 
474	 6,68176199041245E-02 
475	 6,71247173350246E-02 
476	 0,071655048008036 
477	 7,34311512840402E-02 
478	 7,21228968025085E-02 
479	 7,07100834343751E-02 
480	 7,05045981985958E-02 
481	 7,17990038117187E-02 
482	 0,07104824376807 
483	 6,96691169383421E-02 
484	 0,07030725290162 
485	 7,08447812434014E-02 
486	 7,06821652682528E-02 
487	 6,96407587638658E-02 
488	 6,92167231523981E-02 
489	 7,04067361943082E-02 
490	 7,10906387174359E-02 
491	 7,13946294206881E-02 
492	 7,23322076105474E-02 
493	 7,40926875202823E-02 
494	 7,61690458698391E-02 
495	 7,56545416979943E-02 
496	 7,45378073672463E-02 
497	 7,52678927431285E-02 
498	 7,49788268044746E-02 
499	 7,36896357386604E-02 
500	 7,31418720849352E-02 
501	 0,07380896486781 
502	 7,57255416535758E-02 
503	 7,68053401224194E-02 
504	 7,73516918385728E-02 
505	 7,85206944968607E-02 
506	 7,85770869367116E-02 
507	 7,77811393321538E-02 
508	 7,96325272463276E-02 
509	 8,11684398641864E-02 
510	 7,97501806691134E-02 
511	 7,84450368352186E-02 
512	 7,82479831378124E-02 
513	 8,03631492671932E-02 
514	 8,11852758003711E-02 
515	 0,079697959523017 
516	 8,06949105484703E-02 
517	 8,23311679030617E-02 
518	 8,14147620490261E-02 
519	 8,07603549779532E-02 
520	 8,09914389341893E-02 
521	 8,14928830345018E-02 
522	 8,23929881184224E-02 
523	 8,36283933632169E-02 
524	 8,35515001327519E-02 
525	 8,27953974742445E-02 
526	 0,083377305318133 
527	 8,38139450385976E-02 
528	 8,38214290534954E-02 
529	 8,46566344368681E-02 
530	 8,55093359304715E-02 
531	 8,53944438799716E-02 
532	 8,58853667488419E-02 
533	 8,69228280036917E-02 
534	 8,71880951107481E-02 
535	 8,73596649776921E-02 
536	 8,77288693749638E-02 
537	 8,71104454836446E-02 
538	 8,65120523850473E-02 
539	 8,81162655220948E-02 
540	 8,89795129794188E-02 
541	 8,85811910626592E-02 
542	 8,91344175646541E-02 
543	 8,99500976622325E-02 
544	 9,02819228088328E-02 
545	 9,11044634799559E-02 
546	 9,21313412544232E-02 
547	 9,21006274743475E-02 
548	 9,17792297280034E-02 
549	 9,16332405957107E-02 
550	 0,092075463312487 
551	 9,26809672309394E-02 
552	 9,27123984972279E-02 
553	 9,26908667948768E-02 
554	 9,28111693064057E-02 
555	 9,32001536877858E-02 
556	 9,37280922179638E-02 
557	 9,42618233886485E-02 
558	 9,45944468941533E-02 
559	 9,48559915269265E-02 
560	 9,55629704181207E-02 
561	 0,095811717513505 
562	 9,54376184954842E-02 
563	 9,58766818529595E-02 
564	 9,64114192125139E-02 
565	 9,59258905276628E-02 
566	 9,66262936784489E-02 
567	 9,82744782836408E-02 
568	 9,79975757597015E-02 
569	 9,75061573874582E-02 
570	 0,097954298430852 
571	 9,81555688424036E-02 
572	 9,81510899019628E-02 
573	 0,09837646066556 
574	 9,88059310799453E-02 
575	 9,93813139826271E-02 
576	 9,97900931313492E-02 
577	 0,100142138179183 
578	 0,100585377756765 
579	 0,101024967182384 
580	 0,101208088098024 
581	 0,100280993954107 
582	 0,100020691028621 
583	 0,101276838721447 
584	 0,102008639574653 
585	 0,102146685561149 
586	 0,10210279652477 
587	 0,101727807541152 
588	 0,101320938580064 
589	 0,102270213073098 
590	 0,102969765706058 
591	 0,101991620279142 
592	 0,102002046323254 
593	 0,102989568222415 
594	 0,103468897902268 
595	 0,103774580748524 
596	 0,1039358036049 
597	 0,103374762875304 
598	 0,10280452037481 
599	 0,103352885196235 
600	 0,103740621988574 
601	 0,103780223081574 
602	 0,104190059762355 
603	 0,104860850171513 
604	 0,10560377001056 
605	 0,105474962302943 
606	 0,10472842045995 
607	 0,104274505337488 
608	 0,10436778588819 
609	 0,104936538501183 
610	 0,104696480429954 
611	 0,104177656103654 
612	 0,104167321449101 
613	 0,104710657205371 
614	 0,105457846849598 
615	 0,105160850795093 
616	 0,105042384105289 
617	 0,105776845367677 
618	 0,105926084372416 
619	 0,105619151351487 
620	 0,105493580554263 
621	 0,105524995127944 
622	 0,105787871448307 
623	 0,106507489536734 
624	 0,107223579610351 
625	 0,107461984119446 
626	 0,107477806175708 
627	 0,107410258927478 
628	 0,107550542755498 
629	 0,10732565085942 
630	 0,106633080983287 
631	 0,107023836109293 
632	 0,10770635670787 
633	 0,10709057929418 
634	 0,106911593730734 
635	 0,107440387228421 
636	 0,107605529796316 
637	 0,107644807355637 
638	 0,107781356406789 
639	 0,10783773270384 
640	 0,108005485613839 
641	 0,108922719961487 
642	 0,109443841507666 
643	 0,109170041142467 
644	 0,108874976350437 
645	 0,108683545083246 
646	 0,108645532982502 
647	 0,109278790682013 
648	 0,110197214811242 
649	 0,109696966692776 
650	 0,108985948336319 
651	 0,108898839536631 
652	 0,109090531412673 
653	 0,109262596179782 
654	 0,108841168925554 
655	 0,108995683199679 
656	 0,109673220830977 
657	 0,108555403748915 
658	 0,107360109962541 
659	 0,1079270432965 
660	 0,108001652220158 
661	 0,107325263328472 
662	 0,106503286531505 
663	 0,10609452227542 
664	 0,106376266815018 
665	 0,106854190585534 
666	 0,107248562947117 
667	 0,107279276200799 
668	 0,106658544172155 
669	 0,105736792333374 
670	 0,106159140277681 
671	 0,106678518711268 
672	 0,106340296195899 
673	 0,106623639731373 
674	 0,10730680099756 
675	 0,107194169969148 
676	 0,107416354017521 
677	 0,108257960850936 
678	 0,108853337069497 
679	 0,109343126052617 
680	 0,109976024155071 
681	 0,110353987404554 
682	 0,110495012101488 
683	 0,110698582150652 
684	 0,111133418538406 
685	 0,111863340333406 
686	 0,112464356585323 
687	 0,113019433482615 
688	 0,113804326527659 
689	 0,114438804232801 
690	 0,11487129036771 
691	 0,115417030757828 
692	 0,116033545502502 
693	 0,116648408677152 
694	 0,11686779909054 
695	 0,116986184007655 
696	 0,117981367341063 
697	 0,118856757681857 
698	 0,119190213710686 
699	 0,119154897455566 
700	 0,119242615130859 
701	 0,120046471618217 
702	 0,120704208943929 
703	 0,121095797841353 
704	 0,12168439247506 
705	 0,121988302302486 
706	 0,121815706091065 
707	 0,122296416429525 
708	 0,123106889051217 
709	 0,123351210379481 
710	 0,12349741984546 
711	 0,123685320043274 
712	 0,123931116480938 
713	 0,124065334653541 
714	 0,123986289144305 
715	 0,124714518536395 
716	 0,125824172308664 
717	 0,125697141617927 
718	 0,125571857334117 
719	 0,125942598353169 
720	 0,126474581989771 
721	 0,126896646615704 
722	 0,126906324523572 
723	 0,127190577322417 
724	 0,127766725047412 
725	 0,128083534706804 
726	 0,1283833255587 
727	 0,128773480372847 
728	 0,128828709708189 
729	 0,128874522506393 
730	 0,129620724382557 
731	 0,129935622355359 
732	 0,129697388523259 
733	 0,129954199455126 
734	 0,130469185061693 
735	 0,13096041760484 
736	 0,130886453358044 
737	 0,130622688923421 
738	 0,131384309437346 
739	 0,132054031514273 
740	 0,132261538375249 
741	 0,132532595090467 
742	 0,132709009767069 
743	 0,132578067909892 
744	 0,132678044483944 
745	 0,133054221906053 
746	 0,133422468941467 
747	 0,133818781354926 
748	 0,134217179068643 
749	 0,134387342874312 
750	 0,134465301190486 
751	 0,134690217837326 
752	 0,135139981548409 
753	 0,135650102486715 
754	 0,135511946436104 
755	 0,135373389013137 
756	 0,135687156285194 
757	 0,135882217182206 
758	 0,136045327058794 
759	 0,136547745772419 
760	 0,136918817740167 
761	 0,137066832232865 
762	 0,137351078734098 
763	 0,137714018529438 
764	 0,138069598425385 
765	 0,138169681089402 
766	 0,138152879269631 
767	 0,138496558662263 
768	 0,13891613271652 
769	 0,13922464663387 
770	 0,13896867231872 
771	 0,138948240174788 
772	 0,140097175684421 
773	 0,140488017878031 
774	 0,140095617325738 
775	 0,14026318889565 
776	 0,140604247644092 
777	 0,140899897776239 
778	 0,140935365731574 
779	 0,140919216858373 
780	 0,141194119949964 
781	 0,141418667226542 
782	 0,141589933501418 
783	 0,14208105045313 
784	 0,142332791677127 
785	 0,142086542242376 
786	 0,142455766423059 
787	 0,143194914493939 
788	 0,143597681165713 
789	 0,143831816915659 
790	 0,143945268042929 
791	 0,144013582752125 
792	 0,144081111785757 
793	 0,144187537039218 
794	 0,144389274215999 
795	 0,144562587871035 
796	 0,14435664600276 
797	 0,144706034949186 
798	 0,145655931946246 
799	 0,145878895815844 
800	 0,145611787684236 
801	 0,145202937915349 
802	 0,145428996229263 
803	 0,146008433214142 
804	 0,14574625593446 
805	 0,145788614238119 
806	 0,146392847901365 
807	 0,146549057878444 
808	 0,146598622343683 
809	 0,146968993761542 
810	 0,147360051530764 
811	 0,147646740337124 
812	 0,147651165192697 
813	 0,147667547085834 
814	 0,147865042867077 
815	 0,14837386766527 
816	 0,148871048818711 
817	 0,148967636976891 
818	 0,148729507614362 
819	 0,148436968862316 
820	 0,148858812383838 
821	 0,149230799482192 
822	 0,149235071039477 
823	 0,14936994838351 
824	 0,149630999325391 
825	 0,149947479653706 
826	 0,150102776395217 
827	 0,150136334821732 
828	 0,150351349537323 
829	 0,15063075737852 
830	 0,1508801080075 
831	 0,150909590243525 
832	 0,150852028765929 
833	 0,150916153004597 
834	 0,150911608575776 
835	 0,150825566482337 
836	 0,150690993162027 
837	 0,150906290808306 
838	 0,151568689680385 
839	 0,151792130672343 
840	 0,151583112787201 
841	 0,151109640861009 
842	 0,15122868517983 
843	 0,151826695991531 
844	 0,151667303127683 
845	 0,151659884421927 
846	 0,152199942132603 
847	 0,152358623132214 
848	 0,152335910649119 
849	 0,1525617757172 
850	 0,15213546464384 
851	 0,151464863349154 
852	 0,152638579200267 
853	 0,153569730397884 
854	 0,153265564480096 
855	 0,153486613319708 
856	 0,15372491293154 
857	 0,153052106128686 
858	 0,152893288064474 
859	 0,153262860437174 
860	 0,152959168447924 
861	 0,152880009090771 
862	 0,153358821695966 
863	 0,153345002678416 
864	 0,153237039932881 
865	 0,153678232336954 
866	 0,153694189505125 
867	 0,153445339129262 
868	 0,15415452168548 
869	 0,15475074688886 
870	 0,154750703623064 
871	 0,154692449291535 
872	 0,154366131394653 
873	 0,153516037614263 
874	 0,15355970616344 
875	 0,154383734766178 
876	 0,154742931590322 
877	 0,154858606365841 
878	 0,154870728130973 
879	 0,155280824289629 
880	 0,155600532936067 
881	 0,155284828233171 
882	 0,154730343802663 
883	 0,154293825887736 
884	 0,154646594067374 
885	 0,155113766439935 
886	 0,155364888631897 
887	 0,155159530273848 
888	 0,154892839595843 
889	 0,154983921250938 
890	 0,155736067681839 
891	 0,156576216531029 
892	 0,15618572868136 
893	 0,155503055530954 
894	 0,155094705209827 
895	 0,155930244670028 
896	 0,156669575960718 
897	 0,156334669543075 
898	 0,156441263633199 
899	 0,156816160584716 
900	 0,156738837944633 
901	 0,156726792677589 
902	 0,156806351242396 
903	 0,156470257187668 
904	 0,156451234994165 
905	 0,157024479943019 
906	 0,156575048954372 
907	 0,155901156375322 
908	 0,156394907362272 
909	 0,156815874759885 
910	 0,156951419458733 
911	 0,157130906027856 
912	 0,157326513283395 
913	 0,157504743149812 
914	 0,157520348648281 
915	 0,157404603527503 
916	 0,157254440032233 
917	 0,158010576073579 
918	 0,159156061575315 
919	 0,159048421295065 
920	 0,158035523552006 
921	 0,156778541850091 
922	 0,157705721522943 
923	 0,159153235243926 
924	 0,159603563268513 
925	 0,159433543001894 
926	 0,158879967214819 
927	 0,158264962095663 
928	 0,158357944364965 
929	 0,158895215301232 
930	 0,15776532674328 
931	 0,157697852556939 
932	 0,159846595834424 
933	 0,160439776431319 
934	 0,159971362713554 
935	 0,159650252509993 
936	 0,159612126140756 
937	 0,159956927902574 
938	 0,160835061594477 
939	 0,1610532650577 
940	 0,160374665444201 
941	 0,16020940056332 
942	 0,160630050157976 
943	 0,161450234725107 
944	 0,160812192142789 
945	 0,159488520715512 
946	 0,159459612010855 
947	 0,160012792682025 
948	 0,160962358594048 
949	 0,162461903133581 
950	 0,163090821327858 
951	 0,162303148517729 
952	 0,162380961940346 
953	 0,162606748363801 
954	 0,161896603548815 
955	 0,162308138388977 
956	 0,163220275256367 
957	 0,161769128640729 
958	 0,161651117464452 
959	 0,163261635597182 
960	 0,162192336173912 
961	 0,160991933456672 
962	 0,161495493447839 
963	 0,16060873560941 
964	 0,160343292840111 
965	 0,164239514147852 
966	 0,164567585301009 
967	 0,161524865356906 
968	 0,162141130339927 
969	 0,162368146513287 
970	 0,161214206597579 
971	 0,162723274127271 
972	 0,163926203095451 
973	 0,162314668650786 
974	 0,163226731472688 
975	 0,165636696656496 
976	 0,166175655439953 
977	 0,165881422993713 
978	 0,165243048024087 
979	 0,165113525905176 
980	 0,164997020495557 
981	 0,164603804152311 
982	 0,163612667258315 
983	 0,163112267872998 
984	 0,16413455416067 
985	 0,165553752641688 
986	 0,165982487164329 
987	 0,163133259089764 
988	 0,162673429583077 
989	 0,165240095079869 
990	 0,166631632788622 
991	 0,167398681153716 
992	 0,167587888939826 
993	 0,166099519019508 
994	 0,165000199258757 
995	 0,166243755740756 
996	 0,165887510860073 
997	 0,164233998435147 
998	 0,163203864789787 
999	 0,163712385896132 
1000	 0,166046547001609 
1001	 0,17064477547871 
1002	 0,171779988368307 
1003	 0,167330777623732 
1004	 0,16358639029131 
1005	 0,16321703805528 
1006	 0,16759234896715 
1007	 0,169087676566234 
1008	 0,168216403045853 
1009	 0,168442246227134 
1010	 0,168096434913826 
1011	 0,168103056287097 
1012	 0,173311365494939 
1013	 0,173654297431463 
1014	 0,167093152980512 
1015	 0,167920926566772 
1016	 0,169848413312564 
1017	 0,167684245292882 
1018	 0,170723551052222 
1019	 0,174184724132765 
1020	 0,169588316215925 
1021	 0,167328713280333 
1022	 0,169234922862683 
1023	 0,173034164754928 
1024	 0,1761155489317 
1025	 0,176542932921437 
1026	 0,171565352421711 
1027	 0,168450747250086 
1028	 0,171182945966348 
1029	 0,170900030203645 
1030	 0,169337456952296 
1031	 0,169480824211477 
1032	 0,169102453038552 
1033	 0,168904891234002 
1034	 0,171016085064361 
1035	 0,172337657322612 
1036	 0,173398503689063 
1037	 0,180334895758899 
1038	 0,181007357562808 
1039	 0,172261365784924 
1040	 0,168812506811703 
1041	 0,169651366637317 
1042	 0,172519387561573 
1043	 0,171627784551431 
1044	 0,171097587580949 
1045	 0,177281377569803 
1046	 0,178054520794583 
1047	 0,174697965199068 
1048	 0,176267401686049 
1049	 0,181295244339282 
1050	 0,185998121399452 
1051	 0,177084320342607 
1052	 0,175203673233595 
1053	 0,186918574458109 
1054	 0,187035927279669 
1055	 0,178471499564414 
1056	 0,166817719552985 
1057	 0,164229595580309 
1058	 0,171257114967391 
1059	 0,184531592038873 
1060	 0,188126412299575 
1061	 0,183649489745731 
1062	 0,183188713066091 
1063	 0,188415385068374 
1064	 0,194413704050194 
1065	 0,180477457647536 
1066	 0,168903838380449 
1067	 0,171810194754857 
1068	 0,188801636618445 
1069	 0,200635953574766 
1070	 0,194203811390635 
1071	 0,183551002001056 
1072	 0,174047919423162 
1073	 0,169963466985214 
1074	 0,177856804198257 
1075	 0,187453858369392 
