Wavelength	GRA-VIE00349.asd
325	 0,217062596718368 
326	 0,217314940553723 
327	 0,254224815874174 
328	 0,292225542858684 
329	 0,205191709792342 
330	 9,21083313901196E-02 
331	 0,100566446645345 
332	 0,137274727764364 
333	 0,176595593063325 
334	 9,41961851418528E-02 
335	 0,144575154135072 
336	 0,290800991938087 
337	 0,222620684497759 
338	 0,15192875933522 
339	 0,216317209276567 
340	 0,191141293122769 
341	 0,105825121278202 
342	 0,158246574584871 
343	 0,197566904628473 
344	 0,185388530087697 
345	 0,149357345688238 
346	 0,111667997597866 
347	 0,101516337933889 
348	 9,90365935852198E-02 
349	 0,103551454576786 
350	 0,129174131608474 
351	 0,122361649873903 
352	 7,83843812909547E-02 
353	 8,47505671159885E-02 
354	 0,121956230996727 
355	 0,157255509299385 
356	 0,15585209881904 
357	 0,121797815256155 
358	 8,34229444966124E-02 
359	 8,07034249731224E-02 
360	 0,123156157838677 
361	 0,123319734209646 
362	 0,103263074239216 
363	 0,10701084761889 
364	 0,119856818339762 
365	 0,130155451591592 
366	 0,103612468337564 
367	 0,093806509827031 
368	 0,126903605289383 
369	 0,119569891401565 
370	 9,65023261519649E-02 
371	 0,116890014138311 
372	 0,132370890484684 
373	 0,129596083302098 
374	 0,115835304083533 
375	 9,81059870928655E-02 
376	 0,082110183086377 
377	 7,92979366485912E-02 
378	 8,79383091541857E-02 
379	 0,100709123818289 
380	 9,94534810789924E-02 
381	 8,39097334384658E-02 
382	 7,78457099352454E-02 
383	 7,94612873912438E-02 
384	 8,60264381604902E-02 
385	 0,103051673329509 
386	 0,11947306164912 
387	 0,111332603241055 
388	 9,90717736638216E-02 
389	 9,34575775170691E-02 
390	 0,101250995583459 
391	 0,108792625987894 
392	 9,97352120144145E-02 
393	 8,29324405124807E-02 
394	 6,80872627031284E-02 
395	 7,80943136938241E-02 
396	 9,24695652717156E-02 
397	 0,100611185622386 
398	 0,102750969777215 
399	 9,46448130643384E-02 
400	 6,88977444990583E-02 
401	 6,62660985877604E-02 
402	 8,57726934115623E-02 
403	 7,96574385018776E-02 
404	 7,80179016855805E-02 
405	 9,80479302598922E-02 
406	 9,07358382817905E-02 
407	 7,12476647240133E-02 
408	 8,45833058247595E-02 
409	 9,48063294699059E-02 
410	 9,28722466807383E-02 
411	 8,58827003037811E-02 
412	 8,02060599313915E-02 
413	 8,09305648068292E-02 
414	 7,97641605301461E-02 
415	 0,077775653509439 
416	 8,26170371235853E-02 
417	 8,36036810316129E-02 
418	 7,84770779308052E-02 
419	 0,080321487699506 
420	 8,60458795043904E-02 
421	 0,090526023614908 
422	 8,56961680748727E-02 
423	 0,075150020581993 
424	 0,076135187170674 
425	 7,82601394221726E-02 
426	 7,58405627850072E-02 
427	 7,73997045454218E-02 
428	 8,08043551127337E-02 
429	 8,03733208158618E-02 
430	 8,23570354771449E-02 
431	 8,67499608981159E-02 
432	 8,59236088810634E-02 
433	 8,33764068035466E-02 
434	 8,25727671252241E-02 
435	 8,50294352081748E-02 
436	 8,75677562436107E-02 
437	 8,09063832794858E-02 
438	 7,66259201084467E-02 
439	 7,92750995330064E-02 
440	 8,47912656027915E-02 
441	 8,83154085906837E-02 
442	 8,46752234261966E-02 
443	 8,11931769042832E-02 
444	 7,99896139620902E-02 
445	 0,081066287744265 
446	 8,31026549863299E-02 
447	 8,48147731984028E-02 
448	 8,31163825732898E-02 
449	 8,05057049763492E-02 
450	 8,25111297820011E-02 
451	 8,29622557106966E-02 
452	 8,10700883845935E-02 
453	 8,18855010936569E-02 
454	 8,50420775290735E-02 
455	 8,95474968777174E-02 
456	 8,83712243907009E-02 
457	 8,36178796594391E-02 
458	 8,46100196699326E-02 
459	 8,54934056570942E-02 
460	 8,40792608841655E-02 
461	 8,25524786310188E-02 
462	 8,12488468610232E-02 
463	 8,03151351890094E-02 
464	 8,15782688274886E-02 
465	 8,45556826490429E-02 
466	 8,64991416863136E-02 
467	 8,59679468687613E-02 
468	 8,27315061613873E-02 
469	 8,38473682667705E-02 
470	 8,70244777668561E-02 
471	 8,55756950917713E-02 
472	 8,53508238537876E-02 
473	 8,71406331062726E-02 
474	 8,55089341999548E-02 
475	 8,37362098070707E-02 
476	 0,085187671096365 
477	 8,66476351229292E-02 
478	 8,70986393859388E-02 
479	 8,55284081046186E-02 
480	 8,45814680542179E-02 
481	 8,50763217837049E-02 
482	 8,28506812186462E-02 
483	 8,05065313631718E-02 
484	 8,24765105937268E-02 
485	 8,49653701042041E-02 
486	 8,62424188428904E-02 
487	 8,39346144493629E-02 
488	 8,23310331498523E-02 
489	 8,44506977331275E-02 
490	 8,59857810512038E-02 
491	 8,57938951822797E-02 
492	 8,27644416183922E-02 
493	 8,04327072970075E-02 
494	 0,08020910568298 
495	 8,15885773102415E-02 
496	 8,22446332827146E-02 
497	 7,97491480064207E-02 
498	 8,09819424767018E-02 
499	 8,44137818525795E-02 
500	 0,080121626427662 
501	 7,73890437332286E-02 
502	 8,09021970175145E-02 
503	 8,28615493293209E-02 
504	 8,29488196794907E-02 
505	 8,24153553324416E-02 
506	 8,26226720479513E-02 
507	 8,35632252661802E-02 
508	 8,28199308525283E-02 
509	 8,21228832126289E-02 
510	 8,30380999576028E-02 
511	 8,34802069614475E-02 
512	 8,35736304240294E-02 
513	 8,47826570209502E-02 
514	 8,56171226758932E-02 
515	 0,085546501132034 
516	 8,56861686105743E-02 
517	 8,59104382163654E-02 
518	 8,58941524811489E-02 
519	 8,56568124173771E-02 
520	 0,085381782476892 
521	 8,57619995810021E-02 
522	 8,58600798384357E-02 
523	 8,50842681845188E-02 
524	 8,47354632619861E-02 
525	 8,49704551459547E-02 
526	 8,58028270138755E-02 
527	 8,58679150135833E-02 
528	 8,49746062277013E-02 
529	 8,51007410300736E-02 
530	 0,085450341786462 
531	 8,49605686362161E-02 
532	 8,44791736707827E-02 
533	 8,42845177763751E-02 
534	 8,45666408416114E-02 
535	 8,50456407114239E-02 
536	 8,55049488385245E-02 
537	 8,58806622660488E-02 
538	 8,57274062220895E-02 
539	 8,41019121531389E-02 
540	 8,38004645614597E-02 
541	 8,52278250399019E-02 
542	 8,57295299196741E-02 
543	 8,56580753694789E-02 
544	 8,55056863419026E-02 
545	 0,085382325787348 
546	 8,53849685993102E-02 
547	 8,56251403539534E-02 
548	 8,59539971241307E-02 
549	 8,61723820887255E-02 
550	 8,55541596739391E-02 
551	 8,46650417190061E-02 
552	 8,44552885624172E-02 
553	 8,48476177433068E-02 
554	 8,55607163844049E-02 
555	 8,55849877963888E-02 
556	 8,53284598672285E-02 
557	 8,52221880553459E-02 
558	 8,61670373583565E-02 
559	 8,72744024886499E-02 
560	 8,58333511505901E-02 
561	 8,48349256549451E-02 
562	 8,53261769700837E-02 
563	 8,56185210018595E-02 
564	 8,55240113135323E-02 
565	 8,50060820410279E-02 
566	 8,46188630788142E-02 
567	 0,084661767168864 
568	 8,56233066132688E-02 
569	 8,62713598776078E-02 
570	 8,58274597316624E-02 
571	 8,56677525098469E-02 
572	 8,61182671987628E-02 
573	 8,75114157956598E-02 
574	 8,80747112429231E-02 
575	 8,75683029866557E-02 
576	 8,86056342093235E-02 
577	 8,97258224589985E-02 
578	 8,91649703030686E-02 
579	 9,04203162347905E-02 
580	 9,30030195949738E-02 
581	 9,29218649701756E-02 
582	 0,092524947527664 
583	 9,31065830841403E-02 
584	 9,37283989057798E-02 
585	 0,094112846766531 
586	 9,38814493010448E-02 
587	 9,45590891217493E-02 
588	 9,62159987046858E-02 
589	 9,69411639824558E-02 
590	 0,097273724636439 
591	 9,77713866570236E-02 
592	 9,77814294744293E-02 
593	 9,74847523879677E-02 
594	 9,76079553877412E-02 
595	 9,79141786555791E-02 
596	 0,098338354570026 
597	 9,92461573184383E-02 
598	 9,97831497973657E-02 
599	 0,098636355608891 
600	 9,80309603551092E-02 
601	 9,83546814305334E-02 
602	 9,84207837409737E-02 
603	 9,82375742935984E-02 
604	 9,78379131506617E-02 
605	 9,74033878205935E-02 
606	 9,69998277232971E-02 
607	 9,67416424393994E-02 
608	 0,096137938512261 
609	 9,51301787152939E-02 
610	 9,44338833002713E-02 
611	 9,42959208820398E-02 
612	 9,49170378683328E-02 
613	 9,48754194393751E-02 
614	 9,40989491882074E-02 
615	 9,36387116471393E-02 
616	 9,34368018451724E-02 
617	 0,093433714346119 
618	 9,32925557061014E-02 
619	 9,31336542274528E-02 
620	 9,32726212968925E-02 
621	 9,37763605557801E-02 
622	 9,44145299525021E-02 
623	 9,41144688720347E-02 
624	 9,33037679286882E-02 
625	 0,092543579778885 
626	 9,29796940273444E-02 
627	 9,42232092937174E-02 
628	 9,44199793079398E-02 
629	 9,43874037983421E-02 
630	 9,45006749710596E-02 
631	 9,43684292435325E-02 
632	 9,44084974873704E-02 
633	 9,53617131300656E-02 
634	 9,59288924060033E-02 
635	 9,59569223592133E-02 
636	 9,64613716079011E-02 
637	 9,74173300137588E-02 
638	 0,098666349809528 
639	 9,86824139237323E-02 
640	 9,80861147651033E-02 
641	 9,92076391910105E-02 
642	 0,100207353357799 
643	 0,100420348386305 
644	 0,1005494780374 
645	 0,100876317209725 
646	 0,101682540730325 
647	 0,101873113589517 
648	 0,101315843553065 
649	 0,100551474401639 
650	 0,10009957192747 
651	 0,100215792482895 
652	 9,97407254216813E-02 
653	 9,88385154848672E-02 
654	 9,82175282230852E-02 
655	 9,74680268526533E-02 
656	 9,65891611384055E-02 
657	 9,61725894275592E-02 
658	 9,57238764195418E-02 
659	 9,47093336956788E-02 
660	 9,34670458157004E-02 
661	 9,21908232823969E-02 
662	 9,11995125897324E-02 
663	 9,01101967266381E-02 
664	 8,88426432395324E-02 
665	 8,82120804349985E-02 
666	 8,79773021171118E-02 
667	 0,087636816608101 
668	 8,69658196935736E-02 
669	 8,61446081133179E-02 
670	 8,61956522457438E-02 
671	 8,64354288884845E-02 
672	 8,63013431922864E-02 
673	 8,62054748871944E-02 
674	 8,61360728244404E-02 
675	 8,58782133755206E-02 
676	 0,085809033390594 
677	 8,59862983128389E-02 
678	 8,58216328446527E-02 
679	 8,57521970764826E-02 
680	 8,63351210012766E-02 
681	 0,08638662726127 
682	 8,59894069326111E-02 
683	 8,62379473722753E-02 
684	 8,70069944206294E-02 
685	 8,81509453752977E-02 
686	 8,90289673066609E-02 
687	 8,98640532445814E-02 
688	 9,11278321914892E-02 
689	 9,34845728526412E-02 
690	 0,096756599530675 
691	 9,91003283236497E-02 
692	 0,101746460679163 
693	 0,105864217704743 
694	 0,110951385492277 
695	 0,116854423157098 
696	 0,123313157463654 
697	 0,130971585270228 
698	 0,139892932415275 
699	 0,148797600550316 
700	 0,158234292395722 
701	 0,169045183596374 
702	 0,17987579386683 
703	 0,190631374480668 
704	 0,202309830067141 
705	 0,214191046277315 
706	 0,225722055820604 
707	 0,236638533116285 
708	 0,247125686200606 
709	 0,257599582880642 
710	 0,267674290831517 
711	 0,277292478344898 
712	 0,286795671552041 
713	 0,295645795989155 
714	 0,303390834896099 
715	 0,310553684295536 
716	 0,317436491416182 
717	 0,324559522592613 
718	 0,331009073887728 
719	 0,336550331027102 
720	 0,342295531097022 
721	 0,347597805502363 
722	 0,351551257843091 
723	 0,355663606234442 
724	 0,359952883620822 
725	 0,363128699651084 
726	 0,366135808230646 
727	 0,36948277460064 
728	 0,372244219573792 
729	 0,37454959340663 
730	 0,376863860878796 
731	 0,378745408362826 
732	 0,380246073550555 
733	 0,382035826308866 
734	 0,384019418496476 
735	 0,386035226239671 
736	 0,387454024285471 
737	 0,38837698972466 
738	 0,389334350095301 
739	 0,390318566459602 
740	 0,391357071828815 
741	 0,392436136212856 
742	 0,393403295350119 
743	 0,394098134285685 
744	 0,395147498711265 
745	 0,396435138753875 
746	 0,397138134993568 
747	 0,397830682258979 
748	 0,398763923240116 
749	 0,399415217666462 
750	 0,39992876614221 
751	 0,400615762670255 
752	 0,401221599215603 
753	 0,401683608014089 
754	 0,402022757071529 
755	 0,402350584803302 
756	 0,402776795872001 
757	 0,403505638806938 
758	 0,404310876996814 
759	 0,404659203684389 
760	 0,405193611803231 
761	 0,405967272548886 
762	 0,406206844654769 
763	 0,406325621909226 
764	 0,406748671862671 
765	 0,40740700686737 
766	 0,40800047527002 
767	 0,407773645687281 
768	 0,407551985695403 
769	 0,407728724109464 
770	 0,408354429336226 
771	 0,409171803988114 
772	 0,409861060882199 
773	 0,409943990191845 
774	 0,409645409027083 
775	 0,409985328137346 
776	 0,410458647012983 
777	 0,410782843421246 
778	 0,41084516740006 
779	 0,410989151185647 
780	 0,411734493427177 
781	 0,412271538732417 
782	 0,412426163822554 
783	 0,412385355423695 
784	 0,412618802501482 
785	 0,413329607646651 
786	 0,413380318572316 
787	 0,413122612559863 
788	 0,41346706236756 
789	 0,413858702057671 
790	 0,414179390021056 
791	 0,41463819698896 
792	 0,415034411503967 
793	 0,415225992873653 
794	 0,415585701819819 
795	 0,415894763698472 
796	 0,415499235780359 
797	 0,415498310730272 
798	 0,416118845605102 
799	 0,4164660372895 
800	 0,41671243571392 
801	 0,417048756261559 
802	 0,417243618657212 
803	 0,41737127617197 
804	 0,41774884481263 
805	 0,417934250276364 
806	 0,417890841001276 
807	 0,41836113531377 
808	 0,418867508362979 
809	 0,418882037980876 
810	 0,419338894826382 
811	 0,420124734273847 
812	 0,420422517679535 
813	 0,420498315992861 
814	 0,420481542768192 
815	 0,420465087279004 
816	 0,420640616639486 
817	 0,421202379282373 
818	 0,42186165900036 
819	 0,42239960292484 
820	 0,422405358957397 
821	 0,422524349543109 
822	 0,422963712473484 
823	 0,422824949942476 
824	 0,422652954245127 
825	 0,42323797799227 
826	 0,423845111702013 
827	 0,424148927581281 
828	 0,423706596332317 
829	 0,423414785685458 
830	 0,423711906816177 
831	 0,423951717555078 
832	 0,424207141178055 
833	 0,424668303042823 
834	 0,4248147452548 
835	 0,424629430512107 
836	 0,424482952748473 
837	 0,424467660204574 
838	 0,424657993353888 
839	 0,425094916459519 
840	 0,425487021986585 
841	 0,425437561550441 
842	 0,425536167441981 
843	 0,425968418411847 
844	 0,426949405512427 
845	 0,427147942704836 
846	 0,426138563219664 
847	 0,426582722030829 
848	 0,427517519653776 
849	 0,427176959368473 
850	 0,427161122605796 
851	 0,427689984368068 
852	 0,428234457146124 
853	 0,428363033173255 
854	 0,427953752528118 
855	 0,428009404522602 
856	 0,428359407802102 
857	 0,42860487959895 
858	 0,428425373020505 
859	 0,42808142882407 
860	 0,428732192354814 
861	 0,429184730283356 
862	 0,428978226279952 
863	 0,429467882639879 
864	 0,43030822230918 
865	 0,430861702692728 
866	 0,430845422201059 
867	 0,430575619365991 
868	 0,431303738704782 
869	 0,431763016126227 
870	 0,431463458278511 
871	 0,431434425449284 
872	 0,431470678803611 
873	 0,431233534991973 
874	 0,431419946796962 
875	 0,431968771871211 
876	 0,432315540906804 
877	 0,432363152961329 
878	 0,432175680955821 
879	 0,432460445433357 
880	 0,432912091049236 
881	 0,433135248985271 
882	 0,433162524542372 
883	 0,433098792032388 
884	 0,433251967845933 
885	 0,433144823230629 
886	 0,432802216632756 
887	 0,433302037005012 
888	 0,433661255113057 
889	 0,433013556547705 
890	 0,433095794433349 
891	 0,433872072183153 
892	 0,434613024442873 
893	 0,434931471246809 
894	 0,434741370738804 
895	 0,434473542958634 
896	 0,43431092189123 
897	 0,434419232602253 
898	 0,435060781688102 
899	 0,435673993420786 
900	 0,435203687558928 
901	 0,435161511334892 
902	 0,435701449844322 
903	 0,435565528145556 
904	 0,435780378462399 
905	 0,436792576287431 
906	 0,436941581715602 
907	 0,436467578158734 
908	 0,436018066687611 
909	 0,436312623591337 
910	 0,437117362482926 
911	 0,437129420683824 
912	 0,436644984276287 
913	 0,435953176992751 
914	 0,435867644111058 
915	 0,436200650226743 
916	 0,436609786155072 
917	 0,436440007250127 
918	 0,435914394845584 
919	 0,436054165693369 
920	 0,435581174485362 
921	 0,434523996941943 
922	 0,435181573795113 
923	 0,435845726641715 
924	 0,435106553646695 
925	 0,434526025841728 
926	 0,434227451608942 
927	 0,433994337713228 
928	 0,433431445210385 
929	 0,432668677731336 
930	 0,432749894497524 
931	 0,432312093903341 
932	 0,430790477244599 
933	 0,430135603083055 
934	 0,430106921082761 
935	 0,430086426608274 
936	 0,429728562670861 
937	 0,428934822861621 
938	 0,427601375879305 
939	 0,427229207874084 
940	 0,427745427536143 
941	 0,425464103711377 
942	 0,423179501330374 
943	 0,423390669628801 
944	 0,423504512590661 
945	 0,422807260169307 
946	 0,420841302528721 
947	 0,418643329311667 
948	 0,416731386428229 
949	 0,415743112064393 
950	 0,414116785702127 
951	 0,411321053321126 
952	 0,410147989681669 
953	 0,409612250314769 
954	 0,408189678557578 
955	 0,406304221137996 
956	 0,404651652608427 
957	 0,404878463061577 
958	 0,404588960572723 
959	 0,403138561487986 
960	 0,401868502130506 
961	 0,400698068728078 
962	 0,399552013122636 
963	 0,398513601815675 
964	 0,397623384572434 
965	 0,39691435721748 
966	 0,397400041989989 
967	 0,398362833752234 
968	 0,396807336712138 
969	 0,39569401111471 
970	 0,396232257538827 
971	 0,397366562177168 
972	 0,398459006362663 
973	 0,398807887220798 
974	 0,396969644721342 
975	 0,394615146360874 
976	 0,395051241362289 
977	 0,396132756811007 
978	 0,396967989327245 
979	 0,396398394060038 
980	 0,397360396545484 
981	 0,40038097100377 
982	 0,399541345407762 
983	 0,397436901840568 
984	 0,397226100792802 
985	 0,398259007877177 
986	 0,399722839306965 
987	 0,400151123685001 
988	 0,401118636302151 
989	 0,402933889580361 
990	 0,405099667143109 
991	 0,406929637391811 
992	 0,407890810995182 
993	 0,407378031837803 
994	 0,407041359911025 
995	 0,408375222660605 
996	 0,407493344930262 
997	 0,40610992680582 
998	 0,408808337266101 
999	 0,411737643933689 
1000	 0,413653894454723 
1001	 0,414739275425356 
1002	 0,414955638698058 
1003	 0,414762542965854 
1004	 0,416502458019212 
1005	 0,419152863239256 
1006	 0,421152956304355 
1007	 0,418407835325424 
1008	 0,414957551798215 
1009	 0,419002089274444 
1010	 0,421236156421351 
1011	 0,420628838789124 
1012	 0,422710832177382 
1013	 0,42357224309717 
1014	 0,422663299350409 
1015	 0,426218340940086 
1016	 0,429744675253074 
1017	 0,429298739467362 
1018	 0,428122509728319 
1019	 0,428112739809622 
1020	 0,431248937398648 
1021	 0,433082173508829 
1022	 0,433365927133881 
1023	 0,43478548094563 
1024	 0,435685455621255 
1025	 0,43577442774892 
1026	 0,435725573346774 
1027	 0,438323093275534 
1028	 0,443876234622538 
1029	 0,441470296083077 
1030	 0,438700988035957 
1031	 0,444941415439172 
1032	 0,445160420578167 
1033	 0,440215427863294 
1034	 0,437807163521978 
1035	 0,437411930412749 
1036	 0,438889668425204 
1037	 0,441379150521589 
1038	 0,444651766381442 
1039	 0,447264160114979 
1040	 0,443513696638739 
1041	 0,441939637858423 
1042	 0,448611008048954 
1043	 0,449458272585346 
1044	 0,447665682848117 
1045	 0,449847721422691 
1046	 0,448168756083432 
1047	 0,444589996627787 
1048	 0,44756997043606 
1049	 0,446732955270282 
1050	 0,442797168908933 
1051	 0,451087115771175 
1052	 0,460678138186215 
1053	 0,464419867695178 
1054	 0,455756360602832 
1055	 0,448728782904369 
1056	 0,454794487082053 
1057	 0,458674903804842 
1058	 0,458116150495008 
1059	 0,453519053743621 
1060	 0,454983793920923 
1061	 0,458341869883192 
1062	 0,449275960839692 
1063	 0,444150666416681 
1064	 0,448559504013919 
1065	 0,463257919035895 
1066	 0,471000170077669 
1067	 0,466835414504487 
1068	 0,469667428728745 
1069	 0,46795758264405 
1070	 0,454794476578752 
1071	 0,451144465281086 
1072	 0,450434529607133 
1073	 0,443298204625988 
1074	 0,454000944241636 
1075	 0,470596471693984 
