Wavelength	GRA-VAN00144.asd
325	 0,304352815061978 
326	 6,23171413230476E-02 
327	 4,44999649207599E-02 
328	 0,329339995649448 
329	 0,192452311603636 
330	-4,40469257009735E-02 
331	 0,129675131903685 
332	 0,204642901031135 
333	 0,188020644195746 
334	-1,87681195027271E-02 
335	-9,94627886088912E-02 
336	 4,01417003231833E-02 
337	 9,31958488410146E-02 
338	 5,97862181946986E-02 
339	-0,070913750616067 
340	-0,026235293486675 
341	 0,10355276607245 
342	 9,68098691998152E-02 
343	 0,100780198146484 
344	 0,1319958559971 
345	 8,44597341894333E-02 
346	 3,48853094666466E-02 
347	 7,44190076479452E-02 
348	 3,72002027513645E-02 
349	-4,08124121770095E-02 
350	 3,30549261701029E-02 
351	 0,113029265328617 
352	 0,130677506324058 
353	 0,111833383770629 
354	 6,93322014003747E-02 
355	 1,81208470847919E-02 
356	 3,01213564980329E-02 
357	 7,73464414472316E-02 
358	 4,83079716538276E-02 
359	 2,55135973744273E-02 
360	 0,04590706211866 
361	 4,96542824081488E-02 
362	 4,06822791707438E-02 
363	 2,96875868601966E-02 
364	 4,72781835556574E-02 
365	 8,20110321787688E-02 
366	 6,06568694601019E-02 
367	 4,00604527439681E-02 
368	 5,26229574080697E-02 
369	 6,57750457218059E-02 
370	 6,56934306569343E-02 
371	 3,19886435756158E-02 
372	 1,67648447092527E-02 
373	 3,22049415842781E-02 
374	 4,69859731385891E-02 
375	 5,51916244815809E-02 
376	 5,16860633437052E-02 
377	 4,91883178422053E-02 
378	 4,81857352260803E-02 
379	 4,50614798821965E-02 
380	 0,042701258586433 
381	 4,20732821675208E-02 
382	 4,45863243299378E-02 
383	 4,48660619142285E-02 
384	 3,84174976120803E-02 
385	 3,58029668234219E-02 
386	 3,19923625977169E-02 
387	 2,83838527102081E-03 
388	-6,56068211520306E-04 
389	 3,28086906880688E-02 
390	 0,029566131633346 
391	 1,65545915006629E-02 
392	 3,05191720475969E-02 
393	 0,041827117599458 
394	 4,32912659560596E-02 
395	 0,032326455704004 
396	 2,48577717003668E-02 
397	 2,92950568591361E-02 
398	 4,40217852987179E-02 
399	 5,15754827525813E-02 
400	 2,63673985403865E-02 
401	 2,52162858205117E-02 
402	 4,63132699005494E-02 
403	 2,78669260692416E-02 
404	 5,47609560592205E-03 
405	 5,45396981136216E-03 
406	 1,47012985169651E-02 
407	 2,54698980310187E-02 
408	 2,93296592001563E-02 
409	 2,87727870669926E-02 
410	 2,51729577491464E-02 
411	 2,06643028875269E-02 
412	 2,09733328530164E-02 
413	 3,01613937809744E-02 
414	 2,91105884255858E-02 
415	 1,96031874075872E-02 
416	 0,014070227344314 
417	 0,011895474218079 
418	 1,33914211064458E-02 
419	 1,90179218114751E-02 
420	 2,56676044143942E-02 
421	 3,01194978536916E-02 
422	 2,93501394966278E-02 
423	 2,45054414834106E-02 
424	 2,11606232745064E-02 
425	 2,05304932044166E-02 
426	 0,022810973359656 
427	 2,29086262193143E-02 
428	 2,17763008959436E-02 
429	 2,28946402934875E-02 
430	 1,95411035489503E-02 
431	 1,27786765579518E-02 
432	 1,55519499924552E-02 
433	 0,021917865935001 
434	 0,025835358356959 
435	 2,33421213222027E-02 
436	 1,71505402858856E-02 
437	 1,59252629079966E-02 
438	 1,66522790525026E-02 
439	 1,77204153413188E-02 
440	 1,61552158759882E-02 
441	 1,45586697769599E-02 
442	 1,65292672079392E-02 
443	 1,79673203499172E-02 
444	 1,86395822085428E-02 
445	 2,15553340768168E-02 
446	 2,31529740202333E-02 
447	 2,15147813169093E-02 
448	 2,04814785417274E-02 
449	 2,04673300188552E-02 
450	 2,10531219917741E-02 
451	 2,28747899551582E-02 
452	 2,50217556400042E-02 
453	 2,33691679898382E-02 
454	 1,99522187318635E-02 
455	 1,70707587186351E-02 
456	 0,018236192698591 
457	 2,13945499637257E-02 
458	 1,92416408720055E-02 
459	 1,74782525775139E-02 
460	 1,83211842339154E-02 
461	 1,94198110194504E-02 
462	 0,019631270587163 
463	 1,77384275423013E-02 
464	 1,81357446357985E-02 
465	 2,01980900336394E-02 
466	 1,67853622681189E-02 
467	 1,70839930740056E-02 
468	 2,55675700533312E-02 
469	 2,47361767123563E-02 
470	 0,01826317148134 
471	 0,018084035532386 
472	 1,99413381619983E-02 
473	 2,19040835939952E-02 
474	 0,020587760532635 
475	 1,88207264649583E-02 
476	 1,95840807852781E-02 
477	 2,17743444936755E-02 
478	 2,40108213510947E-02 
479	 2,34516109283693E-02 
480	 2,22406120869086E-02 
481	 2,15000371805827E-02 
482	 2,12808019981206E-02 
483	 2,11267438024276E-02 
484	 2,02795495440384E-02 
485	 2,07556513867383E-02 
486	 2,21816143602339E-02 
487	 2,11044224526012E-02 
488	 0,019873713096892 
489	 2,02183451055806E-02 
490	 2,02449388383315E-02 
491	 1,99801302933999E-02 
492	 2,01781484947295E-02 
493	 2,03521196193992E-02 
494	 2,04312263856577E-02 
495	 2,10751648609921E-02 
496	 2,13237228249952E-02 
497	 0,020106654678379 
498	 2,03107413445721E-02 
499	 2,17165426601339E-02 
500	 2,16713135528987E-02 
501	 2,09218713364035E-02 
502	 2,00571512583812E-02 
503	 2,02460143361664E-02 
504	 2,09400529881943E-02 
505	 2,09206738550277E-02 
506	 2,07367587550056E-02 
507	 2,07007260881784E-02 
508	 2,17913202366562E-02 
509	 0,021728374805233 
510	 1,87546081642492E-02 
511	 1,92522778656922E-02 
512	 2,20219021604341E-02 
513	 0,020503817895472 
514	 1,99369244627192E-02 
515	 2,21310612607865E-02 
516	 2,35600594181887E-02 
517	 2,40436979915479E-02 
518	 2,38622461376904E-02 
519	 2,36927631163956E-02 
520	 2,35635805126005E-02 
521	 2,27941647273191E-02 
522	 2,15511439887218E-02 
523	 2,01697378107793E-02 
524	 2,05403799408867E-02 
525	 2,20463441705059E-02 
526	 2,28671911386527E-02 
527	 2,27267286840686E-02 
528	 2,16365849440299E-02 
529	 2,06082372450888E-02 
530	 2,01085879586016E-02 
531	 2,05264089329517E-02 
532	 2,12013763996966E-02 
533	 0,021587136589382 
534	 2,04513721004191E-02 
535	 2,00230504043763E-02 
536	 2,14187485751141E-02 
537	 2,20416896835556E-02 
538	 2,20973742157312E-02 
539	 2,26609742015862E-02 
540	 2,30982263028222E-02 
541	 2,31029027341905E-02 
542	 0,022061393182579 
543	 2,13727803388211E-02 
544	 2,23328510935963E-02 
545	 2,26403989195455E-02 
546	 2,22323636228215E-02 
547	 2,23323770020433E-02 
548	 2,24785888786739E-02 
549	 2,24831845259361E-02 
550	 0,022564591021535 
551	 0,022597502161028 
552	 2,23656033290226E-02 
553	 2,19295789031696E-02 
554	 2,15200944257523E-02 
555	 2,18673029892293E-02 
556	 0,022454642434921 
557	 2,28172572792525E-02 
558	 2,29457373337206E-02 
559	 2,29601478897402E-02 
560	 2,33138775719794E-02 
561	 0,022941185730008 
562	 2,18142723167643E-02 
563	 2,25595716169619E-02 
564	 2,36344678183215E-02 
565	 2,27244072710402E-02 
566	 2,28173649852563E-02 
567	 2,39178061077809E-02 
568	 2,32666426182467E-02 
569	 2,24745649635848E-02 
570	 2,26526065402113E-02 
571	 2,29460823889549E-02 
572	 2,31674302313448E-02 
573	 2,31268892487671E-02 
574	 2,35660971336287E-02 
575	 2,45738649782839E-02 
576	 2,52239467059396E-02 
577	 2,53434303055593E-02 
578	 2,48388263520362E-02 
579	 0,024182690728678 
580	 2,37944784760325E-02 
581	 2,45016046506808E-02 
582	 2,51257455967726E-02 
583	 2,50234730290825E-02 
584	 2,49351949534124E-02 
585	 2,51404677788697E-02 
586	 2,59878095406153E-02 
587	 0,026445649577641 
588	 2,63812114752202E-02 
589	 2,69086842159835E-02 
590	 2,71621014946731E-02 
591	 2,63715643969675E-02 
592	 2,61864932713792E-02 
593	 2,64469631989677E-02 
594	 2,56247868166554E-02 
595	 2,54292825113317E-02 
596	 2,65160838600362E-02 
597	 0,027662791962857 
598	 2,81118673245168E-02 
599	 2,69661264413172E-02 
600	 2,60932679222477E-02 
601	 2,60178465559649E-02 
602	 2,63294376777552E-02 
603	 2,66920697490645E-02 
604	 0,026783599170431 
605	 2,61285426328952E-02 
606	 2,51503398984426E-02 
607	 2,50467564199251E-02 
608	 2,50536365907265E-02 
609	 2,48914892637061E-02 
610	 0,02461008447186 
611	 2,44026395062388E-02 
612	 2,44998317800231E-02 
613	 2,48539033051567E-02 
614	 2,51399031603463E-02 
615	 2,43670854568991E-02 
616	 2,35617072494691E-02 
617	 2,34347746423023E-02 
618	 2,39452526150139E-02 
619	 2,46028816656032E-02 
620	 2,45163897761459E-02 
621	 2,41316494219934E-02 
622	 2,36830654432382E-02 
623	 2,35436742127289E-02 
624	 2,35531718851115E-02 
625	 2,35301855993974E-02 
626	 2,38493133168617E-02 
627	 2,44362479043156E-02 
628	 2,49933253736138E-02 
629	 2,49784963202109E-02 
630	 2,42811393038868E-02 
631	 2,44173389404841E-02 
632	 2,48800537944292E-02 
633	 2,45257055282976E-02 
634	 2,44938143371012E-02 
635	 2,49830082243397E-02 
636	 2,54420231566759E-02 
637	 2,56481552432556E-02 
638	 2,54770544978756E-02 
639	 2,57255514076928E-02 
640	 2,62240488350307E-02 
641	 2,61477002800156E-02 
642	 0,026051031675267 
643	 2,61845739815954E-02 
644	 2,66752699853302E-02 
645	 0,027065153896371 
646	 0,026755137613 
647	 2,68348751959233E-02 
648	 0,027178044760093 
649	 0,026293802306361 
650	 2,55508572463338E-02 
651	 2,57691995313093E-02 
652	 2,53709031433653E-02 
653	 2,47591889078955E-02 
654	 2,53076822115428E-02 
655	 2,53525498016097E-02 
656	 2,44783380322903E-02 
657	 2,35781157943969E-02 
658	 2,29378739130099E-02 
659	 2,27793187476676E-02 
660	 2,26627445121677E-02 
661	 2,24728762749053E-02 
662	 2,22029286956378E-02 
663	 2,19877773141268E-02 
664	 2,18655899173769E-02 
665	 2,16131503768136E-02 
666	 2,11881526903681E-02 
667	 2,05524843279372E-02 
668	 2,01164087944743E-02 
669	 2,01133198771217E-02 
670	 2,09459479961568E-02 
671	 2,15461002065905E-02 
672	 2,11103290537685E-02 
673	 2,08421678558609E-02 
674	 2,09477430519829E-02 
675	 2,14699281640431E-02 
676	 2,15414149341781E-02 
677	 2,10416873210531E-02 
678	 2,13747496964017E-02 
679	 0,02203729448785 
680	 2,22938867564712E-02 
681	 2,17489491890018E-02 
682	 2,09707332577824E-02 
683	 2,20768316698588E-02 
684	 2,32946035432358E-02 
685	 2,35537847790722E-02 
686	 2,33294757965825E-02 
687	 2,32126579427561E-02 
688	 2,41611182133863E-02 
689	 2,47297651018243E-02 
690	 0,02474749342753 
691	 2,54401170948038E-02 
692	 2,66866975961593E-02 
693	 2,82972417779266E-02 
694	 2,97273407522466E-02 
695	 3,10612883084998E-02 
696	 3,27764216580792E-02 
697	 3,48635084570715E-02 
698	 3,73588415785256E-02 
699	 0,040273142454739 
700	 4,36492475477107E-02 
701	 0,047533232675876 
702	 5,14981361293133E-02 
703	 5,53722835779723E-02 
704	 5,89695643595623E-02 
705	 6,31712371921831E-02 
706	 6,83384280105219E-02 
707	 7,24771550910033E-02 
708	 7,61931647289222E-02 
709	 8,11736659139982E-02 
710	 8,58082646026012E-02 
711	 8,97866715991525E-02 
712	 9,40842717078529E-02 
713	 0,098354899025602 
714	 0,102254043836327 
715	 0,10613602921732 
716	 0,110072354634294 
717	 0,114108366176078 
718	 0,117860674893094 
719	 0,121122540499524 
720	 0,123722556646793 
721	 0,126288476219517 
722	 0,129624111992236 
723	 0,132441813046565 
724	 0,134716449583347 
725	 0,137503553824754 
726	 0,140023362802381 
727	 0,141886089769165 
728	 0,144092693233857 
729	 0,146340255410884 
730	 0,147853752898516 
731	 0,149189164902763 
732	 0,150514591435142 
733	 0,151713169919128 
734	 0,153027702945209 
735	 0,15462283391855 
736	 0,155754309150363 
737	 0,156590625827494 
738	 0,157910900074081 
739	 0,159172644547533 
740	 0,16015415883273 
741	 0,160882929025439 
742	 0,161388998959632 
743	 0,161716706624434 
744	 0,1622406871177 
745	 0,163005290143198 
746	 0,16381473929231 
747	 0,164691545271931 
748	 0,165553789847597 
749	 0,165860263118536 
750	 0,16593130096832 
751	 0,166347482761098 
752	 0,166792767274337 
753	 0,167203563577655 
754	 0,167640181311955 
755	 0,168088977932688 
756	 0,168527674337946 
757	 0,168833101607252 
758	 0,169117565363471 
759	 0,169670653476639 
760	 0,170023948125046 
761	 0,170097428091746 
762	 0,170282393522691 
763	 0,170599724723852 
764	 0,171026709626102 
765	 0,171167745173101 
766	 0,171165205045903 
767	 0,171591385692664 
768	 0,172050651498587 
769	 0,172393953868889 
770	 0,172717056829422 
771	 0,173059343037079 
772	 0,173452305020976 
773	 0,173506064704768 
774	 0,173343808788634 
775	 0,173585543080736 
776	 0,173947423740921 
777	 0,174281444949428 
778	 0,174667428194768 
779	 0,174896905321657 
780	 0,174665882396811 
781	 0,174640355328756 
782	 0,174923257295593 
783	 0,175188267466725 
784	 0,175299358426213 
785	 0,175188117287231 
786	 0,17507382627983 
787	 0,175148285692167 
788	 0,175678639101171 
789	 0,17620113973848 
790	 0,176625498305904 
791	 0,177434526819671 
792	 0,177533681229811 
793	 0,176253112496885 
794	 0,176177182151394 
795	 0,177044701091399 
796	 0,177366424330595 
797	 0,177332799562771 
798	 0,177037387480848 
799	 0,176850045490868 
800	 0,176903277537401 
801	 0,177275434442136 
802	 0,177628032948583 
803	 0,177840048805784 
804	 0,177806341674583 
805	 0,177739465914224 
806	 0,177767847291389 
807	 0,178077191141068 
808	 0,178267159980369 
809	 0,177947934758161 
810	 0,178314539770046 
811	 0,179128548441683 
812	 0,178992786380662 
813	 0,178966233581147 
814	 0,17941254004915 
815	 0,17971060475419 
816	 0,179811445939425 
817	 0,179734001356145 
818	 0,179973272841883 
819	 0,180401390534753 
820	 0,180241741538877 
821	 0,180203198831244 
822	 0,180606700317662 
823	 0,181161895997512 
824	 0,181622976406405 
825	 0,181727249740015 
826	 0,182002126603554 
827	 0,182326675053718 
828	 0,181835480279425 
829	 0,181654712003329 
830	 0,182236359917813 
831	 0,182324610873742 
832	 0,182083591629348 
833	 0,181925974172685 
834	 0,182183516912559 
835	 0,18272843134852 
836	 0,182825617619501 
837	 0,182911232440873 
838	 0,183137642022643 
839	 0,182810359188089 
840	 0,182514373763587 
841	 0,183151287308609 
842	 0,183292317501301 
843	 0,182844829178018 
844	 0,182734625880777 
845	 0,182834492098915 
846	 0,183069690655476 
847	 0,183365013030486 
848	 0,183497315489018 
849	 0,183189294329971 
850	 0,183085449686678 
851	 0,183227549870747 
852	 0,183061657860023 
853	 0,183369938554206 
854	 0,184323319704099 
855	 0,184124653357318 
856	 0,18325014110358 
857	 0,182637329757873 
858	 0,182723054442661 
859	 0,183336408515815 
860	 0,18349011042455 
861	 0,183511038488961 
862	 0,183565010821346 
863	 0,183726707552771 
864	 0,183706938438003 
865	 0,183140600188231 
866	 0,182979588409818 
867	 0,183286344350285 
868	 0,183463517867862 
869	 0,183759258124728 
870	 0,184242143709909 
871	 0,184831480874778 
872	 0,184845572492008 
873	 0,18357512064885 
874	 0,183631640454514 
875	 0,184775065078248 
876	 0,184525412546027 
877	 0,184279924759626 
878	 0,184537865232887 
879	 0,18478201728249 
880	 0,184828892726665 
881	 0,184549910131126 
882	 0,18458523159254 
883	 0,184738749871027 
884	 0,183915832903559 
885	 0,184349783728539 
886	 0,186262428878685 
887	 0,18634757450276 
888	 0,185863358622326 
889	 0,186119006401224 
890	 0,185835451647795 
891	 0,185426174137441 
892	 0,186291666891103 
893	 0,186537124239144 
894	 0,185943416331014 
895	 0,186528836547479 
896	 0,187077450315666 
897	 0,186713374443842 
898	 0,187170347390819 
899	 0,187673424567985 
900	 0,186356051784674 
901	 0,18602022731824 
902	 0,186959082445471 
903	 0,186987789271603 
904	 0,187014712887154 
905	 0,187513713749468 
906	 0,187624925242917 
907	 0,18742783390868 
908	 0,187185482529284 
909	 0,187038087988376 
910	 0,186967630511213 
911	 0,186720837265039 
912	 0,186600731915691 
913	 0,186751164552096 
914	 0,187172739665706 
915	 0,187256548071311 
916	 0,186416739361547 
917	 0,186202345516743 
918	 0,186694372470834 
919	 0,187298811636744 
920	 0,187568766604471 
921	 0,187346909166888 
922	 0,187041211857333 
923	 0,186415943052209 
924	 0,185410828159949 
925	 0,185560255145314 
926	 0,186048052834077 
927	 0,184971755437511 
928	 0,184184943529734 
929	 0,184064431337883 
930	 0,183879289516995 
931	 0,183920671289104 
932	 0,184253562836961 
933	 0,18429837902729 
934	 0,183847046099944 
935	 0,182762861138295 
936	 0,181713948184595 
937	 0,180879080484319 
938	 0,180057160253155 
939	 0,1802651007835 
940	 0,181298936894142 
941	 0,180092339269177 
942	 0,178825568072104 
943	 0,179310706301972 
944	 0,177747616646967 
945	 0,175492573344988 
946	 0,176194912505908 
947	 0,175486771909133 
948	 0,173204878151608 
949	 0,173552476015571 
950	 0,173932050495379 
951	 0,172909596633803 
952	 0,171677686406641 
953	 0,170284488927941 
954	 0,168727358435867 
955	 0,168974082711993 
956	 0,170038440393321 
957	 0,168263086798721 
958	 0,166976623490085 
959	 0,167011118920867 
960	 0,16662994412494 
961	 0,166036906597798 
962	 0,165469903928349 
963	 0,165274544863315 
964	 0,165125733702242 
965	 0,164461854281544 
966	 0,164053528187342 
967	 0,16382330888193 
968	 0,162825838973233 
969	 0,162201385257264 
970	 0,162611401675744 
971	 0,164897007863673 
972	 0,165885858601529 
973	 0,16313543552677 
974	 0,162896381247038 
975	 0,163927015571973 
976	 0,162059947147728 
977	 0,160981893804526 
978	 0,161560652819935 
979	 0,163256272013014 
980	 0,16435549315807 
981	 0,164104782059718 
982	 0,164007739908518 
983	 0,163742323484256 
984	 0,163010445012084 
985	 0,16374080109242 
986	 0,164986241481113 
987	 0,164205913180047 
988	 0,164189756537104 
989	 0,165527761611946 
990	 0,167600770325741 
991	 0,167592948476253 
992	 0,165117683670498 
993	 0,167812078463615 
994	 0,169920558472702 
995	 0,165629355196408 
996	 0,166152057833206 
997	 0,170466791345266 
998	 0,172536012739134 
999	 0,174045771999326 
1000	 0,174479327337284 
1001	 0,170712071036099 
1002	 0,169100653725753 
1003	 0,171934049887956 
1004	 0,17191796729985 
1005	 0,170591461968215 
1006	 0,170010029066237 
1007	 0,169175576437892 
1008	 0,169099973872968 
1009	 0,17171204996363 
1010	 0,172925069185511 
1011	 0,172029276723904 
1012	 0,170519330447697 
1013	 0,170772818334497 
1014	 0,173109663618365 
1015	 0,172166115908371 
1016	 0,173351947808996 
1017	 0,180230459876617 
1018	 0,180909598023609 
1019	 0,177767227408133 
1020	 0,177112388972661 
1021	 0,175592186244107 
1022	 0,173568925652801 
1023	 0,173137548862255 
1024	 0,177573914087115 
1025	 0,185117220487112 
1026	 0,18368912613536 
1027	 0,180550608813524 
1028	 0,180974115174013 
1029	 0,183933186321435 
1030	 0,186485391108329 
1031	 0,185531626531695 
1032	 0,186437886148832 
1033	 0,187976509247804 
1034	 0,185670141402456 
1035	 0,18177601969475 
1036	 0,179734142767859 
1037	 0,18951941463507 
1038	 0,193024653074507 
1039	 0,184854740714199 
1040	 0,184052349267198 
1041	 0,185493913022761 
1042	 0,184306892745889 
1043	 0,183557955821836 
1044	 0,183742432572765 
1045	 0,184927267280662 
1046	 0,184018514778875 
1047	 0,183126443726082 
1048	 0,188292491136811 
1049	 0,198838876356371 
1050	 0,208890276145711 
1051	 0,199288321753801 
1052	 0,192710012614384 
1053	 0,198677856665164 
1054	 0,195755272723975 
1055	 0,193334394447274 
1056	 0,198635394825764 
1057	 0,191791608500831 
1058	 0,184274574797283 
1059	 0,195245652218771 
1060	 0,198934341384229 
1061	 0,194216831767082 
1062	 0,191277814234095 
1063	 0,189174692965288 
1064	 0,187275093993036 
1065	 0,182919213449903 
1066	 0,180147945853639 
1067	 0,18170595612442 
1068	 0,191130061038055 
1069	 0,194704334059998 
1070	 0,18534089144753 
1071	 0,193247743335892 
1072	 0,203453114792588 
1073	 0,194866413156205 
1074	 0,192948402090996 
1075	 0,196059561662163 
