Wavelength	GRA-VAN00205.asd
325	 0,281089487113674 
326	 7,33261011699303E-02 
327	-1,08784621261138E-02 
328	 0,182182569640824 
329	 0,114036058802646 
330	 0,014626840835344 
331	 0,161449022184853 
332	 0,216974070805358 
333	 0,196973798598043 
334	-7,78831507051251E-04 
335	 2,55726179553042E-02 
336	 0,287719843290417 
337	 0,247444352615552 
338	 0,101502080996517 
339	 2,01084277969443E-04 
340	 0,110476061076836 
341	 0,258176827528313 
342	 0,143696656810118 
343	 2,83930477162556E-02 
344	 2,86394777499937E-02 
345	 4,92764281395735E-02 
346	 0,100435145707881 
347	 0,172114691704758 
348	 0,107994559437334 
349	-3,76518269266853E-02 
350	-2,39140330508345E-02 
351	 2,09025949250821E-02 
352	 3,73676940487285E-02 
353	 4,29177697342868E-02 
354	 0,046506281600231 
355	 0,055517739571 
356	 0,054477760844239 
357	 4,47399183928383E-02 
358	 3,58092007871841E-02 
359	 2,72520383879384E-02 
360	 2,33344140252687E-02 
361	 4,02020087901311E-02 
362	 5,83520430432686E-02 
363	 4,96103328749455E-02 
364	 4,27359550247844E-02 
365	 4,14473834700314E-02 
366	 2,87328026165538E-02 
367	 2,90913065548978E-02 
368	 5,27898190009569E-02 
369	 6,66839942250341E-02 
370	 5,86143519856921E-02 
371	 9,34055543898642E-03 
372	-3,59045769769891E-03 
373	 2,87515330888069E-02 
374	 2,93697561683988E-02 
375	 2,67943591424738E-02 
376	 4,10814404715479E-02 
377	 3,63244237535042E-02 
378	 1,83671843382101E-02 
379	 1,15707912083899E-02 
380	 9,07390178617994E-03 
381	 1,27432147136581E-02 
382	 4,36827087934803E-02 
383	 0,057727451288347 
384	 0,019448205404769 
385	 1,92420551464468E-02 
386	 4,69055103885645E-02 
387	 3,35285803698756E-02 
388	 2,22227814705645E-02 
389	 2,82658920715941E-02 
390	 2,96794267139442E-02 
391	 2,84819909736398E-02 
392	 2,88904838377949E-02 
393	 2,35554123226316E-02 
394	 1,65484061450297E-02 
395	 2,44088502968588E-02 
396	 2,97471332767796E-02 
397	 2,55630904261815E-02 
398	 3,03426897896162E-02 
399	 3,64522720881449E-02 
400	 2,99567372811355E-02 
401	 2,63855669409543E-02 
402	 0,027441995606683 
403	 0,024306185194178 
404	 1,52176503364364E-02 
405	 1,55794122925325E-03 
406	 8,34028543878944E-03 
407	 2,47042606290487E-02 
408	 2,50773298785514E-02 
409	 2,36924161949593E-02 
410	 2,34168260053329E-02 
411	 1,80824076603386E-02 
412	 1,41717510419324E-02 
413	 1,76255469420033E-02 
414	 2,32911665397395E-02 
415	 2,61609972885715E-02 
416	 1,48107057292618E-02 
417	 1,07735648449771E-02 
418	 2,05198699645333E-02 
419	 2,27682852856922E-02 
420	 2,25381519606764E-02 
421	 2,85137559431873E-02 
422	 2,63788807230832E-02 
423	 1,78020286515893E-02 
424	 1,89297940144734E-02 
425	 2,07426852352978E-02 
426	 1,83873615913338E-02 
427	 2,03752516917374E-02 
428	 2,29677558911313E-02 
429	 1,75903344775818E-02 
430	 1,35889092585504E-02 
431	 1,34973647554654E-02 
432	 1,50596850318177E-02 
433	 1,71702581815855E-02 
434	 0,018622969743395 
435	 1,37887052163248E-02 
436	 6,7998782266327E-03 
437	 1,11486173159673E-02 
438	 1,37656386539723E-02 
439	 1,06900787228087E-02 
440	 1,18668627077911E-02 
441	 1,44544006631323E-02 
442	 1,38364328268571E-02 
443	 1,26533823018313E-02 
444	 1,21892813519098E-02 
445	 1,50249097708354E-02 
446	 1,58859726397872E-02 
447	 1,20644661705069E-02 
448	 1,02834169240726E-02 
449	 1,11161980870567E-02 
450	 1,37671140797315E-02 
451	 1,68293577917067E-02 
452	 1,91094869776733E-02 
453	 0,018655313254085 
454	 1,71570139308835E-02 
455	 1,63476016874849E-02 
456	 1,75383742386537E-02 
457	 1,85242298125856E-02 
458	 1,19460255401896E-02 
459	 9,5423920477529E-03 
460	 1,50511789533825E-02 
461	 1,69319146797626E-02 
462	 1,54554150569036E-02 
463	 1,24937094378458E-02 
464	 0,01058331705249 
465	 1,06374708784295E-02 
466	 1,24445128186851E-02 
467	 1,47323493995523E-02 
468	 1,65732047417519E-02 
469	 1,84580756722192E-02 
470	 1,91147281415737E-02 
471	 1,56657545362316E-02 
472	 1,47220851459014E-02 
473	 1,72534166395771E-02 
474	 1,62881666345786E-02 
475	 1,46860407528127E-02 
476	 1,55818031564308E-02 
477	 1,70821594613643E-02 
478	 1,80985987914809E-02 
479	 1,67268797116242E-02 
480	 1,57265285367252E-02 
481	 1,62230804805522E-02 
482	 1,58909023175616E-02 
483	 1,51743628500466E-02 
484	 1,50582888074124E-02 
485	 1,52333437489895E-02 
486	 1,54567341604183E-02 
487	 1,51620425013122E-02 
488	 1,46808010581851E-02 
489	 1,42906530803873E-02 
490	 1,39582315279974E-02 
491	 1,39379376215163E-02 
492	 1,48985883306894E-02 
493	 1,53972194803621E-02 
494	 1,50045690696452E-02 
495	 1,47664140601187E-02 
496	 1,40349959558241E-02 
497	 1,20449614501252E-02 
498	 1,15622399849732E-02 
499	 1,29478826480859E-02 
500	 1,54932216380557E-02 
501	 1,68116508718186E-02 
502	 1,57302597788198E-02 
503	 1,50115411466062E-02 
504	 1,48551058775791E-02 
505	 1,49146671695403E-02 
506	 1,47395036214237E-02 
507	 0,014483828285395 
508	 1,57341377000354E-02 
509	 0,016250991352364 
510	 1,41807983703641E-02 
511	 0,013943704114336 
512	 1,50919492508864E-02 
513	 1,39021423773926E-02 
514	 1,41562182514378E-02 
515	 1,67067603026363E-02 
516	 1,59886127371215E-02 
517	 1,44491327232269E-02 
518	 1,62202597425624E-02 
519	 1,71713488860983E-02 
520	 1,65340600335488E-02 
521	 1,55722850615988E-02 
522	 1,45276309269601E-02 
523	 1,37773647993485E-02 
524	 1,52886584795129E-02 
525	 1,76904669317571E-02 
526	 1,74981109996279E-02 
527	 0,016260503181518 
528	 1,47737045798863E-02 
529	 1,42537266866426E-02 
530	 1,46731803740929E-02 
531	 0,015827219679737 
532	 0,015423526739291 
533	 1,38708755318827E-02 
534	 1,42407980730388E-02 
535	 1,48159437966312E-02 
536	 0,014645427843777 
537	 1,47282498312984E-02 
538	 1,50180570514926E-02 
539	 1,51848414937539E-02 
540	 1,56597413191766E-02 
541	 1,61927119927011E-02 
542	 1,50925339126416E-02 
543	 1,38756440856396E-02 
544	 1,40677211280055E-02 
545	 1,46514862071108E-02 
546	 1,50897626505759E-02 
547	 1,44589770634406E-02 
548	 1,40306673969286E-02 
549	 0,014418832003985 
550	 1,51369036338633E-02 
551	 1,57357353920923E-02 
552	 1,56672514435427E-02 
553	 1,49025234842475E-02 
554	 1,37929535295296E-02 
555	 1,35318911706129E-02 
556	 0,01394344150693 
557	 1,47647626814192E-02 
558	 1,49972063388908E-02 
559	 1,47173563813162E-02 
560	 1,46837623850785E-02 
561	 1,43857808800825E-02 
562	 1,38571443004753E-02 
563	 1,44436009378657E-02 
564	 1,51773840814969E-02 
565	 0,014661386955948 
566	 1,39860306630393E-02 
567	 1,35779963913744E-02 
568	 1,38255425648303E-02 
569	 1,42586271628533E-02 
570	 1,45079215781981E-02 
571	 1,44641679467605E-02 
572	 0,014292743054776 
573	 1,43379470020687E-02 
574	 1,48028471753792E-02 
575	 0,015610124068657 
576	 1,59518523341553E-02 
577	 1,59590213361976E-02 
578	 1,58719105241413E-02 
579	 1,67060321115903E-02 
580	 1,79821029419732E-02 
581	 1,74737330292559E-02 
582	 1,66993319281239E-02 
583	 1,66372274677685E-02 
584	 1,76334227623465E-02 
585	 1,87974113294475E-02 
586	 1,84970030043482E-02 
587	 1,82443205169199E-02 
588	 1,84882933352271E-02 
589	 1,90725505380026E-02 
590	 1,93322609893233E-02 
591	 1,87368362508986E-02 
592	 1,89648825840327E-02 
593	 1,98586108276232E-02 
594	 2,01183800619682E-02 
595	 1,99552125717583E-02 
596	 1,95155578465981E-02 
597	 0,019299571866701 
598	 1,92638044480866E-02 
599	 1,92549150223439E-02 
600	 1,89574961413759E-02 
601	 1,84938133012929E-02 
602	 1,86581769672289E-02 
603	 0,019183004616355 
604	 1,97306463140224E-02 
605	 1,90989168395638E-02 
606	 1,79195536093907E-02 
607	 1,83440214664176E-02 
608	 1,82416559159375E-02 
609	 1,71462054950365E-02 
610	 1,72335533452891E-02 
611	 1,76001562008377E-02 
612	 1,69276766521192E-02 
613	 1,68558124894965E-02 
614	 1,73655024385581E-02 
615	 1,70550320762312E-02 
616	 0,0166208218576 
617	 0,016533398588055 
618	 1,68317213554561E-02 
619	 1,70957865463531E-02 
620	 1,64687656426177E-02 
621	 1,59900155776783E-02 
622	 1,59941168130165E-02 
623	 1,62236438355281E-02 
624	 0,01644923227385 
625	 1,64645959410969E-02 
626	 1,67185466884946E-02 
627	 0,017160057572881 
628	 1,74619941598696E-02 
629	 1,72637228862857E-02 
630	 0,016560157585595 
631	 1,68096124349162E-02 
632	 1,74771005974021E-02 
633	 1,74022027139161E-02 
634	 1,75248617935017E-02 
635	 1,79328930353594E-02 
636	 1,78785922630284E-02 
637	 1,77732741886561E-02 
638	 1,79881251165728E-02 
639	 1,84362558373908E-02 
640	 1,89397767926673E-02 
641	 1,90855458513623E-02 
642	 1,93125878490263E-02 
643	 1,97362124642258E-02 
644	 1,99299054817771E-02 
645	 0,020014712623249 
646	 2,02010325549903E-02 
647	 2,00053613668004E-02 
648	 1,94223364326957E-02 
649	 1,87401026679911E-02 
650	 0,018587607655537 
651	 1,92465674112995E-02 
652	 1,90870018134558E-02 
653	 1,85776899372709E-02 
654	 1,92853213378192E-02 
655	 1,93910817928846E-02 
656	 1,84453901748097E-02 
657	 1,74070226930797E-02 
658	 1,66330599221343E-02 
659	 1,64150632206398E-02 
660	 0,016331960908939 
661	 1,62335082240561E-02 
662	 1,60440870121038E-02 
663	 1,57112124750038E-02 
664	 1,52554344851405E-02 
665	 1,50222563041454E-02 
666	 1,49007866992726E-02 
667	 1,46512032643477E-02 
668	 1,44163925334717E-02 
669	 1,42655867898857E-02 
670	 1,42745517665108E-02 
671	 1,44704815240744E-02 
672	 0,014822799489812 
673	 1,47398410208955E-02 
674	 1,44311282886443E-02 
675	 1,47370820841567E-02 
676	 1,46049005241726E-02 
677	 1,38726872520786E-02 
678	 1,38219162448266E-02 
679	 1,43911703768319E-02 
680	 1,53546512098851E-02 
681	 1,52445077432822E-02 
682	 1,43253271620072E-02 
683	 1,45772756482787E-02 
684	 1,53903267392231E-02 
685	 1,62866913789391E-02 
686	 1,64676839867758E-02 
687	 1,62294136348109E-02 
688	 1,62948489554213E-02 
689	 1,64924720278365E-02 
690	 1,68435363729043E-02 
691	 1,74089248587725E-02 
692	 1,84273476723445E-02 
693	 2,00824878346037E-02 
694	 0,02191013078849 
695	 0,023790363260526 
696	 0,02559357040022 
697	 0,027984507858213 
698	 3,12478551435166E-02 
699	 3,50020456054885E-02 
700	 0,039369286871561 
701	 4,45369109273542E-02 
702	 4,99394748605502E-02 
703	 5,54286843118386E-02 
704	 6,10527485780813E-02 
705	 6,73437431674756E-02 
706	 7,44331426307548E-02 
707	 8,04615712194017E-02 
708	 8,62593205723474E-02 
709	 9,39252480619559E-02 
710	 0,100902879690426 
711	 0,106691494907015 
712	 0,11289200529116 
713	 0,119254039762377 
714	 0,125461894747664 
715	 0,131408139281568 
716	 0,137061997462445 
717	 0,142448862831112 
718	 0,14754411651388 
719	 0,152307871073793 
720	 0,1564784184459 
721	 0,160367369910028 
722	 0,164405868976804 
723	 0,167850533915329 
724	 0,170886656266889 
725	 0,174768278642629 
726	 0,178159561629219 
727	 0,180331994163001 
728	 0,182553615071379 
729	 0,184882867242274 
730	 0,187129043384522 
731	 0,188794655885681 
732	 0,18996083671428 
733	 0,191688940273341 
734	 0,193466318493475 
735	 0,194815691464975 
736	 0,195965944780062 
737	 0,196985281998376 
738	 0,19790733106549 
739	 0,19896006543965 
740	 0,200140556448295 
741	 0,200872531200886 
742	 0,201489812886311 
743	 0,202416517416551 
744	 0,202848642015538 
745	 0,202905867698524 
746	 0,203494674482341 
747	 0,204142750250573 
748	 0,204618397479918 
749	 0,205168050406126 
750	 0,205674917189108 
751	 0,205927398702362 
752	 0,206112371339883 
753	 0,206382387691998 
754	 0,207085499126617 
755	 0,207733726973288 
756	 0,207963264926651 
757	 0,207933318502864 
758	 0,207909585531374 
759	 0,20838316013039 
760	 0,208686072171273 
761	 0,208716715773769 
762	 0,209144245989016 
763	 0,20951486149124 
764	 0,209402708409734 
765	 0,209438445716344 
766	 0,209598086903033 
767	 0,209432763787329 
768	 0,209535052151047 
769	 0,210070617311288 
770	 0,210546044739272 
771	 0,21080865921201 
772	 0,210747264776647 
773	 0,210907149061739 
774	 0,211205057742443 
775	 0,210950126362191 
776	 0,21073815559781 
777	 0,210833612886424 
778	 0,210733554378855 
779	 0,210574737515156 
780	 0,210629431823396 
781	 0,210820646191888 
782	 0,211059804038305 
783	 0,211124630317498 
784	 0,211126464560603 
785	 0,211145049016659 
786	 0,211164512797595 
787	 0,211238660840737 
788	 0,211472875565794 
789	 0,211515846332784 
790	 0,211387318150703 
791	 0,211725408662561 
792	 0,211782202824264 
793	 0,211047842069992 
794	 0,210812881931791 
795	 0,211085505527537 
796	 0,211443301807601 
797	 0,211449969529218 
798	 0,211066232573805 
799	 0,211011683267115 
800	 0,211143000416614 
801	 0,211277484951952 
802	 0,211306034178593 
803	 0,211220262703636 
804	 0,211072706385882 
805	 0,210889426540963 
806	 0,210767932984789 
807	 0,211111146742298 
808	 0,211435865880102 
809	 0,211235928045132 
810	 0,211464400697783 
811	 0,212019613524649 
812	 0,212012165275398 
813	 0,212272822422695 
814	 0,212940629820206 
815	 0,212668872782058 
816	 0,212215676311736 
817	 0,212588598769456 
818	 0,212672753134553 
819	 0,212466522679344 
820	 0,212715294197122 
821	 0,212996956955638 
822	 0,213127644894709 
823	 0,213314452889679 
824	 0,213404904482763 
825	 0,213194959273181 
826	 0,213404638372597 
827	 0,213892542689382 
828	 0,213599884023399 
829	 0,213482467433263 
830	 0,213930304444058 
831	 0,213992649415855 
832	 0,213819336421171 
833	 0,213753040147008 
834	 0,214076227226166 
835	 0,214604994994448 
836	 0,214477741288536 
837	 0,214385973474486 
838	 0,214605958347114 
839	 0,214232320399163 
840	 0,21379240255372 
841	 0,214142849638152 
842	 0,214396952567188 
843	 0,214408306450304 
844	 0,214506410330873 
845	 0,214500736658612 
846	 0,214321032980054 
847	 0,214191713758329 
848	 0,214205584087878 
849	 0,214443804148786 
850	 0,214846133596414 
851	 0,215122208919258 
852	 0,214379399789822 
853	 0,213981281330991 
854	 0,214477831505731 
855	 0,21403874677782 
856	 0,213342725338937 
857	 0,213575967488989 
858	 0,213688463955675 
859	 0,213620656862477 
860	 0,214068512929778 
861	 0,214285014431376 
862	 0,213970778706648 
863	 0,213981541776635 
864	 0,213950974415792 
865	 0,213308775187395 
866	 0,212906278783728 
867	 0,213045756882839 
868	 0,213987422865779 
869	 0,214817167801555 
870	 0,215074840948113 
871	 0,215172880632589 
872	 0,215058685263261 
873	 0,214652085490953 
874	 0,214708731965142 
875	 0,214949734988167 
876	 0,213887992607913 
877	 0,213743923653289 
878	 0,215091730290199 
879	 0,215344826677258 
880	 0,215300003466823 
881	 0,21597839591257 
882	 0,216189556215769 
883	 0,21581691384441 
884	 0,21502019082001 
885	 0,215037049489035 
886	 0,216041922682448 
887	 0,216214048094599 
888	 0,216029701017895 
889	 0,216027242105828 
890	 0,215789748850993 
891	 0,215673856536449 
892	 0,216670100993956 
893	 0,216838188539241 
894	 0,215872958578566 
895	 0,215507974480222 
896	 0,215464241480217 
897	 0,215499500929659 
898	 0,215914439462194 
899	 0,216262673825583 
900	 0,215684516224716 
901	 0,215731768212282 
902	 0,216468312892429 
903	 0,216304738497524 
904	 0,216317171019846 
905	 0,216947190342547 
906	 0,216174976223286 
907	 0,214971375097698 
908	 0,215024517530668 
909	 0,215357551913741 
910	 0,215784853471855 
911	 0,216634879361595 
912	 0,216646956976948 
913	 0,215444914232811 
914	 0,214740723064388 
915	 0,214326110289841 
916	 0,213841798250782 
917	 0,214401526709699 
918	 0,215463819499326 
919	 0,215188715011325 
920	 0,214766996912833 
921	 0,214596429772278 
922	 0,214668621495674 
923	 0,214175785971392 
924	 0,212666119581744 
925	 0,212687337417958 
926	 0,213112610970123 
927	 0,21112849300633 
928	 0,210638350749094 
929	 0,211893248040873 
930	 0,211633455414372 
931	 0,210629182726629 
932	 0,209423682733208 
933	 0,208596130112183 
934	 0,207708762556273 
935	 0,206133518972784 
936	 0,205459478894189 
937	 0,20560081897189 
938	 0,205362299303641 
939	 0,204581798700864 
940	 0,203368991837802 
941	 0,202831142810191 
942	 0,202625639783856 
943	 0,202290526120847 
944	 0,200882001253988 
945	 0,19928341014133 
946	 0,199464679233447 
947	 0,198072211941803 
948	 0,195236246811018 
949	 0,195198651357755 
950	 0,194803399318597 
951	 0,192628717678892 
952	 0,19217115833657 
953	 0,19190044866705 
954	 0,189671822913481 
955	 0,188608698065666 
956	 0,188149930255483 
957	 0,184988428490977 
958	 0,18286487054306 
959	 0,182734626250655 
960	 0,182616017318415 
961	 0,181902236258666 
962	 0,180413850818742 
963	 0,180485518317704 
964	 0,180913043937519 
965	 0,179402274920832 
966	 0,178597305667218 
967	 0,17889253391945 
968	 0,179411903468958 
969	 0,179671457226844 
970	 0,179491194219625 
971	 0,179658940430461 
972	 0,178939407625975 
973	 0,176567150470535 
974	 0,177242702189158 
975	 0,179064060866061 
976	 0,177240885148731 
977	 0,175537551097524 
978	 0,17542800083913 
979	 0,178351759537432 
980	 0,180487462999555 
981	 0,179844142910494 
982	 0,177162025345025 
983	 0,175929417231866 
984	 0,179148322095489 
985	 0,179970500476169 
986	 0,179075552828626 
987	 0,180286247616894 
988	 0,181769275226592 
989	 0,182794684577603 
990	 0,182607171167976 
991	 0,182004824859654 
992	 0,18185547917669 
993	 0,184653433393898 
994	 0,18617743176471 
995	 0,182510958758113 
996	 0,182608265654128 
997	 0,185330924289219 
998	 0,185121052024231 
999	 0,185871029971427 
1000	 0,187404716558622 
1001	 0,185288708742807 
1002	 0,184264844140398 
1003	 0,18628426420063 
1004	 0,187366797150667 
1005	 0,18852503839795 
1006	 0,190695622998244 
1007	 0,189623182870929 
1008	 0,187383550394099 
1009	 0,188812044550206 
1010	 0,190311293367775 
1011	 0,191264388896655 
1012	 0,192950323011485 
1013	 0,19455294512932 
1014	 0,195388195310549 
1015	 0,19388634305979 
1016	 0,193117417392514 
1017	 0,195303581341793 
1018	 0,195697135486236 
1019	 0,195527163359216 
1020	 0,197573289274346 
1021	 0,196754393686425 
1022	 0,194186410040657 
1023	 0,195933194956786 
1024	 0,200261555948923 
1025	 0,205095205917441 
1026	 0,205289021157007 
1027	 0,201883222614028 
1028	 0,197082585114714 
1029	 0,198985152631614 
1030	 0,202857076026679 
1031	 0,20252067133279 
1032	 0,207103119014319 
1033	 0,213008641617322 
1034	 0,20988924677678 
1035	 0,204376380864405 
1036	 0,200571297578815 
1037	 0,205330829293273 
1038	 0,208647855545293 
1039	 0,207381605556338 
1040	 0,211601556521612 
1041	 0,214915879677351 
1042	 0,212214507262372 
1043	 0,209997114561803 
1044	 0,207790685765211 
1045	 0,204171861026879 
1046	 0,209695946305016 
1047	 0,218589774109713 
1048	 0,211441964745236 
1049	 0,215336647880791 
1050	 0,230043756877996 
1051	 0,223266071765252 
1052	 0,217530980047557 
1053	 0,222516691177532 
1054	 0,220367171712591 
1055	 0,220423683112915 
1056	 0,229534734616784 
1057	 0,228926693233114 
1058	 0,223612345375307 
1059	 0,224349240791177 
1060	 0,221101719468022 
1061	 0,216900817553556 
1062	 0,223534059248884 
1063	 0,223938411536416 
1064	 0,216440136292655 
1065	 0,21479079576057 
1066	 0,215315714517733 
1067	 0,216163372741848 
1068	 0,217218992327152 
1069	 0,214555263100222 
1070	 0,207676620442251 
1071	 0,216515075310374 
1072	 0,227710680981455 
1073	 0,222425798804879 
1074	 0,207838862096161 
1075	 0,19868458158648 
