Wavelength	GRA-BER00392.asd
325	 9,25976405256518E-02 
326	 0,185253664438228 
327	 0,212396773549122 
328	 0,162406915644952 
329	 0,156749434269146 
330	 0,140625523783983 
331	 8,12747067731815E-02 
332	 0,176983891688902 
333	 0,29572122385117 
334	 0,156085255828966 
335	 2,91512893152306E-02 
336	 4,73471689937769E-02 
337	 0,155467716266051 
338	 0,203553439764863 
339	 9,71948302801593E-02 
340	 0,114009252108345 
341	 0,199301031411682 
342	 0,124406820642016 
343	 4,07409726098012E-02 
344	 2,09877891190336E-02 
345	 7,71915225646993E-02 
346	 0,133625047440751 
347	 0,12077843521958 
348	 0,106401230523298 
349	 0,102619394173431 
350	 0,117634205235083 
351	 0,110701097394762 
352	 7,51231410063511E-02 
353	 5,08100887594486E-02 
354	 0,048360320794496 
355	 7,88825362075376E-02 
356	 9,17322118864562E-02 
357	 8,06504408285091E-02 
358	 5,11111771078535E-02 
359	 3,88714152990453E-02 
360	 5,65027526107615E-02 
361	 6,74656287015134E-02 
362	 6,60702407761744E-02 
363	 4,85473615515284E-02 
364	 0,056820245607431 
365	 8,11321045452831E-02 
366	 5,28725268852273E-02 
367	 2,32026855625997E-02 
368	 2,55110374315551E-02 
369	 0,038296758646572 
370	 4,92599250929064E-02 
371	 4,19189796217855E-02 
372	 5,51513389821864E-02 
373	 8,53560597604512E-02 
374	 7,82907109050578E-02 
375	 5,95662020725831E-02 
376	 0,04837763518875 
377	 3,64873550283739E-02 
378	 3,14774727677692E-02 
379	 5,07481475267035E-02 
380	 5,34691131493394E-02 
381	 3,34474555969304E-02 
382	 3,66231555706535E-02 
383	 0,046426057599501 
384	 4,51439506236181E-02 
385	 3,12170829323777E-02 
386	 0,016587960677585 
387	 0,036073797780668 
388	 4,69740049012974E-02 
389	 3,66143792530718E-02 
390	 3,02427754360449E-02 
391	 3,03309582800738E-02 
392	 3,65396824441629E-02 
393	 5,03645889643408E-02 
394	 6,04366604592842E-02 
395	 3,35590483033631E-02 
396	 1,29943928486536E-02 
397	 2,08201986756668E-02 
398	 2,43721812870979E-02 
399	 2,18078649599421E-02 
400	 1,52199352500969E-02 
401	 0,027757125648881 
402	 5,14337048879258E-02 
403	 3,87369571333624E-02 
404	 2,17112919024451E-02 
405	 2,24433977406528E-02 
406	 2,36950814468371E-02 
407	 2,59573405400991E-02 
408	 3,65729348013813E-02 
409	 3,85055628798642E-02 
410	 2,88666316355101E-02 
411	 2,02532161715835E-02 
412	 0,015323965071949 
413	 1,57963838047823E-02 
414	 1,88685365641482E-02 
415	 2,29540268871441E-02 
416	 2,73024831177945E-02 
417	 2,72082000330139E-02 
418	 2,18298644074424E-02 
419	 1,93322122641285E-02 
420	 1,88385331781651E-02 
421	 1,81858377896378E-02 
422	 0,017086223899015 
423	 1,62489299959793E-02 
424	 0,018411764013373 
425	 2,10856166002506E-02 
426	 2,24163046376425E-02 
427	 2,02149740921617E-02 
428	 1,78279179755153E-02 
429	 2,18066519122123E-02 
430	 2,45305311284308E-02 
431	 2,42144787161505E-02 
432	 2,40618531866404E-02 
433	 2,33465995938203E-02 
434	 2,13763586216184E-02 
435	 1,86038348175326E-02 
436	 1,61023967006533E-02 
437	 1,60594186718048E-02 
438	 1,74619979964732E-02 
439	 1,94160948009796E-02 
440	 1,96440925956871E-02 
441	 1,89145920772666E-02 
442	 1,84577846493297E-02 
443	 1,94046786103033E-02 
444	 2,07679308981738E-02 
445	 1,78024374387319E-02 
446	 1,70660414085956E-02 
447	 2,17322401229571E-02 
448	 2,15584636318161E-02 
449	 1,80710392604076E-02 
450	 1,64433433714659E-02 
451	 1,76114296806833E-02 
452	 2,07019346334036E-02 
453	 1,98003345516306E-02 
454	 1,72798964857272E-02 
455	 1,58190298324318E-02 
456	 1,75333994286049E-02 
457	 2,08980444178391E-02 
458	 0,021169015404537 
459	 1,95885273554402E-02 
460	 0,017288162839779 
461	 1,81397663557435E-02 
462	 2,04566159301426E-02 
463	 2,15132221013156E-02 
464	 2,07450710092509E-02 
465	 1,87583358796206E-02 
466	 0,018425014713424 
467	 0,017848140967217 
468	 1,62005942031357E-02 
469	 1,80509844434373E-02 
470	 2,13213001190515E-02 
471	 2,08600347386974E-02 
472	 1,92080058558447E-02 
473	 1,75368964768199E-02 
474	 1,74495329495926E-02 
475	 1,78256527754292E-02 
476	 1,74797716689743E-02 
477	 1,78646447005895E-02 
478	 0,018094379854004 
479	 1,46449001896451E-02 
480	 0,012838646211223 
481	 1,47330613039521E-02 
482	 1,53779482256296E-02 
483	 1,56001721352723E-02 
484	 1,74842698941489E-02 
485	 1,78647637477999E-02 
486	 1,63369080586581E-02 
487	 1,43770265102904E-02 
488	 0,014124231750131 
489	 1,67609583825595E-02 
490	 1,71239402528626E-02 
491	 0,01565683164299 
492	 1,52085237534478E-02 
493	 1,57851680512466E-02 
494	 1,69529673416539E-02 
495	 0,015769402840672 
496	 1,45472624223468E-02 
497	 1,60693761633629E-02 
498	 1,45336301566048E-02 
499	 1,11390808915203E-02 
500	 1,35306821066676E-02 
501	 1,65060292786637E-02 
502	 1,71074093924267E-02 
503	 1,71982319879476E-02 
504	 1,69910613294408E-02 
505	 1,63763710681579E-02 
506	 1,65783443208098E-02 
507	 1,76124526623448E-02 
508	 1,77903432079002E-02 
509	 1,76117647143898E-02 
510	 1,75534213770529E-02 
511	 1,66771666636518E-02 
512	 1,53305465277596E-02 
513	 1,46620279440458E-02 
514	 1,46932232358824E-02 
515	 1,53148268718175E-02 
516	 1,55805501815061E-02 
517	 1,58592924081061E-02 
518	 1,68630079926337E-02 
519	 1,63860195849085E-02 
520	 1,48504702807547E-02 
521	 1,60431195719802E-02 
522	 1,67713632998989E-02 
523	 1,49478411498771E-02 
524	 1,47125287372559E-02 
525	 0,015574175912386 
526	 1,49429168057038E-02 
527	 0,01413921359662 
528	 1,38531827983114E-02 
529	 1,53730253440054E-02 
530	 1,69780946110087E-02 
531	 1,66664799905915E-02 
532	 1,57983199032981E-02 
533	 1,48833272431772E-02 
534	 1,42541029379887E-02 
535	 0,014368011816958 
536	 1,53260130952291E-02 
537	 1,55950525527163E-02 
538	 1,53261088034544E-02 
539	 1,52177414311676E-02 
540	 1,50542743982609E-02 
541	 1,48606714900953E-02 
542	 1,48348593938309E-02 
543	 1,51135308645485E-02 
544	 1,57811541426701E-02 
545	 1,61305530119412E-02 
546	 1,60668436147077E-02 
547	 1,57953299151615E-02 
548	 1,54642806910692E-02 
549	 1,51883106267938E-02 
550	 1,49489618770726E-02 
551	 1,50567783949406E-02 
552	 0,016046498884069 
553	 1,59915511171189E-02 
554	 1,47703618550609E-02 
555	 1,40952272595883E-02 
556	 1,45623270809039E-02 
557	 1,64052349559198E-02 
558	 1,65707162594855E-02 
559	 0,01557593738804 
560	 0,01636344816321 
561	 1,62530003467945E-02 
562	 1,47530676253952E-02 
563	 1,54805393318893E-02 
564	 1,70673684063791E-02 
565	 1,73044866958462E-02 
566	 1,78525395563565E-02 
567	 1,87516183722895E-02 
568	 1,87229304371057E-02 
569	 1,87258623815585E-02 
570	 1,93775815726776E-02 
571	 1,96008332907423E-02 
572	 1,97994918749581E-02 
573	 2,13004406382479E-02 
574	 2,22544450232839E-02 
575	 2,21985243026292E-02 
576	 2,25404066183531E-02 
577	 2,30134172956378E-02 
578	 2,32196970007956E-02 
579	 2,38363435102725E-02 
580	 2,45888913013326E-02 
581	 2,41543920259577E-02 
582	 2,37363794960771E-02 
583	 2,40015591320916E-02 
584	 2,43646344915218E-02 
585	 2,45058483374951E-02 
586	 2,39966068127536E-02 
587	 2,35150952036812E-02 
588	 2,33614827031084E-02 
589	 0,02388384364424 
590	 2,38805617902189E-02 
591	 2,23659410410827E-02 
592	 2,23550712171828E-02 
593	 2,34933304743493E-02 
594	 2,31911217188527E-02 
595	 2,25013914395314E-02 
596	 2,18360036497137E-02 
597	 2,07136504003661E-02 
598	 1,98033110623299E-02 
599	 2,01293757311323E-02 
600	 2,05886534412899E-02 
601	 2,08006518596623E-02 
602	 2,06708337946682E-02 
603	 2,05875229157244E-02 
604	 2,08155887551705E-02 
605	 2,06129448448336E-02 
606	 2,01679617178478E-02 
607	 2,03237719186837E-02 
608	 2,00688222080448E-02 
609	 1,91983604414726E-02 
610	 1,88845445194218E-02 
611	 1,86669042807924E-02 
612	 0,01786086662454 
613	 1,80508815141035E-02 
614	 0,019065888838181 
615	 1,91215145933072E-02 
616	 1,87144298417326E-02 
617	 1,82258187332233E-02 
618	 0,018112920298492 
619	 0,018218645730972 
620	 1,80266846516879E-02 
621	 1,81852936653789E-02 
622	 1,87602183669757E-02 
623	 1,90594338558701E-02 
624	 1,90991063555586E-02 
625	 1,89649164414956E-02 
626	 0,019242177718157 
627	 1,98392711444049E-02 
628	 0,020087054525203 
629	 2,03414032178697E-02 
630	 2,07204577278033E-02 
631	 2,07710070330911E-02 
632	 2,06630007422166E-02 
633	 2,07384310910497E-02 
634	 2,09411574118838E-02 
635	 2,12686266337643E-02 
636	 2,17697354460926E-02 
637	 2,21011715432409E-02 
638	 2,20376303102724E-02 
639	 2,26058612249108E-02 
640	 2,35901467593113E-02 
641	 2,40200842361944E-02 
642	 2,41855284866104E-02 
643	 2,41881342535085E-02 
644	 2,40500832012602E-02 
645	 2,39538196073725E-02 
646	 2,41132936719554E-02 
647	 2,45061977478207E-02 
648	 2,49786304752225E-02 
649	 2,50369790732507E-02 
650	 2,51876969188842E-02 
651	 2,56615918679388E-02 
652	 2,52585127733234E-02 
653	 2,44277943771633E-02 
654	 2,43911607748986E-02 
655	 2,46726216633687E-02 
656	 2,49328118464532E-02 
657	 2,43051580599199E-02 
658	 2,34517098182669E-02 
659	 2,31118846410599E-02 
660	 2,31509948827359E-02 
661	 2,30375735969319E-02 
662	 2,11706361376435E-02 
663	 1,99818924171935E-02 
664	 2,05141201919723E-02 
665	 0,020507217419067 
666	 2,00431441755804E-02 
667	 1,96774536346602E-02 
668	 1,93520004643009E-02 
669	 1,91380417470884E-02 
670	 1,92960212382957E-02 
671	 1,93638694893996E-02 
672	 0,019009451746688 
673	 1,89902798441226E-02 
674	 1,91255713382297E-02 
675	 1,85942559959397E-02 
676	 1,83591454660939E-02 
677	 1,87012327937082E-02 
678	 1,90324772249282E-02 
679	 1,92257153517049E-02 
680	 1,91969586789031E-02 
681	 1,91246049505179E-02 
682	 1,90569392950331E-02 
683	 1,89718406650839E-02 
684	 1,88812560604136E-02 
685	 1,88371840489628E-02 
686	 1,91325511776152E-02 
687	 1,96517083086084E-02 
688	 2,01138484861236E-02 
689	 2,07486336940184E-02 
690	 2,15678948617595E-02 
691	 2,23018700416973E-02 
692	 2,32213756528181E-02 
693	 2,45703539487985E-02 
694	 2,60720834948774E-02 
695	 2,78689006653675E-02 
696	 0,03045491530501 
697	 3,32412339078603E-02 
698	 3,61057011740736E-02 
699	 0,039855246169689 
700	 0,044162015402488 
701	 4,85157450488895E-02 
702	 0,053486451916173 
703	 0,05904051052841 
704	 6,47340531173999E-02 
705	 7,04864397034885E-02 
706	 7,62283070983891E-02 
707	 8,20433397953083E-02 
708	 8,81467809720156E-02 
709	 9,49765789760427E-02 
710	 0,101232661163505 
711	 0,106782769063755 
712	 0,113205201011662 
713	 0,119486207526751 
714	 0,124716518631593 
715	 0,130524075782146 
716	 0,136610980508412 
717	 0,141404434713985 
718	 0,146082524955313 
719	 0,151054275003222 
720	 0,155728573434983 
721	 0,160072884306122 
722	 0,164119388251911 
723	 0,168062877314841 
724	 0,171783365306801 
725	 0,174685891894179 
726	 0,177465394711998 
727	 0,18054003369037 
728	 0,183546407211204 
729	 0,18628356759957 
730	 0,188481604814084 
731	 0,190484875957831 
732	 0,192422517845403 
733	 0,194264221211157 
734	 0,196070689913748 
735	 0,197849756288549 
736	 0,198906927153317 
737	 0,199621128032214 
738	 0,201270490751757 
739	 0,202607653499011 
740	 0,203390008512838 
741	 0,205091348221943 
742	 0,206682947013456 
743	 0,206886687944185 
744	 0,207145857996971 
745	 0,20777102140115 
746	 0,208568749579816 
747	 0,209488401305079 
748	 0,210431838948869 
749	 0,211074506256868 
750	 0,211457689470193 
751	 0,211696144362515 
752	 0,212309416701044 
753	 0,213190864617126 
754	 0,213294086355649 
755	 0,213437709326944 
756	 0,21416516383681 
757	 0,214526474349631 
758	 0,214678526350148 
759	 0,215254463663878 
760	 0,215722383177705 
761	 0,215896303786067 
762	 0,2157418013802 
763	 0,215716360468494 
764	 0,21621515659762 
765	 0,216491380006149 
766	 0,216605943106124 
767	 0,217151005342326 
768	 0,21751177701919 
769	 0,21750199739018 
770	 0,217555095803503 
771	 0,217734280324809 
772	 0,218062704829771 
773	 0,218402112848097 
774	 0,218579746362509 
775	 0,218143793750039 
776	 0,218006105193133 
777	 0,218544485102491 
778	 0,218697428866989 
779	 0,218721251662563 
780	 0,219178294168306 
781	 0,219133890960725 
782	 0,218728473561208 
783	 0,219376342295274 
784	 0,220030893141269 
785	 0,220010782636136 
786	 0,219777326193594 
787	 0,21971971071643 
788	 0,220439590670271 
789	 0,220693201022981 
790	 0,220297030557495 
791	 0,22024037563936 
792	 0,220237917118283 
793	 0,220064281228513 
794	 0,220057696457149 
795	 0,220065902836248 
796	 0,219568508163927 
797	 0,219726525550704 
798	 0,220630996330114 
799	 0,22076935208063 
800	 0,220442997845557 
801	 0,220055080345416 
802	 0,220141755707205 
803	 0,220539540458719 
804	 0,220482788735121 
805	 0,220689461762339 
806	 0,221236735209964 
807	 0,221114902960086 
808	 0,220827722001315 
809	 0,220984827628919 
810	 0,22134034798836 
811	 0,221868806690173 
812	 0,222751824239239 
813	 0,223012736736339 
814	 0,222458847119582 
815	 0,22270124807609 
816	 0,223385999323194 
817	 0,223912630365503 
818	 0,224218585357858 
819	 0,224422525276276 
820	 0,225010068845286 
821	 0,225509714752427 
822	 0,225677958849028 
823	 0,225466073527388 
824	 0,225469792123071 
825	 0,226419912319947 
826	 0,226583032763187 
827	 0,22597401553411 
828	 0,226010984145851 
829	 0,22627417044037 
830	 0,226534243419166 
831	 0,226650801371132 
832	 0,226727884465061 
833	 0,226935259516859 
834	 0,227020581283876 
835	 0,22701692908509 
836	 0,227252199346452 
837	 0,227394726277734 
838	 0,22732909911917 
839	 0,22763478052345 
840	 0,227920828166011 
841	 0,227565339663512 
842	 0,227093148491096 
843	 0,226785782806535 
844	 0,227010479920148 
845	 0,227515575756435 
846	 0,228071820624662 
847	 0,228281880401434 
848	 0,228166907711179 
849	 0,227840782298765 
850	 0,227879003355217 
851	 0,228256261015001 
852	 0,228342580597608 
853	 0,228337601793107 
854	 0,228344823909997 
855	 0,228360449939943 
856	 0,228316333743151 
857	 0,228120346510935 
858	 0,228038852536096 
859	 0,22812266280838 
860	 0,228272892878936 
861	 0,228530914997044 
862	 0,228855564152075 
863	 0,228857642792293 
864	 0,228899121930838 
865	 0,229485142746696 
866	 0,229790179172471 
867	 0,229807704359738 
868	 0,230185246422475 
869	 0,230405071643858 
870	 0,23028455292167 
871	 0,230287476820415 
872	 0,23038238404864 
873	 0,23047398162617 
874	 0,230416960589221 
875	 0,23039095058428 
876	 0,231022841520537 
877	 0,231553884729004 
878	 0,23170370333738 
879	 0,231998682104324 
880	 0,232066627312188 
881	 0,231530850686869 
882	 0,23154395221117 
883	 0,231991097395367 
884	 0,231958133876897 
885	 0,231654215663566 
886	 0,231283603166501 
887	 0,231523048297989 
888	 0,232058702941768 
889	 0,232507317960992 
890	 0,232440957753557 
891	 0,232106929516075 
892	 0,232223173739129 
893	 0,232388074572668 
894	 0,232563693992243 
895	 0,233150282519014 
896	 0,233614269059547 
897	 0,233558175550023 
898	 0,233471170341783 
899	 0,233446621280721 
900	 0,233517491906597 
901	 0,233361286493649 
902	 0,232943146117451 
903	 0,232350004986136 
904	 0,232569303512142 
905	 0,233914077394429 
906	 0,233905731010169 
907	 0,233181912077629 
908	 0,233101165319363 
909	 0,233224550141078 
910	 0,233469848168077 
911	 0,233902722386811 
912	 0,233937373666879 
913	 0,233384988254824 
914	 0,233025095183148 
915	 0,232669262638322 
916	 0,232067201842949 
917	 0,232001655922218 
918	 0,232246362510378 
919	 0,231858073024968 
920	 0,231288008948286 
921	 0,230867492812326 
922	 0,231321204232353 
923	 0,232131471211039 
924	 0,232690162371524 
925	 0,231873929229946 
926	 0,230275218504582 
927	 0,229268503787115 
928	 0,228465331789858 
929	 0,227867275634312 
930	 0,227822178126217 
931	 0,227190973350323 
932	 0,225568703272119 
933	 0,225164593142197 
934	 0,22511814521345 
935	 0,224047123833583 
936	 0,223219772588342 
937	 0,222929172070547 
938	 0,223371881534058 
939	 0,222741674117028 
940	 0,220730198978599 
941	 0,219879823040052 
942	 0,218992182596556 
943	 0,217053868350183 
944	 0,216305302274025 
945	 0,216139421865428 
946	 0,214782804866104 
947	 0,213089896423187 
948	 0,211603352214802 
949	 0,211397285003186 
950	 0,211217430905202 
951	 0,210092107787258 
952	 0,206972381905839 
953	 0,203655083107383 
954	 0,202390706553896 
955	 0,202661854887393 
956	 0,202725595493731 
957	 0,198114646447586 
958	 0,196218818288257 
959	 0,198235244178271 
960	 0,196784694482752 
961	 0,194847899056308 
962	 0,194727501545561 
963	 0,194046195391385 
964	 0,19345482642693 
965	 0,194364619243124 
966	 0,19334986273414 
967	 0,190967807943814 
968	 0,191921253574693 
969	 0,1915503062895 
970	 0,188860521858111 
971	 0,189850314783315 
972	 0,191159394595402 
973	 0,189669960058065 
974	 0,189585636937538 
975	 0,190518866797801 
976	 0,190565452821294 
977	 0,190431740615477 
978	 0,190373919462968 
979	 0,190770894389341 
980	 0,190771653264131 
981	 0,190183740927828 
982	 0,190463594942281 
983	 0,191315448908022 
984	 0,1921991203234 
985	 0,191869278849163 
986	 0,191213610235349 
987	 0,192433383795073 
988	 0,192850490175419 
989	 0,192224551146254 
990	 0,192642357461749 
991	 0,193085612551515 
992	 0,192907023667077 
993	 0,191323019957965 
994	 0,190984624154666 
995	 0,194326347577686 
996	 0,196381166790622 
997	 0,1966843979021 
998	 0,196136182802223 
999	 0,197832942728645 
1000	 0,201028187563251 
1001	 0,199833830014223 
1002	 0,197607972650639 
1003	 0,196502893985115 
1004	 0,19783288172167 
1005	 0,200037831283982 
1006	 0,201419570652452 
1007	 0,202213077435097 
1008	 0,203206601667178 
1009	 0,205759645912282 
1010	 0,206579958952861 
1011	 0,206097573552368 
1012	 0,20906374826183 
1013	 0,210078986632593 
1014	 0,207615934789287 
1015	 0,206663434065196 
1016	 0,206859151272359 
1017	 0,207723591402414 
1018	 0,210064560368282 
1019	 0,211951432112553 
1020	 0,210704946573645 
1021	 0,213412952979891 
1022	 0,217812959768796 
1023	 0,212513082687804 
1024	 0,211289716952183 
1025	 0,216502927016115 
1026	 0,215728250270119 
1027	 0,213620418264465 
1028	 0,213859083372502 
1029	 0,217704664708368 
1030	 0,222936658587309 
1031	 0,226524715981593 
1032	 0,223031291025822 
1033	 0,217622036147563 
1034	 0,222642615744996 
1035	 0,227788388895655 
1036	 0,230159416343387 
1037	 0,231347546614612 
1038	 0,229113056829975 
1039	 0,224001739256468 
1040	 0,223638907146676 
1041	 0,225202068150978 
1042	 0,226178886685831 
1043	 0,229552021153968 
1044	 0,232639042118041 
1045	 0,231622151026285 
1046	 0,232399642003321 
1047	 0,235097695108034 
1048	 0,237408139837051 
1049	 0,232929371757324 
1050	 0,224998576049191 
1051	 0,23337891351516 
1052	 0,242826802174463 
1053	 0,244816625024419 
1054	 0,241354654217607 
1055	 0,237387512573341 
1056	 0,237216112361839 
1057	 0,238337035296164 
1058	 0,23873606805765 
1059	 0,236397317949081 
1060	 0,236996601091771 
1061	 0,239748720747897 
1062	 0,239877913216652 
1063	 0,246505036104246 
1064	 0,25485776089989 
1065	 0,238857605922227 
1066	 0,222790246476933 
1067	 0,221562088623167 
1068	 0,241743827668176 
1069	 0,260150221822273 
1070	 0,258978645244203 
1071	 0,241411410526708 
1072	 0,227508025887976 
1073	 0,237555612070457 
1074	 0,237650084649258 
1075	 0,229423259430919 
