Wavelength	GRA-VIE00959.asd
325	 0,167214983520962 
326	 0,126555441620708 
327	 0,100003839287428 
328	 0,100275321351257 
329	 0,226693239137117 
330	 0,297936947625478 
331	 0,142997362631018 
332	 0,145403512893827 
333	 0,260323826878343 
334	 0,202638530808447 
335	 0,158087071551745 
336	 0,178811723115521 
337	 0,198316374136815 
338	 0,183084082436695 
339	 0,114098918763727 
340	 6,97654660430396E-02 
341	 6,15998324183152E-02 
342	 9,01890027237408E-02 
343	 0,138856635642503 
344	 0,180719148064 
345	 0,153776928496701 
346	 9,18374814620297E-02 
347	 4,06115399332907E-02 
348	 1,76924398468228E-02 
349	 0,027010911284132 
350	 0,073715417242307 
351	 0,072222432405673 
352	 1,41689156364192E-02 
353	 3,09426649465392E-02 
354	 8,15608071370342E-02 
355	 0,106284366519373 
356	 9,17886174964026E-02 
357	 5,61410357353165E-02 
358	 6,30099001403488E-02 
359	 5,74897865151282E-02 
360	 2,19660261422617E-02 
361	 0,032768960723329 
362	 6,55481359378728E-02 
363	 7,76099835709189E-02 
364	 7,26272846520032E-02 
365	 0,055102937805881 
366	 3,63318944270374E-02 
367	 4,20093036544969E-02 
368	 7,91666282591351E-02 
369	 7,02060604852673E-02 
370	 3,71478461005982E-02 
371	 3,21529920158711E-02 
372	 3,36195065506212E-02 
373	 3,81456004116349E-02 
374	 5,58364549324725E-02 
375	 6,04003499831632E-02 
376	 3,46790312315062E-02 
377	 0,019166392655383 
378	 1,86985812907692E-02 
379	 2,44564268146527E-02 
380	 3,85873616012516E-02 
381	 5,59408820948481E-02 
382	 5,73098314238327E-02 
383	 4,31547110857273E-02 
384	 0,017754008545793 
385	 2,93137853676709E-02 
386	 6,12804664015418E-02 
387	 5,59376602852905E-02 
388	 0,047117873622341 
389	 4,63897082838672E-02 
390	 3,97681158322699E-02 
391	 3,53110525234647E-02 
392	 4,33583219701016E-02 
393	 3,39887966457516E-02 
394	 1,40698657585971E-02 
395	 2,62182570294228E-02 
396	 4,07823276580149E-02 
397	 4,37821207368998E-02 
398	 4,37631122076361E-02 
399	 3,70070430656422E-02 
400	 1,55310303642795E-02 
401	 0,012413661329718 
402	 2,70911680418111E-02 
403	 2,24435060960479E-02 
404	 0,018169839757927 
405	 0,026487211546957 
406	 2,39227065700344E-02 
407	 1,47461353339068E-02 
408	 1,37945378063586E-02 
409	 1,70448205865023E-02 
410	 2,10039315488446E-02 
411	 1,35438291033282E-02 
412	 9,7207615487598E-03 
413	 2,24848972664285E-02 
414	 2,21526510384697E-02 
415	 1,32799861305072E-02 
416	 2,31663229332896E-02 
417	 2,72664559855344E-02 
418	 1,87350916002779E-02 
419	 1,76900747682978E-02 
420	 1,97098565323371E-02 
421	 1,70412166022862E-02 
422	 1,22127154103574E-02 
423	 8,62963920971146E-03 
424	 1,59609685359814E-02 
425	 1,86108276204751E-02 
426	 9,16193971749527E-03 
427	 1,12039126134052E-02 
428	 1,89517719676589E-02 
429	 1,68215213380922E-02 
430	 1,48782934134747E-02 
431	 1,52764564491632E-02 
432	 1,46986453304407E-02 
433	 1,27550449198489E-02 
434	 9,66873537397301E-03 
435	 1,32364228444227E-02 
436	 1,98758309197323E-02 
437	 0,017020524223112 
438	 1,48476645091444E-02 
439	 0,017052029353722 
440	 1,98584930374237E-02 
441	 2,04779763409888E-02 
442	 1,60501806505596E-02 
443	 1,14611711098138E-02 
444	 9,56397777194509E-03 
445	 1,49958019228466E-02 
446	 2,02887106314457E-02 
447	 2,06393283128388E-02 
448	 0,017581327982514 
449	 1,41444473518634E-02 
450	 1,53248781520808E-02 
451	 1,76607201828944E-02 
452	 1,91605252681652E-02 
453	 1,64893208753186E-02 
454	 1,30750360307112E-02 
455	 0,012321500272199 
456	 1,42258473976929E-02 
457	 1,68954205900138E-02 
458	 1,51576746125765E-02 
459	 1,49558377035606E-02 
460	 1,76704812397415E-02 
461	 1,47275945642502E-02 
462	 1,15047041001204E-02 
463	 1,61404671884766E-02 
464	 1,59468757328766E-02 
465	 1,11839332794424E-02 
466	 1,45234245079471E-02 
467	 1,73658413963813E-02 
468	 1,45854060271174E-02 
469	 0,014404604395321 
470	 1,60355745080726E-02 
471	 1,56947020293926E-02 
472	 0,01463923003219 
473	 1,33632972938702E-02 
474	 1,23707466800275E-02 
475	 1,20761385244011E-02 
476	 1,27863296341582E-02 
477	 1,33387813730537E-02 
478	 1,38946531058061E-02 
479	 1,60456012718157E-02 
480	 1,66215049186512E-02 
481	 1,43317355715989E-02 
482	 0,011037979592404 
483	 9,6110463403096E-03 
484	 1,39605721032165E-02 
485	 1,60127111031261E-02 
486	 1,44194350661123E-02 
487	 0,013015710146557 
488	 1,29577425344591E-02 
489	 1,48221764681133E-02 
490	 1,54043924025927E-02 
491	 1,45495654726108E-02 
492	 1,30093789608752E-02 
493	 0,012319686854444 
494	 1,29034957569974E-02 
495	 1,33524496487963E-02 
496	 1,31145843064773E-02 
497	 1,17582407501814E-02 
498	 1,27966316580874E-02 
499	 0,015016301444666 
500	 1,19313369150608E-02 
501	 1,00791312967269E-02 
502	 1,27282891383885E-02 
503	 1,41598539281666E-02 
504	 1,39635170463831E-02 
505	 1,27928696460473E-02 
506	 1,16364892966926E-02 
507	 1,09892898294306E-02 
508	 1,08647977273042E-02 
509	 1,15717283845789E-02 
510	 1,32209637209498E-02 
511	 1,30749292855219E-02 
512	 0,011872247960473 
513	 1,30541579076657E-02 
514	 1,35925040236756E-02 
515	 1,25538329352432E-02 
516	 1,27611342082664E-02 
517	 1,36699834435731E-02 
518	 0,014159065437464 
519	 1,45638461014635E-02 
520	 0,014496462941824 
521	 0,012183252961335 
522	 1,07770799516817E-02 
523	 1,23256223167853E-02 
524	 1,25979295640174E-02 
525	 1,21040010368311E-02 
526	 1,39058910787709E-02 
527	 0,014020637966486 
528	 1,17924684372174E-02 
529	 1,14031700893285E-02 
530	 1,22553467706773E-02 
531	 1,32686323559526E-02 
532	 1,34244124788925E-02 
533	 1,28154573363643E-02 
534	 1,26248345270708E-02 
535	 1,26940447975558E-02 
536	 1,29723155710396E-02 
537	 1,38495211318087E-02 
538	 1,44480266249943E-02 
539	 1,30065460712799E-02 
540	 1,24778419193222E-02 
541	 1,34627545543581E-02 
542	 1,40164227939958E-02 
543	 1,40789678173988E-02 
544	 1,37276775855301E-02 
545	 1,37165005439558E-02 
546	 1,41044811811215E-02 
547	 1,46509400859531E-02 
548	 1,47200895147595E-02 
549	 1,41153293110417E-02 
550	 1,38966514824582E-02 
551	 1,41696754742488E-02 
552	 1,49013386403794E-02 
553	 1,54668778241805E-02 
554	 1,56198055626303E-02 
555	 1,52631837736341E-02 
556	 1,51110824936011E-02 
557	 1,57331411155172E-02 
558	 1,65478788622322E-02 
559	 1,71770067072253E-02 
560	 1,69025973453375E-02 
561	 0,017102215407645 
562	 1,81354534285503E-02 
563	 1,85335234629508E-02 
564	 1,83145200232506E-02 
565	 1,76877395143979E-02 
566	 1,74137643455765E-02 
567	 1,76542140965905E-02 
568	 1,81299950432594E-02 
569	 1,84521797478593E-02 
570	 1,83635296525925E-02 
571	 1,82558923909354E-02 
572	 1,82733444258396E-02 
573	 1,87029421074849E-02 
574	 1,82418105376761E-02 
575	 0,016870089968475 
576	 1,72192260751966E-02 
577	 1,76590656759757E-02 
578	 1,62290825243778E-02 
579	 1,65443944178158E-02 
580	 1,83035093311611E-02 
581	 0,018055927356387 
582	 1,71194175532696E-02 
583	 0,016345222866628 
584	 1,62863427743494E-02 
585	 0,016602232719306 
586	 1,65441455267311E-02 
587	 1,63545497845013E-02 
588	 1,61340970664844E-02 
589	 1,60094709167606E-02 
590	 1,61850053798924E-02 
591	 1,67787359302997E-02 
592	 1,65835732322969E-02 
593	 1,58687816730074E-02 
594	 1,60261675183341E-02 
595	 1,62964522469776E-02 
596	 0,016374891028365 
597	 1,66301513735682E-02 
598	 1,69055706503431E-02 
599	 1,69383673268082E-02 
600	 1,66195262988369E-02 
601	 1,61707493177828E-02 
602	 1,65775435967364E-02 
603	 1,68765181317686E-02 
604	 1,63443188113796E-02 
605	 1,61093560278769E-02 
606	 1,59598197720647E-02 
607	 1,48257832659993E-02 
608	 1,39979266749453E-02 
609	 1,38303441168077E-02 
610	 1,30836868255979E-02 
611	 1,26871536754774E-02 
612	 1,38749331691632E-02 
613	 1,41446366584614E-02 
614	 1,33097972816164E-02 
615	 1,29239586791084E-02 
616	 0,012922266770037 
617	 1,31995030188695E-02 
618	 1,30482675958109E-02 
619	 1,26336628088513E-02 
620	 1,24604122999879E-02 
621	 1,26724083941687E-02 
622	 1,31261187082073E-02 
623	 1,28945386297416E-02 
624	 1,22721508936038E-02 
625	 1,16654908690568E-02 
626	 0,012115210834365 
627	 1,31478746793875E-02 
628	 1,27470457430469E-02 
629	 1,21211827406385E-02 
630	 1,18831807730468E-02 
631	 1,16629356062873E-02 
632	 1,16312967782751E-02 
633	 1,21385586089097E-02 
634	 1,22257472447206E-02 
635	 1,17985015929031E-02 
636	 1,17301458939223E-02 
637	 1,19087975174349E-02 
638	 1,21778017614709E-02 
639	 1,20150442014155E-02 
640	 1,16583454943981E-02 
641	 1,19599272502513E-02 
642	 1,23211028843057E-02 
643	 1,25156924484683E-02 
644	 0,012729381938958 
645	 1,29347994039451E-02 
646	 1,30846891643994E-02 
647	 1,28330204652532E-02 
648	 0,012342690324799 
649	 1,24707000879786E-02 
650	 1,26105009979736E-02 
651	 1,23730037604613E-02 
652	 1,22207897593154E-02 
653	 1,20321947201802E-02 
654	 1,13682631056001E-02 
655	 1,10691292621777E-02 
656	 1,13159432419987E-02 
657	 1,15072658604289E-02 
658	 1,13951873979202E-02 
659	 1,08013705301929E-02 
660	 0,010696839885027 
661	 1,09707026937442E-02 
662	 1,06420292105677E-02 
663	 1,03266993204155E-02 
664	 1,03144597155668E-02 
665	 1,03286492673942E-02 
666	 1,03608073422058E-02 
667	 1,04440619894691E-02 
668	 1,05597608070965E-02 
669	 1,07207274860507E-02 
670	 1,08992165206864E-02 
671	 1,15394957028039E-02 
672	 1,28503849884819E-02 
673	 1,29810925362058E-02 
674	 1,22720504353919E-02 
675	 0,012222471408393 
676	 1,27852319694967E-02 
677	 1,37661401417831E-02 
678	 1,38953154352193E-02 
679	 1,36933174854873E-02 
680	 0,013906975669691 
681	 1,42282296742089E-02 
682	 1,45670437459248E-02 
683	 1,48402171166156E-02 
684	 1,50547343364511E-02 
685	 1,52349327038881E-02 
686	 1,55904663114942E-02 
687	 1,58803392184998E-02 
688	 1,55532645126037E-02 
689	 0,016086034169197 
690	 1,74642846927144E-02 
691	 1,74720773616691E-02 
692	 0,017430406568063 
693	 1,85754927491962E-02 
694	 2,00233777408198E-02 
695	 2,15661288828274E-02 
696	 2,30566771177243E-02 
697	 2,49615720369951E-02 
698	 2,73735107242248E-02 
699	 2,95821432486578E-02 
700	 3,18170458529576E-02 
701	 3,44516705650077E-02 
702	 3,72908585594599E-02 
703	 4,04707949619256E-02 
704	 4,46003672215767E-02 
705	 4,88229625347255E-02 
706	 5,26121475332249E-02 
707	 5,65933651913205E-02 
708	 6,08204344251409E-02 
709	 6,51910179755517E-02 
710	 6,98252530554352E-02 
711	 7,47894402109123E-02 
712	 8,02294983854823E-02 
713	 8,56078283571161E-02 
714	 9,04694743767595E-02 
715	 9,53779771700352E-02 
716	 0,100576901164628 
717	 0,106411331631668 
718	 0,112225153742186 
719	 0,117736362908187 
720	 0,123138827198868 
721	 0,128460523958794 
722	 0,133752587856204 
723	 0,139122127072965 
724	 0,144370299300636 
725	 0,148798147706792 
726	 0,153197483462173 
727	 0,157987363043053 
728	 0,162306812860228 
729	 0,166255698512716 
730	 0,170222092291725 
731	 0,174008700018707 
732	 0,177585040349182 
733	 0,181032013160867 
734	 0,184354656783946 
735	 0,187549302644484 
736	 0,190630849218288 
737	 0,193473051366943 
738	 0,19574084879456 
739	 0,197961952233586 
740	 0,200242161562532 
741	 0,201901483312064 
742	 0,203389872305011 
743	 0,205271161249265 
744	 0,206887002236855 
745	 0,208216586092095 
746	 0,209622909276948 
747	 0,211171625018949 
748	 0,21279274195699 
749	 0,21369406468651 
750	 0,214304497692652 
751	 0,215432512734454 
752	 0,216194047848954 
753	 0,216570282133964 
754	 0,217381485817688 
755	 0,218287172513464 
756	 0,219041338457647 
757	 0,21991677776567 
758	 0,220625117874712 
759	 0,220443833200466 
760	 0,220798776276087 
761	 0,221923745979804 
762	 0,222512714166905 
763	 0,222715082391446 
764	 0,222764095374954 
765	 0,223047917959028 
766	 0,22355475948818 
767	 0,224038425321379 
768	 0,224358669738453 
769	 0,224519679091599 
770	 0,224990402636952 
771	 0,225500269075683 
772	 0,22569301220819 
773	 0,225926674744994 
774	 0,226227490307967 
775	 0,226392212177088 
776	 0,226697277242765 
777	 0,227198366788152 
778	 0,227202116037276 
779	 0,227121199206091 
780	 0,227666878657532 
781	 0,22802767365019 
782	 0,228062742109113 
783	 0,228041354806966 
784	 0,228270518674994 
785	 0,228866026138949 
786	 0,228958114542043 
787	 0,228765194886226 
788	 0,22889747458618 
789	 0,229080326641748 
790	 0,229267275663918 
791	 0,229574970916961 
792	 0,22983061311909 
793	 0,22991496644337 
794	 0,230183145059967 
795	 0,230403689896989 
796	 0,229896309734584 
797	 0,229861698490862 
798	 0,230482002536273 
799	 0,230448202030732 
800	 0,230456173831687 
801	 0,231145453349874 
802	 0,231219292348201 
803	 0,230926425247887 
804	 0,231547782593219 
805	 0,232045846531027 
806	 0,232152971356742 
807	 0,232589514365958 
808	 0,233044842584222 
809	 0,233164552705428 
810	 0,233661069112524 
811	 0,234325233069586 
812	 0,234122980953985 
813	 0,234126327756097 
814	 0,234678568158332 
815	 0,234863927237188 
816	 0,234934240545659 
817	 0,235271418318647 
818	 0,235588585531896 
819	 0,235854468297469 
820	 0,236181487114088 
821	 0,236433193334517 
822	 0,236563814659362 
823	 0,236680385929899 
824	 0,236998506818935 
825	 0,237759261328695 
826	 0,238218322969302 
827	 0,238300008360402 
828	 0,238428562422434 
829	 0,238396423718808 
830	 0,238232522102168 
831	 0,238768674438959 
832	 0,239490922242013 
833	 0,239592104590059 
834	 0,239904422860246 
835	 0,240313664365215 
836	 0,239764075643386 
837	 0,239284212332448 
838	 0,23945440025302 
839	 0,23998422470575 
840	 0,240557457365201 
841	 0,240787547316282 
842	 0,240877187054222 
843	 0,240876265803611 
844	 0,240755747338255 
845	 0,24073862341251 
846	 0,240954256181701 
847	 0,241336887595201 
848	 0,241659739041531 
849	 0,241630581785764 
850	 0,241712173513099 
851	 0,241887410528868 
852	 0,241668272315162 
853	 0,241562382108259 
854	 0,241757952323209 
855	 0,24148551007559 
856	 0,241108741712138 
857	 0,24122552978936 
858	 0,241506857504405 
859	 0,241804076246681 
860	 0,241913312294724 
861	 0,242061041024612 
862	 0,24225382183914 
863	 0,241632029773339 
864	 0,241201168267877 
865	 0,242329159472087 
866	 0,243377612178484 
867	 0,243920770078266 
868	 0,244024759051733 
869	 0,243963251308219 
870	 0,243961041901234 
871	 0,244348775890953 
872	 0,244814602705008 
873	 0,244946298371768 
874	 0,244893223310831 
875	 0,244910499433329 
876	 0,245673116995177 
877	 0,246124918807043 
878	 0,246000205858164 
879	 0,246654396343346 
880	 0,247282519565535 
881	 0,246988567401573 
882	 0,247398603417318 
883	 0,248452207215441 
884	 0,249250242816427 
885	 0,249255580447006 
886	 0,248562214290915 
887	 0,24892479733264 
888	 0,24955117917837 
889	 0,249619338719949 
890	 0,249693288584154 
891	 0,250002036646425 
892	 0,250919219583045 
893	 0,251126477465923 
894	 0,250489878107099 
895	 0,250475256129492 
896	 0,250893876163974 
897	 0,251545087987983 
898	 0,252466172852867 
899	 0,253038759079615 
900	 0,252189576893097 
901	 0,252067459574463 
902	 0,252868887105226 
903	 0,252812982371852 
904	 0,252430628835021 
905	 0,252097710938693 
906	 0,251915742691975 
907	 0,251967563765437 
908	 0,252320552672667 
909	 0,252714073729696 
910	 0,253029092618649 
911	 0,253179785570396 
912	 0,253270725240304 
913	 0,253382425453045 
914	 0,253629800492619 
915	 0,253953764177428 
916	 0,254245711549574 
917	 0,253996506023866 
918	 0,253306271898018 
919	 0,252632024931079 
920	 0,252198044981157 
921	 0,252201100886532 
922	 0,25310388273351 
923	 0,25322609588319 
924	 0,251442323845301 
925	 0,251161785281553 
926	 0,251757775905369 
927	 0,251093869569169 
928	 0,250216485469544 
929	 0,249632364157794 
930	 0,250050074194549 
931	 0,250997063477827 
932	 0,251724094695521 
933	 0,249363467210621 
934	 0,246804088820918 
935	 0,247976203449431 
936	 0,247896754057459 
937	 0,246305867255106 
938	 0,245495985847276 
939	 0,246229172535324 
940	 0,247876652050923 
941	 0,245311439973223 
942	 0,24271774335097 
943	 0,24379783273666 
944	 0,244308555404219 
945	 0,243636487637087 
946	 0,241969268009104 
947	 0,240811008779663 
948	 0,240159977523912 
949	 0,238006776991724 
950	 0,236387626343285 
951	 0,236239309707282 
952	 0,235490103608921 
953	 0,234295442945116 
954	 0,233123720268535 
955	 0,231996306950403 
956	 0,23100934448339 
957	 0,230282602124168 
958	 0,229895165680831 
959	 0,229756770214681 
960	 0,229433825439081 
961	 0,228937394896989 
962	 0,228159746016065 
963	 0,225751367042083 
964	 0,223902431875741 
965	 0,226071169552064 
966	 0,22719736906328 
967	 0,226531317784694 
968	 0,225950350364864 
969	 0,225869752701718 
970	 0,226238312060043 
971	 0,225325010166917 
972	 0,224298574155318 
973	 0,224307180980222 
974	 0,224342845580057 
975	 0,22494146245129 
976	 0,227388631281163 
977	 0,22745677729689 
978	 0,225222078744005 
979	 0,225263177050961 
980	 0,225714888906236 
981	 0,22589184515713 
982	 0,227387587988183 
983	 0,228421365286011 
984	 0,227279873214622 
985	 0,226801654304932 
986	 0,227429531874261 
987	 0,228931955307864 
988	 0,230055494847802 
989	 0,230480126349125 
990	 0,230741590623677 
991	 0,23074869545457 
992	 0,230709645661861 
993	 0,232008606268853 
994	 0,233188489073164 
995	 0,232756645243595 
996	 0,232335767581779 
997	 0,232708119712314 
998	 0,234737659466327 
999	 0,236836917417098 
1000	 0,238027611331422 
1001	 0,236907035920299 
1002	 0,236360157462548 
1003	 0,237510981609691 
1004	 0,237015478785661 
1005	 0,237513462951228 
1006	 0,241245069706439 
1007	 0,24134545985417 
1008	 0,239746269013421 
1009	 0,241924044393051 
1010	 0,244114205739855 
1011	 0,245213764733101 
1012	 0,245225310098829 
1013	 0,244339218658274 
1014	 0,243038748715918 
1015	 0,24255833149392 
1016	 0,243998318240022 
1017	 0,247799465796078 
1018	 0,251107015617341 
1019	 0,252223829286279 
1020	 0,249494338402463 
1021	 0,247116626454974 
1022	 0,246961936800726 
1023	 0,251200952024915 
1024	 0,252021998694887 
1025	 0,24889361878369 
1026	 0,252929330596413 
1027	 0,257731896683737 
1028	 0,258719761957325 
1029	 0,256794444726365 
1030	 0,256100301784136 
1031	 0,260658595297975 
1032	 0,258766217632518 
1033	 0,252690121701338 
1034	 0,251730572985702 
1035	 0,253293628617244 
1036	 0,255449251600363 
1037	 0,252640676700136 
1038	 0,256906265100603 
1039	 0,26932774386628 
1040	 0,266298764778112 
1041	 0,26052757734679 
1042	 0,262935068151626 
1043	 0,26259075678179 
1044	 0,263072737564104 
1045	 0,270293172083911 
1046	 0,266689072129305 
1047	 0,257412872973093 
1048	 0,26367642430853 
1049	 0,267127978041104 
1050	 0,265080001617353 
1051	 0,269617388177024 
1052	 0,276276290475026 
1053	 0,281199759021542 
1054	 0,276508750633353 
1055	 0,27060491330575 
1056	 0,27092097410958 
1057	 0,270899686516363 
1058	 0,26763402304 
1059	 0,259244849768093 
1060	 0,267742555986612 
1061	 0,279399128162579 
1062	 0,253580233368283 
1063	 0,248299775034226 
1064	 0,270821394355185 
1065	 0,277685325534374 
1066	 0,278117580361699 
1067	 0,27678112716668 
1068	 0,277854291497121 
1069	 0,279417917094348 
1070	 0,279821007973939 
1071	 0,281946962673052 
1072	 0,276429957735004 
1073	 0,254780474861471 
1074	 0,264528623163679 
1075	 0,28754802491049 
