Wavelength	GRA-BER00174.asd
325	 1,11285793073719E-02 
326	-4,97162679952082E-02 
327	-1,73282931929566E-02 
328	 6,44352788293124E-02 
329	 2,13519199490842E-02 
330	-3,75023744873901E-02 
331	-1,09783773697891E-02 
332	 5,51398359521692E-02 
333	 9,58948710759797E-02 
334	 1,09470820589275E-02 
335	-6,36508198055654E-02 
336	-4,36660017780168E-02 
337	 9,44203417458925E-02 
338	 0,167942107444764 
339	 5,75406922768002E-02 
340	 8,10836326829412E-03 
341	 0,017254914011778 
342	-7,68190717846031E-02 
343	-9,42466330022391E-02 
344	 2,13213476243555E-03 
345	 7,68352141007947E-02 
346	 0,11061535304955 
347	 8,96367612503974E-02 
348	 4,29595758226336E-02 
349	-6,05789438507638E-03 
350	-5,28925164571838E-03 
351	 1,50593173445357E-02 
352	 0,034610145868639 
353	 0,042468773648209 
354	 3,46079975311571E-02 
355	 8,59152195233077E-03 
356	 1,92975658783082E-02 
357	 5,28580036527509E-02 
358	 3,53128482314523E-02 
359	 3,18142113272075E-02 
360	 6,41511475238263E-02 
361	 6,43470228774352E-02 
362	 4,83752467296037E-02 
363	 4,70965013946887E-02 
364	 6,24166917073096E-02 
365	 7,97591095085751E-02 
366	 0,051306545245665 
367	 1,78243691252015E-02 
368	 8,97995030700663E-03 
369	 2,78107531554309E-02 
370	 4,90096851583956E-02 
371	 3,02840215198721E-02 
372	 1,86643900907544E-02 
373	 2,70022153820541E-02 
374	 4,11039462890794E-02 
375	 4,48216209510942E-02 
376	 2,86526516462742E-02 
377	 3,17087487465171E-02 
378	 4,87883486571467E-02 
379	 5,92983453478534E-02 
380	 4,94984002181464E-02 
381	 2,47581872687565E-02 
382	 3,98843969769897E-02 
383	 6,30913895784775E-02 
384	 6,32548452303541E-02 
385	 5,34320764283598E-02 
386	 4,05838222424144E-02 
387	 3,77987699442297E-02 
388	 0,036540659464341 
389	 3,25427075429796E-02 
390	 1,82951283777935E-02 
391	 1,71930187433511E-02 
392	 5,50815252549263E-02 
393	 7,44073820470182E-02 
394	 6,72396740754456E-02 
395	 4,43262320518852E-02 
396	 0,032155697137424 
397	 4,33676208915176E-02 
398	 4,59408926432289E-02 
399	 4,02333020740607E-02 
400	 3,15946546437684E-02 
401	 3,91699460918531E-02 
402	 5,76940263390514E-02 
403	 0,051602249142708 
404	 4,16591402533833E-02 
405	 0,042471947887255 
406	 4,62058092482603E-02 
407	 5,01135131918402E-02 
408	 5,13811702811888E-02 
409	 5,20913993312125E-02 
410	 5,18609077612559E-02 
411	 0,046184956389038 
412	 4,02643377407623E-02 
413	 3,93087102408827E-02 
414	 0,045823090932414 
415	 5,53876505519864E-02 
416	 5,77633473282167E-02 
417	 5,60170318052395E-02 
418	 5,19649910152472E-02 
419	 4,89492638762905E-02 
420	 4,70888869714289E-02 
421	 0,045921630598521 
422	 4,64609905030065E-02 
423	 4,88324002642769E-02 
424	 5,29159816168957E-02 
425	 5,72399820548739E-02 
426	 6,01721400914661E-02 
427	 0,055873292407834 
428	 5,04337076059105E-02 
429	 5,60648191230675E-02 
430	 5,99472814292458E-02 
431	 5,92336679660979E-02 
432	 5,94962898864937E-02 
433	 5,97987271067711E-02 
434	 5,89269460717434E-02 
435	 5,26317404574896E-02 
436	 4,58301942392386E-02 
437	 5,34140308475194E-02 
438	 5,84410544939738E-02 
439	 0,05564614113966 
440	 5,82709136027873E-02 
441	 0,061566124762819 
442	 5,83519580609944E-02 
443	 5,46037074327673E-02 
444	 5,29489837063437E-02 
445	 5,64315753367404E-02 
446	 6,07663793452414E-02 
447	 0,062752114697934 
448	 6,02142903664116E-02 
449	 5,73606162187609E-02 
450	 6,26550031134757E-02 
451	 6,50979612336486E-02 
452	 6,21859578056431E-02 
453	 5,87306490155432E-02 
454	 0,058157870997511 
455	 6,30523024668938E-02 
456	 0,066416742653513 
457	 6,66813156737443E-02 
458	 6,34665467851727E-02 
459	 6,17931092264251E-02 
460	 6,36670746605091E-02 
461	 6,57556700341206E-02 
462	 6,70379946776228E-02 
463	 6,67254706541925E-02 
464	 0,064503195171184 
465	 0,0618641270889 
466	 6,40715536564548E-02 
467	 6,57290856995569E-02 
468	 0,063691065677714 
469	 6,44195820697144E-02 
470	 0,067077387347799 
471	 6,84861418905385E-02 
472	 6,76469428369763E-02 
473	 6,48135751464163E-02 
474	 6,27214739850547E-02 
475	 6,34788355943119E-02 
476	 6,85126809790844E-02 
477	 6,84619613320692E-02 
478	 6,45708243949931E-02 
479	 6,56784405702542E-02 
480	 6,75484565733536E-02 
481	 6,82668593948605E-02 
482	 6,86952514818523E-02 
483	 6,89160710197528E-02 
484	 6,89694208261285E-02 
485	 6,88070934115548E-02 
486	 6,83613669659205E-02 
487	 6,71202906825487E-02 
488	 0,066907215447207 
489	 6,88397882003897E-02 
490	 6,93768222127705E-02 
491	 6,90381321193949E-02 
492	 7,03838131940481E-02 
493	 7,20217179316058E-02 
494	 7,29805681752895E-02 
495	 7,06660865022386E-02 
496	 6,88599828938948E-02 
497	 7,19023067971471E-02 
498	 7,18959756912365E-02 
499	 6,92972105163929E-02 
500	 7,12629822486285E-02 
501	 7,32487147449509E-02 
502	 7,29909722692809E-02 
503	 7,44376154713405E-02 
504	 7,60024964810836E-02 
505	 7,40091306401933E-02 
506	 7,30035994136465E-02 
507	 7,40468270094684E-02 
508	 0,07516968985662 
509	 7,61588294534142E-02 
510	 0,076834559049279 
511	 7,60877556236152E-02 
512	 7,48022466197538E-02 
513	 0,075673728901602 
514	 7,69083842551545E-02 
515	 7,77017627107821E-02 
516	 7,82670552579738E-02 
517	 7,87303899680889E-02 
518	 7,92825829624544E-02 
519	 7,90306912070988E-02 
520	 7,83160024173933E-02 
521	 7,91655098873087E-02 
522	 8,00793826254752E-02 
523	 8,00133144657185E-02 
524	 8,02385658592526E-02 
525	 8,08852311691467E-02 
526	 0,081972692021267 
527	 8,20936162774395E-02 
528	 8,12219497339232E-02 
529	 8,21658709379842E-02 
530	 8,35618073754151E-02 
531	 8,36529561089879E-02 
532	 8,37285427652032E-02 
533	 8,39785491769075E-02 
534	 8,41271576776292E-02 
535	 8,40223501570718E-02 
536	 8,37003480210254E-02 
537	 8,42008312256359E-02 
538	 8,51656988032429E-02 
539	 8,57419149814989E-02 
540	 0,08583582054945 
541	 8,56321455128503E-02 
542	 8,62149337892374E-02 
543	 8,69375452476857E-02 
544	 8,71555261620971E-02 
545	 8,80538931876339E-02 
546	 8,93581152486799E-02 
547	 8,97551444960365E-02 
548	 8,96994959824407E-02 
549	 8,94468110701971E-02 
550	 8,92015941704991E-02 
551	 8,91026249941382E-02 
552	 8,92777940143714E-02 
553	 8,98369271739927E-02 
554	 9,05033888851905E-02 
555	 9,00358746589082E-02 
556	 8,98364553824319E-02 
557	 9,09773923783002E-02 
558	 9,13796985110116E-02 
559	 9,12183541440736E-02 
560	 9,20262005249765E-02 
561	 9,21251262784308E-02 
562	 9,12436827234627E-02 
563	 9,19578305427072E-02 
564	 0,093264004020337 
565	 9,35567822099978E-02 
566	 9,35770722685019E-02 
567	 9,35156142901834E-02 
568	 9,33591628625327E-02 
569	 9,35666202063176E-02 
570	 9,43395130781007E-02 
571	 9,42606184125375E-02 
572	 9,37949823381336E-02 
573	 9,44359783699422E-02 
574	 9,51619617309385E-02 
575	 9,56338646255904E-02 
576	 9,61479222950458E-02 
577	 9,62140228939946E-02 
578	 9,53336882801064E-02 
579	 9,63122860523609E-02 
580	 9,84436128991481E-02 
581	 9,73936424753146E-02 
582	 9,64032632940513E-02 
583	 9,71913180473299E-02 
584	 9,77266053883076E-02 
585	 9,78687709634472E-02 
586	 9,78205349689887E-02 
587	 9,78919748166365E-02 
588	 0,098246912953814 
589	 9,91572405363382E-02 
590	 9,95723612816821E-02 
591	 9,86170815199829E-02 
592	 9,85530058888454E-02 
593	 9,93794126418099E-02 
594	 9,99011850537696E-02 
595	 9,98331676420602E-02 
596	 9,91350243242428E-02 
597	 9,87550939989514E-02 
598	 9,89500785795263E-02 
599	 9,99311484705124E-02 
600	 0,100549920122886 
601	 0,100460413239325 
602	 9,96574249086291E-02 
603	 9,96767556459177E-02 
604	 0,101483284276274 
605	 0,101515106100484 
606	 0,100188851070804 
607	 9,99735958488852E-02 
608	 0,100305437884061 
609	 0,100841461728827 
610	 0,100421166297688 
611	 0,09975722862667 
612	 9,98448010550406E-02 
613	 0,100933477992902 
614	 0,102375016032306 
615	 0,101899879025964 
616	 0,101118467334838 
617	 0,101110332001535 
618	 0,101637799112836 
619	 0,102136791992458 
620	 0,101472010835476 
621	 0,101455741574308 
622	 0,102481938595208 
623	 0,103367481877248 
624	 0,103700087846093 
625	 0,103184754450442 
626	 0,103141059092526 
627	 0,103541221831409 
628	 0,103382391772969 
629	 0,103100521568305 
630	 0,102974579672215 
631	 0,103330378129071 
632	 0,103866230988652 
633	 0,104038788411313 
634	 0,104237121812937 
635	 0,10446531200525 
636	 0,10433352483459 
637	 0,104010636138662 
638	 0,103726122269712 
639	 0,104471667299112 
640	 0,105659937209869 
641	 0,105391635829169 
642	 0,10493758470264 
643	 0,10481489032172 
644	 0,104937917995355 
645	 0,10496360133226 
646	 0,104444461067924 
647	 0,104968023061643 
648	 0,106237194702182 
649	 0,105761536524947 
650	 0,105361861034322 
651	 0,10610738252305 
652	 0,105782536538098 
653	 0,105014144685824 
654	 0,105737596793504 
655	 0,106460440346191 
656	 0,106565124582172 
657	 0,105702395335608 
658	 0,104656438950993 
659	 0,104265661582688 
660	 0,104476056437313 
661	 0,104759758007886 
662	 0,103531054576287 
663	 0,102749546529543 
664	 0,103321343568229 
665	 0,103963374796227 
666	 0,10435004689886 
667	 0,104251469162082 
668	 0,103852762228787 
669	 0,103405813570827 
670	 0,103507435112878 
671	 0,10398449911176 
672	 0,104618838325728 
673	 0,104674403912792 
674	 0,104511766498757 
675	 0,105419448438989 
676	 0,1059334652813 
677	 0,105668757785782 
678	 0,105729048851639 
679	 0,106011224414765 
680	 0,106283826803363 
681	 0,106898275238952 
682	 0,107640372601393 
683	 0,107583395859798 
684	 0,107638017972416 
685	 0,108301752430445 
686	 0,108882525763981 
687	 0,10936055368882 
688	 0,109870087885149 
689	 0,110425495625682 
690	 0,110935484855306 
691	 0,11092033148505 
692	 0,11113206789682 
693	 0,112191580052037 
694	 0,112889018589979 
695	 0,113052190216622 
696	 0,11275561051531 
697	 0,113020791039542 
698	 0,114083828350394 
699	 0,114351592351932 
700	 0,114304586663892 
701	 0,114748796678887 
702	 0,115474734856436 
703	 0,116266755939896 
704	 0,116633624789391 
705	 0,116676052528585 
706	 0,11653212857646 
707	 0,116782842585022 
708	 0,117205227784506 
709	 0,117177995277342 
710	 0,117498053402497 
711	 0,118225035421847 
712	 0,118514061296955 
713	 0,1185152392364 
714	 0,118443923594585 
715	 0,118896603735644 
716	 0,119663411576397 
717	 0,119907109792649 
718	 0,119978893556437 
719	 0,120059816951384 
720	 0,120363876640133 
721	 0,12076090100065 
722	 0,121055167749931 
723	 0,121378248014986 
724	 0,121667024995208 
725	 0,121571652296708 
726	 0,121723622978172 
727	 0,122411776529916 
728	 0,122511696091677 
729	 0,122386774668414 
730	 0,122989969146704 
731	 0,123278332657014 
732	 0,12314854674899 
733	 0,123553941652509 
734	 0,124151646048194 
735	 0,124581583929019 
736	 0,124489896638184 
737	 0,124239395989014 
738	 0,124955071268703 
739	 0,125353032812837 
740	 0,125140979213314 
741	 0,125625224900017 
742	 0,126233668211217 
743	 0,126205507011216 
744	 0,126454075483623 
745	 0,126936091825665 
746	 0,12685155443763 
747	 0,126841964165024 
748	 0,127223147669847 
749	 0,127618991433169 
750	 0,127931644631063 
751	 0,128080232008939 
752	 0,128380446918607 
753	 0,128759016911119 
754	 0,128543718443184 
755	 0,12848341253928 
756	 0,129066830513703 
757	 0,129358715134625 
758	 0,129460434089397 
759	 0,12990715432277 
760	 0,130167895676835 
761	 0,130160276681949 
762	 0,130316275847981 
763	 0,130632320221444 
764	 0,131053793357947 
765	 0,131055560765446 
766	 0,130900099366833 
767	 0,131573864418285 
768	 0,132096663840484 
769	 0,132132170066855 
770	 0,132174731994748 
771	 0,132355281023609 
772	 0,132766123986103 
773	 0,13286119299873 
774	 0,132711861386833 
775	 0,132921369948069 
776	 0,133259752841814 
777	 0,133592386806006 
778	 0,13380842472915 
779	 0,134047364722966 
780	 0,134543193481538 
781	 0,134664295374092 
782	 0,134465286068819 
783	 0,134761856986162 
784	 0,135156674697446 
785	 0,135382227558048 
786	 0,135520581270454 
787	 0,135699742376318 
788	 0,136147384755319 
789	 0,136403393439199 
790	 0,136366683260617 
791	 0,136220391203965 
792	 0,136293458852294 
793	 0,136801297193143 
794	 0,137167330940724 
795	 0,137300771892717 
796	 0,137207910038871 
797	 0,137322797088892 
798	 0,137749750881264 
799	 0,138214575741242 
800	 0,13833032966975 
801	 0,137818922085453 
802	 0,137765023499489 
803	 0,13815650265038 
804	 0,138422698155249 
805	 0,138508115294701 
806	 0,138487214686677 
807	 0,139076002485241 
808	 0,139584347815857 
809	 0,139264182612756 
810	 0,13907000755847 
811	 0,139205177308715 
812	 0,139642373212605 
813	 0,140040785657234 
814	 0,140249859379128 
815	 0,140437555011982 
816	 0,140694727815725 
817	 0,141100714903862 
818	 0,141239095905729 
819	 0,141110258305062 
820	 0,140958359419286 
821	 0,141116345354513 
822	 0,141654150605283 
823	 0,141799335923275 
824	 0,141847872199851 
825	 0,14227438067453 
826	 0,142422491997322 
827	 0,142278123961145 
828	 0,142261031114839 
829	 0,142461248247063 
830	 0,142874242027737 
831	 0,143105848918644 
832	 0,143075207116429 
833	 0,142750287960662 
834	 0,142413318337693 
835	 0,142279429310328 
836	 0,142730060368915 
837	 0,143173961413925 
838	 0,143298979655947 
839	 0,143466828218898 
840	 0,143698806436331 
841	 0,143973324916345 
842	 0,14367406287062 
843	 0,14304623331211 
844	 0,143399618507507 
845	 0,143864907851719 
846	 0,143976877395313 
847	 0,144082776424018 
848	 0,144247396088178 
849	 0,144515061176217 
850	 0,144421387775939 
851	 0,144077573959401 
852	 0,144248056833465 
853	 0,144382939887681 
854	 0,144281138551705 
855	 0,144773704057233 
856	 0,145251299065701 
857	 0,144792840155213 
858	 0,144870392323356 
859	 0,14542289768453 
860	 0,145004457835056 
861	 0,144692514249942 
862	 0,144995061261047 
863	 0,145313637900366 
864	 0,145513010190389 
865	 0,145504440947524 
866	 0,145353499331052 
867	 0,145273018649308 
868	 0,1458432685217 
869	 0,146314090786177 
870	 0,146335697692888 
871	 0,146209767840219 
872	 0,14620039286182 
873	 0,146560406871485 
874	 0,146349859706529 
875	 0,145736063651093 
876	 0,145789177055552 
877	 0,145961870620569 
878	 0,146045920196628 
879	 0,146196988596442 
880	 0,146304362875102 
881	 0,146254539991978 
882	 0,146239993548419 
883	 0,146377202483825 
884	 0,146936301754708 
885	 0,147051275574745 
886	 0,146562272681193 
887	 0,146464820085736 
888	 0,14651358549416 
889	 0,146466627017986 
890	 0,147029416197429 
891	 0,147773253725206 
892	 0,147560001572602 
893	 0,146954405057125 
894	 0,146427368098672 
895	 0,147154772394826 
896	 0,147752956822777 
897	 0,14727496418766 
898	 0,147949146808515 
899	 0,148951318636788 
900	 0,148213163902409 
901	 0,148055084109817 
902	 0,148667602599542 
903	 0,14802267668491 
904	 0,147938716185043 
905	 0,149174189694476 
906	 0,148344529048917 
907	 0,146981273887843 
908	 0,147805337877454 
909	 0,148337795171399 
910	 0,148307369852617 
911	 0,148812338284303 
912	 0,149458350780874 
913	 0,149847349604073 
914	 0,148678344698449 
915	 0,147850510200859 
916	 0,149415719790025 
917	 0,149880901654308 
918	 0,149258823209157 
919	 0,149484657240637 
920	 0,149384223520946 
921	 0,148940491729742 
922	 0,149773460668024 
923	 0,150996227277648 
924	 0,151718844151068 
925	 0,151437784159981 
926	 0,150590382994236 
927	 0,150100610618908 
928	 0,149946007697146 
929	 0,150152146439855 
930	 0,150788211859661 
931	 0,150816188121512 
932	 0,14991876886845 
933	 0,150529771634968 
934	 0,151254931151276 
935	 0,150064525129224 
936	 0,149873008481419 
937	 0,150754382246248 
938	 0,151051769175165 
939	 0,151034014634587 
940	 0,150973967466322 
941	 0,152080953833043 
942	 0,152690720043816 
943	 0,151469282499663 
944	 0,15107616803207 
945	 0,151175489120762 
946	 0,150227999616865 
947	 0,15045586114738 
948	 0,152113686394855 
949	 0,153978910907547 
950	 0,154334626483963 
951	 0,152466295029425 
952	 0,150552991148686 
953	 0,150119191948572 
954	 0,152451770519486 
955	 0,15361659249106 
956	 0,152962131928622 
957	 0,1509463619064 
958	 0,151022157431865 
959	 0,153379081603777 
960	 0,152235601250092 
961	 0,151862898919528 
962	 0,155007059415354 
963	 0,154787487401116 
964	 0,153200281456539 
965	 0,154688247624657 
966	 0,154595352721708 
967	 0,153005641243995 
968	 0,153844393997465 
969	 0,153976864499322 
970	 0,152596985870438 
971	 0,152736500523436 
972	 0,153824089280382 
973	 0,155018681256139 
974	 0,155228824559914 
975	 0,154585952640095 
976	 0,153735025729929 
977	 0,152879118921847 
978	 0,15253791568987 
979	 0,154021298073619 
980	 0,155446972428452 
981	 0,155685223066012 
982	 0,154114859580872 
983	 0,154070234136717 
984	 0,158299230616613 
985	 0,157649184687113 
986	 0,154084097427793 
987	 0,154691743506486 
988	 0,155092720422173 
989	 0,15434309200086 
990	 0,153133649708076 
991	 0,153753217678562 
992	 0,156452338547177 
993	 0,15478476804273 
994	 0,153368555928468 
995	 0,156989216320586 
996	 0,157218570557532 
997	 0,15473627282236 
998	 0,15378105452703 
999	 0,154445986607302 
1000	 0,156190389888678 
1001	 0,156870245132293 
1002	 0,156098086802751 
1003	 0,154164935507844 
1004	 0,153950898556215 
1005	 0,154783308661742 
1006	 0,155730863233254 
1007	 0,157149250023587 
1008	 0,157946017939399 
1009	 0,156229371849869 
1010	 0,15496210566743 
1011	 0,155366573506428 
1012	 0,158939770820872 
1013	 0,159474104676741 
1014	 0,155542777326407 
1015	 0,155181233642852 
1016	 0,15680752820123 
1017	 0,158613558527305 
1018	 0,160904807882991 
1019	 0,161169592634461 
1020	 0,156150231179855 
1021	 0,157898368397346 
1022	 0,164419406059785 
1023	 0,161483985776529 
1024	 0,161231090542724 
1025	 0,164967379644381 
1026	 0,158791466276767 
1027	 0,156168436438302 
1028	 0,164180513769185 
1029	 0,165511450528999 
1030	 0,161761392316739 
1031	 0,157354557809153 
1032	 0,156880990404282 
1033	 0,159200406791883 
1034	 0,159652191161205 
1035	 0,159386581672108 
1036	 0,160139530712028 
1037	 0,16776881829244 
1038	 0,170639699740427 
1039	 0,165099356115486 
1040	 0,163628003946815 
1041	 0,160032211957805 
1042	 0,150208382913933 
1043	 0,146721044144387 
1044	 0,150034527060078 
1045	 0,157774190711487 
1046	 0,163406215093589 
1047	 0,165414021088042 
1048	 0,16494800378556 
1049	 0,163777418835257 
1050	 0,162937799654686 
1051	 0,162916742446526 
1052	 0,163933203025541 
1053	 0,164953117810877 
1054	 0,160442378844725 
1055	 0,154908904590675 
1056	 0,152558963096667 
1057	 0,149586678492992 
1058	 0,150650961055164 
1059	 0,161692019108494 
1060	 0,166035690148705 
1061	 0,163027540807805 
1062	 0,159597482025025 
1063	 0,16379729075567 
1064	 0,171828769763451 
1065	 0,159470416242321 
1066	 0,149319621555289 
1067	 0,152861781091111 
1068	 0,167133502083371 
1069	 0,175416675546582 
1070	 0,166904139179213 
1071	 0,156670073523135 
1072	 0,152454178077274 
1073	 0,159059755011418 
1074	 0,152299114971444 
1075	 0,140540681456764 
