Wavelength	GRA-VIE00027.asd
325	 0,205527270149906 
326	 0,297730233073747 
327	 0,342621209503516 
328	 0,265073414940903 
329	 0,206396037308958 
330	 0,162994206233488 
331	 0,170699016193322 
332	 0,179615733971609 
333	 0,187439874174781 
334	 0,184641569565839 
335	 0,224316726903361 
336	 0,2980279142047 
337	 0,400778077851975 
338	 0,420666213672123 
339	 0,285620388277353 
340	 0,222771370773416 
341	 0,240261198359749 
342	 0,271742226277877 
343	 0,263433121011332 
344	 0,218751226489558 
345	 0,203162030019002 
346	 0,212594196565982 
347	 0,240588184387861 
348	 0,237268183190556 
349	 0,205422743721899 
350	 0,180802260287778 
351	 0,17146488652911 
352	 0,177049297525294 
353	 0,193555960548043 
354	 0,203853060885394 
355	 0,192655688324974 
356	 0,196468967860046 
357	 0,207938387841656 
358	 0,180310281808177 
359	 0,168214406389188 
360	 0,192103756333926 
361	 0,199559409937275 
362	 0,195618528535522 
363	 0,197021745022873 
364	 0,184455788074638 
365	 0,159489288266304 
366	 0,137510701008872 
367	 0,144838478074647 
368	 0,188548205548915 
369	 0,189498912520834 
370	 0,167660135007845 
371	 0,173612591034319 
372	 0,179314126122524 
373	 0,179415752163444 
374	 0,184654655702787 
375	 0,183472976121384 
376	 0,167517614480163 
377	 0,145305861612227 
378	 0,134839499216986 
379	 0,171012132688913 
380	 0,188710854449086 
381	 0,174149270008012 
382	 0,15447360367645 
383	 0,147209775647631 
384	 0,167354081512766 
385	 0,184351584351436 
386	 0,189073458736721 
387	 0,176959119453263 
388	 0,167755519172199 
389	 0,169740153867688 
390	 0,175517103839828 
391	 0,176355096739119 
392	 0,163184685206314 
393	 0,160522353086358 
394	 0,17055028550911 
395	 0,182248393296263 
396	 0,188324122047113 
397	 0,186374288173024 
398	 0,184506161306831 
399	 0,179489442462018 
400	 0,163913592723598 
401	 0,160105788810758 
402	 0,169381130482264 
403	 0,172848392860097 
404	 0,175992739087182 
405	 0,181294599708473 
406	 0,172904028562541 
407	 0,160055990618609 
408	 0,16643154675266 
409	 0,168518939015788 
410	 0,161900136544338 
411	 0,158213352976629 
412	 0,15932103340491 
413	 0,165705897803308 
414	 0,167209253469264 
415	 0,164345512038486 
416	 0,164541279276804 
417	 0,160634333971653 
418	 0,152515192111175 
419	 0,156511207197397 
420	 0,163981862132962 
421	 0,162532760467098 
422	 0,160158349115488 
423	 0,159140449580316 
424	 0,161004595002177 
425	 0,160797739967737 
426	 0,15632966299633 
427	 0,156305118764965 
428	 0,159177392785031 
429	 0,160348485449808 
430	 0,160202686807446 
431	 0,159123503280391 
432	 0,158992395150161 
433	 0,15880151102934 
434	 0,157778549466894 
435	 0,15958132003825 
436	 0,162094665268095 
437	 0,157919418580115 
438	 0,156145034768649 
439	 0,159785766440922 
440	 0,162737489819013 
441	 0,163708786376279 
442	 0,161976851919858 
443	 0,159073317333679 
444	 0,156519431083086 
445	 0,157134372392766 
446	 0,159750369840499 
447	 0,162988193452725 
448	 0,161932742208062 
449	 0,159392728810369 
450	 0,161863274786434 
451	 0,164333930640573 
452	 0,165208352985892 
453	 0,164788277898701 
454	 0,164518097598266 
455	 0,165529383943461 
456	 0,163590050375135 
457	 0,160334949182758 
458	 0,162182882088396 
459	 0,163970106445535 
460	 0,163572342329254 
461	 0,162263765803605 
462	 0,16189564619493 
463	 0,164722163229074 
464	 0,166040066173816 
465	 0,16500704733132 
466	 0,163220076539032 
467	 0,16167845554623 
468	 0,1611668681774 
469	 0,162298609499414 
470	 0,163579898123218 
471	 0,161814649084785 
472	 0,161765709210166 
473	 0,164022088766653 
474	 0,16355790035018 
475	 0,1624208882185 
476	 0,162846546256331 
477	 0,163534858904221 
478	 0,163693449576802 
479	 0,161472291799485 
480	 0,161130342816948 
481	 0,16379597708919 
482	 0,162081413088977 
483	 0,159472270751387 
484	 0,162226580391341 
485	 0,165391978081207 
486	 0,167025562400741 
487	 0,16529589370553 
488	 0,163223940209636 
489	 0,163160583465392 
490	 0,164159259339096 
491	 0,164998569671381 
492	 0,163148563484496 
493	 0,161882413521902 
494	 0,162174917094437 
495	 0,162331437080588 
496	 0,16225599655133 
497	 0,161997920807832 
498	 0,162807182107856 
499	 0,163796051055983 
500	 0,161115990911275 
501	 0,15982366559849 
502	 0,162294776299779 
503	 0,162528319233668 
504	 0,16164336715523 
505	 0,163046530090462 
506	 0,163549999563874 
507	 0,162796607501527 
508	 0,163427596942141 
509	 0,164362853783254 
510	 0,164552186102841 
511	 0,164776046265602 
512	 0,165271127419409 
513	 0,166286133826008 
514	 0,167281718283148 
515	 0,168044738305322 
516	 0,169154311787677 
517	 0,169689931974523 
518	 0,168323627942989 
519	 0,167562310370417 
520	 0,167942344640332 
521	 0,168811276040816 
522	 0,169204541164924 
523	 0,168479684013072 
524	 0,167587004615387 
525	 0,167003609933816 
526	 0,167467052683215 
527	 0,167549559296119 
528	 0,166950351493178 
529	 0,16711686446279 
530	 0,167265711579857 
531	 0,166413156590694 
532	 0,166285120752017 
533	 0,166913069524212 
534	 0,167156352986615 
535	 0,167102744109054 
536	 0,166877435562375 
537	 0,167301618400998 
538	 0,167705258813166 
539	 0,16662447188447 
540	 0,165705043112861 
541	 0,165686060338733 
542	 0,167366538960314 
543	 0,168581662311034 
544	 0,167310005888875 
545	 0,166413939414321 
546	 0,16649538006765 
547	 0,167575420675693 
548	 0,168024629539546 
549	 0,16723054429754 
550	 0,167408934707904 
551	 0,167773459316627 
552	 0,166657708036756 
553	 0,166548255647043 
554	 0,167549497770333 
555	 0,167183048718644 
556	 0,166170365103288 
557	 0,165294501604954 
558	 0,16610763115937 
559	 0,167601869334976 
560	 0,166526091530449 
561	 0,16555889664035 
562	 0,165655881404389 
563	 0,165647159697848 
564	 0,165432739401406 
565	 0,165007486545053 
566	 0,165240602144115 
567	 0,166015779368759 
568	 0,166104992736297 
569	 0,165985756914823 
570	 0,166093512256305 
571	 0,167203548627925 
572	 0,168780104948564 
573	 0,169486068036265 
574	 0,16961015371991 
575	 0,169541925469495 
576	 0,170957071653072 
577	 0,1722796640368 
578	 0,17169902193898 
579	 0,173074257768364 
580	 0,175971127070497 
581	 0,176285453962754 
582	 0,176164371924058 
583	 0,176873329781995 
584	 0,178203618003212 
585	 0,179720435465536 
586	 0,180691883380013 
587	 0,181685390416009 
588	 0,182828527159152 
589	 0,183993117131955 
590	 0,184833322272288 
591	 0,185065951659572 
592	 0,185450047745397 
593	 0,185921722453814 
594	 0,185762674729894 
595	 0,185915626660372 
596	 0,186728164988094 
597	 0,187362321489943 
598	 0,187611968977741 
599	 0,187321968768589 
600	 0,187090132254279 
601	 0,187012411865641 
602	 0,186728660370282 
603	 0,186132560720468 
604	 0,185217121216203 
605	 0,184853729960896 
606	 0,184823787437053 
607	 0,184216064117456 
608	 0,183584418790123 
609	 0,183032249191197 
610	 0,181848810846501 
611	 0,181039635594606 
612	 0,181870433269416 
613	 0,181802831534214 
614	 0,180754515244711 
615	 0,180693250880062 
616	 0,18084688200066 
617	 0,180678576470747 
618	 0,179964194553163 
619	 0,179228265801742 
620	 0,179582166792317 
621	 0,179885747724934 
622	 0,179741817201721 
623	 0,179211809416012 
624	 0,178801050992909 
625	 0,179017676021784 
626	 0,179525956165764 
627	 0,180072484832981 
628	 0,180214839427991 
629	 0,180205831346018 
630	 0,180220008126909 
631	 0,180469562927226 
632	 0,180901946725355 
633	 0,181380590565413 
634	 0,181854146914135 
635	 0,18238662514678 
636	 0,18337454454253 
637	 0,18422344624272 
638	 0,184480462401168 
639	 0,185161686522198 
640	 0,186310080640553 
641	 0,187691516816929 
642	 0,188365565401238 
643	 0,188131417630222 
644	 0,188456728784387 
645	 0,189326891171061 
646	 0,190527758569594 
647	 0,190914633024146 
648	 0,19042461410644 
649	 0,190011877150972 
650	 0,189695748066697 
651	 0,189395194754079 
652	 0,188102361371621 
653	 0,186427641433792 
654	 0,185901064802374 
655	 0,185199232015261 
656	 0,184036262777988 
657	 0,183315176693955 
658	 0,182451404788315 
659	 0,180810067436487 
660	 0,178797374773977 
661	 0,176826180457703 
662	 0,175737372006411 
663	 0,17469437745861 
664	 0,173307807275697 
665	 0,172087096405436 
666	 0,171002599923319 
667	 0,169881416503132 
668	 0,169414709641919 
669	 0,169545615701003 
670	 0,169230243097822 
671	 0,169050201735961 
672	 0,169391585054083 
673	 0,168883213779462 
674	 0,16781324955407 
675	 0,167343512532719 
676	 0,167386229044645 
677	 0,167791459187004 
678	 0,167652449262258 
679	 0,167490775014624 
680	 0,168006160127216 
681	 0,16808932147615 
682	 0,1679427839202 
683	 0,169025199659807 
684	 0,170343667166737 
685	 0,171273811715772 
686	 0,171750129399052 
687	 0,172627988324227 
688	 0,175349100119952 
689	 0,178942142463712 
690	 0,182850328166837 
691	 0,185994980230904 
692	 0,189905460926801 
693	 0,195920585161063 
694	 0,202402796036984 
695	 0,209251289740534 
696	 0,217012138595073 
697	 0,225689283906304 
698	 0,235260736398843 
699	 0,245588425520232 
700	 0,256423023714903 
701	 0,267466085875326 
702	 0,278748365857055 
703	 0,290166835475503 
704	 0,301496925758813 
705	 0,312844988471169 
706	 0,324143903170057 
707	 0,334486459248952 
708	 0,344043965975162 
709	 0,353338609369284 
710	 0,362358006867904 
711	 0,371133202880622 
712	 0,379702849779603 
713	 0,387631415814243 
714	 0,394553313619083 
715	 0,400704852561133 
716	 0,406419313168205 
717	 0,412386486902591 
718	 0,417987422129821 
719	 0,422954957433869 
720	 0,427284609769994 
721	 0,431242940088209 
722	 0,435191314786327 
723	 0,438703348819303 
724	 0,441699692411517 
725	 0,444255607916786 
726	 0,446712696867902 
727	 0,449246298219778 
728	 0,45135699312677 
729	 0,45317732948923 
730	 0,455069836654854 
731	 0,45669955056753 
732	 0,458021756850424 
733	 0,459254773655536 
734	 0,460461293784344 
735	 0,461673698769175 
736	 0,462681914546014 
737	 0,463502477694706 
738	 0,464243320226238 
739	 0,46506117536375 
740	 0,465976928661986 
741	 0,466686464623659 
742	 0,467296826045685 
743	 0,467956857767689 
744	 0,468432452573984 
745	 0,46879745576331 
746	 0,469448695174602 
747	 0,469964333797806 
748	 0,470186293818028 
749	 0,470731251571531 
750	 0,471354799163302 
751	 0,471567176918494 
752	 0,47187708124269 
753	 0,472356184820804 
754	 0,472724773687343 
755	 0,473029942508578 
756	 0,473305797328812 
757	 0,473542910224382 
758	 0,473674349074003 
759	 0,473511573152159 
760	 0,473770305679298 
761	 0,474459761943367 
762	 0,474412679790562 
763	 0,474215707812423 
764	 0,474462625069634 
765	 0,474738086456889 
766	 0,474972084573988 
767	 0,475236597840838 
768	 0,475180269853528 
769	 0,474845389309218 
770	 0,475279465408497 
771	 0,476060007777011 
772	 0,476575198516306 
773	 0,476471175835835 
774	 0,475997798435587 
775	 0,476205467209915 
776	 0,476397114415323 
777	 0,476271033594004 
778	 0,476324823849435 
779	 0,476597687564344 
780	 0,477075782026273 
781	 0,477069616182589 
782	 0,476655144135658 
783	 0,47680908857987 
784	 0,477128468430468 
785	 0,477308469981121 
786	 0,477187806174397 
787	 0,476910425224558 
788	 0,476748792485214 
789	 0,476990501316578 
790	 0,477561116161288 
791	 0,477792972764959 
792	 0,477700340287319 
793	 0,477381586699332 
794	 0,477626703078114 
795	 0,478088586348598 
796	 0,477696248886539 
797	 0,477537403044595 
798	 0,477828919912781 
799	 0,477751015170521 
800	 0,47761241184072 
801	 0,477720020005172 
802	 0,47767351174043 
803	 0,477570676046916 
804	 0,477850926890056 
805	 0,478103602710557 
806	 0,478203710798738 
807	 0,478354221703388 
808	 0,478587044070029 
809	 0,478905044003936 
810	 0,478953692129522 
811	 0,478813132148744 
812	 0,478912040577009 
813	 0,479051004527609 
814	 0,479162426256099 
815	 0,47931410631443 
816	 0,479527544382899 
817	 0,479815780349241 
818	 0,479931909235533 
819	 0,479981798464719 
820	 0,480487475534157 
821	 0,480873652481931 
822	 0,480853726111857 
823	 0,480571443131158 
824	 0,480227452643205 
825	 0,480058858507747 
826	 0,480159607642418 
827	 0,480410488561522 
828	 0,48040802675682 
829	 0,480133556948701 
830	 0,479709280901813 
831	 0,480003693507784 
832	 0,480599986016291 
833	 0,480804946152453 
834	 0,480754214174324 
835	 0,480616564212291 
836	 0,480904203677053 
837	 0,4810198791161 
838	 0,480694368327325 
839	 0,480448261077601 
840	 0,480464155647965 
841	 0,480897028155072 
842	 0,481119416118243 
843	 0,48119264418417 
844	 0,482111623867958 
845	 0,482056891960748 
846	 0,480446301853 
847	 0,480729035133115 
848	 0,481787335556791 
849	 0,481509079495454 
850	 0,481218268504314 
851	 0,481233685171046 
852	 0,481560986764516 
853	 0,481832461911112 
854	 0,481854257182327 
855	 0,481883075405555 
856	 0,481922353932363 
857	 0,481938361603517 
858	 0,481921726396523 
859	 0,481879991314805 
860	 0,481821887121815 
861	 0,481838317604185 
862	 0,482010742077536 
863	 0,4825739667562 
864	 0,482955064932215 
865	 0,48241569050982 
866	 0,482267001954633 
867	 0,482661100732343 
868	 0,483103463281856 
869	 0,483106833903848 
870	 0,482622832550939 
871	 0,483035476317393 
872	 0,483696280926329 
873	 0,483676461928606 
874	 0,48335153689517 
875	 0,482978842848855 
876	 0,482986803710039 
877	 0,483365578949823 
878	 0,483995227288398 
879	 0,484336854324321 
880	 0,484098535707937 
881	 0,483119156563523 
882	 0,483122428879054 
883	 0,483783851928564 
884	 0,483229093721573 
885	 0,482830752720819 
886	 0,483009764398755 
887	 0,483294562989743 
888	 0,483564871426399 
889	 0,483697392378127 
890	 0,483365888317511 
891	 0,482795952247797 
892	 0,482502526446729 
893	 0,483051445218972 
894	 0,484249271805861 
895	 0,484387873058174 
896	 0,484139451551385 
897	 0,484056405452547 
898	 0,483616566421237 
899	 0,483208609499144 
900	 0,483613966369017 
901	 0,483951577606656 
902	 0,484067346048934 
903	 0,484538717120052 
904	 0,484464482357449 
905	 0,483522709758943 
906	 0,483774005346518 
907	 0,484362464533038 
908	 0,483729719574823 
909	 0,483766665923659 
910	 0,484419915263868 
911	 0,484042427000971 
912	 0,48371576813297 
913	 0,4838603812357 
914	 0,483702828554213 
915	 0,483702870757389 
916	 0,4843379732733 
917	 0,483617433329315 
918	 0,482089001696894 
919	 0,482134351910106 
920	 0,482160979502906 
921	 0,481872589665931 
922	 0,482514648250052 
923	 0,483091998423857 
924	 0,482728693743152 
925	 0,481615679599482 
926	 0,480683535408738 
927	 0,481565227468424 
928	 0,481056284409065 
929	 0,479183116209537 
930	 0,479648268072278 
931	 0,480068341162632 
932	 0,479099402689595 
933	 0,47784586377563 
934	 0,47688627919672 
935	 0,476774107682136 
936	 0,476886825012974 
937	 0,476710209580104 
938	 0,474962763586574 
939	 0,475282059103315 
940	 0,477750488673312 
941	 0,475121420070221 
942	 0,471810268720632 
943	 0,471939757599015 
944	 0,472293880350314 
945	 0,471833280855286 
946	 0,469604841037588 
947	 0,467880705142348 
948	 0,467082145089734 
949	 0,466026002407553 
950	 0,464845840440332 
951	 0,463660540960019 
952	 0,462883702545192 
953	 0,461899104482704 
954	 0,460000341596623 
955	 0,459067276690642 
956	 0,458755287908858 
957	 0,456934054584033 
958	 0,456591490693521 
959	 0,457678134642984 
960	 0,455138105599764 
961	 0,452270634951173 
962	 0,451672048709296 
963	 0,451553878665596 
964	 0,451988903688077 
965	 0,453395318486319 
966	 0,454205456223101 
967	 0,453767602294958 
968	 0,451353726345136 
969	 0,449857172545688 
970	 0,450341263783759 
971	 0,450714508709805 
972	 0,450437190428926 
973	 0,449414038263904 
974	 0,450894223196158 
975	 0,453122851039923 
976	 0,452062476878212 
977	 0,450617417700451 
978	 0,449800541505656 
979	 0,450073353603566 
980	 0,450792416812734 
981	 0,451639555468553 
982	 0,453213597974708 
983	 0,453727198789436 
984	 0,451674801073209 
985	 0,451559165239129 
986	 0,452929018888654 
987	 0,453092473411828 
988	 0,455159443265097 
989	 0,458479158778418 
990	 0,457707211998838 
991	 0,456875861914862 
992	 0,457737133615764 
993	 0,457081234707371 
994	 0,455622091272424 
995	 0,454433467383366 
996	 0,454035691203305 
997	 0,454909726497993 
998	 0,457649151562883 
999	 0,460976022327194 
1000	 0,463090899730739 
1001	 0,459554122931302 
1002	 0,457190911650419 
1003	 0,459329543395061 
1004	 0,462404387796232 
1005	 0,465150448313207 
1006	 0,466396303101454 
1007	 0,464561949021914 
1008	 0,461601647965138 
1009	 0,46121925403458 
1010	 0,464142391564012 
1011	 0,468830125941546 
1012	 0,470136964961538 
1013	 0,468770284883309 
1014	 0,465885468486586 
1015	 0,465733268772249 
1016	 0,467115180065327 
1017	 0,468461262367828 
1018	 0,467890933288788 
1019	 0,466329964675631 
1020	 0,465658881880155 
1021	 0,466015722660392 
1022	 0,467469947105947 
1023	 0,470219026121061 
1024	 0,470997449466364 
1025	 0,469887047249941 
1026	 0,472928270057363 
1027	 0,47641614174226 
1028	 0,477516900770214 
1029	 0,475577329603549 
1030	 0,474293153949952 
1031	 0,47773999960655 
1032	 0,480584376090552 
1033	 0,480841226973218 
1034	 0,47669817874294 
1035	 0,47497487615553 
1036	 0,476995217458601 
1037	 0,480141434138922 
1038	 0,480862520159717 
1039	 0,478387976855027 
1040	 0,479278207824946 
1041	 0,478915468197088 
1042	 0,474359079367179 
1043	 0,476806411075531 
1044	 0,481063707222819 
1045	 0,478625636990798 
1046	 0,47375930198036 
1047	 0,471132365992914 
1048	 0,47912674143565 
1049	 0,481507718985735 
1050	 0,476974754213716 
1051	 0,4819898208297 
1052	 0,488959296799288 
1053	 0,492390836207564 
1054	 0,483622726112061 
1055	 0,478754138345626 
1056	 0,490140418204391 
1057	 0,494594286619412 
1058	 0,492078687365876 
1059	 0,487635263157383 
1060	 0,485256536346566 
1061	 0,483660094139573 
1062	 0,476643961018855 
1063	 0,479280739452349 
1064	 0,490933497781057 
1065	 0,492211733905067 
1066	 0,484348999376382 
1067	 0,472856331096407 
1068	 0,483853824888865 
1069	 0,495775438232134 
1070	 0,491991416208428 
1071	 0,489598301843926 
1072	 0,490212365610666 
1073	 0,493242134638248 
1074	 0,494140443636941 
1075	 0,4948334181551 
