Wavelength	GRA-VIE00184.asd
325	 1,23415590705586E-02 
326	 7,61993182385057E-02 
327	 0,112033606562622 
328	 7,77641846884063E-02 
329	 0,178646114154124 
330	 0,231771160316415 
331	 0,07920355168439 
332	 7,19801301025171E-02 
333	 0,155576368069306 
334	 0,031621076482453 
335	 7,23549004322869E-02 
336	 0,259494637310557 
337	 0,2377301473725 
338	 0,176286047352475 
339	 0,185531341860997 
340	 0,125393856209342 
341	 3,17621545699917E-02 
342	 8,89971933026394E-02 
343	 0,138287676166825 
344	 0,135372831021355 
345	 0,11275807588018 
346	 6,08185334501396E-02 
347	-2,15371493931208E-02 
348	-4,08286291408838E-02 
349	 1,70758071843717E-03 
350	 5,41636857362588E-02 
351	 7,61707508888748E-02 
352	 6,41650973975859E-02 
353	 0,057063371727354 
354	 5,43726351378917E-02 
355	 4,99310893565025E-02 
356	 5,16491185775055E-02 
357	 5,19197559862114E-02 
358	 2,13539615706944E-02 
359	 9,06281677161726E-03 
360	 3,42909388679896E-02 
361	 5,56225504072256E-02 
362	 6,25746308579681E-02 
363	 5,06756943637742E-02 
364	 0,05924350220647 
365	 7,89332758086044E-02 
366	 3,30288007339971E-02 
367	 1,89098327033382E-02 
368	 8,26719556398131E-02 
369	 6,58008356025482E-02 
370	 1,19289220255947E-02 
371	 2,67088522952988E-02 
372	 3,89567828146143E-02 
373	 3,42123291961076E-02 
374	 3,69724371678928E-02 
375	 4,44056191844132E-02 
376	 5,20455315236851E-02 
377	 3,31990213617339E-02 
378	 7,65719783423043E-03 
379	 2,78448509710076E-02 
380	 4,19752620505515E-02 
381	 3,73437321158322E-02 
382	 2,73866853934133E-02 
383	 0,021633291528544 
384	 2,84408874762703E-02 
385	 3,04573651061986E-02 
386	 2,75022674845016E-02 
387	 2,65761675700403E-02 
388	 3,12362343970112E-02 
389	 0,041117031203828 
390	 4,77230012281492E-02 
391	 4,71758231744517E-02 
392	 3,60295985629813E-02 
393	 2,49106420112562E-02 
394	 1,90561404727985E-02 
395	 2,57274810760235E-02 
396	 0,034663364625329 
397	 0,039556538888494 
398	 0,033407498921239 
399	 1,97135703866461E-02 
400	 2,62942716707244E-03 
401	 5,13132741975425E-03 
402	 2,45594650764227E-02 
403	 2,90267415507287E-02 
404	 2,67583551773908E-02 
405	 2,41760683754146E-02 
406	 2,06621569546909E-02 
407	 2,02575763570435E-02 
408	 3,30949522992778E-02 
409	 2,86695219881285E-02 
410	 7,08354332161503E-03 
411	 1,07623140938617E-02 
412	 2,29264377176973E-02 
413	 0,025791939585116 
414	 1,89141010296763E-02 
415	 1,04757746547783E-02 
416	 2,36831599062386E-02 
417	 2,82005204263964E-02 
418	 1,60500124264738E-02 
419	 1,61940740964066E-02 
420	 2,25193977219117E-02 
421	 2,42145186178675E-02 
422	 2,08549211527554E-02 
423	 1,54688400024756E-02 
424	 1,89854237522012E-02 
425	 1,96085800269848E-02 
426	 1,17480443406369E-02 
427	 1,24374030809635E-02 
428	 1,88090302737955E-02 
429	 2,24151238791754E-02 
430	 2,22855624313436E-02 
431	 0,018935853461338 
432	 1,73608261821548E-02 
433	 1,62642344052769E-02 
434	 1,46078188838814E-02 
435	 1,79815840024889E-02 
436	 0,023243030162538 
437	 2,02029873681627E-02 
438	 0,01702590993 
439	 1,74632425132286E-02 
440	 2,27514062860292E-02 
441	 2,67663177915324E-02 
442	 2,21475110699812E-02 
443	 1,82221735746254E-02 
444	 1,70810305006939E-02 
445	 1,69098494734912E-02 
446	 1,82712026793928E-02 
447	 2,06896136106231E-02 
448	 1,73564468654822E-02 
449	 1,26529862194953E-02 
450	 1,63170201734696E-02 
451	 2,08747859568359E-02 
452	 2,30003745767245E-02 
453	 0,019199733984423 
454	 0,016118510198834 
455	 1,97201400162088E-02 
456	 2,20259413267759E-02 
457	 2,19537424174321E-02 
458	 2,09849276550285E-02 
459	 1,99990399500774E-02 
460	 1,92943718419754E-02 
461	 1,71730509707696E-02 
462	 1,56046359780303E-02 
463	 1,73704161159346E-02 
464	 1,65604280628801E-02 
465	 1,39863216974625E-02 
466	 1,84378895484852E-02 
467	 2,07865988331112E-02 
468	 1,59730023582277E-02 
469	 1,63555016890585E-02 
470	 1,97907568520383E-02 
471	 1,83156625214062E-02 
472	 1,88025795507896E-02 
473	 2,16729672009219E-02 
474	 1,81322257017693E-02 
475	 1,53524249320287E-02 
476	 2,03546938947945E-02 
477	 2,23384266649474E-02 
478	 2,01649254892422E-02 
479	 1,66168013826932E-02 
480	 1,51277289611306E-02 
481	 1,68887625435893E-02 
482	 1,67661230574093E-02 
483	 1,55004089925321E-02 
484	 1,49756027685475E-02 
485	 1,65519673014732E-02 
486	 1,90395139903736E-02 
487	 1,60735377728532E-02 
488	 1,46827937090325E-02 
489	 1,96625557809192E-02 
490	 2,24548609226842E-02 
491	 2,16491928600243E-02 
492	 1,68099014903908E-02 
493	 1,44109713586872E-02 
494	 1,63626070954159E-02 
495	 1,81478393639204E-02 
496	 1,83589525887309E-02 
497	 1,59364756113736E-02 
498	 0,01539419967598 
499	 1,67713707716249E-02 
500	 1,66707923806371E-02 
501	 1,66313361673926E-02 
502	 1,73152727729767E-02 
503	 1,67609489520834E-02 
504	 1,61282745644127E-02 
505	 1,79605597174908E-02 
506	 1,84358576319782E-02 
507	 1,68898319491755E-02 
508	 1,57233249416178E-02 
509	 1,52731182753841E-02 
510	 1,57084873322633E-02 
511	 1,63017742692837E-02 
512	 1,68587611119978E-02 
513	 1,73791134371645E-02 
514	 1,79239210169465E-02 
515	 1,83615446835243E-02 
516	 1,77357100507234E-02 
517	 1,68953731008782E-02 
518	 1,70953990251595E-02 
519	 1,74759572794978E-02 
520	 0,017688471511718 
521	 1,72791227567756E-02 
522	 1,70979294854856E-02 
523	 1,76628405317523E-02 
524	 1,74450189837772E-02 
525	 1,68671454492207E-02 
526	 0,01759717871174 
527	 1,73784085155114E-02 
528	 1,59236437467199E-02 
529	 1,61331851956693E-02 
530	 1,67521146471067E-02 
531	 1,61301149984402E-02 
532	 1,61684268935218E-02 
533	 0,016850570601477 
534	 1,68380357797471E-02 
535	 1,64305238973435E-02 
536	 1,60221668812905E-02 
537	 1,76267482498254E-02 
538	 1,92166225176128E-02 
539	 0,016451791358461 
540	 1,52864482970124E-02 
541	 1,69059387916296E-02 
542	 1,73782317294625E-02 
543	 1,71697796827137E-02 
544	 1,69385913645879E-02 
545	 1,67542821171464E-02 
546	 1,66981395814633E-02 
547	 1,68098792427474E-02 
548	 1,71862561873216E-02 
549	 1,77370986363175E-02 
550	 1,76340126268681E-02 
551	 1,70457096384103E-02 
552	 0,016340193559463 
553	 1,63618567534105E-02 
554	 1,70050148204229E-02 
555	 0,016837766375947 
556	 1,59952043762608E-02 
557	 1,47865284852683E-02 
558	 1,52986541684339E-02 
559	 1,68516119182071E-02 
560	 1,67819986758456E-02 
561	 1,67806756181418E-02 
562	 1,73370435478662E-02 
563	 1,73914786910631E-02 
564	 1,71281206200105E-02 
565	 1,68997849386505E-02 
566	 1,71418661933162E-02 
567	 1,76606240755517E-02 
568	 1,73275331327939E-02 
569	 1,69102109867756E-02 
570	 1,69440726587526E-02 
571	 1,70295985206545E-02 
572	 1,71246774626948E-02 
573	 1,72613899253315E-02 
574	 1,74003499865096E-02 
575	 1,76347230929448E-02 
576	 1,86824247114981E-02 
577	 1,91496520507361E-02 
578	 1,75263656488878E-02 
579	 1,77882217060389E-02 
580	 0,019677015862721 
581	 1,94322568066728E-02 
582	 1,86850951202511E-02 
583	 0,018402222072989 
584	 1,86316850143627E-02 
585	 1,89327033091096E-02 
586	 1,84480169062467E-02 
587	 1,84356952879152E-02 
588	 1,91637211948599E-02 
589	 0,020098294425589 
590	 2,04836389350136E-02 
591	 1,97098855067213E-02 
592	 1,92318605674006E-02 
593	 1,92027766977443E-02 
594	 1,90852350514925E-02 
595	 1,92543394771381E-02 
596	 0,019771620589967 
597	 1,99463066640694E-02 
598	 1,98685747364461E-02 
599	 1,97988066711665E-02 
600	 1,95203427929073E-02 
601	 0,019259064424877 
602	 2,01396670337573E-02 
603	 2,06360522500957E-02 
604	 1,96349683260077E-02 
605	 0,019108853831845 
606	 1,90526504108137E-02 
607	 1,85426430946785E-02 
608	 1,81791269230095E-02 
609	 1,81067198600517E-02 
610	 1,77824728362573E-02 
611	 1,76707770601922E-02 
612	 1,83801285041865E-02 
613	 1,84998484442777E-02 
614	 1,80479598640798E-02 
615	 1,83941590135114E-02 
616	 1,85372561255171E-02 
617	 1,79416309668825E-02 
618	 1,78596891163704E-02 
619	 1,81441375850098E-02 
620	 1,81246886409739E-02 
621	 1,82956090280279E-02 
622	 1,86133670389688E-02 
623	 1,81276821564892E-02 
624	 1,76529017736792E-02 
625	 1,80576881296518E-02 
626	 1,85931157757321E-02 
627	 1,89811692533689E-02 
628	 1,89207273579699E-02 
629	 1,89587023711995E-02 
630	 1,92216195927217E-02 
631	 1,82776387774891E-02 
632	 1,73366566246842E-02 
633	 1,86211988190824E-02 
634	 1,93310120758091E-02 
635	 1,90041191131131E-02 
636	 1,94099735728747E-02 
637	 1,98893120200315E-02 
638	 1,98804357772599E-02 
639	 2,01548110699148E-02 
640	 2,05706854044178E-02 
641	 2,03573729510856E-02 
642	 2,04918397774156E-02 
643	 2,11555361098351E-02 
644	 2,08493828448465E-02 
645	 2,04128252970965E-02 
646	 2,11001296206196E-02 
647	 2,13148166040931E-02 
648	 2,09707549139664E-02 
649	 2,12728624760897E-02 
650	 2,14270239581985E-02 
651	 2,09759337751595E-02 
652	 2,08988721347496E-02 
653	 2,10515982796636E-02 
654	 2,08401772046049E-02 
655	 0,02061410670562 
656	 2,04359283955837E-02 
657	 2,00209457425653E-02 
658	 1,97397625443146E-02 
659	 1,99568922773773E-02 
660	 1,97826378093839E-02 
661	 1,91986537098809E-02 
662	 1,87278809786333E-02 
663	 1,82656889405759E-02 
664	 1,78413725006805E-02 
665	 1,78925401691092E-02 
666	 1,81033796634893E-02 
667	 1,79153962127294E-02 
668	 1,77518204907273E-02 
669	 1,77200078517641E-02 
670	 1,77138844171825E-02 
671	 0,017944246993671 
672	 1,84899452213566E-02 
673	 1,81725576834646E-02 
674	 1,74355767783015E-02 
675	 1,78613388159459E-02 
676	 1,82114942616638E-02 
677	 1,80845689557106E-02 
678	 1,78993696079298E-02 
679	 0,017824100728801 
680	 1,80148582461356E-02 
681	 0,01829499409669 
682	 1,85847084428937E-02 
683	 0,018835343397746 
684	 0,018909657482984 
685	 1,87875701409913E-02 
686	 1,89987780708164E-02 
687	 1,93757627801418E-02 
688	 1,94244305560363E-02 
689	 2,02300946274551E-02 
690	 2,17081647727676E-02 
691	 2,19554985519925E-02 
692	 2,22744980278685E-02 
693	 2,38383135330504E-02 
694	 2,51723846603652E-02 
695	 2,64404536038703E-02 
696	 2,87703398815101E-02 
697	 3,13316249397076E-02 
698	 3,38445345288131E-02 
699	 3,67740072446441E-02 
700	 4,01873910843294E-02 
701	 4,41066328670779E-02 
702	 4,81994307674224E-02 
703	 5,23828212874101E-02 
704	 5,67367096814331E-02 
705	 6,13512305344365E-02 
706	 6,62081480645827E-02 
707	 7,07747890813587E-02 
708	 7,50108955325312E-02 
709	 7,89325442127348E-02 
710	 8,33192310903364E-02 
711	 8,81847517804614E-02 
712	 9,23853417605539E-02 
713	 9,61155632025718E-02 
714	 9,96227781831657E-02 
715	 0,102872583065152 
716	 0,106004444192359 
717	 0,109338178174593 
718	 0,112641632169575 
719	 0,115699123671919 
720	 0,117865705056086 
721	 0,11972143741217 
722	 0,122081175919902 
723	 0,124596159843363 
724	 0,127025723114127 
725	 0,12893914522274 
726	 0,13048565924157 
727	 0,131780235545951 
728	 0,132929746004404 
729	 0,134076428426395 
730	 0,13544364254817 
731	 0,136431617673457 
732	 0,137028487856156 
733	 0,137999857819994 
734	 0,139129099317921 
735	 0,140189752941873 
736	 0,141178019317427 
737	 0,141947817497983 
738	 0,142089355434113 
739	 0,142549470408507 
740	 0,143562276233391 
741	 0,144148861629927 
742	 0,144474655758478 
743	 0,144828473525306 
744	 0,14531463419931 
745	 0,145919099683169 
746	 0,146529291487158 
747	 0,146891890001671 
748	 0,146955384352636 
749	 0,147474394597254 
750	 0,148052454557575 
751	 0,147937197596624 
752	 0,14794437520756 
753	 0,148305074720429 
754	 0,149010138361636 
755	 0,14944290970009 
756	 0,149252778120042 
757	 0,149693519217325 
758	 0,150444194471659 
759	 0,150431976962721 
760	 0,150539238304572 
761	 0,150966255103013 
762	 0,151265594260234 
763	 0,151449711991715 
764	 0,151567151861288 
765	 0,151933407377908 
766	 0,152338754279827 
767	 0,152019029903721 
768	 0,151952818028088 
769	 0,152472155592222 
770	 0,152982440446218 
771	 0,153426508912923 
772	 0,153794368232753 
773	 0,153779834261627 
774	 0,153599912258429 
775	 0,154110015208448 
776	 0,154619184191618 
777	 0,1547784078411 
778	 0,154869504048019 
779	 0,15497859402843 
780	 0,155186007072339 
781	 0,15535491678854 
782	 0,155465115201001 
783	 0,155563988962377 
784	 0,155778751498621 
785	 0,156132051913008 
786	 0,156033219378901 
787	 0,155836364616481 
788	 0,156318335366869 
789	 0,156730876336857 
790	 0,156923990905043 
791	 0,157316322306883 
792	 0,157572970679657 
793	 0,157483626497939 
794	 0,15793533035901 
795	 0,158473082024878 
796	 0,157740724440588 
797	 0,157526607309393 
798	 0,158227226885807 
799	 0,158569379829932 
800	 0,158803079207796 
801	 0,159186352717994 
802	 0,159123483131442 
803	 0,158907289692221 
804	 0,159630965834892 
805	 0,159876156533723 
806	 0,159369075204078 
807	 0,159642590451709 
808	 0,160299965021031 
809	 0,160786960165826 
810	 0,160973933572911 
811	 0,160994404530862 
812	 0,161319153710189 
813	 0,161769047531858 
814	 0,162198156893011 
815	 0,162205816958685 
816	 0,162136843908256 
817	 0,162437994591885 
818	 0,163004756442996 
819	 0,163573026381053 
820	 0,163442028738415 
821	 0,163299872629937 
822	 0,16346491043499 
823	 0,163602857995357 
824	 0,163834739288229 
825	 0,164341883701115 
826	 0,164770999524594 
827	 0,164983765332841 
828	 0,164879696393205 
829	 0,164633473891079 
830	 0,164474181434436 
831	 0,165162163777265 
832	 0,165952340867733 
833	 0,165745248726025 
834	 0,165867609282659 
835	 0,166337613478181 
836	 0,166018646523128 
837	 0,166101064112535 
838	 0,167034358957152 
839	 0,167138749945165 
840	 0,166853931832199 
841	 0,167060730985178 
842	 0,167178133975217 
843	 0,167189275136434 
844	 0,167566345191401 
845	 0,167451253067514 
846	 0,166692396758797 
847	 0,167762190819143 
848	 0,169257929339051 
849	 0,168864533703189 
850	 0,16831820938879 
851	 0,168157389223311 
852	 0,168718777194569 
853	 0,168892911638963 
854	 0,168234084329124 
855	 0,168170963756487 
856	 0,168738411820927 
857	 0,169737068825838 
858	 0,16992538231216 
859	 0,169363858954275 
860	 0,16930453569517 
861	 0,16968065068133 
862	 0,170312440789723 
863	 0,170108416982731 
864	 0,169723823229313 
865	 0,170151245203524 
866	 0,170711896971337 
867	 0,171265840798838 
868	 0,171975635412294 
869	 0,172271079145817 
870	 0,172023729793769 
871	 0,172337134480658 
872	 0,172653527263518 
873	 0,172215102871005 
874	 0,17223881369834 
875	 0,172776994918544 
876	 0,173205788507439 
877	 0,173453885129519 
878	 0,173557244058843 
879	 0,174126047520805 
880	 0,174514852779142 
881	 0,174054339711991 
882	 0,17420532159779 
883	 0,174911228087833 
884	 0,175282838339572 
885	 0,175247481103559 
886	 0,174916191473395 
887	 0,175157386128953 
888	 0,175582077022202 
889	 0,175749785153387 
890	 0,175444035350279 
891	 0,175161046439942 
892	 0,176095915585182 
893	 0,176749830954323 
894	 0,176820082330636 
895	 0,177497246933068 
896	 0,177560465163675 
897	 0,176308561245422 
898	 0,17677301110183 
899	 0,178037730893811 
900	 0,177615986406033 
901	 0,177428871448045 
902	 0,177885750895131 
903	 0,178485829650844 
904	 0,178807102010158 
905	 0,178600859720018 
906	 0,178175115853643 
907	 0,177884510684207 
908	 0,178143475769263 
909	 0,178735969099379 
910	 0,179350450923967 
911	 0,179230604839374 
912	 0,179224500730415 
913	 0,17967058725424 
914	 0,179926466657555 
915	 0,180223948696838 
916	 0,180823847540509 
917	 0,180667671213852 
918	 0,179989380984816 
919	 0,179913643462292 
920	 0,179771623166819 
921	 0,179551504954131 
922	 0,180303182420359 
923	 0,180605022055058 
924	 0,179447216096081 
925	 0,179269109533909 
926	 0,180056940259661 
927	 0,18115254516182 
928	 0,179917649781014 
929	 0,177153491777771 
930	 0,1787480419064 
931	 0,180578740388794 
932	 0,180343245166427 
933	 0,180500839181452 
934	 0,180360187117111 
935	 0,178816402411227 
936	 0,178406698245314 
937	 0,178898671072669 
938	 0,177763491605418 
939	 0,177591916283999 
940	 0,178790761817413 
941	 0,178153675831407 
942	 0,17736024527427 
943	 0,177926460060783 
944	 0,177983863464858 
945	 0,177352065167624 
946	 0,176260994022784 
947	 0,175614373317062 
948	 0,175312506663704 
949	 0,173684021034014 
950	 0,173041408924389 
951	 0,174100733291569 
952	 0,172375446950755 
953	 0,169657485414096 
954	 0,16869538221648 
955	 0,169295609615026 
956	 0,170358544234346 
957	 0,169027644201283 
958	 0,168718317601172 
959	 0,169652255458716 
960	 0,167102313709481 
961	 0,16500995062618 
962	 0,166102819553331 
963	 0,165622040699728 
964	 0,164760325569975 
965	 0,16628925709685 
966	 0,167339214889958 
967	 0,167172557882941 
968	 0,165725737099668 
969	 0,165073391543972 
970	 0,165931637451971 
971	 0,166476617589679 
972	 0,166815808113582 
973	 0,167140660667308 
974	 0,167430496207257 
975	 0,167632933205427 
976	 0,167687839933784 
977	 0,166821135146006 
978	 0,165456031825018 
979	 0,165588690666174 
980	 0,16657159888445 
981	 0,16790413607251 
982	 0,169141876369141 
983	 0,168617426373774 
984	 0,165175245318328 
985	 0,164754908625653 
986	 0,166633939252815 
987	 0,167080982722795 
988	 0,167995132955335 
989	 0,169469903179252 
990	 0,170125542466167 
991	 0,171192407433875 
992	 0,173096498825416 
993	 0,174524017934365 
994	 0,174581705668329 
995	 0,172789652063348 
996	 0,172857603853839 
997	 0,17415954807912 
998	 0,173987370611305 
999	 0,175259037125345 
1000	 0,177412223055971 
1001	 0,175467834993087 
1002	 0,174926792925366 
1003	 0,177966752064574 
1004	 0,179869244594795 
1005	 0,179888189329519 
1006	 0,177906114499906 
1007	 0,176570851068826 
1008	 0,176597438542886 
1009	 0,178194666476244 
1010	 0,179863151734117 
1011	 0,181417975053898 
1012	 0,184245399196441 
1013	 0,185812272156567 
1014	 0,185019588245336 
1015	 0,182189211878989 
1016	 0,182031875433413 
1017	 0,187427017496483 
1018	 0,187914908358002 
1019	 0,1851571529426 
1020	 0,18401335504708 
1021	 0,184101898470701 
1022	 0,18585343559357 
1023	 0,190687546471222 
1024	 0,192128778282575 
1025	 0,189598991123653 
1026	 0,191657953442336 
1027	 0,19575068615761 
1028	 0,198760986098685 
1029	 0,192677614991386 
1030	 0,187215200353389 
1031	 0,193881443874228 
1032	 0,196923489108133 
1033	 0,195442251898339 
1034	 0,193999353352984 
1035	 0,192460144194632 
1036	 0,191919957991833 
1037	 0,195756890396872 
1038	 0,197493968528479 
1039	 0,194879543933699 
1040	 0,19411874569366 
1041	 0,192426581214026 
1042	 0,188505011388046 
1043	 0,1929491440151 
1044	 0,200113531022872 
1045	 0,201300034389687 
1046	 0,204602497206923 
1047	 0,207848746190503 
1048	 0,202848137674792 
1049	 0,193669424261302 
1050	 0,187035048873617 
1051	 0,202489519945492 
1052	 0,215008642331965 
1053	 0,212563027565719 
1054	 0,204709406245697 
1055	 0,200628373978978 
1056	 0,205602317956355 
1057	 0,19529249601858 
1058	 0,184313192047111 
1059	 0,197078481066804 
1060	 0,214393233813867 
1061	 0,222457658879268 
1062	 0,202152177356772 
1063	 0,191069384416092 
1064	 0,197410609080598 
1065	 0,201439403458026 
1066	 0,213279210839617 
1067	 0,231272277297467 
1068	 0,224894254479209 
1069	 0,212369099492374 
1070	 0,209632921653032 
1071	 0,21183377903713 
1072	 0,212257831076466 
1073	 0,204632352147745 
1074	 0,209649332821683 
1075	 0,218813328112672 
