Wavelength	GRA-VAN00302.asd
325	 0,394298914438422 
326	 0,351742476541127 
327	 0,36326891745465 
328	 0,421133446788909 
329	 0,30322452578819 
330	 0,172697395789999 
331	 0,305885938346082 
332	 0,382058471953794 
333	 0,39530553629791 
334	 0,212851948307208 
335	 0,253929826005486 
336	 0,521226805246785 
337	 0,443492875248909 
338	 0,299290837711789 
339	 0,31180285855101 
340	 0,374404007429907 
341	 0,39536997474065 
342	 0,26317140283937 
343	 0,187392951754501 
344	 0,237162534468332 
345	 0,248925455421869 
346	 0,252705256792989 
347	 0,274666683572873 
348	 0,235221040634583 
349	 0,16059775923679 
350	 0,167554739485569 
351	 0,226083024413681 
352	 0,2904323658634 
353	 0,27576015358355 
354	 0,221249478233306 
355	 0,177204692955261 
356	 0,197104007288971 
357	 0,254710448018338 
358	 0,261118437269748 
359	 0,249548597986833 
360	 0,240345073873013 
361	 0,252454498812861 
362	 0,262717420142584 
363	 0,236830239449171 
364	 0,224529039973623 
365	 0,23195192125834 
366	 0,228363081653604 
367	 0,240549266569065 
368	 0,276015019578257 
369	 0,264215166369504 
370	 0,230171414762211 
371	 0,231778819128736 
372	 0,234640322665602 
373	 0,232030471759497 
374	 0,239450237220385 
375	 0,240211027079776 
376	 0,22492778189264 
377	 0,246175355116585 
378	 0,279869479047929 
379	 0,251370156627837 
380	 0,231426975573564 
381	 0,237463314674709 
382	 0,244868669369423 
383	 0,249550045293072 
384	 0,249531625931194 
385	 0,249308124607025 
386	 0,245236747849868 
387	 0,220585049595005 
388	 0,218174312814861 
389	 0,247308505994157 
390	 0,245680705977254 
391	 0,231398127385754 
392	 0,230563582543763 
393	 0,230522413338854 
394	 0,232120700327022 
395	 0,246271357059214 
396	 0,252951131706782 
397	 0,244326898536254 
398	 0,243307278029893 
399	 0,243889911267201 
400	 0,23267096501916 
401	 0,231243218269745 
402	 0,239957424718375 
403	 0,240950364157367 
404	 0,234382638689209 
405	 0,222325579937353 
406	 0,223269317935424 
407	 0,232542663439471 
408	 0,236640053192674 
409	 0,241069632161641 
410	 0,24469305572763 
411	 0,237777970417365 
412	 0,230868547793618 
413	 0,233599882521624 
414	 0,231943064719401 
415	 0,227709688710913 
416	 0,232750337267926 
417	 0,233646939433436 
418	 0,227008804785195 
419	 0,227712734427429 
420	 0,23309004232498 
421	 0,238456190699358 
422	 0,239092196826342 
423	 0,23421141615375 
424	 0,224368196079237 
425	 0,221128475289146 
426	 0,229804971524111 
427	 0,232135011364591 
428	 0,230071122728024 
429	 0,232281188185482 
430	 0,229890075174172 
431	 0,223358322491043 
432	 0,225763291971852 
433	 0,229842703330174 
434	 0,228979388092648 
435	 0,22823331750776 
436	 0,228066091345599 
437	 0,227025407974764 
438	 0,228392801342946 
439	 0,231896789877115 
440	 0,227209522851763 
441	 0,223015715002534 
442	 0,231192628297165 
443	 0,233803355676182 
444	 0,230000158735356 
445	 0,232658972293273 
446	 0,232999599242165 
447	 0,226823871218829 
448	 0,226863469717005 
449	 0,231166957900129 
450	 0,23289049032804 
451	 0,234042657503618 
452	 0,234849255291777 
453	 0,234564345875329 
454	 0,234193341630409 
455	 0,234727727486536 
456	 0,23693198726609 
457	 0,239000911013871 
458	 0,235560751293614 
459	 0,234058108563867 
460	 0,2370111401101 
461	 0,238060316808729 
462	 0,237227698145816 
463	 0,235377018711774 
464	 0,233241649311326 
465	 0,231886123458222 
466	 0,233341495382991 
467	 0,236423116956239 
468	 0,239803460228421 
469	 0,239388103809293 
470	 0,237151496893362 
471	 0,238189271135377 
472	 0,238606697653802 
473	 0,237937695509402 
474	 0,239814925552097 
475	 0,242065384479185 
476	 0,242362888758995 
477	 0,241683992559486 
478	 0,240911077903823 
479	 0,2420207287402 
480	 0,242195948171856 
481	 0,240361299131972 
482	 0,238947233469728 
483	 0,238652171031505 
484	 0,240083473206442 
485	 0,240727073541857 
486	 0,239794641833289 
487	 0,237008594199115 
488	 0,235943193521976 
489	 0,238909123925403 
490	 0,240328486133299 
491	 0,239754923343249 
492	 0,238436716943344 
493	 0,237112584716046 
494	 0,236185533791471 
495	 0,235254578867983 
496	 0,235160110705051 
497	 0,236807338061505 
498	 0,23803002710393 
499	 0,238258734141986 
500	 0,237344956215848 
501	 0,237290777112093 
502	 0,239045826627291 
503	 0,240168087612619 
504	 0,240844418651528 
505	 0,242027455790442 
506	 0,24275474077806 
507	 0,243168189023817 
508	 0,245441850582272 
509	 0,246420365399881 
510	 0,243525913243628 
511	 0,243330157590672 
512	 0,245522819327475 
513	 0,245960188240241 
514	 0,245827324035656 
515	 0,245832529695553 
516	 0,24772853978239 
517	 0,249456513474212 
518	 0,247929369268592 
519	 0,248097125990466 
520	 0,25029296420569 
521	 0,251005438482207 
522	 0,250578719411782 
523	 0,24952960899092 
524	 0,250277688530685 
525	 0,251997611883184 
526	 0,252109912941571 
527	 0,251255115443947 
528	 0,249901229778589 
529	 0,249466550629341 
530	 0,249682706488478 
531	 0,250083060633544 
532	 0,249966954225087 
533	 0,24935034002139 
534	 0,24873892507029 
535	 0,248967383902909 
536	 0,250235936745106 
537	 0,249633943230255 
538	 0,248538142935954 
539	 0,250226820997735 
540	 0,251791247744696 
541	 0,252300650143337 
542	 0,252037466161018 
543	 0,251664676261076 
544	 0,251804675004529 
545	 0,251922354190009 
546	 0,251915390471824 
547	 0,251644198390696 
548	 0,252106671987489 
549	 0,253545361333009 
550	 0,25405650946118 
551	 0,253730209649263 
552	 0,253032434839685 
553	 0,252903313475272 
554	 0,253326658088388 
555	 0,252871871930831 
556	 0,252328956012531 
557	 0,252336042113809 
558	 0,251988080943399 
559	 0,251349131958191 
560	 0,250918097041969 
561	 0,250780074548009 
562	 0,250839467637854 
563	 0,250297327196202 
564	 0,249263031173564 
565	 0,24796910122516 
566	 0,247465863792732 
567	 0,247879664097256 
568	 0,248436416198764 
569	 0,249290224250755 
570	 0,250479776330266 
571	 0,251365038915047 
572	 0,252135365633343 
573	 0,253359625591043 
574	 0,255336135982602 
575	 0,257778156699237 
576	 0,258574589435905 
577	 0,259328855700912 
578	 0,261940432376062 
579	 0,263473518965717 
580	 0,263912571667162 
581	 0,265362833165001 
582	 0,266998579826719 
583	 0,268340371681602 
584	 0,26937052854934 
585	 0,270309500292621 
586	 0,271571864550954 
587	 0,272646983020029 
588	 0,273558987325038 
589	 0,275162541900374 
590	 0,276604782196094 
591	 0,277111493273583 
592	 0,277890139669287 
593	 0,27875926636304 
594	 0,278555367934974 
595	 0,278112968940013 
596	 0,277980724014093 
597	 0,278957630674469 
598	 0,280008933278488 
599	 0,279498012156726 
600	 0,278852017295605 
601	 0,278423731617182 
602	 0,277899468256843 
603	 0,277349642425722 
604	 0,276845714879833 
605	 0,276550668260098 
606	 0,27629517443075 
607	 0,275694264223352 
608	 0,274662427802743 
609	 0,273237522348893 
610	 0,271741929699492 
611	 0,27080993997422 
612	 0,271142806693072 
613	 0,270558148712289 
614	 0,269121460342549 
615	 0,269036480731606 
616	 0,268998517479809 
617	 0,268225557225047 
618	 0,267594297229104 
619	 0,267264052602435 
620	 0,267333839209258 
621	 0,267116666577944 
622	 0,266557828951219 
623	 0,266585294046086 
624	 0,267038260945002 
625	 0,267667354416465 
626	 0,267912394021482 
627	 0,267786309836913 
628	 0,267717970633752 
629	 0,267798509326523 
630	 0,268111385428752 
631	 0,268774359683237 
632	 0,269330844837132 
633	 0,268982459632618 
634	 0,269602404685531 
635	 0,271348131625227 
636	 0,272465185468804 
637	 0,273132128644451 
638	 0,273620233720593 
639	 0,274921393332498 
640	 0,276564857281669 
641	 0,276841417925509 
642	 0,277273558720548 
643	 0,278354558652113 
644	 0,279148971481607 
645	 0,279673142173276 
646	 0,280067342531933 
647	 0,279783581303583 
648	 0,27892744803051 
649	 0,278316608556308 
650	 0,277683446771745 
651	 0,276832998809364 
652	 0,275648494892689 
653	 0,274353455354788 
654	 0,273502917526741 
655	 0,272186099281218 
656	 0,270154169726466 
657	 0,267865394070005 
658	 0,265516973626184 
659	 0,263292932017294 
660	 0,261293632537294 
661	 0,259382330721921 
662	 0,257101559986374 
663	 0,25484382000295 
664	 0,252862319870573 
665	 0,251365511016035 
666	 0,250125529081365 
667	 0,248742822654939 
668	 0,247673685709232 
669	 0,247024369152494 
670	 0,24668841748984 
671	 0,246496787593541 
672	 0,246288655288726 
673	 0,245895739003865 
674	 0,245359307604026 
675	 0,244821888079663 
676	 0,244429163979412 
677	 0,244328416764485 
678	 0,244862146128088 
679	 0,245546062105368 
680	 0,245785392508213 
681	 0,245805520756538 
682	 0,245994197546521 
683	 0,2472864213458 
684	 0,249099713816612 
685	 0,250995448372812 
686	 0,252337612152723 
687	 0,253942544086114 
688	 0,257394799663621 
689	 0,261063435741344 
690	 0,264684298866707 
691	 0,26919671314302 
692	 0,274778013892582 
693	 0,2815409849114 
694	 0,288921775148768 
695	 0,296926995146179 
696	 0,305961719192659 
697	 0,315354711890629 
698	 0,32494795841554 
699	 0,33568310227138 
700	 0,347091606715418 
701	 0,358456416118638 
702	 0,369459249116893 
703	 0,380149501521254 
704	 0,391217224563827 
705	 0,402095758528857 
706	 0,412369399209033 
707	 0,422157548451399 
708	 0,431504772173695 
709	 0,440434180260157 
710	 0,448805561092351 
711	 0,456565148253073 
712	 0,46359666351552 
713	 0,470254220488295 
714	 0,476858273101606 
715	 0,48329838890442 
716	 0,489331051922659 
717	 0,494368983413781 
718	 0,499012733345771 
719	 0,503519213278097 
720	 0,507652570265982 
721	 0,511387869686766 
722	 0,514729283005332 
723	 0,517791418085155 
724	 0,52068063173834 
725	 0,523632118247321 
726	 0,52608717022694 
727	 0,527768576443798 
728	 0,529346898054457 
729	 0,531093721880766 
730	 0,533347297745307 
731	 0,534932782662007 
732	 0,535721964626257 
733	 0,536872686607587 
734	 0,538225705450728 
735	 0,53955370779794 
736	 0,540146455689187 
737	 0,540406462085334 
738	 0,54170469873487 
739	 0,542749329860464 
740	 0,543180968870671 
741	 0,543942953597969 
742	 0,544727047442906 
743	 0,545098255221672 
744	 0,545256246769342 
745	 0,545400108336915 
746	 0,54593086529541 
747	 0,546641005528801 
748	 0,547367094290533 
749	 0,547885594378228 
750	 0,548136384533466 
751	 0,548075609144473 
752	 0,548135080306658 
753	 0,548468287287262 
754	 0,549084571415567 
755	 0,549688055749937 
756	 0,550029088103272 
757	 0,549965074245036 
758	 0,549733013052695 
759	 0,54981430565928 
760	 0,550139264638766 
761	 0,550608588786727 
762	 0,550861598331707 
763	 0,55093776662326 
764	 0,550898321541104 
765	 0,550753088907761 
766	 0,550604348844136 
767	 0,550688102417711 
768	 0,550683929318464 
769	 0,550593262982869 
770	 0,551188405906034 
771	 0,551928031819783 
772	 0,552107818186298 
773	 0,551891779972233 
774	 0,551489458585876 
775	 0,551331603496639 
776	 0,55160712906467 
777	 0,552273060798857 
778	 0,552250386703644 
779	 0,551946016485123 
780	 0,552148270097715 
781	 0,55196200651551 
782	 0,55150831833344 
783	 0,552088495160991 
784	 0,55249407735093 
785	 0,552014596684948 
786	 0,551834130057887 
787	 0,552015091555742 
788	 0,552353293228514 
789	 0,552818148434427 
790	 0,553242022791203 
791	 0,55312601747106 
792	 0,552874896303059 
793	 0,552821309159826 
794	 0,552707666894432 
795	 0,552631387755576 
796	 0,552882181744759 
797	 0,553095455574829 
798	 0,553136035095441 
799	 0,553089322685949 
800	 0,552837684486896 
801	 0,552328512090989 
802	 0,552412263740206 
803	 0,552937347181362 
804	 0,553112480668891 
805	 0,553166517209481 
806	 0,553219006944757 
807	 0,553627617742895 
808	 0,55389159033888 
809	 0,553494227356649 
810	 0,553412390488704 
811	 0,553708661826678 
812	 0,553941994703124 
813	 0,554178857445158 
814	 0,554448912994488 
815	 0,55490603131867 
816	 0,555253403437829 
817	 0,555134367321766 
818	 0,554665609274834 
819	 0,554207357436088 
820	 0,554732115111802 
821	 0,555016701077998 
822	 0,554645218019398 
823	 0,555076866237386 
824	 0,555696476192124 
825	 0,555554621890519 
826	 0,555792150649403 
827	 0,556212951274778 
828	 0,555246976890214 
829	 0,554739234118155 
830	 0,555460290680791 
831	 0,555536985329546 
832	 0,555229028701646 
833	 0,555167154818048 
834	 0,555599044667537 
835	 0,556285597395227 
836	 0,556190997115754 
837	 0,556170159967309 
838	 0,556565822280321 
839	 0,556346353881815 
840	 0,555804248669139 
841	 0,55550521586004 
842	 0,555441420532122 
843	 0,555627854713527 
844	 0,556103202982395 
845	 0,556340600182911 
846	 0,556127848463408 
847	 0,556257502228256 
848	 0,556616749475681 
849	 0,556920807168816 
850	 0,556611227094638 
851	 0,555942075887204 
852	 0,556220797799461 
853	 0,556569814960419 
854	 0,556573896564903 
855	 0,556965118130087 
856	 0,557183526116154 
857	 0,556393220269843 
858	 0,556249679460154 
859	 0,556771411843836 
860	 0,556583664621076 
861	 0,55650111541581 
862	 0,556848618450756 
863	 0,55687178179607 
864	 0,55681387508549 
865	 0,557078819785018 
866	 0,556859116847282 
867	 0,55639605015811 
868	 0,557090827951373 
869	 0,557294652096301 
870	 0,55650075169769 
871	 0,556823678418498 
872	 0,5573948862277 
873	 0,556985786817671 
874	 0,557191022464269 
875	 0,557916415681857 
876	 0,557891683960927 
877	 0,557858741745994 
878	 0,558045580380176 
879	 0,557910404914925 
880	 0,557849809996034 
881	 0,55827930577368 
882	 0,558157684381809 
883	 0,557622876449615 
884	 0,557474007220217 
885	 0,558101221094023 
886	 0,559228511174598 
887	 0,558565426714976 
888	 0,557773493204149 
889	 0,558441107398312 
890	 0,558698894040785 
891	 0,55856380354496 
892	 0,55883769393048 
893	 0,558857376160157 
894	 0,558554114703017 
895	 0,558562814346497 
896	 0,558625964544734 
897	 0,558593240036114 
898	 0,559200214162413 
899	 0,560000716015643 
900	 0,560055139958389 
901	 0,559705497736535 
902	 0,559190251518118 
903	 0,558920281341207 
904	 0,559050209555833 
905	 0,559605858081148 
906	 0,56010113286844 
907	 0,560229098309384 
908	 0,559684533902751 
909	 0,559521411248955 
910	 0,559771011436079 
911	 0,559580535902908 
912	 0,559548852519824 
913	 0,559803292507866 
914	 0,559355644210765 
915	 0,558887079558964 
916	 0,559198778591659 
917	 0,559276722702188 
918	 0,559084172358505 
919	 0,558965645838625 
920	 0,559517034488886 
921	 0,560589659920762 
922	 0,5603926244728 
923	 0,560003697815805 
924	 0,560300657006287 
925	 0,560112731057142 
926	 0,55923184846754 
927	 0,557544023653878 
928	 0,55724964898781 
929	 0,558295406421242 
930	 0,557907832015029 
931	 0,557234519535331 
932	 0,557022564582164 
933	 0,557548284678552 
934	 0,557953708164395 
935	 0,557159628016085 
936	 0,557142388093617 
937	 0,557583170415154 
938	 0,556238796313476 
939	 0,555156909194402 
940	 0,555020008737115 
941	 0,554951966129791 
942	 0,55489947401019 
943	 0,554796254510861 
944	 0,554167531607406 
945	 0,553188649919121 
946	 0,55228359191838 
947	 0,552137776606353 
948	 0,552414603131282 
949	 0,550956900459361 
950	 0,550177327105717 
951	 0,550991211906069 
952	 0,54966655077135 
953	 0,547778357380079 
954	 0,547638625346797 
955	 0,548247321827947 
956	 0,548591054912027 
957	 0,546614761031329 
958	 0,544759266462675 
959	 0,544004418990945 
960	 0,544365125647534 
961	 0,544782001891549 
962	 0,544442882517394 
963	 0,543891832338283 
964	 0,543489942629805 
965	 0,543657991565336 
966	 0,543353242336585 
967	 0,542510349248385 
968	 0,541610789251669 
969	 0,541772440358782 
970	 0,543046669215905 
971	 0,542955043084724 
972	 0,541946439715403 
973	 0,540756511234782 
974	 0,540976806163078 
975	 0,541816987869281 
976	 0,541308810670222 
977	 0,541827834033588 
978	 0,543305459510526 
979	 0,543324169489967 
980	 0,542862339571338 
981	 0,542595116572709 
982	 0,543553080685559 
983	 0,543994633791963 
984	 0,54237784279628 
985	 0,543272292966493 
986	 0,54521839806401 
987	 0,54375204888173 
988	 0,54293338650402 
989	 0,543934781308138 
990	 0,546837831807524 
991	 0,547666998976495 
992	 0,545225580154631 
993	 0,546234867119688 
994	 0,547703282580909 
995	 0,546362786453221 
996	 0,548568846731889 
997	 0,552143447459731 
998	 0,550741382729346 
999	 0,549763667387635 
1000	 0,549934611219496 
1001	 0,547634621792573 
1002	 0,548246749424318 
1003	 0,553231935479693 
1004	 0,554175269864636 
1005	 0,553557974226686 
1006	 0,554327565724667 
1007	 0,553525395267713 
1008	 0,55262341681436 
1009	 0,554921291542912 
1010	 0,555955864517275 
1011	 0,554887846107316 
1012	 0,552978739464326 
1013	 0,552740609650465 
1014	 0,554822944244508 
1015	 0,555423085028915 
1016	 0,556923492708499 
1017	 0,560829174887084 
1018	 0,560665705515493 
1019	 0,558433317472952 
1020	 0,558570686271077 
1021	 0,558621062854356 
1022	 0,558946782663659 
1023	 0,56213202241469 
1024	 0,56363925152705 
1025	 0,562830543796141 
1026	 0,564982919565518 
1027	 0,566121039404727 
1028	 0,564673928381018 
1029	 0,569747666611459 
1030	 0,575070819010258 
1031	 0,572736634581175 
1032	 0,572058908597078 
1033	 0,573181340337391 
1034	 0,57284027687767 
1035	 0,570023341046628 
1036	 0,566500003817179 
1037	 0,569856986855367 
1038	 0,570749404693299 
1039	 0,566395069315564 
1040	 0,56643901725784 
1041	 0,566756805177253 
1042	 0,564423837064659 
1043	 0,568725936621907 
1044	 0,57191049480694 
1045	 0,562715112678858 
1046	 0,564768910689043 
1047	 0,574652507000755 
1048	 0,57154602811584 
1049	 0,578009115722198 
1050	 0,592346131068957 
1051	 0,583919157685092 
1052	 0,574905344771343 
1053	 0,576072477318763 
1054	 0,57496794853297 
1055	 0,573685030385982 
1056	 0,574081339132544 
1057	 0,57082016617165 
1058	 0,56880109526642 
1059	 0,57520028274989 
1060	 0,570238701545052 
1061	 0,562525805852219 
1062	 0,581571696201052 
1063	 0,592830188123637 
1064	 0,588129015490405 
1065	 0,576663837904843 
1066	 0,567650797465609 
1067	 0,566956313175873 
1068	 0,574165822050039 
1069	 0,58141023225944 
1070	 0,583436585794368 
1071	 0,588688355348493 
1072	 0,592437506861555 
1073	 0,588364034437915 
1074	 0,581845185335111 
1075	 0,577960325872015 
