Wavelength	GRA-BER00177.asd
325	-6,22927852827629E-02 
326	 0,140757233011007 
327	 0,155072527689206 
328	-4,09876264195717E-02 
329	 2,90290644226009E-02 
330	 0,14635334607176 
331	 0,118824662729494 
332	 0,180021741278782 
333	 0,258908012191482 
334	 0,169685535557844 
335	 8,38010231935789E-02 
336	 8,00798613445692E-02 
337	 0,096949308307521 
338	 9,64635172647683E-02 
339	 5,25670562871214E-02 
340	 1,96417709940677E-02 
341	 0,02255584485244 
342	 8,13560688067212E-02 
343	 0,102862097948299 
344	 7,10095664099386E-02 
345	 0,104909163892873 
346	 0,138765126556508 
347	 0,109165496971718 
348	 9,53813553414842E-02 
349	 9,87522185668986E-02 
350	 9,18948943710464E-02 
351	 7,93750070579692E-02 
352	 6,62815375599867E-02 
353	 5,73861904980863E-02 
354	 6,15171442683533E-02 
355	 8,78372618311626E-02 
356	 7,53292808898942E-02 
357	 3,76310828522453E-02 
358	 4,56937771241231E-02 
359	 6,98757025874974E-02 
360	 9,00585565536126E-02 
361	 0,082089012098743 
362	 6,18033789487424E-02 
363	 5,45918594889924E-02 
364	 6,10358791136823E-02 
365	 7,64227953307542E-02 
366	 8,71279149772441E-02 
367	 8,95590520489296E-02 
368	 8,01249906501254E-02 
369	 5,04864005372627E-02 
370	 2,64594783467288E-02 
371	 5,10373165326442E-02 
372	 8,14243983506049E-02 
373	 9,42417093441447E-02 
374	 7,21042464877215E-02 
375	 5,05821920732708E-02 
376	 0,055462423536596 
377	 0,067142448293693 
378	 0,072532857588777 
379	 0,05292983578695 
380	 3,71625028897344E-02 
381	 3,81178499743708E-02 
382	 0,064638210885115 
383	 0,081302404851775 
384	 0,059292703629057 
385	 4,89925289156189E-02 
386	 5,34712908801528E-02 
387	 5,45489836091121E-02 
388	 5,70616601436624E-02 
389	 6,05079169745646E-02 
390	 5,23655861337134E-02 
391	 4,65124931500975E-02 
392	 5,96868972863027E-02 
393	 7,71677555426275E-02 
394	 8,62691038608568E-02 
395	 5,95860559106271E-02 
396	 3,94097634894224E-02 
397	 0,047123169561815 
398	 4,84188493900462E-02 
399	 0,043284889394538 
400	 3,67117256652964E-02 
401	 0,046946884496242 
402	 6,77949123690534E-02 
403	 6,12090161427773E-02 
404	 5,49058244010057E-02 
405	 6,63130657901777E-02 
406	 0,066172369959535 
407	 5,94526760196162E-02 
408	 6,47979440028742E-02 
409	 6,28302356370163E-02 
410	 5,07365139164448E-02 
411	 4,08894204812572E-02 
412	 3,91271752501371E-02 
413	 4,94788216964992E-02 
414	 6,04631729976198E-02 
415	 0,066183986568514 
416	 5,85160904607595E-02 
417	 0,051907461814787 
418	 5,23131655516067E-02 
419	 5,34929478462623E-02 
420	 5,46625375090939E-02 
421	 0,055628714869503 
422	 5,44708961056968E-02 
423	 5,21930017979153E-02 
424	 5,30863956883503E-02 
425	 5,59019453196835E-02 
426	 5,90869586953624E-02 
427	 0,056500604046809 
428	 5,25094143841981E-02 
429	 5,64131975491961E-02 
430	 5,93874856166438E-02 
431	 5,91912442653257E-02 
432	 5,80589180605346E-02 
433	 5,78825153637429E-02 
434	 5,99682383807031E-02 
435	 5,93518772163817E-02 
436	 5,70002766274651E-02 
437	 5,76000636022337E-02 
438	 0,05881538601805 
439	 0,060043278121164 
440	 6,34188518383138E-02 
441	 6,62138472902071E-02 
442	 0,064980589578618 
443	 6,35763920607307E-02 
444	 6,27750435832768E-02 
445	 6,10713771929756E-02 
446	 6,16612352708342E-02 
447	 6,56397199482898E-02 
448	 6,38741091007411E-02 
449	 6,04479370429291E-02 
450	 6,53340417695837E-02 
451	 6,87633698609553E-02 
452	 6,79793281153203E-02 
453	 6,49106608875295E-02 
454	 6,29797857337045E-02 
455	 0,065097821712199 
456	 6,66480193140654E-02 
457	 6,68996039643951E-02 
458	 6,64716880024386E-02 
459	 6,62814421242284E-02 
460	 6,67819332998034E-02 
461	 6,75894593646088E-02 
462	 6,86107846896971E-02 
463	 6,98313927979124E-02 
464	 6,79410794336406E-02 
465	 6,42877656714537E-02 
466	 6,65505290073013E-02 
467	 6,84769654930054E-02 
468	 6,63899483511239E-02 
469	 6,73878027363448E-02 
470	 7,03934805626887E-02 
471	 0,071465292692958 
472	 7,14004258604462E-02 
473	 7,04756126089245E-02 
474	 6,90705286341925E-02 
475	 6,84645482949206E-02 
476	 6,97903815002398E-02 
477	 7,15129870766969E-02 
478	 7,22526342535102E-02 
479	 6,89002392179808E-02 
480	 6,71367730464027E-02 
481	 6,91569776400718E-02 
482	 6,94595933819911E-02 
483	 6,92379066984965E-02 
484	 7,11646010862517E-02 
485	 0,071943655666856 
486	 7,11212340238675E-02 
487	 7,02338049416732E-02 
488	 7,04478864656605E-02 
489	 7,24675844333422E-02 
490	 7,44154026901463E-02 
491	 7,54313030907616E-02 
492	 7,42245144636615E-02 
493	 7,38173662124224E-02 
494	 0,074859856638848 
495	 7,42910601746555E-02 
496	 7,34049804228947E-02 
497	 7,38885922503828E-02 
498	 7,40882686995681E-02 
499	 7,38932307693199E-02 
500	 7,40533190044296E-02 
501	 7,44352705295517E-02 
502	 7,51571758788673E-02 
503	 7,80603714575923E-02 
504	 8,05728195358346E-02 
505	 7,77642117572558E-02 
506	 7,65211777263571E-02 
507	 7,82845160859359E-02 
508	 7,94640144895769E-02 
509	 7,96764097318004E-02 
510	 7,88279711212821E-02 
511	 7,88656744836274E-02 
512	 7,96401509754009E-02 
513	 7,96750991370845E-02 
514	 7,97343511791046E-02 
515	 8,00822906208427E-02 
516	 8,00842700671767E-02 
517	 0,08072499990468 
518	 8,35135686006939E-02 
519	 8,37037878778864E-02 
520	 8,14872732927014E-02 
521	 8,22910607915277E-02 
522	 8,36014468365939E-02 
523	 8,35614798981164E-02 
524	 8,33481841603976E-02 
525	 8,32502085050864E-02 
526	 8,34844501693216E-02 
527	 8,38728418835211E-02 
528	 8,43982521942479E-02 
529	 8,54350070842424E-02 
530	 8,60992670680593E-02 
531	 8,54159849656423E-02 
532	 0,08594706901821 
533	 8,74509448182296E-02 
534	 8,71835553020045E-02 
535	 8,70505847358378E-02 
536	 8,80427106890396E-02 
537	 8,85337018755997E-02 
538	 8,85192725507526E-02 
539	 8,83780296837117E-02 
540	 8,82482689893495E-02 
541	 8,83233661313203E-02 
542	 8,89942960238384E-02 
543	 8,99912373065328E-02 
544	 9,10233924353395E-02 
545	 9,22760077019611E-02 
546	 9,33450912147109E-02 
547	 9,31659060128513E-02 
548	 9,24590759936153E-02 
549	 9,17966022568091E-02 
550	 9,23107194734795E-02 
551	 9,32726033145797E-02 
552	 0,093340148936432 
553	 9,34419970272657E-02 
554	 9,37514450164798E-02 
555	 9,38584084093893E-02 
556	 9,42326680269452E-02 
557	 9,52042514236161E-02 
558	 9,58591889979396E-02 
559	 9,60353036687299E-02 
560	 9,57769596550989E-02 
561	 9,53839983179629E-02 
562	 9,51664567362635E-02 
563	 9,58961684438714E-02 
564	 9,68812972816653E-02 
565	 9,71422393671879E-02 
566	 9,72030227033789E-02 
567	 0,097267953240904 
568	 9,75883427187151E-02 
569	 9,79475968589706E-02 
570	 9,81635788563508E-02 
571	 0,098000432444896 
572	 0,097796481627867 
573	 9,83323909998586E-02 
574	 9,90357059228223E-02 
575	 9,96718461457783E-02 
576	 0,100243047592633 
577	 0,100537967503438 
578	 0,100350717632473 
579	 0,100571365358199 
580	 0,101055782266744 
581	 0,10052872382642 
582	 0,100524553470222 
583	 0,10173799616938 
584	 0,102261180191339 
585	 0,102201683361237 
586	 0,102208329937573 
587	 0,102176999480088 
588	 0,102276245313157 
589	 0,103342147254791 
590	 0,103887788632562 
591	 0,102630628740859 
592	 0,102325624259662 
593	 0,103053661702062 
594	 0,10349797545508 
595	 0,10365619769953 
596	 0,10349025414417 
597	 0,103089605434402 
598	 0,102940938686912 
599	 0,103729741782121 
600	 0,104513070290257 
601	 0,104758226019638 
602	 0,103464596284676 
603	 0,102855318925427 
604	 0,104487417741001 
605	 0,104813321064741 
606	 0,104025456034575 
607	 0,104122804551045 
608	 0,104307578069908 
609	 0,10439806096812 
610	 0,104853444908961 
611	 0,105174623019046 
612	 0,104724446529639 
613	 0,104870832911615 
614	 0,105559435924679 
615	 0,105398616471397 
616	 0,105325400631976 
617	 0,105810430285326 
618	 0,105342471585609 
619	 0,10456373158268 
620	 0,105155716295057 
621	 0,105649785965554 
622	 0,105671539837994 
623	 0,105906448927359 
624	 0,106178177974195 
625	 0,106275040989187 
626	 0,106365115861041 
627	 0,106421389125915 
628	 0,106205944625016 
629	 0,106245440585443 
630	 0,106725631183776 
631	 0,106838951410331 
632	 0,106709471966752 
633	 0,106690651891139 
634	 0,106787329921147 
635	 0,107001282872125 
636	 0,107285028552123 
637	 0,107465816499982 
638	 0,10744558387243 
639	 0,107958686666506 
640	 0,10871689504607 
641	 0,108658965484623 
642	 0,108568613685975 
643	 0,108734255744988 
644	 0,108935351343254 
645	 0,108933095317559 
646	 0,108442616901966 
647	 0,10864156228812 
648	 0,109365622901126 
649	 0,108899653033835 
650	 0,108590342344381 
651	 0,10920129198761 
652	 0,108900790040673 
653	 0,108068907049989 
654	 0,107967453502834 
655	 0,108374454295308 
656	 0,108889473308926 
657	 0,107846119875095 
658	 0,106681808609559 
659	 0,10693966373356 
660	 0,107158591952841 
661	 0,106909987576298 
662	 0,105791671401735 
663	 0,10518764554442 
664	 0,105670257216401 
665	 0,105671684078545 
666	 0,105428935128865 
667	 0,105616474932379 
668	 0,105659619531005 
669	 0,105468244392025 
670	 0,105334203688826 
671	 0,105214256446017 
672	 0,105104914225724 
673	 0,105425905076523 
674	 0,106031612950805 
675	 0,106409594461088 
676	 0,106816500455508 
677	 0,10732693533523 
678	 0,107918833158657 
679	 0,108409975727315 
680	 0,108596168660677 
681	 0,108929175605743 
682	 0,109410801000653 
683	 0,109628543388045 
684	 0,110015366461793 
685	 0,110779416332966 
686	 0,111425791031534 
687	 0,111890077992755 
688	 0,112153638253286 
689	 0,112799442194905 
690	 0,113793251111212 
691	 0,114125811662987 
692	 0,114336279690325 
693	 0,114932923873907 
694	 0,115539039964959 
695	 0,116111867009859 
696	 0,116728122878796 
697	 0,117335264387762 
698	 0,117833764648979 
699	 0,117798222402763 
700	 0,117673472835405 
701	 0,118062842335305 
702	 0,118868022256232 
703	 0,119756193245901 
704	 0,1197078387235 
705	 0,119728414315603 
706	 0,120413084827825 
707	 0,120998657364275 
708	 0,121304168518788 
709	 0,121177007239107 
710	 0,121222034802145 
711	 0,121619389787952 
712	 0,122202563101721 
713	 0,122506539151434 
714	 0,122190909786765 
715	 0,122734314146553 
716	 0,12377057494328 
717	 0,123548239372129 
718	 0,12346669384015 
719	 0,124018975505025 
720	 0,124462055577319 
721	 0,124691725910926 
722	 0,124664978316878 
723	 0,125175011697199 
724	 0,126006168772924 
725	 0,125740600762604 
726	 0,125456732284091 
727	 0,125801920584468 
728	 0,126169920596843 
729	 0,126492300519036 
730	 0,126782782716314 
731	 0,127224595695229 
732	 0,12774711584129 
733	 0,12778935364285 
734	 0,127836594969953 
735	 0,128295677094997 
736	 0,12854410894116 
737	 0,128583059764667 
738	 0,128691087992086 
739	 0,128802946318364 
740	 0,128973187135805 
741	 0,129612490992583 
742	 0,130088486302459 
743	 0,129670953912477 
744	 0,12978172127142 
745	 0,130430637965252 
746	 0,130577384376103 
747	 0,130700934188618 
748	 0,131017403004024 
749	 0,131213036497033 
750	 0,131359943525765 
751	 0,131613746812566 
752	 0,132045598746278 
753	 0,132526191453534 
754	 0,132499441269454 
755	 0,132457623124727 
756	 0,13275097630484 
757	 0,133022245683855 
758	 0,133243765444867 
759	 0,133459305572676 
760	 0,13380384557493 
761	 0,134224073337106 
762	 0,134209629773307 
763	 0,134336997363352 
764	 0,135106203656204 
765	 0,135308980867623 
766	 0,135068417904712 
767	 0,135356924292782 
768	 0,135466435647364 
769	 0,135260520933512 
770	 0,135545997267874 
771	 0,13601845074347 
772	 0,136245858883881 
773	 0,136518572089896 
774	 0,136800950578947 
775	 0,136772541428292 
776	 0,136915257042009 
777	 0,137414535006253 
778	 0,137658255656159 
779	 0,137758383300765 
780	 0,137990579567328 
781	 0,137914664837063 
782	 0,137657517925499 
783	 0,138040413017915 
784	 0,138557682886854 
785	 0,138877713372597 
786	 0,139251135527959 
787	 0,139627726492636 
788	 0,139885295233437 
789	 0,139969690950794 
790	 0,13988118869761 
791	 0,139647648626266 
792	 0,139616762383283 
793	 0,140034678368072 
794	 0,140492429822484 
795	 0,140713622476593 
796	 0,140216518783004 
797	 0,140202433072706 
798	 0,140921459160316 
799	 0,141411362736587 
800	 0,141573375775208 
801	 0,141409836916098 
802	 0,141687923124836 
803	 0,142207109116271 
804	 0,142037375242179 
805	 0,141952353522535 
806	 0,142157689460994 
807	 0,142154861604116 
808	 0,142048249758746 
809	 0,14199326394105 
810	 0,142079486849389 
811	 0,14242421089481 
812	 0,14336962805652 
813	 0,143894685443218 
814	 0,143655526683925 
815	 0,143566311539832 
816	 0,143770940726942 
817	 0,144311293388679 
818	 0,144266201428869 
819	 0,143739813912868 
820	 0,143633083370039 
821	 0,144014752875657 
822	 0,144800469683176 
823	 0,145083516928009 
824	 0,145144797512988 
825	 0,145471492846896 
826	 0,145651296712221 
827	 0,145658679056469 
828	 0,145685482610288 
829	 0,145817226209483 
830	 0,146040343584013 
831	 0,14589834542397 
832	 0,145689877185003 
833	 0,145880455097868 
834	 0,145730549844374 
835	 0,145350376639592 
836	 0,145650725320867 
837	 0,146238820230041 
838	 0,146804871917341 
839	 0,146915607677485 
840	 0,146633351257991 
841	 0,146135774684218 
842	 0,145889982622609 
843	 0,145978301781798 
844	 0,146133993476248 
845	 0,146434893587449 
846	 0,14687057089278 
847	 0,147191626888593 
848	 0,147302129174615 
849	 0,14712439106434 
850	 0,147029460600342 
851	 0,147085690238961 
852	 0,147100178281698 
853	 0,147302635541241 
854	 0,14777312853443 
855	 0,14819632967786 
856	 0,14847086151724 
857	 0,148527630664578 
858	 0,147989876213164 
859	 0,147147432090394 
860	 0,147072903858565 
861	 0,147470296456194 
862	 0,148099793552777 
863	 0,148518508738177 
864	 0,14854955252027 
865	 0,14807031667393 
866	 0,148088377744623 
867	 0,148518436135301 
868	 0,148212055239817 
869	 0,148236515131573 
870	 0,148967283541083 
871	 0,149463984478682 
872	 0,149550041306142 
873	 0,14915675149514 
874	 0,149084566813346 
875	 0,149291248023188 
876	 0,148995321454126 
877	 0,149107491405102 
878	 0,149800417388896 
879	 0,149836446838657 
880	 0,149353584683805 
881	 0,148650865864086 
882	 0,148285567389775 
883	 0,148369439558398 
884	 0,148922538616751 
885	 0,148858917664671 
886	 0,148115717036164 
887	 0,148746628127869 
888	 0,149420239212327 
889	 0,148874468785839 
890	 0,148789936940734 
891	 0,149305927256052 
892	 0,150154080945951 
893	 0,150086490346294 
894	 0,149177309517497 
895	 0,149872850712697 
896	 0,150513567884384 
897	 0,149912176675276 
898	 0,15036379082593 
899	 0,151221747039884 
900	 0,150729565950883 
901	 0,150434541899393 
902	 0,150536597026956 
903	 0,149950719254663 
904	 0,149871133010274 
905	 0,150776320111008 
906	 0,150274780800335 
907	 0,149470959590643 
908	 0,15031880789975 
909	 0,151004295810331 
910	 0,151168050400478 
911	 0,151148809617549 
912	 0,151168339045788 
913	 0,15129139806336 
914	 0,151112088249915 
915	 0,150807949631234 
916	 0,150634760486471 
917	 0,150946127416049 
918	 0,15148946523118 
919	 0,151491099376841 
920	 0,151168041354512 
921	 0,150855001511225 
922	 0,151720841583289 
923	 0,152808279732853 
924	 0,153243203324538 
925	 0,153076982782676 
926	 0,152747788957376 
927	 0,153051147382203 
928	 0,152906824211067 
929	 0,152251150764791 
930	 0,151959630344273 
931	 0,151942522352717 
932	 0,152190470515171 
933	 0,153081508599172 
934	 0,153621867949992 
935	 0,152594947463083 
936	 0,152116900154587 
937	 0,152595226143209 
938	 0,15375112165543 
939	 0,154686288413791 
940	 0,15486590484839 
941	 0,153836267804561 
942	 0,153159344791776 
943	 0,154092031905348 
944	 0,154613093852178 
945	 0,154361844359989 
946	 0,1533203125 
947	 0,152659870262052 
948	 0,152879457698624 
949	 0,154305269332025 
950	 0,155353229599004 
951	 0,155116470023352 
952	 0,154301125912254 
953	 0,153573088924524 
954	 0,153643149408564 
955	 0,15494359598627 
956	 0,156282200053219 
957	 0,154299958337556 
958	 0,153381705444538 
959	 0,15446274910963 
960	 0,15404476523805 
961	 0,154187800174432 
962	 0,156028663202297 
963	 0,154520334675887 
964	 0,152458823163484 
965	 0,15501749240163 
966	 0,156608866329763 
967	 0,156548014745172 
968	 0,157465461835549 
969	 0,156891474927301 
970	 0,15467086648813 
971	 0,15570744943675 
972	 0,156806758236289 
973	 0,155121119933955 
974	 0,155454084818534 
975	 0,157108360629859 
976	 0,157461811496286 
977	 0,157130871415916 
978	 0,156603467122073 
979	 0,157213725052188 
980	 0,157241165933341 
981	 0,156112946850033 
982	 0,155652416726098 
983	 0,156395437241212 
984	 0,158435354802203 
985	 0,158255712425443 
986	 0,156966804121411 
987	 0,158050658788234 
988	 0,158468690526148 
989	 0,157634305918157 
990	 0,156502183489496 
991	 0,156375138242074 
992	 0,157517250740668 
993	 0,156779798138074 
994	 0,156332486628005 
995	 0,158390371461865 
996	 0,158664942455571 
997	 0,157070038167626 
998	 0,154793797292128 
999	 0,15694560602615 
1000	 0,162444858862294 
1001	 0,162315784157717 
1002	 0,160288780297317 
1003	 0,158512992894798 
1004	 0,157665164268595 
1005	 0,157685886723552 
1006	 0,158298681300899 
1007	 0,158468384484417 
1008	 0,158578941981116 
1009	 0,159654997781904 
1010	 0,160652606941942 
1011	 0,161394780807803 
1012	 0,162239179112797 
1013	 0,163326564877212 
1014	 0,164145453170253 
1015	 0,161607434772789 
1016	 0,159761414771264 
1017	 0,161759623599534 
1018	 0,163240627724849 
1019	 0,16222314533593 
1020	 0,157054840381457 
1021	 0,158078326682025 
1022	 0,164153937970973 
1023	 0,165100147635099 
1024	 0,163464811648171 
1025	 0,160908172401101 
1026	 0,161547273743834 
1027	 0,163174261161532 
1028	 0,164106701654112 
1029	 0,16441243748029 
1030	 0,163763580690327 
1031	 0,161983208804108 
1032	 0,161202246289167 
1033	 0,161428427549455 
1034	 0,161525511618325 
1035	 0,16413475162558 
1036	 0,168750207057823 
1037	 0,172296554925978 
1038	 0,169774315960198 
1039	 0,161282036891635 
1040	 0,160450030021844 
1041	 0,161569559102846 
1042	 0,159806715520575 
1043	 0,161825921477389 
1044	 0,163619977338315 
1045	 0,159199061045346 
1046	 0,162971482399217 
1047	 0,170720509204344 
1048	 0,165133581267058 
1049	 0,166412961858072 
1050	 0,175024207163755 
1051	 0,16767474461252 
1052	 0,165058280814062 
1053	 0,174378119545862 
1054	 0,174223308225946 
1055	 0,1682186390093 
1056	 0,161478513167793 
1057	 0,159485048833481 
1058	 0,161689874590226 
1059	 0,165429064750348 
1060	 0,165043654318571 
1061	 0,161426667463889 
1062	 0,158849673505562 
1063	 0,168360742251161 
1064	 0,184451708801789 
1065	 0,176434617869619 
1066	 0,160853964893683 
1067	 0,1520451090263 
1068	 0,176296948682255 
1069	 0,194087964079327 
1070	 0,179396929237305 
1071	 0,174271661677246 
1072	 0,177238530416321 
1073	 0,179926944523003 
1074	 0,177211651288357 
1075	 0,168439485199457 
