Wavelength	GRA-VIE00115.asd
325	 0,193306793616292 
326	 0,228805808829643 
327	 0,238125403925032 
328	 0,215113499572185 
329	 0,238925477825761 
330	 0,278741412490038 
331	 0,286691700020414 
332	 0,301304171797416 
333	 0,312086754248892 
334	 0,236758376435336 
335	 0,206146505090591 
336	 0,238996774075083 
337	 0,240129985570378 
338	 0,233212188462354 
339	 0,236226588881003 
340	 0,261318376440844 
341	 0,295915799245581 
342	 0,29019453316189 
343	 0,272479088297383 
344	 0,254300890049845 
345	 0,233563208574418 
346	 0,207971811522923 
347	 0,180663485168707 
348	 0,142501197014934 
349	 0,116130175614494 
350	 0,168864985695859 
351	 0,183496592210744 
352	 0,14281675540687 
353	 0,178515314291009 
354	 0,235903548860156 
355	 0,244389821116495 
356	 0,227744587122787 
357	 0,199346297117223 
358	 0,177048940316441 
359	 0,183499923206881 
360	 0,223404897210302 
361	 0,240463307800814 
362	 0,236833357268609 
363	 0,227564347234438 
364	 0,224147273185309 
365	 0,228847932480349 
366	 0,237517803861923 
367	 0,238154962518048 
368	 0,223226621847638 
369	 0,192730706275988 
370	 0,173214470870405 
371	 0,20916522389187 
372	 0,2225764815783 
373	 0,203410440994669 
374	 0,216805318808739 
375	 0,235944975383993 
376	 0,238159310085569 
377	 0,213220719339995 
378	 0,186887054397735 
379	 0,217097633795747 
380	 0,243895195367285 
381	 0,249884746474037 
382	 0,243170166181496 
383	 0,224941954148193 
384	 0,198787851617332 
385	 0,203438086028958 
386	 0,226005145628773 
387	 0,218692210654726 
388	 0,21709921578955 
389	 0,23232472147771 
390	 0,248258754507737 
391	 0,254212827605593 
392	 0,239407358466797 
393	 0,223597266886934 
394	 0,214530850041118 
395	 0,219676344735676 
396	 0,230696125428981 
397	 0,240645965883438 
398	 0,228847730638855 
399	 0,212568504321721 
400	 0,218820111167256 
401	 0,229284509190158 
402	 0,236416398727925 
403	 0,23225549636884 
404	 0,231009835911191 
405	 0,240242233048143 
406	 0,230723302706291 
407	 0,215770739084476 
408	 0,231839808766096 
409	 0,23931130377136 
410	 0,230605724318703 
411	 0,225602235439509 
412	 0,223968748260619 
413	 0,22435046184897 
414	 0,229595581568335 
415	 0,234838352338297 
416	 0,226677287577657 
417	 0,219150516980828 
418	 0,21826992785146 
419	 0,223613054138812 
420	 0,229680321851335 
421	 0,230020819576218 
422	 0,223281720059447 
423	 0,215031483900202 
424	 0,2241098220367 
425	 0,228663078986302 
426	 0,217688799911022 
427	 0,217827109397385 
428	 0,226300431765285 
429	 0,232667247834988 
430	 0,233904154806435 
431	 0,230254856029069 
432	 0,22933052439881 
433	 0,228617643029105 
434	 0,226037746865824 
435	 0,229516468522656 
436	 0,235361113504235 
437	 0,230606552288225 
438	 0,227418667849526 
439	 0,230000823997198 
440	 0,231915107029595 
441	 0,231162185710045 
442	 0,226075021802654 
443	 0,225628770188753 
444	 0,22986857445318 
445	 0,230892520743908 
446	 0,230772625520044 
447	 0,230721452757805 
448	 0,229851086233705 
449	 0,229028702407707 
450	 0,229702512654392 
451	 0,233196762958118 
452	 0,238093489546257 
453	 0,23681755603289 
454	 0,233982187526165 
455	 0,234151552026959 
456	 0,235227447376139 
457	 0,236270701897845 
458	 0,235805139249574 
459	 0,235104225419722 
460	 0,234789423893809 
461	 0,235237949858774 
462	 0,23504029712636 
463	 0,232303336248837 
464	 0,231338962056751 
465	 0,232971342844052 
466	 0,236320739277216 
467	 0,237700427628406 
468	 0,235167767027936 
469	 0,23490928101671 
470	 0,235919465228393 
471	 0,234030379197343 
472	 0,234624139229393 
473	 0,238065618377409 
474	 0,23772071362121 
475	 0,235982022175919 
476	 0,235599252416397 
477	 0,236858932965358 
478	 0,238400168852616 
479	 0,236097848952293 
480	 0,234276095627784 
481	 0,234717633696657 
482	 0,234360008021768 
483	 0,233657127587311 
484	 0,233691445275933 
485	 0,235314004671218 
486	 0,237713705189561 
487	 0,237047970880367 
488	 0,236191681687844 
489	 0,237281984481419 
490	 0,238651727010207 
491	 0,238777456566679 
492	 0,234415307490406 
493	 0,23175748115756 
494	 0,23282087415202 
495	 0,234824230403641 
496	 0,236286722255703 
497	 0,235864358050546 
498	 0,234784855051006 
499	 0,233771068981559 
500	 0,233749588912246 
501	 0,234611810565326 
502	 0,236073274891682 
503	 0,236401992080776 
504	 0,236316636435724 
505	 0,237544421000322 
506	 0,23819441558315 
507	 0,238028126003488 
508	 0,2385987943759 
509	 0,239178208540309 
510	 0,239123705031139 
511	 0,239934089850415 
512	 0,241438735814632 
513	 0,242711822619172 
514	 0,242931470741364 
515	 0,241944211477833 
516	 0,241342059380045 
517	 0,241544866217667 
518	 0,242856656583628 
519	 0,24398260235972 
520	 0,244401158493715 
521	 0,24368528836858 
522	 0,243363547997433 
523	 0,244345929408311 
524	 0,243581939846536 
525	 0,242166841023284 
526	 0,243848607700672 
527	 0,244557966637823 
528	 0,243145709112523 
529	 0,241355739696818 
530	 0,240700294532236 
531	 0,242641660012103 
532	 0,243335695967025 
533	 0,242424457493206 
534	 0,24181915034494 
535	 0,241615757491506 
536	 0,241847148979002 
537	 0,241989019915409 
538	 0,241901872234127 
539	 0,241450714044873 
540	 0,241267378029341 
541	 0,241583979725193 
542	 0,242408864097432 
543	 0,243058543378417 
544	 0,242900122369654 
545	 0,242652326305147 
546	 0,242576753131415 
547	 0,242990500209545 
548	 0,243119834704039 
549	 0,242688124256287 
550	 0,242634763845601 
551	 0,242966543829294 
552	 0,24352527919028 
553	 0,244193801248241 
554	 0,244411906827961 
555	 0,242106496316685 
556	 0,24046343729705 
557	 0,241981135345057 
558	 0,242996238042358 
559	 0,242874622054021 
560	 0,241756438462034 
561	 0,240863575527274 
562	 0,240720242207633 
563	 0,240633050533912 
564	 0,240693495075401 
565	 0,241099111108165 
566	 0,241482819870482 
567	 0,241835156982149 
568	 0,242548305914723 
569	 0,243154039886315 
570	 0,243373161038412 
571	 0,243763467492841 
572	 0,244682710709705 
573	 0,246934512754365 
574	 0,247683171763902 
575	 0,246561623765883 
576	 0,247586550559098 
577	 0,249236278606789 
578	 0,249526099618178 
579	 0,250613896178298 
580	 0,252462790643806 
581	 0,253510526505952 
582	 0,254408184900947 
583	 0,255497280223723 
584	 0,256525540867679 
585	 0,257466061710411 
586	 0,258301258378231 
587	 0,25932974814083 
588	 0,260524624743987 
589	 0,261391131522847 
590	 0,261905798133362 
591	 0,262104662649254 
592	 0,262631846459682 
593	 0,263393727712347 
594	 0,263776956146394 
595	 0,263926069813523 
596	 0,263970797443752 
597	 0,264300170997128 
598	 0,264944513405555 
599	 0,265910467816433 
600	 0,266132385870802 
601	 0,265523598705388 
602	 0,265104135129289 
603	 0,264658490128234 
604	 0,264044968944655 
605	 0,263862899952075 
606	 0,263694036575669 
607	 0,262139305446436 
608	 0,261260916946429 
609	 0,261565294136465 
610	 0,260896738463809 
611	 0,260153381440434 
612	 0,260644365042932 
613	 0,26060272568807 
614	 0,259894965133319 
615	 0,259588522520972 
616	 0,2593655058843 
617	 0,259070037387097 
618	 0,259145305988761 
619	 0,259349634377223 
620	 0,259104210287706 
621	 0,258828041264372 
622	 0,25864531285326 
623	 0,258357273079922 
624	 0,258439754412141 
625	 0,259338412453528 
626	 0,259769117503883 
627	 0,259668108514558 
628	 0,259739591117476 
629	 0,259821776303171 
630	 0,259891977758298 
631	 0,260176289610094 
632	 0,260749346748803 
633	 0,261700290280044 
634	 0,26247373828715 
635	 0,262899928772702 
636	 0,262986424984188 
637	 0,263540429875529 
638	 0,265132556557917 
639	 0,265907800105064 
640	 0,266086001975872 
641	 0,267173695072883 
642	 0,26806213690665 
643	 0,268463688371686 
644	 0,269440498713935 
645	 0,270470213093533 
646	 0,270763118317591 
647	 0,270892433193463 
648	 0,270864655515022 
649	 0,27013474783821 
650	 0,269588915747854 
651	 0,269699472153771 
652	 0,268925970775945 
653	 0,267650977590108 
654	 0,267110426347406 
655	 0,266563581106903 
656	 0,265742333207359 
657	 0,264646978486808 
658	 0,263093792551174 
659	 0,260950315425895 
660	 0,259399038793339 
661	 0,25832871083201 
662	 0,256528019781933 
663	 0,254989635985324 
664	 0,254136385503391 
665	 0,253227454189209 
666	 0,25209186875018 
667	 0,250577029632619 
668	 0,24960990081015 
669	 0,24937716287983 
670	 0,249400119480471 
671	 0,249511756926071 
672	 0,249543749403564 
673	 0,249125542683353 
674	 0,248535104164364 
675	 0,248587952457684 
676	 0,248704604498198 
677	 0,248632267800375 
678	 0,248173112419421 
679	 0,247840066906634 
680	 0,248247405848745 
681	 0,249100780260562 
682	 0,250137330923433 
683	 0,250753477946265 
684	 0,251614693122463 
685	 0,253053491278219 
686	 0,254208667121867 
687	 0,255641131515253 
688	 0,258428372536827 
689	 0,262451756917373 
690	 0,267282519469189 
691	 0,271189937944197 
692	 0,275638975533071 
693	 0,281922275548376 
694	 0,288263851616997 
695	 0,294698891446945 
696	 0,302214771000852 
697	 0,310301610752057 
698	 0,318748908790729 
699	 0,327725039761344 
700	 0,336917494382585 
701	 0,345911879702367 
702	 0,35529066178956 
703	 0,364947814161033 
704	 0,374167808858346 
705	 0,383044089482961 
706	 0,391586289901065 
707	 0,399593930163822 
708	 0,406999637487025 
709	 0,413653036425658 
710	 0,420358223191144 
711	 0,427186239398337 
712	 0,433124751410453 
713	 0,438529484257289 
714	 0,443778147245404 
715	 0,44856562903796 
716	 0,452953187992078 
717	 0,457211084569502 
718	 0,461247290369091 
719	 0,464995408727637 
720	 0,468237454622155 
721	 0,471058078210001 
722	 0,47360915804415 
723	 0,476319645071302 
724	 0,479064881559405 
725	 0,481067847227574 
726	 0,482771978932144 
727	 0,484445032931456 
728	 0,485856101591319 
729	 0,487151746989126 
730	 0,488640066063141 
731	 0,489875251075634 
732	 0,490778011153114 
733	 0,491570668746181 
734	 0,492578769026223 
735	 0,494016963203431 
736	 0,4949971971495 
737	 0,495564674372572 
738	 0,496270308000521 
739	 0,496902358840824 
740	 0,497378283240619 
741	 0,497579755800545 
742	 0,497819199622691 
743	 0,498454692207452 
744	 0,499100457315157 
745	 0,499593560380252 
746	 0,499640792728574 
747	 0,500173537686279 
748	 0,501496285528341 
749	 0,501939434966124 
750	 0,501815422141529 
751	 0,5019133737436 
752	 0,502138660171535 
753	 0,502497685002364 
754	 0,502980872006854 
755	 0,503449945826276 
756	 0,503815629740501 
757	 0,504316773640097 
758	 0,504724676032134 
759	 0,504448663677086 
760	 0,504647578139638 
761	 0,505443307480188 
762	 0,505453099514656 
763	 0,505260598768482 
764	 0,505472533612595 
765	 0,505803695063601 
766	 0,506075074383548 
767	 0,505920935769172 
768	 0,505919877366249 
769	 0,506251274263935 
770	 0,506456691439709 
771	 0,506583050794581 
772	 0,506731126402502 
773	 0,50684127046241 
774	 0,506952505193494 
775	 0,507215283368754 
776	 0,50745916355668 
777	 0,507607975451474 
778	 0,507828770767598 
779	 0,508028095667583 
780	 0,508047681175943 
781	 0,507998724526339 
782	 0,50799555787265 
783	 0,508282298310573 
784	 0,508750128615663 
785	 0,509199694221544 
786	 0,508636519361428 
787	 0,50777847422898 
788	 0,508115625311564 
789	 0,508718951100569 
790	 0,509233456547349 
791	 0,509512021881713 
792	 0,509342853352704 
793	 0,50867994788828 
794	 0,508804240436109 
795	 0,509387627582509 
796	 0,509229312287757 
797	 0,509193062598815 
798	 0,509430466190482 
799	 0,509232378085603 
800	 0,509257811707146 
801	 0,510061087177995 
802	 0,510128961453449 
803	 0,509572351956792 
804	 0,509352586538457 
805	 0,509522909769194 
806	 0,510048347770376 
807	 0,510380397993421 
808	 0,510534376511707 
809	 0,510597458678302 
810	 0,511041045503676 
811	 0,511729924242546 
812	 0,512061139682953 
813	 0,512021523394076 
814	 0,511708373121247 
815	 0,511794776783204 
816	 0,512048688514448 
817	 0,512128599348299 
818	 0,512599299311663 
819	 0,513322230487098 
820	 0,513563488437119 
821	 0,513644443287915 
822	 0,513718426495026 
823	 0,513784702454124 
824	 0,513807610312575 
825	 0,513738160874364 
826	 0,513717453477831 
827	 0,51383359702777 
828	 0,514285447819733 
829	 0,514487122642689 
830	 0,514204814416264 
831	 0,514131217299994 
832	 0,514300427709398 
833	 0,514642176230271 
834	 0,515002450017897 
835	 0,515247122146014 
836	 0,515124509354444 
837	 0,515057137983441 
838	 0,515247346464003 
839	 0,515267683847589 
840	 0,515380522396381 
841	 0,516011485395626 
842	 0,515859890170681 
843	 0,515159027313828 
844	 0,515868345314903 
845	 0,516343789842728 
846	 0,515832826362287 
847	 0,515871606778717 
848	 0,516184669393049 
849	 0,516144408302941 
850	 0,516559878234073 
851	 0,517291172293853 
852	 0,517292940157657 
853	 0,51704549425758 
854	 0,516836191656382 
855	 0,516726470983869 
856	 0,516630830856072 
857	 0,516412999278364 
858	 0,516486858531747 
859	 0,516832511602491 
860	 0,517070290167891 
861	 0,517205071861697 
862	 0,51722691083856 
863	 0,51704722812049 
864	 0,517153917327082 
865	 0,518151928352986 
866	 0,518938722131487 
867	 0,51921712306119 
868	 0,519044891690847 
869	 0,518633975817811 
870	 0,518253443922512 
871	 0,518667234617728 
872	 0,51915981493366 
873	 0,518816614200668 
874	 0,518689405721304 
875	 0,518970470123705 
876	 0,519499015465458 
877	 0,520148109847806 
878	 0,520754250321528 
879	 0,520979084287515 
880	 0,520835467687863 
881	 0,520432281469345 
882	 0,520871339238241 
883	 0,52171833777688 
884	 0,521192126930368 
885	 0,520757725901796 
886	 0,520896491793359 
887	 0,521173693342753 
888	 0,521405524090867 
889	 0,521444839818318 
890	 0,521397339424534 
891	 0,521557076740837 
892	 0,522581753509299 
893	 0,522979145425337 
894	 0,522538225823943 
895	 0,52279440609509 
896	 0,522929406338907 
897	 0,522380738538993 
898	 0,522461864791241 
899	 0,522961680396374 
900	 0,523152595359893 
901	 0,523067868629974 
902	 0,522929016347317 
903	 0,523564887958123 
904	 0,52431445940228 
905	 0,524676974356983 
906	 0,52440981038972 
907	 0,523730323423652 
908	 0,522999095402656 
909	 0,523528670005955 
910	 0,524846662479471 
911	 0,524425290522776 
912	 0,523811987965325 
913	 0,52374054296406 
914	 0,523853150605848 
915	 0,52423956652984 
916	 0,524965437624737 
917	 0,52513288482058 
918	 0,524815974711568 
919	 0,524742863306264 
920	 0,524329287167785 
921	 0,523700829715658 
922	 0,524282479427088 
923	 0,524983646651301 
924	 0,52484050660307 
925	 0,524229007893814 
926	 0,52361768587394 
927	 0,523764970031863 
928	 0,523106627488393 
929	 0,522009488360741 
930	 0,523578513024452 
931	 0,524661611246798 
932	 0,523588824295906 
933	 0,52268640659453 
934	 0,522478418916908 
935	 0,523236123970602 
936	 0,523447232001119 
937	 0,522798540437299 
938	 0,521283682104574 
939	 0,521158363974349 
940	 0,522684324563887 
941	 0,522251528859008 
942	 0,520862372038314 
943	 0,519764565633778 
944	 0,520358433620057 
945	 0,521432889003153 
946	 0,520296587268483 
947	 0,519211131922027 
948	 0,518490491993642 
949	 0,516709331568072 
950	 0,515549744148034 
951	 0,515732590122322 
952	 0,515082854359974 
953	 0,51448721354129 
954	 0,515167543096433 
955	 0,513991602120326 
956	 0,511847774866875 
957	 0,512723706844397 
958	 0,513546140513757 
959	 0,513194214902469 
960	 0,511588517182322 
961	 0,510683669123698 
962	 0,511691477048134 
963	 0,511476292982255 
964	 0,510730741943404 
965	 0,511175828214005 
966	 0,51249768506247 
967	 0,513561195131716 
968	 0,511114901167739 
969	 0,508877452985633 
970	 0,508701174114319 
971	 0,510762810003497 
972	 0,512226923321924 
973	 0,510679565654503 
974	 0,509143084495024 
975	 0,509165385915347 
976	 0,512579858841317 
977	 0,512866233783612 
978	 0,509798208738491 
979	 0,509311358049578 
980	 0,50999819042415 
981	 0,511080852232913 
982	 0,511826107516608 
983	 0,51287554924116 
984	 0,514677565197813 
985	 0,513268965054505 
986	 0,510875529297221 
987	 0,513177420013789 
988	 0,514638886684417 
989	 0,514405513030447 
990	 0,515512297226757 
991	 0,516158403034868 
992	 0,515633718021482 
993	 0,515668044661109 
994	 0,51570073755352 
995	 0,515165226478605 
996	 0,516411384643056 
997	 0,518055674480855 
998	 0,516594214800655 
999	 0,516660337410118 
1000	 0,51858091242937 
1001	 0,51855201032414 
1002	 0,518453417329621 
1003	 0,519258470963835 
1004	 0,520670686227387 
1005	 0,52274503638559 
1006	 0,525172301816455 
1007	 0,52385601918291 
1008	 0,521227426494063 
1009	 0,522713027674248 
1010	 0,524649337465346 
1011	 0,526086512386217 
1012	 0,527582402046002 
1013	 0,527328265572364 
1014	 0,525222675193206 
1015	 0,52495941919341 
1016	 0,525601291993593 
1017	 0,526157995763368 
1018	 0,527160426211282 
1019	 0,527602436529354 
1020	 0,526036501992584 
1021	 0,527524212104556 
1022	 0,531342696588766 
1023	 0,532142259915738 
1024	 0,531908192054925 
1025	 0,53173929742708 
1026	 0,533958779020511 
1027	 0,534478160170099 
1028	 0,531507437295767 
1029	 0,532538216913369 
1030	 0,535191193985457 
1031	 0,535701291086826 
1032	 0,535626312795234 
1033	 0,534671608545834 
1034	 0,531867369032936 
1035	 0,52935330226037 
1036	 0,527998315374952 
1037	 0,527937450133723 
1038	 0,530184873043115 
1039	 0,534193446652784 
1040	 0,536190893993115 
1041	 0,534465686647879 
1042	 0,528803118897897 
1043	 0,528207595882577 
1044	 0,529977303822453 
1045	 0,528940745526735 
1046	 0,532708664740012 
1047	 0,537324200634184 
1048	 0,530044876053659 
1049	 0,527176057957162 
1050	 0,532665541761792 
1051	 0,54033375168216 
1052	 0,544332791010651 
1053	 0,5422736362891 
1054	 0,539098272333132 
1055	 0,538631564079332 
1056	 0,543223842221199 
1057	 0,546271073813608 
1058	 0,54625150193627 
1059	 0,542773731994482 
1060	 0,541781704944296 
1061	 0,539670721369611 
1062	 0,524322944949848 
1063	 0,526826812106653 
1064	 0,545814181413737 
1065	 0,538530753403356 
1066	 0,527469811213788 
1067	 0,526048764681297 
1068	 0,551071633107045 
1069	 0,565776256984356 
1070	 0,545530829150043 
1071	 0,53479222638696 
1072	 0,53414343233393 
1073	 0,537807053391411 
1074	 0,546373004534374 
1075	 0,555660825842607 
