Wavelength	GRA-VAN00639.asd
325	 0,309742877417601 
326	 0,357239651249009 
327	 0,360953687607674 
328	 0,304701795242543 
329	 0,229167700535576 
330	 0,221424411348698 
331	 0,35027469163517 
332	 0,362959570118307 
333	 0,295922881383909 
334	 8,88482138469854E-02 
335	 0,123873344970089 
336	 0,408621044434671 
337	 0,437944314713022 
338	 0,338161933998465 
339	 0,191873829472647 
340	 0,232749512390031 
341	 0,356809078267749 
342	 0,328391059731929 
343	 0,25542111216766 
344	 0,206544691486667 
345	 0,182002571599967 
346	 0,222387611117777 
347	 0,353128387845283 
348	 0,319494909376438 
349	 0,172191436398434 
350	 0,171535978968581 
351	 0,190294820041545 
352	 0,184681633604047 
353	 0,217437960141034 
354	 0,250437028644599 
355	 0,233360672016155 
356	 0,246885273804833 
357	 0,281230420102578 
358	 0,266890986310485 
359	 0,257590204675089 
360	 0,276280315237025 
361	 0,282903736591905 
362	 0,280675318302803 
363	 0,277453998839899 
364	 0,280797795946195 
365	 0,287415762056647 
366	 0,275435045042742 
367	 0,269615349447759 
368	 0,282651328966104 
369	 0,29290790685423 
370	 0,29276219378541 
371	 0,271143957703536 
372	 0,270010498803096 
373	 0,288880475694185 
374	 0,269703718140528 
375	 0,251387533544767 
376	 0,264501386825116 
377	 0,265142434739599 
378	 0,260022888246867 
379	 0,279649337290259 
380	 0,288831790873776 
381	 0,282550396065067 
382	 0,29168160424186 
383	 0,292044892942076 
384	 0,262641162608311 
385	 0,253607655664154 
386	 0,264740154713036 
387	 0,270430905340821 
388	 0,275068394324608 
389	 0,279203801336512 
390	 0,284443484853095 
391	 0,288997631747179 
392	 0,290676101268065 
393	 0,293085045071324 
394	 0,295298354184805 
395	 0,292028295749474 
396	 0,288415357280021 
397	 0,288177057929492 
398	 0,297880690065274 
399	 0,30746458219352 
400	 0,302145597628487 
401	 0,294321802470571 
402	 0,288116284159642 
403	 0,28240908359791 
404	 0,279476587094193 
405	 0,280999739037007 
406	 0,28376542839817 
407	 0,28761414560148 
408	 0,294699583061286 
409	 0,297911757611588 
410	 0,295872924684565 
411	 0,294449862221222 
412	 0,292878982923998 
413	 0,29022451594571 
414	 0,285902048133496 
415	 0,281585874195244 
416	 0,281712573755428 
417	 0,281345732498624 
418	 0,279670355197701 
419	 0,284172490460252 
420	 0,292422331097783 
421	 0,301161803352625 
422	 0,301385205700096 
423	 0,293680927571068 
424	 0,286245720226144 
425	 0,285339584137375 
426	 0,293224348774066 
427	 0,294624588872606 
428	 0,291958468687806 
429	 0,293565744993867 
430	 0,29472632615871 
431	 0,293960959909211 
432	 0,290011729295925 
433	 0,288386038018952 
434	 0,293269998318351 
435	 0,295069989197847 
436	 0,293117394494909 
437	 0,290239112263712 
438	 0,288293346363337 
439	 0,288331778299237 
440	 0,290714283525498 
441	 0,292010167237873 
442	 0,287985867523027 
443	 0,287883647589263 
444	 0,292046422188095 
445	 0,293684123158281 
446	 0,295457146081717 
447	 0,298417156016463 
448	 0,297605008574767 
449	 0,294387842325194 
450	 0,292277779900599 
451	 0,29201786231266 
452	 0,293615250246186 
453	 0,295404509200628 
454	 0,296350133241314 
455	 0,29578317520414 
456	 0,29796416511275 
457	 0,301128635592283 
458	 0,298210954386519 
459	 0,296957317770843 
460	 0,299712398911828 
461	 0,298490905581117 
462	 0,29586159342325 
463	 0,296136564549149 
464	 0,296439846647142 
465	 0,296295977093828 
466	 0,296224091460673 
467	 0,297507630238274 
468	 0,30066350081162 
469	 0,302647547112783 
470	 0,302639766364886 
471	 0,299847992541866 
472	 0,298284777945895 
473	 0,298989436490255 
474	 0,299365058174157 
475	 0,299076399252122 
476	 0,298029145586842 
477	 0,298400723402059 
478	 0,299939512749267 
479	 0,300806898439723 
480	 0,301464931027042 
481	 0,301828860557924 
482	 0,300164760409936 
483	 0,29850506896851 
484	 0,300025555423234 
485	 0,300254022310228 
486	 0,299014448714978 
487	 0,300395412307718 
488	 0,302321816976218 
489	 0,303080192291813 
490	 0,302278622540624 
491	 0,301043844108634 
492	 0,302321010831562 
493	 0,301950852309244 
494	 0,299346952007477 
495	 0,299721412856061 
496	 0,300627548456201 
497	 0,298945203269962 
498	 0,29843517729081 
499	 0,299582791529511 
500	 0,301334988078187 
501	 0,302449482808883 
502	 0,302363660287575 
503	 0,302981564623377 
504	 0,304192977417438 
505	 0,305447204050624 
506	 0,30569518527531 
507	 0,305181747723696 
508	 0,306612542144137 
509	 0,307830441665898 
510	 0,306917179472637 
511	 0,306659897676528 
512	 0,307244050354296 
513	 0,307604813968901 
514	 0,308445878361707 
515	 0,309834403013997 
516	 0,310422970307577 
517	 0,310510778177556 
518	 0,310708044089102 
519	 0,310875680378764 
520	 0,311017069754262 
521	 0,311229424450213 
522	 0,311209803430085 
523	 0,310792063829064 
524	 0,310560888877581 
525	 0,310780584681152 
526	 0,31209535245885 
527	 0,311899564774763 
528	 0,309933850225921 
529	 0,310307176586246 
530	 0,311118307356467 
531	 0,309890706249168 
532	 0,309506531603378 
533	 0,310048286965187 
534	 0,309638181248273 
535	 0,309395572176391 
536	 0,309865068471306 
537	 0,309802243838308 
538	 0,309494336488817 
539	 0,30973173109063 
540	 0,310423276076006 
541	 0,311209705997409 
542	 0,310545690503478 
543	 0,309982541727122 
544	 0,311010563227869 
545	 0,311090674652961 
546	 0,310508734790303 
547	 0,311628962076508 
548	 0,312411719982993 
549	 0,311997985562603 
550	 0,311808552400795 
551	 0,311901819036009 
552	 0,31212127811798 
553	 0,312136692967132 
554	 0,311887316740022 
555	 0,31160739395779 
556	 0,311369588113584 
557	 0,311194516891949 
558	 0,31054619761689 
559	 0,309706637934243 
560	 0,309646832626549 
561	 0,309340461070983 
562	 0,308579864425234 
563	 0,308747630521404 
564	 0,309181675560644 
565	 0,308871881513844 
566	 0,308203141962543 
567	 0,307589303216027 
568	 0,307980990806543 
569	 0,308909875170189 
570	 0,310045861983003 
571	 0,311629286374116 
572	 0,313305847874371 
573	 0,314308784404613 
574	 0,315429708455436 
575	 0,316860552250554 
576	 0,318099010721996 
577	 0,319193350168508 
578	 0,32023240157769 
579	 0,32122185525555 
580	 0,322313981798549 
581	 0,323955899993503 
582	 0,325466236867921 
583	 0,326539049524483 
584	 0,328108071381614 
585	 0,329926020891865 
586	 0,331397078452399 
587	 0,332429942200195 
588	 0,333202498145362 
589	 0,334722314480887 
590	 0,336114037220999 
591	 0,336563248509468 
592	 0,336993572037858 
593	 0,337601987794571 
594	 0,338512155562808 
595	 0,338743902734972 
596	 0,338025195570958 
597	 0,337938191936255 
598	 0,33825713649684 
599	 0,338379764056709 
600	 0,338356004584969 
601	 0,338254401675169 
602	 0,338479359248698 
603	 0,338311208638062 
604	 0,337236290218964 
605	 0,336220161403457 
606	 0,335387165289781 
607	 0,334520391540458 
608	 0,333990781435361 
609	 0,333797186987297 
610	 0,333130372321471 
611	 0,332227385418369 
612	 0,331467924029342 
613	 0,331104351804865 
614	 0,331000107545145 
615	 0,330468411724176 
616	 0,329858847216721 
617	 0,329397632778987 
618	 0,328946812884071 
619	 0,328635168361526 
620	 0,328803554606538 
621	 0,328466220728269 
622	 0,327619312359563 
623	 0,327924267277546 
624	 0,328627036557027 
625	 0,328862418474897 
626	 0,329081726028093 
627	 0,32935934104794 
628	 0,329726974719122 
629	 0,32987251273865 
630	 0,329716131245641 
631	 0,329947073132846 
632	 0,330361043599037 
633	 0,330449763213122 
634	 0,331170046158763 
635	 0,332574778647743 
636	 0,333756298328596 
637	 0,33455868094867 
638	 0,334926382080206 
639	 0,335599436630068 
640	 0,336508509169353 
641	 0,336994899924366 
642	 0,338003433239924 
643	 0,339649830692743 
644	 0,340245282718408 
645	 0,340476459114266 
646	 0,34144040734912 
647	 0,34143761110382 
648	 0,340407310069472 
649	 0,339719388445456 
650	 0,338747798407183 
651	 0,337159416526327 
652	 0,335740915982769 
653	 0,334728066894585 
654	 0,334461254179192 
655	 0,333360092892631 
656	 0,331132589392679 
657	 0,329355764662559 
658	 0,3277907766313 
659	 0,326085205488981 
660	 0,324088143325562 
661	 0,321947340334836 
662	 0,320168938830319 
663	 0,318555938162467 
664	 0,31707607663968 
665	 0,316229278078646 
666	 0,315420166945704 
667	 0,313628933742411 
668	 0,312470091074053 
669	 0,3122096160116 
670	 0,311922640133549 
671	 0,311626266800467 
672	 0,311355263170696 
673	 0,31121720819285 
674	 0,31119580927835 
675	 0,311294350193906 
676	 0,310941827269623 
677	 0,310184590903313 
678	 0,310609911967812 
679	 0,311241646051186 
680	 0,310792437779627 
681	 0,311102214240397 
682	 0,31217979253087 
683	 0,312488511750199 
684	 0,313408717417003 
685	 0,315562153752609 
686	 0,316866105562286 
687	 0,318075584190702 
688	 0,320986811244179 
689	 0,324359818936769 
690	 0,327947668416998 
691	 0,332113656007352 
692	 0,337318996522764 
693	 0,343926495244676 
694	 0,350960167670277 
695	 0,358377850208827 
696	 0,366641405590534 
697	 0,375355526455325 
698	 0,384411179612483 
699	 0,394171665254553 
700	 0,404607469145301 
701	 0,415620838820781 
702	 0,426342342007767 
703	 0,436599882853537 
704	 0,446847304017562 
705	 0,456945697629401 
706	 0,466730896699623 
707	 0,475904751448471 
708	 0,484568259240314 
709	 0,492949842101223 
710	 0,500886243401662 
711	 0,50832257169249 
712	 0,515204369664509 
713	 0,52153472220586 
714	 0,527336629214963 
715	 0,53299062607824 
716	 0,538375128155532 
717	 0,542883164181677 
718	 0,547263799929485 
719	 0,551774859163933 
720	 0,555800196088828 
721	 0,559388037652686 
722	 0,562689304333602 
723	 0,565441858357625 
724	 0,567821716035518 
725	 0,5705854456309 
726	 0,572970610804321 
727	 0,574558132008278 
728	 0,575977066464988 
729	 0,577443293652276 
730	 0,579167642726589 
731	 0,580745158965692 
732	 0,582054357682384 
733	 0,583265934923598 
734	 0,584106607507104 
735	 0,584407652152489 
736	 0,585122231151508 
737	 0,586251016316465 
738	 0,587430825314558 
739	 0,588014391861414 
740	 0,587935317169675 
741	 0,588541672606054 
742	 0,589278670823889 
743	 0,58938561951953 
744	 0,589436448608409 
745	 0,589626547888585 
746	 0,590091420594897 
747	 0,59076567119201 
748	 0,591492639507018 
749	 0,591510440738729 
750	 0,591298896363594 
751	 0,591736806227606 
752	 0,591918808184997 
753	 0,591818687135311 
754	 0,59229944049519 
755	 0,59278683939579 
756	 0,592862531015712 
757	 0,592829319837606 
758	 0,59280068529983 
759	 0,59290446423674 
760	 0,592999606412754 
761	 0,593068048539859 
762	 0,59326125614731 
763	 0,593452687562458 
764	 0,593495753226107 
765	 0,593033734038367 
766	 0,592410837374597 
767	 0,592653591477421 
768	 0,592994321141367 
769	 0,59316983491265 
770	 0,593599876908806 
771	 0,593861914099941 
772	 0,593452124932149 
773	 0,593185822306614 
774	 0,593216016195462 
775	 0,593406643878863 
776	 0,593410093202925 
777	 0,593083131281758 
778	 0,592902332742265 
779	 0,592791671331269 
780	 0,592554877212123 
781	 0,592344130657615 
782	 0,5923061012933 
783	 0,59286215157804 
784	 0,593152387845843 
785	 0,592685455820788 
786	 0,592498784921801 
787	 0,592518944137564 
788	 0,592336149503334 
789	 0,592160455537798 
790	 0,592152221308222 
791	 0,592820839654643 
792	 0,593029132467918 
793	 0,591979203235683 
794	 0,591335755410513 
795	 0,591297895679603 
796	 0,591671916510191 
797	 0,591847777524052 
798	 0,591662113030494 
799	 0,591655688649187 
800	 0,591538401573844 
801	 0,591058250635337 
802	 0,590907511885235 
803	 0,591023828796009 
804	 0,590882905869162 
805	 0,590819821579255 
806	 0,590967445052513 
807	 0,591449133598625 
808	 0,591666458006781 
809	 0,591043186488557 
810	 0,591110264188236 
811	 0,591713608849799 
812	 0,591421015810489 
813	 0,591459686785985 
814	 0,59214143344586 
815	 0,592067480797613 
816	 0,591880191199819 
817	 0,592451290132135 
818	 0,592580191138303 
819	 0,592265296294699 
820	 0,592331284199149 
821	 0,592389557596019 
822	 0,592282693586 
823	 0,592151916518454 
824	 0,592129132627056 
825	 0,592358577231733 
826	 0,592831001637049 
827	 0,593282883511168 
828	 0,59296231527611 
829	 0,592555414439169 
830	 0,592414918479388 
831	 0,59222254011517 
832	 0,592061942017848 
833	 0,592078107394097 
834	 0,592607804627936 
835	 0,593302853824676 
836	 0,592796699214334 
837	 0,592277280952004 
838	 0,592363342168346 
839	 0,592478416676131 
840	 0,592410175948391 
841	 0,591960950726622 
842	 0,591310655573011 
843	 0,590809020281897 
844	 0,591392968683971 
845	 0,591880488969144 
846	 0,591677385001787 
847	 0,591687376239722 
848	 0,591870487156109 
849	 0,592031965430639 
850	 0,591878260479624 
851	 0,591603427052054 
852	 0,592158062027123 
853	 0,592439274128725 
854	 0,591962838895116 
855	 0,59192004860342 
856	 0,591937557174242 
857	 0,591337008585287 
858	 0,591255716475009 
859	 0,591723157287666 
860	 0,591945273361048 
861	 0,591911566177865 
862	 0,591651790998333 
863	 0,591557227967432 
864	 0,591470073927497 
865	 0,591135868650293 
866	 0,591157198786034 
867	 0,591557904328254 
868	 0,592062655578946 
869	 0,591971491125619 
870	 0,59120339455585 
871	 0,591579072078587 
872	 0,592214084387231 
873	 0,591886085553534 
874	 0,592325261391549 
875	 0,593181789748065 
876	 0,592361314823671 
877	 0,591641518018995 
878	 0,591722084856882 
879	 0,591887019750834 
880	 0,592015354620965 
881	 0,592019959143073 
882	 0,591763357258198 
883	 0,591321264737722 
884	 0,590753687467767 
885	 0,591337747647638 
886	 0,593044751820528 
887	 0,593211442175818 
888	 0,592570374707472 
889	 0,592013527114618 
890	 0,591724639026449 
891	 0,591894517134758 
892	 0,592852319382874 
893	 0,593134794347796 
894	 0,592516128152671 
895	 0,592472991988584 
896	 0,592536926467856 
897	 0,592339464943458 
898	 0,592298403474601 
899	 0,592465283702601 
900	 0,592802659634134 
901	 0,593491618665413 
902	 0,594239937646542 
903	 0,593923513942038 
904	 0,593413107435763 
905	 0,593198808953432 
906	 0,592398649416333 
907	 0,591627804429118 
908	 0,591860147343746 
909	 0,592143213779377 
910	 0,592387833806579 
911	 0,593299076961852 
912	 0,593217064943352 
913	 0,591748204584885 
914	 0,591616809098029 
915	 0,592042553239624 
916	 0,591922558691404 
917	 0,592318421831098 
918	 0,59296027834313 
919	 0,592741604457473 
920	 0,592321015393385 
921	 0,59189469157208 
922	 0,591194716943257 
923	 0,590843210469086 
924	 0,591252482453677 
925	 0,591216876787035 
926	 0,590601385955477 
927	 0,58948328386207 
928	 0,589640384882016 
929	 0,590800122594072 
930	 0,589884411467026 
931	 0,588980730815414 
932	 0,589203675642737 
933	 0,589181237081147 
934	 0,588831459193915 
935	 0,588245128611785 
936	 0,587455949136115 
937	 0,586698647916016 
938	 0,586546265846827 
939	 0,586385647559097 
940	 0,585997090222722 
941	 0,585604306738928 
942	 0,585276188693102 
943	 0,585011579078863 
944	 0,584207982591038 
945	 0,58324856149372 
946	 0,583035785023128 
947	 0,582231506321811 
948	 0,580770729241266 
949	 0,579839340539177 
950	 0,579184538259917 
951	 0,578645619126177 
952	 0,578168760368838 
953	 0,577605378752903 
954	 0,576811344987343 
955	 0,576391106843699 
956	 0,575884843487523 
957	 0,573667891978113 
958	 0,572284701262015 
959	 0,572294628814216 
960	 0,571786427944942 
961	 0,571031458184645 
962	 0,570385195296352 
963	 0,570719865244584 
964	 0,571038401194915 
965	 0,569683751363141 
966	 0,569567853985142 
967	 0,570501045160038 
968	 0,569450455477243 
969	 0,56895096575823 
970	 0,569832317112192 
971	 0,570572089927903 
972	 0,570125718335079 
973	 0,568040278110155 
974	 0,569123314640238 
975	 0,571102998999895 
976	 0,568436910704483 
977	 0,568023937357337 
978	 0,570393263861426 
979	 0,570605114399402 
980	 0,57020694330652 
981	 0,56988981166972 
982	 0,569200913545896 
983	 0,568751911775952 
984	 0,569177487931108 
985	 0,570546438041948 
986	 0,571420270281607 
987	 0,568931956120391 
988	 0,569508578016443 
989	 0,57324839377742 
990	 0,573322154896783 
991	 0,573029320224314 
992	 0,573740741548148 
993	 0,572763699790535 
994	 0,571668500008526 
995	 0,572305326544303 
996	 0,574780840402318 
997	 0,577610130848214 
998	 0,578003996290892 
999	 0,577737814905527 
1000	 0,577374894808621 
1001	 0,576743631561307 
1002	 0,577501507245586 
1003	 0,58006239946365 
1004	 0,581796391362254 
1005	 0,581574621554939 
1006	 0,578957026547364 
1007	 0,57816882669903 
1008	 0,579231114644212 
1009	 0,580712959327898 
1010	 0,581559863676816 
1011	 0,582088580276671 
1012	 0,584941299267244 
1013	 0,58613991885441 
1014	 0,584457110896662 
1015	 0,583074232283018 
1016	 0,584400760426673 
1017	 0,589370346602393 
1018	 0,589563532381289 
1019	 0,586705614805029 
1020	 0,585451479049874 
1021	 0,585853332621435 
1022	 0,588355775335454 
1023	 0,594064077847601 
1024	 0,597620409127163 
1025	 0,597002013008466 
1026	 0,593505816349569 
1027	 0,591492881594358 
1028	 0,593455016160166 
1029	 0,59435775001658 
1030	 0,59420011183049 
1031	 0,59383818568821 
1032	 0,596507809258203 
1033	 0,600637168709209 
1034	 0,601819496944629 
1035	 0,601203845207602 
1036	 0,599874218793685 
1037	 0,600479707338565 
1038	 0,601429424826165 
1039	 0,601830592030457 
1040	 0,600450918462536 
1041	 0,60196209510956 
1042	 0,608366328834995 
1043	 0,603595776114764 
1044	 0,593133176018829 
1045	 0,588145714274965 
1046	 0,591072889984801 
1047	 0,599769441630644 
1048	 0,607889742662382 
1049	 0,609584609399703 
1050	 0,604668527222875 
1051	 0,600285109553985 
1052	 0,599760243052185 
1053	 0,603559715363902 
1054	 0,601968021911249 
1055	 0,600534380600756 
1056	 0,603528565734981 
1057	 0,599445854579833 
1058	 0,597023010838636 
1059	 0,609495633335334 
1060	 0,609265761952128 
1061	 0,599617182575687 
1062	 0,60172344485424 
1063	 0,605147333963364 
1064	 0,606668384641307 
1065	 0,606008097607638 
1066	 0,5968337015003 
1067	 0,583703551970087 
1068	 0,601707846028349 
1069	 0,612337937842694 
1070	 0,59157863394185 
1071	 0,597598538793446 
1072	 0,610849028403847 
1073	 0,600273538885322 
1074	 0,588048380455189 
1075	 0,583137654436629 
