Wavelength	GRA-BER00585.asd
325	 0,247493781052375 
326	 4,46945624090518E-02 
327	-4,20229794996419E-02 
328	 7,44784125768998E-02 
329	 2,22949361820991E-02 
330	-5,96288574822429E-02 
331	-0,018142110175712 
332	-2,13782416246436E-02 
333	-3,10078525200206E-02 
334	 9,57796415611346E-02 
335	 0,111700629266505 
336	 3,83980015310851E-03 
337	-3,19321105896942E-02 
338	-0,035822438299687 
339	-5,12566302442691E-02 
340	-4,69627171475676E-02 
341	-2,63272369340192E-02 
342	 0,005528241813692 
343	 8,6659970235978E-03 
344	-1,48895240189073E-02 
345	 0,026730315360053 
346	 5,52996091229934E-02 
347	-2,97291584545865E-03 
348	-1,06719081233128E-02 
349	 2,30327516821226E-02 
350	 2,95849490162286E-02 
351	 4,89489598148885E-02 
352	 8,07492599602077E-02 
353	 7,72865365062179E-02 
354	 4,97018470286024E-02 
355	 9,66785127775481E-03 
356	-1,51961952758765E-02 
357	-8,21304338927703E-03 
358	 5,23975522697905E-02 
359	 7,09710771381487E-02 
360	 3,03407189792636E-02 
361	 4,60070190115867E-02 
362	 7,02600768969354E-02 
363	 1,50310407398197E-02 
364	 8,53084783849537E-03 
365	 4,99659659432539E-02 
366	 2,52099607004598E-02 
367	 8,78750843776516E-03 
368	 4,15624827263298E-02 
369	 4,07134711457233E-02 
370	 2,15914409211073E-02 
371	 0,02138052321998 
372	 3,69532193335619E-02 
373	 5,96567022293126E-02 
374	 5,83558804738556E-02 
375	 4,16241927581214E-02 
376	 1,80149847077275E-02 
377	 1,42373270022633E-03 
378	-3,67998615806132E-03 
379	 4,22771218962897E-03 
380	 6,33533179708786E-03 
381	 1,62491765619985E-03 
382	 1,72460831010112E-02 
383	 3,34274664987859E-02 
384	 3,21612314091438E-02 
385	 3,34562475860704E-02 
386	 3,59476012062305E-02 
387	 2,63420109220016E-02 
388	 1,88376027023102E-02 
389	 1,87264398294268E-02 
390	 1,27051451673357E-02 
391	 1,06190020671607E-02 
392	 2,52872283254855E-02 
393	 3,55959224384346E-02 
394	 3,77416362572939E-02 
395	 3,53661288955184E-02 
396	 3,32179947910799E-02 
397	 3,24758297924749E-02 
398	 0,01985853086051 
399	 9,93195824698381E-03 
400	 2,56235601369653E-02 
401	 3,03499970285796E-02 
402	 2,08177443404437E-02 
403	 2,10193021160083E-02 
404	 2,35519289143252E-02 
405	 2,31877071928287E-02 
406	 2,40000015046905E-02 
407	 0,024188564955198 
408	 1,87680001255595E-02 
409	 1,58001112515939E-02 
410	 1,87689182507847E-02 
411	 0,032371369162417 
412	 3,79380756372488E-02 
413	 1,95838869216206E-02 
414	 9,47314876794146E-03 
415	 1,07784879122758E-02 
416	 1,33499788134393E-02 
417	 1,81016482878069E-02 
418	 2,35344760726541E-02 
419	 2,28124600553776E-02 
420	 0,019831455605268 
421	 0,020258686319173 
422	 1,96892919112008E-02 
423	 1,90511989675593E-02 
424	 0,025312857118453 
425	 2,73504175477581E-02 
426	 1,99496537301216E-02 
427	 1,78735052797052E-02 
428	 2,08197172401979E-02 
429	 2,51582529290145E-02 
430	 2,49717797947888E-02 
431	 1,98418592467152E-02 
432	 1,68655258909691E-02 
433	 1,71573376001513E-02 
434	 2,09331115603261E-02 
435	 2,11410980680902E-02 
436	 1,88145343941053E-02 
437	 2,03268432303039E-02 
438	 2,15029346345847E-02 
439	 2,08689933748313E-02 
440	 1,95764983015551E-02 
441	 1,91747164805079E-02 
442	 2,13839180714903E-02 
443	 2,34315075092464E-02 
444	 2,36895178700708E-02 
445	 1,87070256156721E-02 
446	 1,70396110776606E-02 
447	 2,29066868977228E-02 
448	 2,26068944120799E-02 
449	 2,02844924272246E-02 
450	 2,78298816590954E-02 
451	 2,87467051049953E-02 
452	 2,09307757462007E-02 
453	 1,92693259202569E-02 
454	 0,020889763084588 
455	 0,022385774517239 
456	 2,25687173847055E-02 
457	 2,23889791028818E-02 
458	 2,54838603091834E-02 
459	 2,80471301217002E-02 
460	 2,84349392109276E-02 
461	 2,83125955214562E-02 
462	 2,56805508364479E-02 
463	 1,76354645426849E-02 
464	 1,55209759181086E-02 
465	 1,99195265545626E-02 
466	 2,19546453554528E-02 
467	 2,21830715718175E-02 
468	 2,11118465415817E-02 
469	 2,04845310395239E-02 
470	 2,08438978574043E-02 
471	 2,29001533645021E-02 
472	 2,26181608021348E-02 
473	 2,00087921057093E-02 
474	 2,24486191729508E-02 
475	 2,41850412262963E-02 
476	 1,96110331571519E-02 
477	 0,018971881628852 
478	 2,18604177512967E-02 
479	 2,11124424132044E-02 
480	 2,04660606643205E-02 
481	 2,14437400812086E-02 
482	 2,22173515206006E-02 
483	 0,023241033556628 
484	 2,56119799091116E-02 
485	 2,42053306396235E-02 
486	 1,99846899101558E-02 
487	 2,19022519404261E-02 
488	 2,50665891505263E-02 
489	 2,55043443695721E-02 
490	 2,29681016580933E-02 
491	 1,96800125279696E-02 
492	 2,10183810804913E-02 
493	 2,16181021287803E-02 
494	 1,99576333841218E-02 
495	 1,83212004515057E-02 
496	 1,79399014003701E-02 
497	 1,99112328988916E-02 
498	 2,16904143559575E-02 
499	 2,22841164762509E-02 
500	 0,020743752413334 
501	 1,91468354423138E-02 
502	 1,88677826275235E-02 
503	 2,02980376455889E-02 
504	 2,21018412111564E-02 
505	 2,19980916886419E-02 
506	 2,12919017997867E-02 
507	 2,06078985457302E-02 
508	 2,08212487045958E-02 
509	 2,13101563353297E-02 
510	 2,14762064596506E-02 
511	 2,16260611134336E-02 
512	 2,16109904498571E-02 
513	 2,08094989761299E-02 
514	 2,05518191496587E-02 
515	 2,12521298756212E-02 
516	 2,13909891881099E-02 
517	 2,13088574047077E-02 
518	 2,16965252998548E-02 
519	 2,19550910090398E-02 
520	 2,19956494056455E-02 
521	 2,21448894643946E-02 
522	 2,19538445019987E-02 
523	 2,12319646648658E-02 
524	 0,021587321561414 
525	 2,25248428465517E-02 
526	 2,24424067039613E-02 
527	 2,19717733357437E-02 
528	 2,13546688270483E-02 
529	 2,06517622079094E-02 
530	 2,05247197758708E-02 
531	 2,16649454198633E-02 
532	 2,17822893862915E-02 
533	 2,10664973729241E-02 
534	 2,20548496341925E-02 
535	 2,24141334287404E-02 
536	 2,10359789587509E-02 
537	 2,08092126894839E-02 
538	 2,14440507024737E-02 
539	 2,17445058909895E-02 
540	 0,021377786929112 
541	 2,06519439999415E-02 
542	 2,16019189074656E-02 
543	 0,02303804450581 
544	 2,36792812610465E-02 
545	 2,32839252336449E-02 
546	 0,022413246392799 
547	 0,022840190693957 
548	 2,29265432075962E-02 
549	 2,21525248290139E-02 
550	 2,28579469987152E-02 
551	 2,37642988760997E-02 
552	 2,24516818963913E-02 
553	 2,22958239118866E-02 
554	 0,023677071607348 
555	 0,024020553334317 
556	 2,41449234873899E-02 
557	 2,46754657290044E-02 
558	 2,39131563907294E-02 
559	 2,25749124967631E-02 
560	 2,30838433645449E-02 
561	 2,40081585907895E-02 
562	 2,47923395366759E-02 
563	 2,57750829806504E-02 
564	 2,64360947347857E-02 
565	 2,60972661891972E-02 
566	 2,58903227036471E-02 
567	 2,61133450996913E-02 
568	 2,65327160650967E-02 
569	 2,72841304620381E-02 
570	 2,84276615979446E-02 
571	 0,029780635751315 
572	 3,08063194206441E-02 
573	 3,03896444118478E-02 
574	 3,03964014451453E-02 
575	 3,13498223055074E-02 
576	 3,19783622781434E-02 
577	 3,26164083997493E-02 
578	 3,37097500168259E-02 
579	 0,034203123945207 
580	 3,39423157173575E-02 
581	 3,31894691796619E-02 
582	 3,27135821466967E-02 
583	 3,28975829585781E-02 
584	 0,032748057591572 
585	 3,23544811289398E-02 
586	 3,20767680108124E-02 
587	 3,22377420970278E-02 
588	 3,26607736204399E-02 
589	 3,21480646834083E-02 
590	 3,12360249687789E-02 
591	 3,05226236864691E-02 
592	 3,06764431290685E-02 
593	 3,11570627332788E-02 
594	 3,00110891071141E-02 
595	 2,93255128729336E-02 
596	 2,99032039236233E-02 
597	 3,01039903238365E-02 
598	 2,97645520529424E-02 
599	 2,88870161411274E-02 
600	 2,87426136740736E-02 
601	 2,93633019511346E-02 
602	 2,93723389485125E-02 
603	 2,88835541049957E-02 
604	 2,80867915287662E-02 
605	 2,78927867889982E-02 
606	 2,80418980338452E-02 
607	 2,74749890129293E-02 
608	 2,68875079676072E-02 
609	 2,65272206377038E-02 
610	 2,61789070971126E-02 
611	 2,61534965471557E-02 
612	 2,68332498916275E-02 
613	 0,026884557569723 
614	 2,64045245658785E-02 
615	 2,70037039471082E-02 
616	 2,72839269082233E-02 
617	 2,64798261989302E-02 
618	 2,62071799084506E-02 
619	 2,64869524800496E-02 
620	 2,68595280626347E-02 
621	 0,027496408486651 
622	 2,81388153382319E-02 
623	 2,74003996664039E-02 
624	 2,68550870404273E-02 
625	 2,81103846187638E-02 
626	 2,85928335984864E-02 
627	 2,84278091898825E-02 
628	 0,029752233361227 
629	 3,07287721288285E-02 
630	 3,05389668116184E-02 
631	 3,06088839675636E-02 
632	 3,09375667983921E-02 
633	 3,12160837046461E-02 
634	 3,18161715593554E-02 
635	 3,27074958620192E-02 
636	 0,033405364564958 
637	 0,033871727983541 
638	 3,41466535283978E-02 
639	 3,51223013127976E-02 
640	 3,64656880067632E-02 
641	 3,69599285317822E-02 
642	 3,72084033825759E-02 
643	 3,74544655917334E-02 
644	 3,77107007606821E-02 
645	 3,79880883225083E-02 
646	 3,82868819651897E-02 
647	 3,86012548135587E-02 
648	 3,89218164833891E-02 
649	 3,92138331664514E-02 
650	 3,96142722357396E-02 
651	 4,01038728363754E-02 
652	 3,96088323114727E-02 
653	 3,87555589818539E-02 
654	 3,91427385270838E-02 
655	 3,93827305883277E-02 
656	 3,91901446276256E-02 
657	 0,039569940914293 
658	 3,99299926685043E-02 
659	 3,96026145795671E-02 
660	 3,85219021572674E-02 
661	 0,037173785067187 
662	 3,69161333608949E-02 
663	 0,036806520744699 
664	 3,63417530249728E-02 
665	 3,55544392003556E-02 
666	 3,47850125066192E-02 
667	 3,45570389793224E-02 
668	 3,43266609425039E-02 
669	 3,39084299929597E-02 
670	 3,32342704464764E-02 
671	 3,26290638961886E-02 
672	 3,23393150928972E-02 
673	 3,20029030518784E-02 
674	 0,031675483512849 
675	 3,16560291264584E-02 
676	 3,16158553833426E-02 
677	 3,14876957360599E-02 
678	 0,031717468074481 
679	 3,17678937085525E-02 
680	 3,09882484625108E-02 
681	 3,07937287485568E-02 
682	 3,12307039202161E-02 
683	 3,12168238552933E-02 
684	 3,15118314579842E-02 
685	 3,24269207741461E-02 
686	 0,032645389940993 
687	 3,27044741393445E-02 
688	 0,033840993843873 
689	 3,52662185306455E-02 
690	 3,67274841017047E-02 
691	 3,81966205411541E-02 
692	 3,98503120034246E-02 
693	 4,18614969270347E-02 
694	 4,42317685228406E-02 
695	 4,70507418448686E-02 
696	 0,050500999408642 
697	 5,44584042114741E-02 
698	 5,89182158410217E-02 
699	 6,42820685121828E-02 
700	 6,96912530504059E-02 
701	 7,40358433628643E-02 
702	 7,96683167421381E-02 
703	 8,65815368161135E-02 
704	 9,27378500807628E-02 
705	 9,88060491675057E-02 
706	 0,105146424609455 
707	 0,111151041105212 
708	 0,11696004087817 
709	 0,122985374802148 
710	 0,129139568126141 
711	 0,135129782133826 
712	 0,139839479792087 
713	 0,144317983676917 
714	 0,149505955657995 
715	 0,153959411085347 
716	 0,157734501142567 
717	 0,161645099664644 
718	 0,165568664986315 
719	 0,169390057171523 
720	 0,172597255257721 
721	 0,175576338823483 
722	 0,178875003029944 
723	 0,181555195939204 
724	 0,183732702170598 
725	 0,186558065777551 
726	 0,189160642357831 
727	 0,191036708938602 
728	 0,192698587571452 
729	 0,194344240308713 
730	 0,196207427989603 
731	 0,197739275251721 
732	 0,198926887774857 
733	 0,200493754350525 
734	 0,202048970196348 
735	 0,203222373450203 
736	 0,204019807945914 
737	 0,204683096126925 
738	 0,20579056464041 
739	 0,206910911455032 
740	 0,207848534323637 
741	 0,208470061738134 
742	 0,209090205604778 
743	 0,210069903265759 
744	 0,210609397990594 
745	 0,210704778640576 
746	 0,210875489116857 
747	 0,211264632250394 
748	 0,211932204269818 
749	 0,212554519389235 
750	 0,213154683931846 
751	 0,213855291118349 
752	 0,21414134463728 
753	 0,21411730639854 
754	 0,214766627946453 
755	 0,215280993110996 
756	 0,21514623243531 
757	 0,215436657879551 
758	 0,216066592938212 
759	 0,216515869243795 
760	 0,217020172249305 
761	 0,217534923436619 
762	 0,217620629711781 
763	 0,21753279695772 
764	 0,217544992132691 
765	 0,217729314788147 
766	 0,218011864132697 
767	 0,218114803570755 
768	 0,218393136026588 
769	 0,218889530106408 
770	 0,218989034933655 
771	 0,219053325787188 
772	 0,219553179635571 
773	 0,21986659349547 
774	 0,2199286392493 
775	 0,219952795862264 
776	 0,220186731610316 
777	 0,220721179564945 
778	 0,22115532792153 
779	 0,221419789032092 
780	 0,221495506862286 
781	 0,221521855406231 
782	 0,221590879523636 
783	 0,221793727093636 
784	 0,222229992066613 
785	 0,222855745296507 
786	 0,222751000174192 
787	 0,222369250300106 
788	 0,222749044815109 
789	 0,223056822609984 
790	 0,223159731642747 
791	 0,223557642611465 
792	 0,224029373381687 
793	 0,224360015396895 
794	 0,224313047373634 
795	 0,224157811066325 
796	 0,224541148652448 
797	 0,224986542679051 
798	 0,225342645935974 
799	 0,225677350753722 
800	 0,226097514433517 
801	 0,22665804003753 
802	 0,226681743041481 
803	 0,226384998184162 
804	 0,226667207620635 
805	 0,226797648210994 
806	 0,226625680424162 
807	 0,226775544794567 
808	 0,227107663599377 
809	 0,227430494566664 
810	 0,22794442281131 
811	 0,228453687123503 
812	 0,228305244119711 
813	 0,228335758852423 
814	 0,228787457818351 
815	 0,228725675221866 
816	 0,228671320928778 
817	 0,229306266002473 
818	 0,229767760761163 
819	 0,229874376192361 
820	 0,229644696975595 
821	 0,229763092604015 
822	 0,230466901642992 
823	 0,230890872495693 
824	 0,231057342569223 
825	 0,231119078477618 
826	 0,231201137887001 
827	 0,231380041798765 
828	 0,231720928322727 
829	 0,232200806078998 
830	 0,232697387649907 
831	 0,232530885885805 
832	 0,232267247820617 
833	 0,232758598903886 
834	 0,233401190777104 
835	 0,233897429908164 
836	 0,233780711637014 
837	 0,233791937384454 
838	 0,234228681144221 
839	 0,23402272403453 
840	 0,233759361000747 
841	 0,23440120923965 
842	 0,2349604721788 
843	 0,235271034731566 
844	 0,235726794990949 
845	 0,23593611911015 
846	 0,235719271912568 
847	 0,235352538759935 
848	 0,23526997073131 
849	 0,236002441590187 
850	 0,2360789727106 
851	 0,235631219927536 
852	 0,236412446003787 
853	 0,237231442418871 
854	 0,237417621372863 
855	 0,237129547259649 
856	 0,236922829708473 
857	 0,237510427547374 
858	 0,237967243079774 
859	 0,238143132579344 
860	 0,238412044623915 
861	 0,23839799927824 
862	 0,238047955202129 
863	 0,23839092600795 
864	 0,238673962328488 
865	 0,237826574511871 
866	 0,238187812663968 
867	 0,239576866813558 
868	 0,239800303487498 
869	 0,23946063823116 
870	 0,238980905515238 
871	 0,23919426991768 
872	 0,239861596852057 
873	 0,240553621737243 
874	 0,240450684479036 
875	 0,239738322631084 
876	 0,239375378590391 
877	 0,239864006752178 
878	 0,241164666764761 
879	 0,241626597837044 
880	 0,241514666476702 
881	 0,241290334665863 
882	 0,241107155817923 
883	 0,241125049920653 
884	 0,241664596316724 
885	 0,241792937535061 
886	 0,241383804318461 
887	 0,241736403964706 
888	 0,242286475010441 
889	 0,242453360496724 
890	 0,242822596178084 
891	 0,242989469261187 
892	 0,241749402702783 
893	 0,241536926733759 
894	 0,242772401231673 
895	 0,243485844692475 
896	 0,243503748901535 
897	 0,242846598720842 
898	 0,242530691524623 
899	 0,242767479915605 
900	 0,24362860035665 
901	 0,24371100704573 
902	 0,242963667727145 
903	 0,242887555583934 
904	 0,242998173698742 
905	 0,243080883327352 
906	 0,244019600244861 
907	 0,244677766927858 
908	 0,243369299587258 
909	 0,243182585523942 
910	 0,244121254716966 
911	 0,243579890569568 
912	 0,243261827908914 
913	 0,243878341984487 
914	 0,244669265672761 
915	 0,245141601076364 
916	 0,244864191389797 
917	 0,244520213486455 
918	 0,244442965844083 
919	 0,245153352314838 
920	 0,245196261306649 
921	 0,244367908295929 
922	 0,244473904109781 
923	 0,244398241596321 
924	 0,243379164543694 
925	 0,244060322751166 
926	 0,245554677991605 
927	 0,245573900110436 
928	 0,244949268381227 
929	 0,244080505631684 
930	 0,243491221762272 
931	 0,243633437566183 
932	 0,244441324713112 
933	 0,243529663456302 
934	 0,242296050472982 
935	 0,242807276327046 
936	 0,243242741645777 
937	 0,243185724831221 
938	 0,242737085883215 
939	 0,241648117337696 
940	 0,240410752958885 
941	 0,241950974064948 
942	 0,242945421321761 
943	 0,24061397744813 
944	 0,239100390070144 
945	 0,239067776131108 
946	 0,240438415325654 
947	 0,240354516875185 
948	 0,238681916831628 
949	 0,238445946294353 
950	 0,238490323385435 
951	 0,237975526131277 
952	 0,235899497449232 
953	 0,234045863072742 
954	 0,234541651145356 
955	 0,234083114767275 
956	 0,233168924046391 
957	 0,235172167077171 
958	 0,235526899619978 
959	 0,233279921136585 
960	 0,231754892651874 
961	 0,231619869289079 
962	 0,232955996323432 
963	 0,232622026694488 
964	 0,231833397128468 
965	 0,233131416217258 
966	 0,232849728710932 
967	 0,231015744971224 
968	 0,230529802562038 
969	 0,230319177730757 
970	 0,230013583279338 
971	 0,229881000479576 
972	 0,22989210153052 
973	 0,230019350877302 
974	 0,230348415127235 
975	 0,230902494124323 
976	 0,231702296490524 
977	 0,232597278607206 
978	 0,233154577112905 
979	 0,232175917495286 
980	 0,231338772929607 
981	 0,23147897981198 
982	 0,232132036074522 
983	 0,232046329772826 
984	 0,230258179223159 
985	 0,229992510610954 
986	 0,231631100932652 
987	 0,234811815837955 
988	 0,235148570320245 
989	 0,232487760184406 
990	 0,231364308841952 
991	 0,231310944074391 
992	 0,232073804834934 
993	 0,233158653051921 
994	 0,23426352172251 
995	 0,235043861668915 
996	 0,233850612259661 
997	 0,232326850869107 
998	 0,234199656902275 
999	 0,234636749871692 
1000	 0,233938464778106 
1001	 0,238763212834676 
1002	 0,240538101953917 
1003	 0,236480665694972 
1004	 0,237217017817417 
1005	 0,239716388071844 
1006	 0,240342126670251 
1007	 0,241818008576923 
1008	 0,242561052642457 
1009	 0,239208633093525 
1010	 0,237465077368349 
1011	 0,238097811497922 
1012	 0,237867995108548 
1013	 0,23895468743978 
1014	 0,24124870300403 
1015	 0,239260171370983 
1016	 0,238003493685588 
1017	 0,241558393913648 
1018	 0,245272813232164 
1019	 0,246815871071655 
1020	 0,24390854040163 
1021	 0,241395347963902 
1022	 0,240565550735531 
1023	 0,240864511011555 
1024	 0,243103844792256 
1025	 0,246199626236474 
1026	 0,244844859216225 
1027	 0,242267786151162 
1028	 0,241264008809777 
1029	 0,24432228281106 
1030	 0,247181789192864 
1031	 0,244974624099807 
1032	 0,246005812401147 
1033	 0,249077227364372 
1034	 0,248449452430381 
1035	 0,249680576792515 
1036	 0,251965906902461 
1037	 0,24713105379839 
1038	 0,243534440014564 
1039	 0,24490969998773 
1040	 0,24811335180887 
1041	 0,251081251533077 
1042	 0,252173142501085 
1043	 0,252596524839587 
1044	 0,252702237803677 
1045	 0,252778558680495 
1046	 0,253541329151501 
1047	 0,255241121523423 
1048	 0,258640836839428 
1049	 0,253095759121978 
1050	 0,24103155651845 
1051	 0,245674015186229 
1052	 0,248028195401033 
1053	 0,241460467896699 
1054	 0,24647788147225 
1055	 0,253893416413712 
1056	 0,254388497060692 
1057	 0,250277511935575 
1058	 0,244386494516759 
1059	 0,240682781885822 
1060	 0,248341841085903 
1061	 0,259174208274769 
1062	 0,25052985364266 
1063	 0,246464643272051 
1064	 0,249887963933935 
1065	 0,243921333817627 
1066	 0,244713410188443 
1067	 0,255445786172819 
1068	 0,253248389424601 
1069	 0,249856614393747 
1070	 0,254848173931206 
1071	 0,264020276125994 
1072	 0,26626638870749 
1073	 0,250118055111632 
1074	 0,229940930970572 
1075	 0,219050959014949 
