Wavelength	GRA-VIE00814.asd
325	 0,179816427061061 
326	 0,10543746362553 
327	 0,154272167085789 
328	 0,297300477828418 
329	 0,25469511365526 
330	 0,180519004630401 
331	 0,219454256391857 
332	 0,229007281293725 
333	 0,197350137175957 
334	 0,117974197032182 
335	 0,122093874754919 
336	 0,201112934431965 
337	 0,234412524028125 
338	 0,228287431271585 
339	 0,186443666846897 
340	 0,125402645190303 
341	 6,24513041080118E-02 
342	 5,47734594273231E-02 
343	 8,71826616314974E-02 
344	 0,132868611897276 
345	 0,14392787753272 
346	 0,127545540447753 
347	 9,30864457551818E-02 
348	 0,075899387717966 
349	 7,22529882662573E-02 
350	 5,31056897346705E-02 
351	 3,86049757667425E-02 
352	 3,67103354038478E-02 
353	 7,43662002796908E-02 
354	 0,111625571257222 
355	 0,107068669101036 
356	 7,75647685782247E-02 
357	 4,01736150166403E-02 
358	 2,43666636375569E-02 
359	 3,99434802641683E-02 
360	 8,33436974738177E-02 
361	 8,32381274982181E-02 
362	 6,75781524904035E-02 
363	 8,67914613031525E-02 
364	 7,53272785711804E-02 
365	 3,49090614930364E-02 
366	 0,022665577918565 
367	 3,77624169963702E-02 
368	 6,98305254867258E-02 
369	 4,59870399390115E-02 
370	 4,33783408161904E-03 
371	 0,023616607873293 
372	 3,70596398696027E-02 
373	 3,06885729895463E-02 
374	 3,26260957827046E-02 
375	 2,78606236981585E-02 
376	 6,52610441767068E-03 
377	 3,98941852019045E-04 
378	 1,14892100639018E-02 
379	 2,99222391803955E-02 
380	 4,89262213813888E-02 
381	 6,21470857549821E-02 
382	 5,45421747629256E-02 
383	 3,66374818208047E-02 
384	 2,13034189355479E-02 
385	 2,87564664944494E-02 
386	 4,71968388214513E-02 
387	 4,14066290530518E-02 
388	 3,40367686756657E-02 
389	 3,45401984519915E-02 
390	 4,30779969428803E-02 
391	 4,90085147722727E-02 
392	 0,040055728460205 
393	 2,42178145966807E-02 
394	 1,20985209122392E-02 
395	 3,16225309884299E-02 
396	 4,29191621130843E-02 
397	 3,10281652619743E-02 
398	 3,79906024101724E-02 
399	 4,44174890950863E-02 
400	 1,43047452799853E-02 
401	 6,10294366540948E-03 
402	 2,32577886172393E-02 
403	 1,75836242121458E-02 
404	 1,28710014800355E-02 
405	 2,39247781704161E-02 
406	 2,22602106905245E-02 
407	 1,49611225439744E-02 
408	 2,50284692359504E-02 
409	 3,01133319891921E-02 
410	 2,56168604714481E-02 
411	 1,99539762454113E-02 
412	 1,86785388903699E-02 
413	 2,54010585808043E-02 
414	 1,95297033598776E-02 
415	 7,89611813744625E-03 
416	 1,98016812551958E-02 
417	 2,28911908951586E-02 
418	 9,05251916436446E-03 
419	 1,12597313999309E-02 
420	 1,94989102205905E-02 
421	 1,77208038375081E-02 
422	 0,014832566909638 
423	 0,013165576509272 
424	 1,39396838159527E-02 
425	 1,26569720599981E-02 
426	 7,70344418492567E-03 
427	 1,05246694493919E-02 
428	 1,60126184703741E-02 
429	 0,012565826207863 
430	 1,09124743386699E-02 
431	 1,29922853657951E-02 
432	 1,24889505272066E-02 
433	 1,22721418645163E-02 
434	 1,49354111574978E-02 
435	 1,81786678548474E-02 
436	 0,020280910302857 
437	 1,83436207953475E-02 
438	 1,51321983594195E-02 
439	 0,012713905459674 
440	 1,53061524681066E-02 
441	 1,86210270561462E-02 
442	 1,70914851864365E-02 
443	 1,29402607511189E-02 
444	 8,98619230379013E-03 
445	 1,25526879885168E-02 
446	 1,64040042348184E-02 
447	 1,61836362050515E-02 
448	 1,56010872792892E-02 
449	 1,55111829842693E-02 
450	 1,66684568322773E-02 
451	 1,67716748919829E-02 
452	 1,55516274070058E-02 
453	 1,53841570208445E-02 
454	 1,53639584882609E-02 
455	 0,014617086214414 
456	 1,42681583470441E-02 
457	 1,44462355496409E-02 
458	 1,48929835164526E-02 
459	 1,56045314356347E-02 
460	 1,62870742898355E-02 
461	 1,53867576246456E-02 
462	 1,43192468350091E-02 
463	 1,51482761736299E-02 
464	 1,44174116532565E-02 
465	 1,27615979955892E-02 
466	 1,59299474191944E-02 
467	 1,70177286251564E-02 
468	 1,23918225349124E-02 
469	 1,33408292398983E-02 
470	 1,68627610350758E-02 
471	 1,37836747235578E-02 
472	 1,12829762184469E-02 
473	 1,11756634729028E-02 
474	 1,02168279882873E-02 
475	 1,03645461043603E-02 
476	 1,34509561991284E-02 
477	 1,44635374239009E-02 
478	 1,33962101354217E-02 
479	 1,32610433727093E-02 
480	 1,31780456856205E-02 
481	 1,27395200891232E-02 
482	 1,14633055095007E-02 
483	 1,04620400966598E-02 
484	 1,13427053737776E-02 
485	 1,44621810995329E-02 
486	 1,80377795714438E-02 
487	 1,52505223420362E-02 
488	 1,27696572855115E-02 
489	 1,53393375806638E-02 
490	 0,016313888121668 
491	 1,48822346244631E-02 
492	 1,12441118320228E-02 
493	 9,5337615081193E-03 
494	 0,010989624208377 
495	 1,29168334645192E-02 
496	 1,32180810303023E-02 
497	 9,95015111964483E-03 
498	 1,03948158577102E-02 
499	 1,37123235096779E-02 
500	 1,18178204351598E-02 
501	 1,05113990730468E-02 
502	 1,25541934209636E-02 
503	 1,20475120938471E-02 
504	 1,03507662925116E-02 
505	 1,11188301193745E-02 
506	 1,16307491058129E-02 
507	 1,11813928888497E-02 
508	 1,00645806387079E-02 
509	 9,9147750012834E-03 
510	 1,20621990653534E-02 
511	 1,42034904984435E-02 
512	 0,015341096783678 
513	 1,42749916133642E-02 
514	 1,29383230176703E-02 
515	 1,24180958186809E-02 
516	 1,34061311781539E-02 
517	 1,43870935922514E-02 
518	 1,32053596921642E-02 
519	 1,26345110661272E-02 
520	 1,29657717054136E-02 
521	 1,23410498780485E-02 
522	 1,21850817258692E-02 
523	 1,33163709130723E-02 
524	 1,26598277414018E-02 
525	 1,11838402564009E-02 
526	 1,21802590612695E-02 
527	 1,31794596294339E-02 
528	 1,32983890412112E-02 
529	 1,26253558300531E-02 
530	 1,19064885539945E-02 
531	 1,19662074675047E-02 
532	 1,24117164217922E-02 
533	 1,28901542144443E-02 
534	 0,012649827134783 
535	 1,22782277714021E-02 
536	 1,21807636189433E-02 
537	 1,26600131898281E-02 
538	 1,31491984414856E-02 
539	 1,25412143792683E-02 
540	 1,19849189627183E-02 
541	 1,18746914373853E-02 
542	 1,21595325042101E-02 
543	 0,01246276581967 
544	 1,24256919765575E-02 
545	 1,22692324938585E-02 
546	 1,21688242557546E-02 
547	 1,26108293068807E-02 
548	 1,23722092757982E-02 
549	 1,11357418777243E-02 
550	 1,11992327978902E-02 
551	 1,19067909650234E-02 
552	 0,011809742829001 
553	 1,21540890825783E-02 
554	 1,29172340311002E-02 
555	 1,27880766572441E-02 
556	 1,20985213236735E-02 
557	 1,12812032678256E-02 
558	 1,18953861628544E-02 
559	 1,32578042190601E-02 
560	 1,30135431686765E-02 
561	 1,24187483847779E-02 
562	 1,20124797145359E-02 
563	 1,20098425766121E-02 
564	 1,19720010988442E-02 
565	 1,12826862355765E-02 
566	 1,13870621776223E-02 
567	 0,012296059756529 
568	 1,27793097521465E-02 
569	 1,27284591472329E-02 
570	 1,21874254783979E-02 
571	 1,23576817160145E-02 
572	 1,31821832680729E-02 
573	 1,42768574485075E-02 
574	 1,41165835885269E-02 
575	 1,26653437440093E-02 
576	 0,013107588576787 
577	 1,38940573269604E-02 
578	 1,30886814255707E-02 
579	 1,36691454784499E-02 
580	 1,53586223187588E-02 
581	 1,52850564063245E-02 
582	 1,46172247013412E-02 
583	 1,41442245503905E-02 
584	 0,014605753056233 
585	 1,53559354542734E-02 
586	 1,50319671928316E-02 
587	 1,51548417642932E-02 
588	 1,59212753672727E-02 
589	 1,61310337449132E-02 
590	 0,015973011271261 
591	 1,56787728208475E-02 
592	 1,51943640325264E-02 
593	 1,47890489525863E-02 
594	 1,50944882147248E-02 
595	 1,57352335624993E-02 
596	 1,63962086213872E-02 
597	 1,63715137605312E-02 
598	 1,59817642629572E-02 
599	 0,015806605047526 
600	 1,60284641921347E-02 
601	 1,64786143518537E-02 
602	 1,62537227032961E-02 
603	 1,58506351524979E-02 
604	 0,015696629245786 
605	 1,59174070791261E-02 
606	 1,60136893718526E-02 
607	 1,45878583081607E-02 
608	 1,37445809862642E-02 
609	 1,40775308809825E-02 
610	 0,013735784914276 
611	 1,34566260028648E-02 
612	 1,43178545725687E-02 
613	 1,45266004837175E-02 
614	 1,40910518646318E-02 
615	 1,47050205518468E-02 
616	 1,49388442108306E-02 
617	 1,39815469556257E-02 
618	 1,31679543847491E-02 
619	 1,29187935738072E-02 
620	 1,36674073239329E-02 
621	 0,014313741467728 
622	 1,44502298874406E-02 
623	 1,43449513887414E-02 
624	 0,013912568879199 
625	 1,31124298488225E-02 
626	 1,33641157857501E-02 
627	 1,44231905923301E-02 
628	 0,014752820055928 
629	 1,45467882193634E-02 
630	 1,39880266295421E-02 
631	 1,37785785258521E-02 
632	 1,41184383811199E-02 
633	 0,015189459173765 
634	 1,58061016092823E-02 
635	 0,015703224612698 
636	 1,54372632869503E-02 
637	 1,55242778571096E-02 
638	 1,62939515716014E-02 
639	 1,62108519926369E-02 
640	 1,55949496092565E-02 
641	 1,59961529307705E-02 
642	 0,01639719262829 
643	 1,64518699819037E-02 
644	 1,66083206979203E-02 
645	 0,016806553473291 
646	 1,69174873356777E-02 
647	 1,74493544795347E-02 
648	 1,80564388252792E-02 
649	 1,70678127609393E-02 
650	 1,63200545563169E-02 
651	 1,69006691021342E-02 
652	 1,65791993160412E-02 
653	 0,015849612675434 
654	 1,64580608316647E-02 
655	 1,65667092450962E-02 
656	 0,015805687134222 
657	 1,55102144886216E-02 
658	 1,55298852046591E-02 
659	 1,56054857044081E-02 
660	 1,52849750438155E-02 
661	 1,46234523161989E-02 
662	 1,40881093308881E-02 
663	 1,35952277111761E-02 
664	 1,31466151865491E-02 
665	 1,29259255129415E-02 
666	 1,28032838590342E-02 
667	 1,25409727171785E-02 
668	 1,24811590568996E-02 
669	 1,25472781783176E-02 
670	 0,011977599228928 
671	 1,17723248221629E-02 
672	 1,26203617073748E-02 
673	 1,25943745971519E-02 
674	 1,19821838617655E-02 
675	 1,23530401946962E-02 
676	 1,24954632778029E-02 
677	 0,012123953741627 
678	 1,21348034456377E-02 
679	 1,24742980662658E-02 
680	 1,29806153095605E-02 
681	 1,27972152890898E-02 
682	 0,012157919144934 
683	 1,24493559930659E-02 
684	 1,30860792865601E-02 
685	 1,36434981300766E-02 
686	 1,36524346340661E-02 
687	 1,35028639906441E-02 
688	 1,39574171642569E-02 
689	 1,49908713732051E-02 
690	 1,62834828605371E-02 
691	 1,64498207100641E-02 
692	 1,66515039347163E-02 
693	 1,79584956271978E-02 
694	 1,95111431134159E-02 
695	 2,13354260385349E-02 
696	 2,39579059308704E-02 
697	 2,65566022055201E-02 
698	 2,89667635908521E-02 
699	 3,23977063258434E-02 
700	 3,65755358780524E-02 
701	 0,040992390353105 
702	 4,55693493691582E-02 
703	 5,04153159242881E-02 
704	 5,60705784955709E-02 
705	 6,19348582785278E-02 
706	 6,76364224401205E-02 
707	 7,36157343845849E-02 
708	 7,98222827856134E-02 
709	 8,60441627057004E-02 
710	 9,23090479055452E-02 
711	 0,098593241081725 
712	 0,104932397189556 
713	 0,110737660423408 
714	 0,115560737693816 
715	 0,120691112704285 
716	 0,126214222931431 
717	 0,131751528723834 
718	 0,136658437735234 
719	 0,140693617997813 
720	 0,144377030256592 
721	 0,147961821741666 
722	 0,151711089543434 
723	 0,155237002683316 
724	 0,158402402772926 
725	 0,161171498564906 
726	 0,163643130538622 
727	 0,165877542904535 
728	 0,167786596004735 
729	 0,169538123864399 
730	 0,171425380994525 
731	 0,173237669895299 
732	 0,174874735568893 
733	 0,176224016046264 
734	 0,177366237774899 
735	 0,178385592239389 
736	 0,179403843480071 
737	 0,180311917447818 
738	 0,180711270896823 
739	 0,181280562970804 
740	 0,182238995676732 
741	 0,183163903977015 
742	 0,183982429264922 
743	 0,184653605952867 
744	 0,185271945926855 
745	 0,185784822807278 
746	 0,185858542410386 
747	 0,1863476901463 
748	 0,1875588462754 
749	 0,188163676163822 
750	 0,188230659170097 
751	 0,188105788238016 
752	 0,188371442823469 
753	 0,189056905621892 
754	 0,189565609496769 
755	 0,189699652832179 
756	 0,189410367825271 
757	 0,189651940611473 
758	 0,190212994284224 
759	 0,190325748788799 
760	 0,190567985749321 
761	 0,190997190821331 
762	 0,191045102230823 
763	 0,190964187048123 
764	 0,191021041643316 
765	 0,191165696996401 
766	 0,191345825035985 
767	 0,191443301990513 
768	 0,191481768223949 
769	 0,191550780601553 
770	 0,192102723757256 
771	 0,192699804014854 
772	 0,192794539246407 
773	 0,192693852254913 
774	 0,192578425159182 
775	 0,192759516100729 
776	 0,192946022747584 
777	 0,192993749193027 
778	 0,192995034281871 
779	 0,193164452958692 
780	 0,193804151502155 
781	 0,193966870282253 
782	 0,193592102967626 
783	 0,19340279273621 
784	 0,19354335157923 
785	 0,194018987204649 
786	 0,193952089395834 
787	 0,193664685126001 
788	 0,19396592018763 
789	 0,194210039758491 
790	 0,194231111500181 
791	 0,194157946799166 
792	 0,1941969850415 
793	 0,194482616460813 
794	 0,194600014457209 
795	 0,194624983315793 
796	 0,194885753287046 
797	 0,195092982545643 
798	 0,195136763799085 
799	 0,194964832370992 
800	 0,194931801904637 
801	 0,195325187566702 
802	 0,195325849410982 
803	 0,195089791586952 
804	 0,195434044466629 
805	 0,195734108239239 
806	 0,195775637282862 
807	 0,195687585297892 
808	 0,195692656505953 
809	 0,196006970330098 
810	 0,196351399090686 
811	 0,196624743751159 
812	 0,196742400459362 
813	 0,19681159016832 
814	 0,196888857639934 
815	 0,196986150894715 
816	 0,197089257303075 
817	 0,197180085545146 
818	 0,197366969296022 
819	 0,197604192447379 
820	 0,197636821179407 
821	 0,197945408494967 
822	 0,198595434789924 
823	 0,198474931974537 
824	 0,198063007273961 
825	 0,198114604982446 
826	 0,198392753445629 
827	 0,198695060293125 
828	 0,198563198903862 
829	 0,198287883186652 
830	 0,198110648298683 
831	 0,198550579238759 
832	 0,198970369353845 
833	 0,198450231917466 
834	 0,198281466940472 
835	 0,19846941484688 
836	 0,197818994694531 
837	 0,197650916435068 
838	 0,198502418970996 
839	 0,198747711882478 
840	 0,198632240482255 
841	 0,198766408558142 
842	 0,198945874674303 
843	 0,199087731044466 
844	 0,199088474480486 
845	 0,198864414170249 
846	 0,198469619223524 
847	 0,198562227857895 
848	 0,198876690754123 
849	 0,198931472907947 
850	 0,199134602799585 
851	 0,199521109000104 
852	 0,199999682399199 
853	 0,199929177588922 
854	 0,199168048084138 
855	 0,199340011249602 
856	 0,19990836981516 
857	 0,199890164770702 
858	 0,199943662766918 
859	 0,200133670023022 
860	 0,200204129721823 
861	 0,20015911884427 
862	 0,200057759976828 
863	 0,200298468872775 
864	 0,200524111410589 
865	 0,200235654804881 
866	 0,200719366156897 
867	 0,201740517146361 
868	 0,20171477209291 
869	 0,201312660304306 
870	 0,200955741610173 
871	 0,201150434054219 
872	 0,201527550345968 
873	 0,201576948361294 
874	 0,201414364781504 
875	 0,201243409540181 
876	 0,201648102743909 
877	 0,201647851072392 
878	 0,201083453500538 
879	 0,201646308894283 
880	 0,202263174214757 
881	 0,201722047045703 
882	 0,2017871063385 
883	 0,202423003289441 
884	 0,202627511535667 
885	 0,20262360058979 
886	 0,202525212041755 
887	 0,202637959553316 
888	 0,20280525246998 
889	 0,202851313357267 
890	 0,20269829600158 
891	 0,202529501098688 
892	 0,202775686576871 
893	 0,202975804754116 
894	 0,203053954005682 
895	 0,203527159732171 
896	 0,203409968110364 
897	 0,202137608737728 
898	 0,202032929264987 
899	 0,202711017510298 
900	 0,202812175028839 
901	 0,20286079471257 
902	 0,203036665817694 
903	 0,203608708727425 
904	 0,203957325887838 
905	 0,2037325380715 
906	 0,203492270632125 
907	 0,20323673970535 
908	 0,202863042699205 
909	 0,203005948305784 
910	 0,203494071642649 
911	 0,203311446275212 
912	 0,203007900127111 
913	 0,202868536925174 
914	 0,202934952779541 
915	 0,203064503643364 
916	 0,20308264786685 
917	 0,20295959024754 
918	 0,202613763653856 
919	 0,201734074521049 
920	 0,20169725214984 
921	 0,202587656471609 
922	 0,202277091645378 
923	 0,201622567592401 
924	 0,201413874438339 
925	 0,20135770533659 
926	 0,201175628811987 
927	 0,200462607990775 
928	 0,19921369485985 
929	 0,1980619794368 
930	 0,199335931439337 
931	 0,19988943781962 
932	 0,198186384209322 
933	 0,197479533437982 
934	 0,197562775386434 
935	 0,197674150443948 
936	 0,197271439545243 
937	 0,196230522369111 
938	 0,194505423199861 
939	 0,193711167521617 
940	 0,194088219895467 
941	 0,193198924387263 
942	 0,192049019924605 
943	 0,191620737901314 
944	 0,19123419595184 
945	 0,190672356622994 
946	 0,189773501508445 
947	 0,188476657875619 
948	 0,186746580608089 
949	 0,184372198607813 
950	 0,182818513415349 
951	 0,182620986925273 
952	 0,181275276658176 
953	 0,179606211826748 
954	 0,178905906205605 
955	 0,17837387352988 
956	 0,177280570422595 
957	 0,173943986853994 
958	 0,172492668698829 
959	 0,173579235875794 
960	 0,172956643557134 
961	 0,171661938215389 
962	 0,170612866710311 
963	 0,169502618242673 
964	 0,169063969785479 
965	 0,17036257979066 
966	 0,171077766020477 
967	 0,170688051071159 
968	 0,169578622384296 
969	 0,168743577114415 
970	 0,168714514000665 
971	 0,169382750009311 
972	 0,16998990693929 
973	 0,169905022951936 
974	 0,170193926471837 
975	 0,170597825466163 
976	 0,170404097916991 
977	 0,168797901501841 
978	 0,166740813694033 
979	 0,16833420125765 
980	 0,169332124583975 
981	 0,168184882241759 
982	 0,16939933678081 
983	 0,17059931786095 
984	 0,169281562132885 
985	 0,169285980243538 
986	 0,170488129442717 
987	 0,171270039109894 
988	 0,171635737306823 
989	 0,171875196440855 
990	 0,17341421897893 
991	 0,173763048089316 
992	 0,172276983359538 
993	 0,173411055872478 
994	 0,175578404379339 
995	 0,176701330613767 
996	 0,176683322658832 
997	 0,175996244321001 
998	 0,175546506509977 
999	 0,17757666053551 
1000	 0,180945248465712 
1001	 0,179394678174594 
1002	 0,177323695714705 
1003	 0,177455127933368 
1004	 0,181007706633219 
1005	 0,184857807433716 
1006	 0,185742892563674 
1007	 0,183428488765441 
1008	 0,180640975287287 
1009	 0,182053892684545 
1010	 0,185482540558629 
1011	 0,188964824834582 
1012	 0,188421830768003 
1013	 0,187743019832085 
1014	 0,188838437505997 
1015	 0,191834635323109 
1016	 0,194537387097649 
1017	 0,194874695635837 
1018	 0,192527884196719 
1019	 0,189919127227111 
1020	 0,190632192786307 
1021	 0,19205548485848 
1022	 0,19349602934612 
1023	 0,194506482711518 
1024	 0,198279052835969 
1025	 0,20396947802715 
1026	 0,203281232650321 
1027	 0,201298407492104 
1028	 0,201496617795515 
1029	 0,201504655704061 
1030	 0,202756785723884 
1031	 0,206491616843422 
1032	 0,203471853915802 
1033	 0,197565681114801 
1034	 0,200318867288326 
1035	 0,202859691471325 
1036	 0,203371977899009 
1037	 0,203885113649992 
1038	 0,207659223393778 
1039	 0,214212939406867 
1040	 0,214051154256677 
1041	 0,21039281578053 
1042	 0,206921726454875 
1043	 0,206526280579135 
1044	 0,209150515213759 
1045	 0,213699470607239 
1046	 0,210254015669149 
1047	 0,205088492149568 
1048	 0,218657824179716 
1049	 0,221441998006414 
1050	 0,209977465693117 
1051	 0,209041269715935 
1052	 0,212657631737839 
1053	 0,216471149829555 
1054	 0,212748144058246 
1055	 0,21059054751906 
1056	 0,216975769410999 
1057	 0,216951016329719 
1058	 0,213101557283958 
1059	 0,212386027027842 
1060	 0,222167846475543 
1061	 0,232614370946055 
1062	 0,219515597779445 
1063	 0,211438246565127 
1064	 0,214758008567433 
1065	 0,217358565889711 
1066	 0,222080843585237 
1067	 0,228464926904636 
1068	 0,230132308446022 
1069	 0,223580513297734 
1070	 0,209417919276288 
1071	 0,206988936028229 
1072	 0,209934729636493 
1073	 0,208820792682708 
1074	 0,221101898664077 
1075	 0,234878039714473 
