Wavelength	GRA-VIE-00092.asd
325	 0,307808870919714 
326	 0,165138053118491 
327	 4,00480791589009E-02 
328	 4,22203119243522E-02 
329	 0,110811101654291 
330	 0,174319525656692 
331	 0,129999917271276 
332	 0,130785151868418 
333	 0,162864481039432 
334	 0,12898606327736 
335	 0,105992553511475 
336	 9,66196904677577E-02 
337	 5,62826006443056E-02 
338	 2,55621043440297E-02 
339	 4,13469879990238E-02 
340	 4,28154822944852E-02 
341	 4,62350129444964E-02 
342	 0,117528287919913 
343	 0,136290528465663 
344	 6,70917567833677E-02 
345	 0,019487749851473 
346	 1,36427545787209E-02 
347	 4,93627893456543E-02 
348	 7,91137856630129E-02 
349	 8,86752765584389E-02 
350	 7,18760183285485E-02 
351	 4,62853838575166E-02 
352	 1,33189086266958E-02 
353	-4,11242033755865E-02 
354	-4,57194064406068E-02 
355	 6,75983833324542E-02 
356	 9,44084333455278E-02 
357	 5,29199863161062E-02 
358	 8,52582288138407E-02 
359	 0,10686325756893 
360	 7,76284718500401E-02 
361	 3,11398614184746E-02 
362	 5,3080733338137E-03 
363	 4,61026767242751E-02 
364	 5,29576020370127E-02 
365	 2,38387521138176E-02 
366	 5,22083914011751E-02 
367	 7,93555136547523E-02 
368	 7,18000425093945E-02 
369	 6,29678469409804E-02 
370	 0,054718619764497 
371	 4,38742011685645E-02 
372	 4,02481511530733E-02 
373	 4,42954289763742E-02 
374	 4,63198688182315E-02 
375	 4,34299851309885E-02 
376	 3,60730930161358E-02 
377	 5,30463092033493E-02 
378	 7,52737886388524E-02 
379	 5,84653752172708E-02 
380	 5,01619633602242E-02 
381	 6,14848606582494E-02 
382	 6,60030220345303E-02 
383	 6,65558380758997E-02 
384	 6,69218580900372E-02 
385	 5,68199559615715E-02 
386	 4,42272719522023E-02 
387	 5,54783324806908E-02 
388	 0,060460713202287 
389	 5,06992123495238E-02 
390	 4,78723880574739E-02 
391	 5,32835345950115E-02 
392	 6,55429083319538E-02 
393	 6,79138726194182E-02 
394	 6,06814124361613E-02 
395	 5,45406375659214E-02 
396	 5,56573699769179E-02 
397	 6,37538040868428E-02 
398	 5,03044357000598E-02 
399	 3,20696780398738E-02 
400	 3,71499152419249E-02 
401	 4,23050424742599E-02 
402	 4,38161508524443E-02 
403	 5,18647192965673E-02 
404	 5,50606930955221E-02 
405	 4,77275590232796E-02 
406	 5,34010033378075E-02 
407	 6,32093378297089E-02 
408	 0,051872101383709 
409	 5,07039687004134E-02 
410	 6,35887559672539E-02 
411	 6,27096455492476E-02 
412	 5,95678737067428E-02 
413	 6,51448552591599E-02 
414	 6,32219974311944E-02 
415	 5,62713456863326E-02 
416	 5,82318011988832E-02 
417	 5,93712379149396E-02 
418	 5,62513272149298E-02 
419	 5,26463251258835E-02 
420	 5,19258648856959E-02 
421	 5,77057083153186E-02 
422	 5,86147872483597E-02 
423	 5,55578118348794E-02 
424	 6,15433904064583E-02 
425	 6,37128248458409E-02 
426	 5,61372022811137E-02 
427	 5,79632564266835E-02 
428	 6,42822024149135E-02 
429	 6,14244015166638E-02 
430	 6,18084578605561E-02 
431	 6,62060829131192E-02 
432	 6,21359578084165E-02 
433	 5,78131959262844E-02 
434	 6,06361067794778E-02 
435	 6,16169829555638E-02 
436	 6,10402014868797E-02 
437	 6,38488673164376E-02 
438	 6,59043614845659E-02 
439	 6,62788120567376E-02 
440	 7,05388611881983E-02 
441	 7,27942996674251E-02 
442	 6,53189754516738E-02 
443	 6,06560266891654E-02 
444	 6,15485937321465E-02 
445	 0,065871734307572 
446	 6,80548427770269E-02 
447	 6,52203047149901E-02 
448	 6,58128037700993E-02 
449	 6,81544981115303E-02 
450	 6,68069790223899E-02 
451	 0,066628746608422 
452	 6,84032919009237E-02 
453	 6,88314620097452E-02 
454	 6,86235374187318E-02 
455	 6,85947874562934E-02 
456	 6,92437922481929E-02 
457	 6,98436835626203E-02 
458	 6,75918476040403E-02 
459	 6,84437244176452E-02 
460	 7,34419870707183E-02 
461	 7,19198567448504E-02 
462	 6,88401755852744E-02 
463	 7,20960661509094E-02 
464	 7,27570344029577E-02 
465	 7,03211120499506E-02 
466	 7,10587895672774E-02 
467	 7,18048655933045E-02 
468	 7,06884897220876E-02 
469	 7,08560816845154E-02 
470	 7,15824832386984E-02 
471	 0,070310925993132 
472	 7,11128246497497E-02 
473	 7,43251547112924E-02 
474	 7,53773160927789E-02 
475	 7,45375028162257E-02 
476	 7,25171867636861E-02 
477	 7,35771788500959E-02 
478	 7,67644999776783E-02 
479	 7,70866144517652E-02 
480	 7,65841274993395E-02 
481	 0,076189814444648 
482	 7,54391869127179E-02 
483	 7,57738234274025E-02 
484	 7,94496113734223E-02 
485	 7,89586106231013E-02 
486	 0,074684578158666 
487	 0,076133295592428 
488	 0,079023608129803 
489	 8,01128294999881E-02 
490	 8,23867492251988E-02 
491	 8,42942655023192E-02 
492	 8,12162161051192E-02 
493	 7,89085350142421E-02 
494	 7,93077089864063E-02 
495	 8,06474033755945E-02 
496	 8,10031978338329E-02 
497	 7,84957765582407E-02 
498	 7,91716946866341E-02 
499	 8,25280357616107E-02 
500	 8,26112503449258E-02 
501	 8,26245056572853E-02 
502	 8,41258473416945E-02 
503	 8,44333368025296E-02 
504	 8,42982624527976E-02 
505	 8,56409132244922E-02 
506	 8,64643373203302E-02 
507	 8,62931061717021E-02 
508	 8,57662163996903E-02 
509	 8,53798330668987E-02 
510	 8,55552974562179E-02 
511	 8,64055170564072E-02 
512	 8,72682698289727E-02 
513	 8,63374075163698E-02 
514	 8,58713302271735E-02 
515	 8,66833636740651E-02 
516	 8,70384675396583E-02 
517	 8,72781106948512E-02 
518	 8,81224215652217E-02 
519	 8,86556456697221E-02 
520	 8,89204595691729E-02 
521	 8,99505486802113E-02 
522	 9,10597627380252E-02 
523	 9,17297583024597E-02 
524	 9,22802112742276E-02 
525	 0,092424823863623 
526	 9,11527188782354E-02 
527	 9,11322844792314E-02 
528	 9,28284498236873E-02 
529	 9,31050319253892E-02 
530	 9,29639075425224E-02 
531	 9,38034224094244E-02 
532	 9,42706952495165E-02 
533	 9,41745332214057E-02 
534	 9,37048461399087E-02 
535	 9,39521628522787E-02 
536	 9,54143533107625E-02 
537	 9,63415314776231E-02 
538	 9,68848393415221E-02 
539	 9,79030397622612E-02 
540	 9,79962501278818E-02 
541	 9,71739415825531E-02 
542	 9,74298128360818E-02 
543	 9,82364371557142E-02 
544	 9,89740998586885E-02 
545	 9,98588678852193E-02 
546	 0,10057128032875 
547	 0,100122802457145 
548	 9,99848883935003E-02 
549	 0,100781975784621 
550	 0,101319092395195 
551	 0,101519896159461 
552	 0,101470368429167 
553	 0,10171473177685 
554	 0,102190474323854 
555	 0,101763655772783 
556	 0,101899807319141 
557	 0,103677456556043 
558	 0,104610750702201 
559	 0,104540143552226 
560	 0,104156576118548 
561	 0,104286571807198 
562	 0,105135826914254 
563	 0,105179432729168 
564	 0,105428004044623 
565	 0,107379673989939 
566	 0,108040362768998 
567	 0,107284495380319 
568	 0,10758996912379 
569	 0,107958269912669 
570	 0,107788987632522 
571	 0,108333557762203 
572	 0,109301775254874 
573	 0,109703120756534 
574	 0,109881893108764 
575	 0,109963032027054 
576	 0,110090805070942 
577	 0,110218384415011 
578	 0,110273131675661 
579	 0,109968470667764 
580	 0,109646768133885 
581	 0,110589716871049 
582	 0,111387962683108 
583	 0,111295460516494 
584	 0,111274594919033 
585	 0,111724352579272 
586	 0,113252351581048 
587	 0,113174852522817 
588	 0,111540515262684 
589	 0,112587431420571 
590	 0,113977644654062 
591	 0,113463804530054 
592	 0,11359120249635 
593	 0,114243624460823 
594	 0,11375475502919 
595	 0,113178857529362 
596	 0,112994137402353 
597	 0,112874387662732 
598	 0,112898067034276 
599	 0,113211989330948 
600	 0,113772253811415 
601	 0,114383389026322 
602	 0,114420846159945 
603	 0,114483667900168 
604	 0,114995978204519 
605	 0,114986547757788 
606	 0,114649317901209 
607	 0,114808978350013 
608	 0,115235762680633 
609	 0,115718551929764 
610	 0,115457161518564 
611	 0,115154098023569 
612	 0,115743428361686 
613	 0,116151577600947 
614	 0,116203856619528 
615	 0,116224136751524 
616	 0,116356919291119 
617	 0,116692955230582 
618	 0,117130867196552 
619	 0,117418776689526 
620	 0,117057624136448 
621	 0,117113635145261 
622	 0,117764761782691 
623	 0,117989644953705 
624	 0,1179475991295 
625	 0,117881725790867 
626	 0,11816145338535 
627	 0,118677268570059 
628	 0,118900659851036 
629	 0,118837746789434 
630	 0,118547188328705 
631	 0,118482998050717 
632	 0,118596964693563 
633	 0,118676742011803 
634	 0,119305879290274 
635	 0,120285070722151 
636	 0,120218403835417 
637	 0,119745146878215 
638	 0,119471956436003 
639	 0,119434548762752 
640	 0,119587220331423 
641	 0,119707985780829 
642	 0,120112586554121 
643	 0,120722936465144 
644	 0,120307082076926 
645	 0,119836904931139 
646	 0,120703815758079 
647	 0,120776455526211 
648	 0,120006287970557 
649	 0,120156008165637 
650	 0,120533753239465 
651	 0,120675680606304 
652	 0,120875936579173 
653	 0,120948628967434 
654	 0,120399038239656 
655	 0,120203687184062 
656	 0,120584776378469 
657	 0,120927953889719 
658	 0,120725040762549 
659	 0,119559706838962 
660	 0,119076450142784 
661	 0,119440266623185 
662	 0,120068430889637 
663	 0,120309906801782 
664	 0,119870586230525 
665	 0,119545409638655 
666	 0,119331015176523 
667	 0,11903769640843 
668	 0,119134260886419 
669	 0,119539971368556 
670	 0,119444695248323 
671	 0,119115950332107 
672	 0,118872183551483 
673	 0,11966507975 
674	 0,120934765456456 
675	 0,1209065577415 
676	 0,121120699782142 
677	 0,121924431973 
678	 0,12192260683185 
679	 0,121858428938227 
680	 0,122720925214588 
681	 0,123535591917425 
682	 0,124020725074692 
683	 0,124013061327078 
684	 0,124253244333524 
685	 0,125132547145197 
686	 0,125952529287082 
687	 0,126478216392067 
688	 0,126446047469009 
689	 0,12679679570167 
690	 0,127616955118942 
691	 0,12786136636189 
692	 0,127947230947958 
693	 0,128299738344985 
694	 0,12901396287984 
695	 0,129832552834264 
696	 0,129997629588424 
697	 0,130432353657378 
698	 0,131362387362214 
699	 0,131696624269203 
700	 0,131736930238004 
701	 0,131995894676298 
702	 0,132552561482604 
703	 0,133312569075132 
704	 0,133893363455937 
705	 0,134257596281049 
706	 0,134395631690653 
707	 0,134426227673904 
708	 0,134598929907663 
709	 0,135357747278721 
710	 0,135784182733473 
711	 0,135740566504611 
712	 0,136027095240117 
713	 0,136553534553913 
714	 0,13717031004718 
715	 0,137450197169471 
716	 0,137384033422392 
717	 0,137084228515193 
718	 0,137314134792363 
719	 0,138197464763857 
720	 0,138186432156367 
721	 0,138025865023434 
722	 0,138839189813294 
723	 0,139551500821285 
724	 0,13992745366435 
725	 0,140097976921189 
726	 0,140382389205434 
727	 0,140929319923104 
728	 0,141185426754712 
729	 0,141181468793756 
730	 0,141094726016326 
731	 0,141129225865377 
732	 0,141425509904205 
733	 0,142228379072938 
734	 0,142878164734291 
735	 0,142837312954554 
736	 0,142899628226667 
737	 0,143187622394036 
738	 0,143625540297516 
739	 0,144023153728595 
740	 0,144323818914173 
741	 0,144761651383952 
742	 0,145138892734554 
743	 0,145213655934987 
744	 0,14518847754915 
745	 0,145169031515888 
746	 0,145254948729855 
747	 0,145574429665795 
748	 0,146124675027855 
749	 0,146337152343562 
750	 0,146448269726639 
751	 0,14693762939194 
752	 0,147257062112278 
753	 0,147348753234437 
754	 0,147574364890794 
755	 0,14786971830389 
756	 0,148205736875412 
757	 0,14882107010213 
758	 0,14946668599119 
759	 0,14959610151257 
760	 0,149553023837941 
761	 0,149506893364685 
762	 0,149631705296851 
763	 0,14988380235066 
764	 0,150216741320422 
765	 0,150835952173873 
766	 0,151430178468717 
767	 0,151046481479676 
768	 0,151068823763724 
769	 0,151845997977403 
770	 0,151888486266939 
771	 0,151637607812996 
772	 0,151757133099041 
773	 0,152125201179123 
774	 0,152644469211979 
775	 0,153088722679491 
776	 0,153478569091198 
777	 0,15379358361939 
778	 0,153879913762799 
779	 0,153934255958546 
780	 0,154263163968759 
781	 0,154453434748961 
782	 0,154447959138627 
783	 0,154425056491515 
784	 0,154568155106596 
785	 0,154961682892628 
786	 0,155190218603409 
787	 0,155357001127312 
788	 0,155759325585235 
789	 0,156188006628349 
790	 0,15647377263089 
791	 0,156168837626116 
792	 0,156050392503807 
793	 0,156704595739226 
794	 0,157369114639216 
795	 0,157798454434515 
796	 0,157764949691494 
797	 0,157734894766615 
798	 0,157866404370654 
799	 0,15800846529185 
800	 0,158148474860657 
801	 0,158276072321536 
802	 0,158360307667606 
803	 0,158386778959025 
804	 0,158309115972937 
805	 0,15831948277845 
806	 0,15854193510689 
807	 0,159155339617923 
808	 0,159802536613724 
809	 0,16008825105306 
810	 0,16004145779722 
811	 0,1598489051765 
812	 0,159974663622528 
813	 0,160215584971173 
814	 0,160482515351468 
815	 0,1607382268773 
816	 0,160998010952048 
817	 0,161280955070858 
818	 0,161236944505206 
819	 0,161093699566306 
820	 0,161854195404781 
821	 0,162086200874916 
822	 0,161372554874488 
823	 0,161816580178864 
824	 0,162589986280329 
825	 0,162381447148043 
826	 0,162340180683465 
827	 0,162531621323553 
828	 0,162240100379687 
829	 0,162202432821206 
830	 0,162708634214404 
831	 0,162942951554408 
832	 0,16299790321115 
833	 0,163124540051204 
834	 0,163193694510755 
835	 0,163178885157951 
836	 0,163033065709722 
837	 0,163093331716175 
838	 0,163475982448932 
839	 0,163575721651729 
840	 0,163574573569244 
841	 0,163825240319318 
842	 0,163964619018465 
843	 0,163907973582313 
844	 0,163588588491144 
845	 0,16375771370772 
846	 0,164668196368842 
847	 0,165013010550252 
848	 0,164742877619383 
849	 0,164026283269096 
850	 0,164052562653841 
851	 0,16479356565983 
852	 0,165093642217619 
853	 0,164893649782608 
854	 0,164314314012834 
855	 0,164545473753193 
856	 0,165054023786913 
857	 0,164928529640059 
858	 0,164678876590093 
859	 0,164560497971162 
860	 0,164965824977413 
861	 0,165502080902353 
862	 0,165901569604563 
863	 0,165960061392172 
864	 0,165903582808761 
865	 0,166051046434472 
866	 0,165580304121651 
867	 0,164853208286153 
868	 0,165588111543033 
869	 0,166035247688658 
870	 0,165524891871664 
871	 0,165525664565877 
872	 0,165761529852921 
873	 0,165749469177835 
874	 0,1657859287411 
875	 0,165994535274206 
876	 0,166603574486655 
877	 0,166987213977412 
878	 0,16690939320637 
879	 0,166794228858571 
880	 0,166657800557059 
881	 0,166493597310443 
882	 0,16649031537376 
883	 0,166693081195776 
884	 0,167193755674787 
885	 0,167255476288457 
886	 0,166766849274426 
887	 0,166747238901338 
888	 0,166837932465687 
889	 0,166678512244042 
890	 0,166731443376699 
891	 0,16716903351713 
892	 0,168334837558687 
893	 0,168207000025131 
894	 0,166731602598433 
895	 0,166874872322242 
896	 0,167474442499211 
897	 0,167580227914491 
898	 0,168006986427345 
899	 0,168435344149093 
900	 0,16812258013119 
901	 0,167957806174638 
902	 0,168036217303581 
903	 0,16757066928192 
904	 0,167601374165041 
905	 0,168572882934155 
906	 0,168682139719108 
907	 0,168296227508643 
908	 0,168260259084018 
909	 0,16833554212031 
910	 0,168551408685719 
911	 0,169169249185585 
912	 0,1694808721237 
913	 0,169225071685205 
914	 0,169104792343785 
915	 0,169137806673026 
916	 0,169267029547806 
917	 0,169470662025565 
918	 0,169549397571891 
919	 0,168995744718793 
920	 0,168693730822576 
921	 0,168930326742618 
922	 0,169355414947028 
923	 0,169796451380271 
924	 0,170106089633559 
925	 0,17033471485316 
926	 0,17029021543967 
927	 0,169586710952006 
928	 0,169846003786462 
929	 0,170766583723187 
930	 0,169367300833802 
931	 0,168160295007553 
932	 0,168626958655932 
933	 0,16979467583427 
934	 0,171064032734305 
935	 0,171813216301621 
936	 0,171879505978337 
937	 0,17147037338608 
938	 0,171249869189204 
939	 0,171265905408493 
940	 0,171371189816226 
941	 0,170483778989406 
942	 0,16994379260941 
943	 0,170844982167362 
944	 0,171087256907307 
945	 0,171203386752745 
946	 0,172910334273617 
947	 0,172927965716641 
948	 0,171321964497231 
949	 0,171963051274105 
950	 0,172661590404581 
951	 0,17238894195368 
952	 0,173209201004269 
953	 0,174083034101854 
954	 0,173564993581745 
955	 0,172198797216097 
956	 0,170898490127185 
957	 0,171631365676816 
958	 0,172475406236322 
959	 0,172717954982125 
960	 0,172491115366837 
961	 0,172368459087158 
962	 0,172681975772592 
963	 0,172177170260065 
964	 0,171776953785396 
965	 0,173088740036705 
966	 0,173506948096724 
967	 0,172745630792358 
968	 0,171842666054017 
969	 0,172465047073748 
970	 0,174681379806328 
971	 0,174401346280483 
972	 0,173885700914454 
973	 0,175276729900623 
974	 0,176051353469339 
975	 0,175994382143358 
976	 0,175470869667495 
977	 0,175075942214476 
978	 0,174838260612951 
979	 0,174115994833889 
980	 0,173095889257677 
981	 0,172216250807515 
982	 0,173163590123179 
983	 0,174972210939942 
984	 0,176327922429695 
985	 0,174783519223167 
986	 0,172861096206282 
987	 0,176374935455072 
988	 0,178335471187322 
989	 0,177136447123182 
990	 0,174511619332949 
991	 0,173474670583858 
992	 0,175297531487527 
993	 0,176706296094946 
994	 0,177197169444704 
995	 0,176583812241037 
996	 0,174888826681816 
997	 0,173402690095732 
998	 0,174434658868223 
999	 0,175063318092702 
1000	 0,175156182746291 
1001	 0,17770611829324 
1002	 0,178805563408451 
1003	 0,177090624440046 
1004	 0,177071794475019 
1005	 0,177497396861642 
1006	 0,17704843756499 
1007	 0,179119099087798 
1008	 0,180952205334614 
1009	 0,176770590168221 
1010	 0,175543437943104 
1011	 0,178009163306803 
1012	 0,178206451842426 
1013	 0,177884345641841 
1014	 0,177295402223512 
1015	 0,173831686291544 
1016	 0,17263225777846 
1017	 0,177474127804587 
1018	 0,181575842274542 
1019	 0,182741800580069 
1020	 0,179551129524918 
1021	 0,179386799973189 
1022	 0,182043506763694 
1023	 0,181491147930013 
1024	 0,180501906577173 
1025	 0,180012816369883 
1026	 0,180318203956563 
1027	 0,17943113519174 
1028	 0,176915423635813 
1029	 0,179654829000983 
1030	 0,182081795337779 
1031	 0,177513787501177 
1032	 0,177882885081966 
1033	 0,181053547649169 
1034	 0,178063949512536 
1035	 0,180023581238272 
1036	 0,186128746157181 
1037	 0,183562070885136 
1038	 0,177295425438325 
1039	 0,171850183907443 
1040	 0,177424137658677 
1041	 0,18138721528427 
1042	 0,174458126611371 
1043	 0,172756850320948 
1044	 0,175332038933516 
1045	 0,177712887844886 
1046	 0,178450954093821 
1047	 0,179397680752973 
1048	 0,186371085477533 
1049	 0,188442492431293 
1050	 0,185279848742534 
1051	 0,189848622587938 
1052	 0,188522911489778 
1053	 0,178096782437317 
1054	 0,182139694645885 
1055	 0,184360744193049 
1056	 0,172151583748884 
1057	 0,176069478265289 
1058	 0,185234226382915 
1059	 0,179763523653049 
1060	 0,182313690947794 
1061	 0,190856398148111 
1062	 0,190295150863998 
1063	 0,194702855552099 
1064	 0,201880065373986 
1065	 0,18843584562766 
1066	 0,180468871336272 
1067	 0,187317286974875 
1068	 0,192505635228456 
1069	 0,185442035278633 
1070	 0,162632361156059 
1071	 0,15625611182953 
1072	 0,165041529874803 
1073	 0,17957287116833 
1074	 0,179558476064113 
1075	 0,17447935819962 
