Wavelength	GRA-VIE00920.asd
325	 0,460417823349438 
326	 0,560028268159521 
327	 0,481606613812476 
328	 0,317021626087617 
329	 0,364132707822082 
330	 0,398309275920122 
331	 0,259668462717006 
332	 0,238698890919046 
333	 0,302059420857871 
334	 0,285359965694864 
335	 0,316852101197647 
336	 0,378200556273931 
337	 0,314317618245569 
338	 0,256459847644221 
339	 0,291492205159446 
340	 0,300646136583694 
341	 0,278155456125096 
342	 0,266420562169038 
343	 0,247590163594163 
344	 0,223456585540288 
345	 0,219553985097252 
346	 0,202794094539882 
347	 0,143840965418153 
348	 0,142295849229997 
349	 0,178954263468739 
350	 0,159783348717385 
351	 0,112529894123888 
352	 0,05651887103614 
353	 0,101060108405723 
354	 0,172500580436652 
355	 0,181600858186158 
356	 0,152764603108179 
357	 0,108269870781201 
358	 9,31766778743727E-02 
359	 9,60497619413301E-02 
360	 0,109349275638934 
361	 0,115237462004942 
362	 0,122668384666395 
363	 0,148510595927579 
364	 0,146794320511484 
365	 0,12149060953742 
366	 0,128527995120927 
367	 0,133961280116472 
368	 0,116277521556867 
369	 8,20220884084437E-02 
370	 0,061804521453318 
371	 0,105893015462665 
372	 0,128831286904908 
373	 0,113351827352326 
374	 0,107576076303171 
375	 0,101328833638032 
376	 8,60113298420745E-02 
377	 6,97846364195364E-02 
378	 0,065781814689896 
379	 9,88624606850939E-02 
380	 0,116110760839825 
381	 0,108568821457186 
382	 0,113284476270111 
383	 0,111216833395157 
384	 8,47464243091326E-02 
385	 9,60837032095185E-02 
386	 0,126388580697577 
387	 0,1041642984876 
388	 8,81546257327991E-02 
389	 9,75152027289741E-02 
390	 9,65756977919821E-02 
391	 9,34892032440464E-02 
392	 0,100777726809058 
393	 0,105570972940653 
394	 0,10250240337283 
395	 0,08291736245635 
396	 7,37662117249192E-02 
397	 8,38602101439531E-02 
398	 8,07405531182408E-02 
399	 6,98717016372315E-02 
400	 6,39625155036979E-02 
401	 6,61364903697976E-02 
402	 7,39617868343318E-02 
403	 0,075419154990157 
404	 7,38746802201578E-02 
405	 7,21789997119916E-02 
406	 7,25960248297251E-02 
407	 7,40988648494647E-02 
408	 7,43639704159399E-02 
409	 7,06316876737678E-02 
410	 6,39949580715286E-02 
411	 6,21071087219885E-02 
412	 6,69940853710338E-02 
413	 7,87053219908722E-02 
414	 7,07861931537849E-02 
415	 5,22366152481459E-02 
416	 5,95116080899068E-02 
417	 6,46243020297794E-02 
418	 5,90868574777785E-02 
419	 6,26578216103922E-02 
420	 6,80444683614591E-02 
421	 6,42562775213585E-02 
422	 5,76628351696704E-02 
423	 5,31360368250199E-02 
424	 6,12833537451068E-02 
425	 6,57328562423376E-02 
426	 0,057901419938457 
427	 5,59208442341002E-02 
428	 5,78123043514505E-02 
429	 5,51897498604101E-02 
430	 5,64221688423364E-02 
431	 6,18264118231676E-02 
432	 6,25549377430175E-02 
433	 6,14433070403789E-02 
434	 6,12870289132449E-02 
435	 6,10608733610763E-02 
436	 6,03337356741933E-02 
437	 5,81252506570714E-02 
438	 5,61808328282665E-02 
439	 5,58702231547211E-02 
440	 6,03714662834572E-02 
441	 6,45080475818775E-02 
442	 6,18837656052868E-02 
443	 5,65947222762751E-02 
444	 5,23647540524046E-02 
445	 5,76090678466515E-02 
446	 6,31367927010906E-02 
447	 6,33333605496028E-02 
448	 6,27900894023085E-02 
449	 6,13776743785616E-02 
450	 5,72402696651177E-02 
451	 5,76598637891922E-02 
452	 6,25529993536863E-02 
453	 6,01950432580091E-02 
454	 5,75534564958579E-02 
455	 0,061223713089939 
456	 6,40168949886324E-02 
457	 6,40972540703855E-02 
458	 6,01095954087819E-02 
459	 5,77143611467796E-02 
460	 5,89133083855886E-02 
461	 0,058471588559847 
462	 5,75408396760395E-02 
463	 5,83096041156104E-02 
464	 5,89099149063483E-02 
465	 5,93807746411881E-02 
466	 6,19686683681402E-02 
467	 6,24925099262448E-02 
468	 5,87916071141934E-02 
469	 5,79940945215965E-02 
470	 5,86781401739151E-02 
471	 5,55379525716398E-02 
472	 5,51146905276749E-02 
473	 5,82073419567135E-02 
474	 0,058358223638167 
475	 5,66858687811287E-02 
476	 5,48210794157997E-02 
477	 5,61798655542499E-02 
478	 5,91071029456015E-02 
479	 5,68141137158495E-02 
480	 5,52672133584782E-02 
481	 5,66357721526598E-02 
482	 5,51407679055894E-02 
483	 0,053126470208079 
484	 5,49063160910416E-02 
485	 5,68098724398131E-02 
486	 0,057606422092765 
487	 5,64677112894443E-02 
488	 0,056256375752838 
489	 5,88188575066123E-02 
490	 0,059651042508472 
491	 5,85493575750485E-02 
492	 5,66231954403359E-02 
493	 5,52007949327063E-02 
494	 5,49468950377522E-02 
495	 5,58120760247136E-02 
496	 5,64426176305906E-02 
497	 5,53991324117276E-02 
498	 5,58172357703395E-02 
499	 5,68720698437545E-02 
500	 5,34471764520389E-02 
501	 0,051699085815005 
502	 5,45443747263569E-02 
503	 5,49558083117442E-02 
504	 5,40460174280713E-02 
505	 5,54000661498781E-02 
506	 5,67521769112719E-02 
507	 5,70486585527103E-02 
508	 5,45757896201544E-02 
509	 5,28509220644648E-02 
510	 5,48974224569509E-02 
511	 5,60900096624413E-02 
512	 5,59360752829798E-02 
513	 5,56418201447217E-02 
514	 5,51121074900202E-02 
515	 5,45952510971881E-02 
516	 5,53949920484683E-02 
517	 5,67630087210582E-02 
518	 5,75334218689828E-02 
519	 5,80603396834079E-02 
520	 5,81348031962119E-02 
521	 0,056572933504264 
522	 5,59958098977011E-02 
523	 5,79668195934579E-02 
524	 5,75618674445637E-02 
525	 5,58216179649611E-02 
526	 5,68572280890267E-02 
527	 5,81107979328915E-02 
528	 5,86885692901638E-02 
529	 5,86548713343701E-02 
530	 5,84119156650463E-02 
531	 5,84201408406324E-02 
532	 5,85846661240988E-02 
533	 5,88912838511784E-02 
534	 5,93531084512685E-02 
535	 0,059698235643877 
536	 5,98210955522989E-02 
537	 6,03475697147821E-02 
538	 6,09428561797138E-02 
539	 6,08217184421675E-02 
540	 6,08615610517721E-02 
541	 6,14600285767742E-02 
542	 6,30513800395956E-02 
543	 6,45345028785344E-02 
544	 6,48654584526129E-02 
545	 6,52598816856117E-02 
546	 6,60042215939824E-02 
547	 6,72015056350701E-02 
548	 6,81194533966055E-02 
549	 6,85326686407778E-02 
550	 6,96258770878287E-02 
551	 7,11635726808887E-02 
552	 0,072579082384487 
553	 0,073982293925284 
554	 7,52754188819216E-02 
555	 7,60943601437916E-02 
556	 7,68755491583782E-02 
557	 7,80447670729949E-02 
558	 8,02488107906526E-02 
559	 8,27204506906403E-02 
560	 8,32882617133968E-02 
561	 8,40332879897531E-02 
562	 8,56683248323302E-02 
563	 8,70803734896188E-02 
564	 8,82772558030331E-02 
565	 8,93989450772045E-02 
566	 9,03884121136112E-02 
567	 9,11404328770526E-02 
568	 9,14193442497465E-02 
569	 0,0912169195471 
570	 9,06515940265946E-02 
571	 9,07326996296711E-02 
572	 9,14696876536416E-02 
573	 9,28000207197278E-02 
574	 9,21305922108621E-02 
575	 8,93462207211514E-02 
576	 8,94101909837572E-02 
577	 9,00787487373403E-02 
578	 8,84967672254885E-02 
579	 8,81523608548175E-02 
580	 8,90210543878662E-02 
581	 8,86583391361635E-02 
582	 8,76048584313973E-02 
583	 8,63003046880337E-02 
584	 8,57833183029637E-02 
585	 8,57533939438793E-02 
586	 8,54356811482053E-02 
587	 8,47746930397749E-02 
588	 8,39898404413513E-02 
589	 8,41344732225276E-02 
590	 8,47284007517954E-02 
591	 8,52641347752356E-02 
592	 8,57219948884793E-02 
593	 8,61969259239208E-02 
594	 8,70693066177176E-02 
595	 8,77385868825155E-02 
596	 8,79961256696758E-02 
597	 8,85457908095877E-02 
598	 8,91937775458912E-02 
599	 8,95517285047681E-02 
600	 8,96693304374488E-02 
601	 8,95913522297702E-02 
602	 0,089637648498926 
603	 8,89774908247686E-02 
604	 8,70747292832775E-02 
605	 8,57566522913451E-02 
606	 0,084736244367877 
607	 8,24024372743774E-02 
608	 8,03177493643725E-02 
609	 7,89052457051168E-02 
610	 7,67261853217138E-02 
611	 7,49343401010539E-02 
612	 7,50502769332815E-02 
613	 7,44563991290481E-02 
614	 7,27712741197188E-02 
615	 7,10350866947795E-02 
616	 6,96433744361503E-02 
617	 6,88651319940167E-02 
618	 0,068387896727356 
619	 6,80348451950843E-02 
620	 6,75880282024028E-02 
621	 6,71883949686281E-02 
622	 6,68697865605936E-02 
623	 6,65614335796944E-02 
624	 6,64091181795991E-02 
625	 6,65518697623099E-02 
626	 6,66670386938413E-02 
627	 6,65792037666338E-02 
628	 6,60329023259838E-02 
629	 6,54473929835498E-02 
630	 6,50589493599915E-02 
631	 6,46407886703459E-02 
632	 6,46149088133278E-02 
633	 6,57211300419953E-02 
634	 6,63411150595876E-02 
635	 6,61818061150881E-02 
636	 6,61970455033789E-02 
637	 6,65884888049296E-02 
638	 6,74576436975524E-02 
639	 6,80903723571791E-02 
640	 6,84827005301656E-02 
641	 6,89244719370724E-02 
642	 6,98326112730921E-02 
643	 7,11529439498288E-02 
644	 7,14118064569064E-02 
645	 0,071358274190091 
646	 7,21439956756198E-02 
647	 7,20534038206714E-02 
648	 7,09863579016667E-02 
649	 7,02005855367345E-02 
650	 6,91787847010228E-02 
651	 6,75554320349122E-02 
652	 6,51740804774812E-02 
653	 6,28596620680178E-02 
654	 6,23128475223937E-02 
655	 6,13561627539914E-02 
656	 5,94889369831601E-02 
657	 5,81341825640084E-02 
658	 5,71175480921762E-02 
659	 5,61709453501569E-02 
660	 5,52243488215373E-02 
661	 5,43709086954505E-02 
662	 0,053911119136388 
663	 5,37091376972941E-02 
664	 5,37004972530812E-02 
665	 0,054023107574401 
666	 5,42533113942513E-02 
667	 0,053702356821949 
668	 5,37653550658521E-02 
669	 5,46656130361215E-02 
670	 5,55266780794307E-02 
671	 5,65089720926993E-02 
672	 5,76452199770332E-02 
673	 5,76519144120564E-02 
674	 5,69714348237042E-02 
675	 5,70639026596215E-02 
676	 0,057764611989565 
677	 5,88581297141254E-02 
678	 5,92218384958837E-02 
679	 5,94293933917018E-02 
680	 6,02664035672049E-02 
681	 6,09546720421541E-02 
682	 0,061348510479397 
683	 6,15665324007747E-02 
684	 6,18396793951028E-02 
685	 6,23333444009454E-02 
686	 6,30782021923302E-02 
687	 6,39235966729374E-02 
688	 6,44995414413869E-02 
689	 0,066146623556665 
690	 6,89159319792597E-02 
691	 7,07846136636809E-02 
692	 7,36882464924294E-02 
693	 7,93534034828249E-02 
694	 8,58966507581952E-02 
695	 9,32436562357282E-02 
696	 0,101987544240793 
697	 0,112704958214005 
698	 0,125408310510074 
699	 0,13859531788026 
700	 0,152519054305418 
701	 0,167689435986877 
702	 0,183196499367174 
703	 0,198907229944804 
704	 0,215387961381886 
705	 0,231915767136694 
706	 0,248006073232585 
707	 0,264005309812065 
708	 0,279920314509891 
709	 0,295638236212515 
710	 0,31109031286385 
711	 0,326273195914432 
712	 0,34124153956965 
713	 0,355950942541624 
714	 0,370360886389683 
715	 0,383818434531211 
716	 0,396503569780048 
717	 0,409244556633043 
718	 0,421606455595148 
719	 0,433327063327494 
720	 0,443842248514466 
721	 0,453511717149925 
722	 0,462921474025277 
723	 0,472344576651712 
724	 0,481622321387665 
725	 0,490052536320336 
726	 0,49784275888802 
727	 0,505045155168578 
728	 0,511094222648669 
729	 0,516509400316982 
730	 0,522310883002129 
731	 0,527670105513177 
732	 0,53235923234415 
733	 0,536527581512232 
734	 0,540261376629477 
735	 0,543659684297298 
736	 0,547095806716734 
737	 0,550358473990073 
738	 0,552734327006042 
739	 0,554826959495462 
740	 0,556853388919031 
741	 0,558605133244485 
742	 0,56020940546795 
743	 0,561816146780715 
744	 0,563009536066861 
745	 0,563865349213355 
746	 0,564868959136398 
747	 0,565934085928903 
748	 0,566947358506517 
749	 0,567387702177214 
750	 0,56766090374873 
751	 0,568488578222991 
752	 0,568962343156648 
753	 0,569013856636779 
754	 0,569362412600961 
755	 0,569747420276124 
756	 0,569963311511459 
757	 0,570001508973347 
758	 0,569925182876595 
759	 0,569833822380753 
760	 0,569984088233402 
761	 0,570330429096203 
762	 0,570264731334757 
763	 0,569907181524269 
764	 0,569427664402128 
765	 0,569165767681394 
766	 0,569054482395949 
767	 0,56870241214683 
768	 0,568382154596476 
769	 0,568197491691521 
770	 0,568058672362179 
771	 0,568062889059483 
772	 0,568312931352399 
773	 0,567964528050558 
774	 0,567233427576757 
775	 0,567391673695633 
776	 0,567571377759666 
777	 0,56734268873313 
778	 0,567054175678797 
779	 0,566813292602409 
780	 0,566717756802774 
781	 0,566678352116905 
782	 0,566686973276118 
783	 0,566800971347075 
784	 0,566998101888618 
785	 0,567185453903579 
786	 0,566738928779547 
787	 0,566099540017239 
788	 0,566187720915282 
789	 0,566362118875207 
790	 0,566450752270261 
791	 0,566584735181968 
792	 0,566676912881654 
793	 0,566664269080086 
794	 0,566662628537307 
795	 0,566682081102374 
796	 0,566693633773323 
797	 0,566721147959622 
798	 0,566787706887598 
799	 0,567002937674587 
800	 0,56705596332226 
801	 0,566679463872565 
802	 0,566338723577591 
803	 0,566156444123976 
804	 0,566175054766175 
805	 0,566265965602691 
806	 0,566381496216682 
807	 0,566645584298646 
808	 0,566694529058143 
809	 0,566198276895824 
810	 0,566583875074157 
811	 0,567531051046729 
812	 0,567297589414491 
813	 0,567016758637004 
814	 0,567118788180046 
815	 0,567170590116759 
816	 0,567180424595474 
817	 0,567200932675913 
818	 0,567496167070606 
819	 0,567956224224226 
820	 0,568093369159739 
821	 0,568151497252216 
822	 0,568228870937951 
823	 0,568231109611114 
824	 0,568106602352216 
825	 0,567805355528019 
826	 0,567572848814351 
827	 0,567442917312757 
828	 0,567328145399042 
829	 0,567023128067419 
830	 0,566561222210658 
831	 0,56695289009958 
832	 0,567484539922187 
833	 0,567060406552765 
834	 0,566968100207923 
835	 0,567131567059753 
836	 0,566154098867072 
837	 0,565545141363863 
838	 0,566017115788741 
839	 0,566317111565048 
840	 0,566329076205589 
841	 0,566109378962198 
842	 0,565571305219117 
843	 0,565103516695694 
844	 0,566056927325608 
845	 0,566520142434755 
846	 0,565669395139733 
847	 0,565806653274932 
848	 0,566388238174647 
849	 0,566292276927211 
850	 0,566217503617729 
851	 0,566343112900931 
852	 0,566759391985026 
853	 0,566925047574352 
854	 0,566580904678162 
855	 0,566226705803571 
856	 0,565899332878145 
857	 0,565562097476991 
858	 0,565923503732353 
859	 0,566805153945783 
860	 0,567199890480864 
861	 0,566899682361983 
862	 0,566030490822987 
863	 0,566137724002424 
864	 0,567001689590731 
865	 0,568074495234846 
866	 0,568359015581893 
867	 0,568012248031948 
868	 0,568524765368772 
869	 0,568270343355168 
870	 0,566859894924336 
871	 0,566831546984465 
872	 0,567372224892248 
873	 0,567222651796635 
874	 0,566820445719951 
875	 0,566373661711702 
876	 0,566196327202415 
877	 0,566303024769496 
878	 0,56664038477489 
879	 0,566947028214535 
880	 0,566765832321329 
881	 0,565745668010741 
882	 0,565924461760473 
883	 0,566901052966165 
884	 0,566526289476727 
885	 0,565868156435358 
886	 0,565420002724398 
887	 0,56575683413934 
888	 0,566071060222704 
889	 0,565624086746128 
890	 0,565402428092909 
891	 0,56554913492067 
892	 0,565995823710359 
893	 0,566297149044239 
894	 0,566298809975544 
895	 0,566171508346767 
896	 0,565956771521268 
897	 0,565712632017817 
898	 0,565604524607615 
899	 0,565716290047103 
900	 0,566136532721581 
901	 0,566545818391279 
902	 0,566766939148981 
903	 0,56660799290348 
904	 0,566377571998707 
905	 0,566278836757605 
906	 0,566327482941528 
907	 0,565973869281324 
908	 0,564469815970485 
909	 0,564587710443607 
910	 0,565956611289273 
911	 0,565090182267626 
912	 0,564487175377457 
913	 0,565066927426358 
914	 0,564821441802597 
915	 0,564516276432513 
916	 0,565099633289927 
917	 0,564834437665448 
918	 0,56394183324607 
919	 0,563822605914699 
920	 0,563965799103072 
921	 0,564123368066083 
922	 0,563892943080576 
923	 0,563628028213883 
924	 0,563566970936662 
925	 0,562888008696391 
926	 0,561816077804132 
927	 0,560991907831902 
928	 0,559978769579914 
929	 0,558937440888428 
930	 0,558765110273391 
931	 0,558869156867559 
932	 0,558813268491593 
933	 0,558369723273405 
934	 0,55760388782925 
935	 0,55667243428721 
936	 0,556535127818668 
937	 0,556487864269155 
938	 0,553672437874953 
939	 0,55237085881303 
940	 0,553342248458063 
941	 0,551209256071695 
942	 0,54913545360633 
943	 0,549908671044325 
944	 0,549642240087147 
945	 0,548236141823607 
946	 0,546706601139536 
947	 0,545900070063759 
948	 0,54527741209242 
949	 0,541712250645935 
950	 0,538573456501341 
951	 0,537644670882559 
952	 0,536732172969514 
953	 0,535537116963172 
954	 0,533976908068311 
955	 0,531958077918079 
956	 0,529828978943803 
957	 0,52835402781468 
958	 0,527619819104253 
959	 0,527513760078818 
960	 0,527577996022883 
961	 0,526456225989728 
962	 0,523502448301021 
963	 0,521956349126015 
964	 0,522001314021932 
965	 0,523080661564804 
966	 0,524618207541243 
967	 0,525329084970334 
968	 0,52197733415445 
969	 0,519486636382728 
970	 0,51980680181579 
971	 0,520449314011149 
972	 0,520394194041059 
973	 0,51907202626754 
974	 0,519311219601698 
975	 0,520409388800182 
976	 0,520259504761415 
977	 0,520064725292781 
978	 0,519963414204896 
979	 0,519241112175018 
980	 0,519083325645593 
981	 0,520144068609914 
982	 0,522688940958548 
983	 0,523916714398759 
984	 0,521406380788275 
985	 0,521170226296967 
986	 0,522613171345007 
987	 0,522250383450519 
988	 0,522971869265808 
989	 0,525111162053072 
990	 0,527263304945314 
991	 0,527598181878739 
992	 0,525844333410426 
993	 0,5267444413861 
994	 0,528292235306231 
995	 0,528139161387133 
996	 0,528726250754527 
997	 0,529908086797709 
998	 0,53047543473958 
999	 0,533579118127007 
1000	 0,5378960131916 
1001	 0,535860824157881 
1002	 0,533793615509634 
1003	 0,534832165107709 
1004	 0,536473923086721 
1005	 0,538100298733162 
1006	 0,539138728155116 
1007	 0,538227583496566 
1008	 0,537564922503341 
1009	 0,541285226272799 
1010	 0,545037771961171 
1011	 0,547101999910126 
1012	 0,546680614838289 
1013	 0,544301674105477 
1014	 0,541315490698551 
1015	 0,542435924557178 
1016	 0,544366401555892 
1017	 0,544508687269759 
1018	 0,548393081597389 
1019	 0,553348810001276 
1020	 0,554305509647341 
1021	 0,552275776471848 
1022	 0,550414494746593 
1023	 0,557002629748112 
1024	 0,560772931938594 
1025	 0,558925268664081 
1026	 0,557946407481163 
1027	 0,559873414302036 
1028	 0,564479915576458 
1029	 0,56049658502101 
1030	 0,556979229365503 
1031	 0,564871951243055 
1032	 0,566254816377298 
1033	 0,562279401840721 
1034	 0,562496552618797 
1035	 0,561376397441371 
1036	 0,560125945974207 
1037	 0,568094040523963 
1038	 0,572453956040198 
1039	 0,56878696025623 
1040	 0,56891558834243 
1041	 0,569809310577287 
1042	 0,568454006928303 
1043	 0,564964641854789 
1044	 0,563452912325172 
1045	 0,568603127377317 
1046	 0,566677099881298 
1047	 0,562005481318613 
1048	 0,572255409434067 
1049	 0,576631247979843 
1050	 0,572367019527118 
1051	 0,575490629407815 
1052	 0,580286058272344 
1053	 0,58297391268841 
1054	 0,579016227207645 
1055	 0,574644903246254 
1056	 0,575450332629994 
1057	 0,577937512151858 
1058	 0,577900806273255 
1059	 0,571097261148912 
1060	 0,5810748307703 
1061	 0,596391123160777 
1062	 0,581258831029997 
1063	 0,580066512915581 
1064	 0,595653074034512 
1065	 0,585529018420051 
1066	 0,57812075514485 
1067	 0,583277527578062 
1068	 0,583483427274054 
1069	 0,584103576149947 
1070	 0,587917121169124 
1071	 0,579021430827056 
1072	 0,572031674456795 
1073	 0,584555007936677 
1074	 0,591817430208349 
1075	 0,591136726259897 
