Wavelength	GRA-VAN00527.asd
325	 0,344190962209171 
326	 0,241400848135526 
327	 0,249269182497798 
328	 0,388629064247418 
329	 0,198823488992636 
330	-3,41916964805724E-02 
331	 0,173897900153196 
332	 0,226288918927977 
333	 0,198025816249051 
334	 0,172082452950715 
335	 0,156631377115618 
336	 0,165115978809507 
337	 0,186397244393661 
338	 0,201524588228349 
339	 0,193167077378019 
340	 0,183536213643783 
341	 0,173069577204078 
342	 0,14086101955392 
343	 0,100719131575198 
344	 8,14298970841922E-02 
345	 9,99871537856851E-02 
346	 0,135280064909532 
347	 0,152985319072948 
348	 8,48132523817698E-02 
349	-1,85006817357367E-02 
350	 4,91517361661646E-02 
351	 0,103402276977282 
352	 7,97979629876182E-02 
353	 6,78647708597931E-02 
354	 6,89697108549441E-02 
355	 8,02332227152618E-02 
356	 0,089539483235439 
357	 8,62286063857638E-02 
358	 4,03923528373786E-02 
359	 0,036537552301393 
360	 0,100645733745134 
361	 0,103947638911617 
362	 7,92939854107055E-02 
363	 8,35834439060711E-02 
364	 9,66676539456699E-02 
365	 0,108865075906902 
366	 0,102000225227308 
367	 8,67090144163819E-02 
368	 7,17845694741978E-02 
369	 6,92048047556665E-02 
370	 6,81974213140284E-02 
371	 4,52402230874243E-02 
372	 3,71165673976622E-02 
373	 4,89921440594848E-02 
374	 4,86421210922647E-02 
375	 4,93884750853867E-02 
376	 6,05965402891647E-02 
377	 6,97371532547615E-02 
378	 7,01473159275218E-02 
379	 4,78374437307563E-02 
380	 0,042674340550171 
381	 6,05513569745739E-02 
382	 0,067407092924384 
383	 6,50707274654964E-02 
384	 5,79439394313428E-02 
385	 5,90979730834657E-02 
386	 6,20383990049685E-02 
387	 4,10590334742471E-02 
388	 3,11256655492186E-02 
389	 0,044133785553578 
390	 5,09698382599429E-02 
391	 5,09752246488731E-02 
392	 0,046415338851479 
393	 0,048348462964357 
394	 5,63058074163326E-02 
395	 6,35687431948449E-02 
396	 5,71099905884538E-02 
397	 0,035572113743259 
398	 4,01765287814035E-02 
399	 0,050950583965677 
400	 3,10118126796925E-02 
401	 3,24282264328817E-02 
402	 5,56552886588069E-02 
403	 5,78699278446945E-02 
404	 4,36231004309866E-02 
405	 2,01928931862014E-02 
406	 2,58777068155659E-02 
407	 4,48155801381575E-02 
408	 3,61118965484741E-02 
409	 0,03514201479937 
410	 4,64629183478441E-02 
411	 4,21351528531641E-02 
412	 3,43796155455065E-02 
413	 3,55318739415469E-02 
414	 3,78438997432251E-02 
415	 3,89157622272966E-02 
416	 0,036244368488649 
417	 3,29565166993073E-02 
418	 3,11511288139164E-02 
419	 0,033357906397565 
420	 3,82795396227242E-02 
421	 4,43759033938633E-02 
422	 4,30422087820289E-02 
423	 3,53450597737465E-02 
424	 3,11414507747539E-02 
425	 3,04616053382002E-02 
426	 3,30758471787852E-02 
427	 3,73441181506643E-02 
428	 3,97226894140882E-02 
429	 0,034723268487138 
430	 3,02360884143969E-02 
431	 2,87662407598107E-02 
432	 2,87604346965325E-02 
433	 3,18653456116811E-02 
434	 3,86888733529799E-02 
435	 3,60276821649384E-02 
436	 2,72261369253263E-02 
437	 0,02670545321553 
438	 2,88070443362875E-02 
439	 3,11002358120103E-02 
440	 3,21478147478232E-02 
441	 3,26891597129229E-02 
442	 3,38975976377279E-02 
443	 3,37052033340433E-02 
444	 3,24473664442888E-02 
445	 3,26968491099607E-02 
446	 3,34585766879115E-02 
447	 3,40103662645868E-02 
448	 3,37825625348223E-02 
449	 3,32916298024479E-02 
450	 3,34608337642096E-02 
451	 3,57947712143876E-02 
452	 3,93116417165066E-02 
453	 0,03798819252837 
454	 3,45821648209598E-02 
455	 0,032244003881676 
456	 3,66930531552084E-02 
457	 4,30697408706459E-02 
458	 3,50483059825983E-02 
459	 3,11816595523325E-02 
460	 3,75107570254034E-02 
461	 3,71218251962794E-02 
462	 3,40168903755024E-02 
463	 3,55581752929356E-02 
464	 3,42955292535039E-02 
465	 3,04549785571408E-02 
466	 0,030624942689892 
467	 3,31715156211868E-02 
468	 3,66369713914537E-02 
469	 0,038878528818007 
470	 3,84765537635075E-02 
471	 3,29554782665323E-02 
472	 3,12769554493364E-02 
473	 3,48753411275486E-02 
474	 3,44666959425139E-02 
475	 3,31911715675924E-02 
476	 3,45860963860279E-02 
477	 3,67840850754431E-02 
478	 3,87457958344648E-02 
479	 0,039062707557889 
480	 3,80471870705966E-02 
481	 3,62060179388536E-02 
482	 3,56386474875083E-02 
483	 3,61105191486432E-02 
484	 3,69253694767618E-02 
485	 3,69541405627634E-02 
486	 3,62352710083422E-02 
487	 0,036523653921457 
488	 3,62308995944721E-02 
489	 3,43381749911113E-02 
490	 3,35329872661455E-02 
491	 0,033746038129867 
492	 3,34650348412997E-02 
493	 3,48605463463211E-02 
494	 3,79452745201967E-02 
495	 3,94103766983356E-02 
496	 3,80536484379323E-02 
497	 3,30161589723336E-02 
498	 3,30240178677557E-02 
499	 3,73974237836587E-02 
500	 3,75937700556351E-02 
501	 0,036760262244805 
502	 3,65595139212169E-02 
503	 3,56675972665133E-02 
504	 3,48557777815838E-02 
505	 3,56077484523156E-02 
506	 3,68492033299403E-02 
507	 3,80123694583627E-02 
508	 3,86070911146137E-02 
509	 3,78449404009725E-02 
510	 3,53050368416824E-02 
511	 3,56151324621013E-02 
512	 3,76415166966931E-02 
513	 0,035687045255334 
514	 3,54030896170898E-02 
515	 3,85741855819734E-02 
516	 4,02441631653575E-02 
517	 4,02999227708139E-02 
518	 3,93009319349407E-02 
519	 3,93100957601738E-02 
520	 4,02363710574873E-02 
521	 3,95230417901067E-02 
522	 3,81614581295616E-02 
523	 3,70765860531547E-02 
524	 3,75421991379768E-02 
525	 3,90099900524659E-02 
526	 4,00530929586522E-02 
527	 3,98293757713561E-02 
528	 0,038430339185222 
529	 3,83459350364538E-02 
530	 3,90350200430096E-02 
531	 3,96348228474669E-02 
532	 3,96931758669453E-02 
533	 3,91320152994161E-02 
534	 3,78901720803656E-02 
535	 3,79400501901546E-02 
536	 4,00171827952925E-02 
537	 3,97250096985669E-02 
538	 3,82714301451932E-02 
539	 3,89681094883319E-02 
540	 3,99048328895387E-02 
541	 4,03519433585124E-02 
542	 3,96893101962859E-02 
543	 3,90370195185773E-02 
544	 3,94635282207104E-02 
545	 3,93649878729691E-02 
546	 3,88709281704724E-02 
547	 3,92102593823217E-02 
548	 3,99095329292185E-02 
549	 4,06068690426855E-02 
550	 4,04504005998522E-02 
551	 4,01011527075285E-02 
552	 4,07454428207874E-02 
553	 4,11976989566629E-02 
554	 4,10843981146244E-02 
555	 4,03440595866978E-02 
556	 3,97143924607569E-02 
557	 3,98205769684183E-02 
558	 4,05238011827184E-02 
559	 4,12966522385313E-02 
560	 4,09180689134454E-02 
561	 4,06208929519254E-02 
562	 4,08154960079971E-02 
563	 4,07569542858475E-02 
564	 4,04758744109518E-02 
565	 4,00925978317984E-02 
566	 4,00725375750222E-02 
567	 4,04393036127327E-02 
568	 4,08282457422598E-02 
569	 4,10137417935268E-02 
570	 4,08611836671818E-02 
571	 4,07143767684358E-02 
572	 4,07440559040322E-02 
573	 4,11471930337361E-02 
574	 4,17878801979394E-02 
575	 4,25048457303048E-02 
576	 4,28558373008203E-02 
577	 4,30374240733013E-02 
578	 4,33051382501601E-02 
579	 4,33115882496017E-02 
580	 4,33135051850689E-02 
581	 4,45098147892413E-02 
582	 4,47279764392522E-02 
583	 4,31647670959345E-02 
584	 4,40367019332827E-02 
585	 4,60903899289141E-02 
586	 4,62138963545131E-02 
587	 4,56613800543372E-02 
588	 4,51309518705161E-02 
589	 4,61103861027881E-02 
590	 4,71880515368355E-02 
591	 4,70250611288434E-02 
592	 4,67867897789333E-02 
593	 4,67316606499214E-02 
594	 4,69302031236879E-02 
595	 4,70042846010521E-02 
596	 4,68691161244499E-02 
597	 0,047337266937867 
598	 4,77939750225149E-02 
599	 4,72021445078419E-02 
600	 4,68457783636231E-02 
601	 4,69770154856504E-02 
602	 4,70469292457672E-02 
603	 4,70766769368965E-02 
604	 4,70328977899011E-02 
605	 4,62068025302223E-02 
606	 4,51704124460862E-02 
607	 4,56028355221346E-02 
608	 4,60345664202184E-02 
609	 0,045907438428075 
610	 4,54782919780336E-02 
611	 4,50842849653431E-02 
612	 0,045109434778815 
613	 0,045183195256164 
614	 4,51646073933253E-02 
615	 4,48713308613514E-02 
616	 4,47982707098447E-02 
617	 4,52134122199059E-02 
618	 4,55250142795384E-02 
619	 4,55100758748642E-02 
620	 4,48790381771679E-02 
621	 4,45363427570302E-02 
622	 4,47104438253637E-02 
623	 4,47669560194063E-02 
624	 0,044813238571346 
625	 4,50012411287885E-02 
626	 4,54651547529978E-02 
627	 4,60579560395922E-02 
628	 4,64101434771555E-02 
629	 4,61337739956091E-02 
630	 4,52743322980464E-02 
631	 4,57580365281837E-02 
632	 4,67376536932922E-02 
633	 4,64680247684094E-02 
634	 4,63175245953043E-02 
635	 4,65404641147167E-02 
636	 4,64549729683472E-02 
637	 4,65843372771653E-02 
638	 4,73222261748552E-02 
639	 4,76375242497035E-02 
640	 4,76054028169407E-02 
641	 4,79458423058433E-02 
642	 4,81542030899159E-02 
643	 4,81381277727582E-02 
644	 4,85332706298542E-02 
645	 4,91145114148603E-02 
646	 4,95236041979285E-02 
647	 4,93632367304689E-02 
648	 4,87095779698114E-02 
649	 4,81310922113957E-02 
650	 4,79847511205149E-02 
651	 4,83917299840057E-02 
652	 4,79696133514003E-02 
653	 0,047370519456192 
654	 4,85123135257299E-02 
655	 4,85652847498011E-02 
656	 4,69489696986189E-02 
657	 4,57678165028834E-02 
658	 4,52945788616849E-02 
659	 0,045618764814443 
660	 4,54563959627003E-02 
661	 4,47046738856093E-02 
662	 4,39422444475098E-02 
663	 0,043434995260288 
664	 4,33462906162343E-02 
665	 4,36320445207101E-02 
666	 4,37590453544839E-02 
667	 4,29128520008964E-02 
668	 4,25109542024327E-02 
669	 0,042732491640016 
670	 0,042489716962657 
671	 4,23335762018443E-02 
672	 4,26821566178672E-02 
673	 4,28579759271263E-02 
674	 4,27995772733966E-02 
675	 4,26355516196003E-02 
676	 4,25349461600718E-02 
677	 4,26090107749515E-02 
678	 4,29552767990261E-02 
679	 4,34088184553169E-02 
680	 4,37638644114084E-02 
681	 4,36114469546619E-02 
682	 4,31968622712485E-02 
683	 0,043518580752904 
684	 4,43503518772994E-02 
685	 4,53971226170335E-02 
686	 4,54088087697102E-02 
687	 4,50905736395907E-02 
688	 4,60230556473678E-02 
689	 4,65734328240351E-02 
690	 4,66546084099685E-02 
691	 4,79626908798628E-02 
692	 4,99310515907898E-02 
693	 5,19649536449687E-02 
694	 0,05379692675419 
695	 0,055641914296196 
696	 5,82031223419662E-02 
697	 6,10971729653509E-02 
698	 6,41560458573263E-02 
699	 6,72225210615665E-02 
700	 7,08416098010932E-02 
701	 7,57071111384731E-02 
702	 8,04134183509024E-02 
703	 8,45574150713404E-02 
704	 8,81245933689279E-02 
705	 9,21573885651939E-02 
706	 9,71159009247601E-02 
707	 0,100788848075671 
708	 0,103989562650685 
709	 0,108847979113288 
710	 0,113246306569048 
711	 0,116644137248027 
712	 0,119794147511847 
713	 0,122916366438547 
714	 0,126159457186743 
715	 0,129071395875676 
716	 0,131659045400381 
717	 0,134208899784026 
718	 0,136389245263338 
719	 0,138191051782168 
720	 0,140357473640438 
721	 0,142523142310347 
722	 0,144143587088567 
723	 0,145642405111088 
724	 0,147098067856141 
725	 0,14838105869076 
726	 0,149614244735943 
727	 0,150883697369525 
728	 0,152201123841184 
729	 0,153460921903677 
730	 0,154523952569244 
731	 0,154997216924427 
732	 0,155035400618854 
733	 0,155782585524534 
734	 0,156759245529795 
735	 0,157497792122869 
736	 0,158042708160136 
737	 0,158452101792552 
738	 0,158825796173402 
739	 0,159459857443565 
740	 0,160313428705112 
741	 0,160429121800058 
742	 0,160426556437614 
743	 0,161090906664638 
744	 0,161368048183411 
745	 0,16131931954725 
746	 0,161903485820105 
747	 0,16238504623555 
748	 0,162425831062842 
749	 0,162592928703401 
750	 0,162926291459321 
751	 0,163391818123017 
752	 0,163596859817838 
753	 0,163544234674354 
754	 0,163706333937156 
755	 0,163927929122522 
756	 0,16411878078259 
757	 0,164622128913853 
758	 0,165145926199164 
759	 0,165004144923307 
760	 0,16484364865919 
761	 0,164930593669275 
762	 0,165384236807378 
763	 0,165878898200188 
764	 0,166087706166669 
765	 0,165899131369472 
766	 0,165593860684248 
767	 0,165964777334423 
768	 0,166184335503706 
769	 0,166068732473985 
770	 0,166575208597902 
771	 0,167249179199867 
772	 0,167469599514489 
773	 0,167427245308585 
774	 0,167310815665713 
775	 0,167575467307691 
776	 0,167762993495288 
777	 0,167696720825592 
778	 0,167935376709004 
779	 0,168246323875469 
780	 0,16820763002946 
781	 0,168093589992987 
782	 0,168054093660609 
783	 0,168349253703801 
784	 0,16860966666114 
785	 0,168594910787735 
786	 0,168451153856406 
787	 0,168489660417226 
788	 0,169240861914775 
789	 0,16966204465246 
790	 0,169577856522414 
791	 0,169780488917215 
792	 0,169875662154208 
793	 0,169584871727278 
794	 0,169514933055938 
795	 0,169757792871088 
796	 0,170333497045301 
797	 0,170478912516943 
798	 0,170162752756499 
799	 0,170676297575419 
800	 0,171276148969201 
801	 0,171214755508127 
802	 0,170817829602331 
803	 0,170484696419633 
804	 0,171151101586413 
805	 0,171286025857754 
806	 0,170638407162779 
807	 0,171264594629414 
808	 0,171939241162419 
809	 0,171286462667085 
810	 0,171306434106147 
811	 0,172045824821559 
812	 0,1724618718896 
813	 0,17280913742861 
814	 0,173081394010356 
815	 0,172814654566036 
816	 0,172511532929764 
817	 0,172787569063957 
818	 0,172756350315985 
819	 0,172520602756405 
820	 0,173001131527393 
821	 0,173458514391569 
822	 0,173556355727232 
823	 0,173627999319327 
824	 0,173658581080288 
825	 0,173596696198258 
826	 0,173981932832383 
827	 0,174555735269053 
828	 0,174032117689292 
829	 0,173812779507646 
830	 0,174461787827332 
831	 0,174458611327784 
832	 0,17413019093773 
833	 0,174140081733966 
834	 0,174378993830213 
835	 0,174807668015935 
836	 0,175388756491869 
837	 0,175777847712297 
838	 0,175752530061286 
839	 0,175297136784579 
840	 0,17479497183098 
841	 0,174762492930073 
842	 0,174911719057767 
843	 0,17512968083877 
844	 0,175300829115123 
845	 0,175472057190309 
846	 0,175637264794342 
847	 0,175567626495474 
848	 0,175559810553727 
849	 0,176051974578244 
850	 0,176290302891395 
851	 0,176120327356958 
852	 0,175666473586868 
853	 0,175502692663336 
854	 0,175892553777547 
855	 0,176296807864135 
856	 0,176240477979675 
857	 0,175199496989212 
858	 0,175108049092362 
859	 0,176009972165005 
860	 0,176423284450887 
861	 0,176485279960546 
862	 0,176302020430858 
863	 0,176334025040538 
864	 0,176387391894227 
865	 0,176148885205121 
866	 0,176319522398982 
867	 0,176810692419655 
868	 0,176838417782413 
869	 0,17683427361108 
870	 0,17697925355595 
871	 0,177132466071196 
872	 0,177089354111776 
873	 0,176650436936724 
874	 0,176770928404845 
875	 0,177244793424995 
876	 0,176744852225688 
877	 0,176761469248881 
878	 0,177682746567325 
879	 0,177919467613461 
880	 0,177792593883281 
881	 0,177789869672202 
882	 0,177975495239407 
883	 0,178135333192487 
884	 0,177502578648788 
885	 0,177658477698835 
886	 0,178807511228027 
887	 0,178771047287668 
888	 0,178507845593081 
889	 0,178957392272904 
890	 0,178702503722197 
891	 0,17816627799265 
892	 0,178842657719717 
893	 0,179060567929723 
894	 0,178598288670828 
895	 0,179077084765337 
896	 0,179446370024429 
897	 0,178976295418493 
898	 0,179286897437436 
899	 0,179968061750305 
900	 0,179870530101109 
901	 0,179625261580532 
902	 0,179400919133338 
903	 0,179075472564747 
904	 0,17912048132569 
905	 0,17969143065917 
906	 0,179640795055475 
907	 0,179260787599757 
908	 0,179172461053229 
909	 0,179254664680589 
910	 0,179461745929738 
911	 0,179724389820414 
912	 0,179846898385357 
913	 0,179780836998506 
914	 0,179927890003085 
915	 0,179938809190911 
916	 0,179469065837311 
917	 0,180217429759651 
918	 0,181517729381863 
919	 0,1808346223919 
920	 0,180208264623084 
921	 0,180187219121953 
922	 0,17972813222061 
923	 0,179593037602263 
924	 0,180312800331681 
925	 0,180375867555322 
926	 0,179937014076518 
927	 0,17972315549572 
928	 0,179569408853243 
929	 0,179560005042663 
930	 0,18015634340022 
931	 0,180235093685228 
932	 0,179374308009304 
933	 0,179674071140995 
934	 0,180040166884342 
935	 0,178841112570248 
936	 0,177925748622905 
937	 0,17775548719381 
938	 0,17851071781691 
939	 0,178378088796625 
940	 0,177242074926004 
941	 0,178621631268978 
942	 0,179898394534155 
943	 0,178748524770318 
944	 0,177840288869025 
945	 0,177360480825934 
946	 0,176817846473915 
947	 0,175889847599566 
948	 0,175057016612017 
949	 0,176682578402097 
950	 0,176906487354082 
951	 0,174113129716387 
952	 0,173396407503431 
953	 0,173709651122961 
954	 0,173180662704335 
955	 0,173675314478058 
956	 0,174296540089816 
957	 0,171535770801052 
958	 0,171251812313958 
959	 0,174203483711406 
960	 0,174012399688357 
961	 0,172660461331392 
962	 0,171953114599318 
963	 0,172226891371412 
964	 0,172964551481136 
965	 0,173258826371488 
966	 0,172086642389986 
967	 0,169984196852706 
968	 0,169133037383072 
969	 0,170094643741625 
970	 0,172378479182531 
971	 0,171862915732742 
972	 0,1708372597897 
973	 0,171587399806072 
974	 0,172806335663472 
975	 0,173441307759989 
976	 0,172004303312251 
977	 0,17167810389546 
978	 0,172881496283138 
979	 0,173937248240601 
980	 0,173587951780897 
981	 0,171496576621437 
982	 0,169501761292876 
983	 0,169603644727322 
984	 0,173201742222705 
985	 0,174854288061722 
986	 0,17419717216316 
987	 0,172601389093007 
988	 0,172636115253174 
989	 0,17444327856946 
990	 0,175451412323838 
991	 0,174800173939446 
992	 0,172744515314163 
993	 0,173835187046974 
994	 0,17549370602894 
995	 0,174899766753436 
996	 0,176131654720444 
997	 0,178423895292028 
998	 0,178930881084858 
999	 0,179443129905385 
1000	 0,179779731200954 
1001	 0,177457842592149 
1002	 0,176094243362716 
1003	 0,177221013890831 
1004	 0,177818675644531 
1005	 0,178784959975238 
1006	 0,180893801301973 
1007	 0,18051152208651 
1008	 0,178538224871999 
1009	 0,177586809259594 
1010	 0,179716485140775 
1011	 0,183696626625709 
1012	 0,18398337081007 
1013	 0,181533845916515 
1014	 0,177961047966418 
1015	 0,179036560479529 
1016	 0,182630111370509 
1017	 0,186147095024932 
1018	 0,186226233998139 
1019	 0,184807370194755 
1020	 0,185628691257779 
1021	 0,185083544617978 
1022	 0,183262089156153 
1023	 0,182220980069581 
1024	 0,184041857646552 
1025	 0,188240576983578 
1026	 0,189456783169593 
1027	 0,189224392029939 
1028	 0,188790589721275 
1029	 0,188938674094344 
1030	 0,188814674180969 
1031	 0,187456411495071 
1032	 0,186946522521458 
1033	 0,188376242987718 
1034	 0,193099866592953 
1035	 0,194392415638401 
1036	 0,192900005797985 
1037	 0,199159828663933 
1038	 0,200493011986631 
1039	 0,193375613035342 
1040	 0,191042166194165 
1041	 0,193204504636446 
1042	 0,197209838903185 
1043	 0,188381714990533 
1044	 0,178031161927784 
1045	 0,18401261877619 
1046	 0,189590086834525 
1047	 0,191970625561278 
1048	 0,192771614621857 
1049	 0,199585523896018 
1050	 0,209422737955347 
1051	 0,202425196404661 
1052	 0,198745442416432 
1053	 0,205468355323616 
1054	 0,196787185679198 
1055	 0,193882994879842 
1056	 0,211878043286143 
1057	 0,207128135421941 
1058	 0,196162268116703 
1059	 0,20960179705956 
1060	 0,203659871429984 
1061	 0,186470898849917 
1062	 0,198185531295018 
1063	 0,201019421080053 
1064	 0,19033683315603 
1065	 0,192106081547634 
1066	 0,191469901529027 
1067	 0,185582312009276 
1068	 0,195854232693601 
1069	 0,201114794094783 
1070	 0,189028613104091 
1071	 0,198383407893692 
1072	 0,211530183775535 
1073	 0,202645123764685 
1074	 0,192498377314508 
1075	 0,192210425885673 
