Wavelength	GRA-BER00287.asd
325	 0,132021528143166 
326	 0,219346093594404 
327	 0,237446132851113 
328	 0,196815639301655 
329	 0,207886199702991 
330	 0,189842780999631 
331	 8,60305572068925E-02 
332	 0,112204763316533 
333	 0,192457198672322 
334	 0,140761646404254 
335	 5,59143328495961E-02 
336	 2,32206757958119E-02 
337	 0,176281379393618 
338	 0,291274666197732 
339	 0,220194360394314 
340	 0,170676481103443 
341	 0,171360446535328 
342	 0,167054592649926 
343	 0,158500312357225 
344	 0,152546623200074 
345	 0,179154376279779 
346	 0,212024276907278 
347	 0,222698932152523 
348	 0,195508218204124 
349	 0,149875797384505 
350	 0,146294953130308 
351	 0,160214597009506 
352	 0,175520676602417 
353	 0,176649928962826 
354	 0,179056241388321 
355	 0,199970485224345 
356	 0,205536780792862 
357	 0,192677263296 
358	 0,165180663930097 
359	 0,153556535722774 
360	 0,169903965840932 
361	 0,192092102557268 
362	 0,208128354681892 
363	 0,203778107592854 
364	 0,197627908154224 
365	 0,195338830626928 
366	 0,195181700160543 
367	 0,200692860142928 
368	 0,211201836696998 
369	 0,204756355304482 
370	 0,189942779438231 
371	 0,184159065979848 
372	 0,182563990319931 
373	 0,186942488984576 
374	 0,210041416463113 
375	 0,216804579692245 
376	 0,184821058734873 
377	 0,182670773357467 
378	 0,202958261536002 
379	 0,208234151455996 
380	 0,198386231209463 
381	 0,178888189640537 
382	 0,183082325138879 
383	 0,195846579629703 
384	 0,201304454351348 
385	 0,198865073662638 
386	 0,195209055047595 
387	 0,212773003194277 
388	 0,20923401484324 
389	 0,176790943663008 
390	 0,166134251596678 
391	 0,176793697017699 
392	 0,200668570276605 
393	 0,221828087451012 
394	 0,230502140629395 
395	 0,209232250054261 
396	 0,19887161915515 
397	 0,217229896202164 
398	 0,21356064179525 
399	 0,198857529121107 
400	 0,196621001179888 
401	 0,206205914902598 
402	 0,22093104518842 
403	 0,219654718265926 
404	 0,21219133342857 
405	 0,206205748505993 
406	 0,203898847789716 
407	 0,204600874912808 
408	 0,206067645252621 
409	 0,207823513372246 
410	 0,20889249550727 
411	 0,207873003791371 
412	 0,202672798860152 
413	 0,192501300180163 
414	 0,196153320816593 
415	 0,208293592863353 
416	 0,208269234076075 
417	 0,205959076020938 
418	 0,205363620537521 
419	 0,205872402504482 
420	 0,206135219763542 
421	 0,204467472714753 
422	 0,204600104954069 
423	 0,206344458123285 
424	 0,20579525569541 
425	 0,207103459705961 
426	 0,21159751163613 
427	 0,208296158901526 
428	 0,202636545703372 
429	 0,206817512080715 
430	 0,211144412729185 
431	 0,212211431967172 
432	 0,208227386691771 
433	 0,205706394399674 
434	 0,209858246085901 
435	 0,209592956677549 
436	 0,205782350043166 
437	 0,205547056605334 
438	 0,207549587860492 
439	 0,210744426010155 
440	 0,211626721519011 
441	 0,211249566586162 
442	 0,211375546858381 
443	 0,210883050803788 
444	 0,210444795451686 
445	 0,21262662074687 
446	 0,216394710731151 
447	 0,220076531617585 
448	 0,215732250971039 
449	 0,208938893026144 
450	 0,211544841799479 
451	 0,216595391890412 
452	 0,220386298363507 
453	 0,215845768749518 
454	 0,212920192538227 
455	 0,220519306658552 
456	 0,224667113116009 
457	 0,223947750669077 
458	 0,222185120975914 
459	 0,219831296785361 
460	 0,218098023721956 
461	 0,221330748762587 
462	 0,225271829377974 
463	 0,223894122468052 
464	 0,222652825447001 
465	 0,22230034236608 
466	 0,220256464217764 
467	 0,219025155440084 
468	 0,22020773888324 
469	 0,222294664415401 
470	 0,223844413580053 
471	 0,222425411523732 
472	 0,222337576121448 
473	 0,224133303534877 
474	 0,223176091873283 
475	 0,221987865110206 
476	 0,223139380666673 
477	 0,2219750064839 
478	 0,219217915002021 
479	 0,219313567262254 
480	 0,21993340520216 
481	 0,220079633801398 
482	 0,220911610923424 
483	 0,221220078507343 
484	 0,219050517175717 
485	 0,218756910914332 
486	 0,220096560682543 
487	 0,216945860200691 
488	 0,215388602714036 
489	 0,219550840160034 
490	 0,221430440257785 
491	 0,221083775828282 
492	 0,221985498122809 
493	 0,221635925244644 
494	 0,219471493316372 
495	 0,216555910223308 
496	 0,215048124800643 
497	 0,217160079259947 
498	 0,216377991884179 
499	 0,213630955190848 
500	 0,216682452747063 
501	 0,219606701411228 
502	 0,219390044649244 
503	 0,220903034548569 
504	 0,222772703742672 
505	 0,221490381366114 
506	 0,221036438275947 
507	 0,222427167029719 
508	 0,22457359787736 
509	 0,225886564611994 
510	 0,22506547779305 
511	 0,22361178560015 
512	 0,222468648437295 
513	 0,223078687666071 
514	 0,224148274980241 
515	 0,224872101231777 
516	 0,224128771083143 
517	 0,223435548676943 
518	 0,225076198516107 
519	 0,224896672334542 
520	 0,223045475483486 
521	 0,224172534692865 
522	 0,22542736456912 
523	 0,22476202962577 
524	 0,223941643131728 
525	 0,223519231431173 
526	 0,224202119270547 
527	 0,22420974986613 
528	 0,223333835285463 
529	 0,224288475680966 
530	 0,225168259185461 
531	 0,223654612192454 
532	 0,222882059271023 
533	 0,22308778195429 
534	 0,222522845729135 
535	 0,222232697182481 
536	 0,222774566653656 
537	 0,223465146435895 
538	 0,223922575434143 
539	 0,223650227856023 
540	 0,223300163758024 
541	 0,223176939828309 
542	 0,223464478932896 
543	 0,224087202507572 
544	 0,224923622084565 
545	 0,225275041643862 
546	 0,225438547664252 
547	 0,226842774937975 
548	 0,227541249824187 
549	 0,226766964310193 
550	 0,226412398144541 
551	 0,22644098628227 
552	 0,226425125157773 
553	 0,226550716358166 
554	 0,226719180657525 
555	 0,226393430377202 
556	 0,226093624840022 
557	 0,226259888289632 
558	 0,226726556296147 
559	 0,227086060081136 
560	 0,226371370931479 
561	 0,225831262698147 
562	 0,225900863594493 
563	 0,225593638081865 
564	 0,225784090938624 
565	 0,227705940664682 
566	 0,228951826398577 
567	 0,229254488383456 
568	 0,230125482348994 
569	 0,231062188299954 
570	 0,231786416778291 
571	 0,232966035222438 
572	 0,234758115561986 
573	 0,237363103672647 
574	 0,239708116356249 
575	 0,241331559705881 
576	 0,242317811519877 
577	 0,243454679388209 
578	 0,245591113632501 
579	 0,247855950951089 
580	 0,249731028779804 
581	 0,250344254067555 
582	 0,250978602238619 
583	 0,252320681011499 
584	 0,253480218447202 
585	 0,254171404572389 
586	 0,25414105847374 
587	 0,253580044826252 
588	 0,252876705469797 
589	 0,253264956786986 
590	 0,253615571689217 
591	 0,252924521591604 
592	 0,253455948891616 
593	 0,254705368876315 
594	 0,25410830083452 
595	 0,253386889086773 
596	 0,253268233486877 
597	 0,252970714978966 
598	 0,252577793086377 
599	 0,252337721573672 
600	 0,251873918692634 
601	 0,251017890388752 
602	 0,249381633697609 
603	 0,248514584724864 
604	 0,249424659810015 
605	 0,248821458152408 
606	 0,247086900426362 
607	 0,246670796972008 
608	 0,245889018566369 
609	 0,244386915218317 
610	 0,243603475926518 
611	 0,243341906824804 
612	 0,243202350310532 
613	 0,242782450276359 
614	 0,242121080676607 
615	 0,241742819863269 
616	 0,241602188566598 
617	 0,241613477940105 
618	 0,241246058933759 
619	 0,240754441077385 
620	 0,24077194130248 
621	 0,240948624815346 
622	 0,241247657258448 
623	 0,24200359988033 
624	 0,242894202274838 
625	 0,24357288966144 
626	 0,244133542573774 
627	 0,244533216940361 
628	 0,244517905410271 
629	 0,244929476268068 
630	 0,246109264031641 
631	 0,24691157594775 
632	 0,247739410407779 
633	 0,24953172877382 
634	 0,250344909455892 
635	 0,250234509590188 
636	 0,251909862916703 
637	 0,253830568522814 
638	 0,254693557812248 
639	 0,256037749033443 
640	 0,257815351075001 
641	 0,25940267884503 
642	 0,260111501284189 
643	 0,259860435925869 
644	 0,260248620438333 
645	 0,260780938292313 
646	 0,26060923195426 
647	 0,260761215375282 
648	 0,261087162488285 
649	 0,260283811374393 
650	 0,258949046873155 
651	 0,257517968263972 
652	 0,25590581554267 
653	 0,254383341123966 
654	 0,253416818270052 
655	 0,252918179078316 
656	 0,252505152293443 
657	 0,250701842755521 
658	 0,248275369439384 
659	 0,246142485687816 
660	 0,244610426071742 
661	 0,243313433803273 
662	 0,240759885725209 
663	 0,238992580165601 
664	 0,238792610663958 
665	 0,237709032398568 
666	 0,236167632747573 
667	 0,235289838817115 
668	 0,234441886428702 
669	 0,233607017347105 
670	 0,233383153049323 
671	 0,233132449283434 
672	 0,232400854980043 
673	 0,232329590165875 
674	 0,232632145262584 
675	 0,232083723699184 
676	 0,231882183132459 
677	 0,232368025046177 
678	 0,232850971702477 
679	 0,233129200012916 
680	 0,233047100114381 
681	 0,233302767460995 
682	 0,233971777106348 
683	 0,234653344918784 
684	 0,235451587766956 
685	 0,236558141266742 
686	 0,238921650455018 
687	 0,242007662303067 
688	 0,244629773095948 
689	 0,247800092781913 
690	 0,251936414200121 
691	 0,257297917913734 
692	 0,263508930732431 
693	 0,270205274044653 
694	 0,277313322808809 
695	 0,285068774423212 
696	 0,294172845306821 
697	 0,30376216680995 
698	 0,313530507259319 
699	 0,324110427106706 
700	 0,335039886977219 
701	 0,345690086597017 
702	 0,356704584590868 
703	 0,367947799591724 
704	 0,378726451661592 
705	 0,389017329147866 
706	 0,398768229926164 
707	 0,408078109089334 
708	 0,417079418111223 
709	 0,426000447470204 
710	 0,434237558572381 
711	 0,441718463199673 
712	 0,449126466867288 
713	 0,456036146895416 
714	 0,462094812924334 
715	 0,468360157510581 
716	 0,474526472780571 
717	 0,479261944716581 
718	 0,483674141527727 
719	 0,488234992978313 
720	 0,492794460261738 
721	 0,497000725030967 
722	 0,500430330689497 
723	 0,503983159422472 
724	 0,507594115307615 
725	 0,510266761209423 
726	 0,512630360625384 
727	 0,515098327484873 
728	 0,517704301067615 
729	 0,520047992895406 
730	 0,521399809083015 
731	 0,522521734611266 
732	 0,523752868951221 
733	 0,52531982485561 
734	 0,526910100668371 
735	 0,528233799703271 
736	 0,529346926523824 
737	 0,530226696907852 
738	 0,530787686375135 
739	 0,531257886598175 
740	 0,531844332621316 
741	 0,533043178063275 
742	 0,534221985222063 
743	 0,534623693862229 
744	 0,534815798268087 
745	 0,535065866737669 
746	 0,535740487089796 
747	 0,536433876001199 
748	 0,53693258175176 
749	 0,537473114252389 
750	 0,537893701285434 
751	 0,537896406329096 
752	 0,538305099185709 
753	 0,539084260971217 
754	 0,539161169641327 
755	 0,539171876643764 
756	 0,539561138353873 
757	 0,539807250580486 
758	 0,539937010437106 
759	 0,540179650205221 
760	 0,54026419179362 
761	 0,540199252398215 
762	 0,540419216960847 
763	 0,540759910364161 
764	 0,541026193077259 
765	 0,54093194760344 
766	 0,540716273493648 
767	 0,541219444686591 
768	 0,541344002862823 
769	 0,540797952124995 
770	 0,540590838755499 
771	 0,540718735349533 
772	 0,54105886697979 
773	 0,541213992006313 
774	 0,541119782752637 
775	 0,540890868813878 
776	 0,540857012482046 
777	 0,54116022081043 
778	 0,541425552268025 
779	 0,541536350157048 
780	 0,541400866470652 
781	 0,541174884965403 
782	 0,541056998976841 
783	 0,541531782635686 
784	 0,542046288804648 
785	 0,542203327252243 
786	 0,54200763908366 
787	 0,541764569662113 
788	 0,54201006012766 
789	 0,542280490041116 
790	 0,542354159086039 
791	 0,541907456684369 
792	 0,54165102319062 
793	 0,54211513313635 
794	 0,542566382526296 
795	 0,542747814206176 
796	 0,542381794940464 
797	 0,542149746687451 
798	 0,542229098065528 
799	 0,542213197836373 
800	 0,541989108215038 
801	 0,541518689724085 
802	 0,541543759804564 
803	 0,541876912293198 
804	 0,54161798409547 
805	 0,54161056492528 
806	 0,54208295118884 
807	 0,542557394041196 
808	 0,542759695324226 
809	 0,542470013321818 
810	 0,542379015429228 
811	 0,542599344165817 
812	 0,542992122235324 
813	 0,543365226580975 
814	 0,543584721846243 
815	 0,543480465761482 
816	 0,543522937467761 
817	 0,544254945960101 
818	 0,544716985046662 
819	 0,544827852608243 
820	 0,545064123286598 
821	 0,545281907512775 
822	 0,545434125720825 
823	 0,545614504780645 
824	 0,545725239416637 
825	 0,545637337448863 
826	 0,545566730594939 
827	 0,545568888869602 
828	 0,545628757698253 
829	 0,545680188606171 
830	 0,545670967191674 
831	 0,545543534793122 
832	 0,545354988088748 
833	 0,545189591040494 
834	 0,545467976457534 
835	 0,546008022925056 
836	 0,545948127040154 
837	 0,545453548111724 
838	 0,544780117675277 
839	 0,54500188295152 
840	 0,5455124097686 
841	 0,545292173033055 
842	 0,545079332923905 
843	 0,544988303012557 
844	 0,544732459503834 
845	 0,544743752283337 
846	 0,545188797642195 
847	 0,545495016115637 
848	 0,545536349037043 
849	 0,545249288263442 
850	 0,545065237560691 
851	 0,545130561614261 
852	 0,545485144491527 
853	 0,545803671881999 
854	 0,545928241218587 
855	 0,546214186202499 
856	 0,546415178399311 
857	 0,546159978591253 
858	 0,546110357402658 
859	 0,546280906211322 
860	 0,546095263767998 
861	 0,546184285437443 
862	 0,546700169911521 
863	 0,546300767309738 
864	 0,545880826733883 
865	 0,546747514218143 
866	 0,547607441668339 
867	 0,547974881239139 
868	 0,547369480231712 
869	 0,546971724645623 
870	 0,547283132751279 
871	 0,547391855946966 
872	 0,547503962759039 
873	 0,547930563491135 
874	 0,54750412582555 
875	 0,546528656589727 
876	 0,546652240183104 
877	 0,54654106896419 
878	 0,54584245547316 
879	 0,545842087885775 
880	 0,546178639121333 
881	 0,546361089821743 
882	 0,546681335753624 
883	 0,546922528232404 
884	 0,546342264462493 
885	 0,546140424162225 
886	 0,546597001162429 
887	 0,546655228429332 
888	 0,546550790789478 
889	 0,546582817791383 
890	 0,546932804462649 
891	 0,547453746180159 
892	 0,547827744739471 
893	 0,547513838455407 
894	 0,546660672296631 
895	 0,546761992534927 
896	 0,547079712807206 
897	 0,546997942517968 
898	 0,546758915219089 
899	 0,546689448968306 
900	 0,547319627250717 
901	 0,547707829045805 
902	 0,547574020163587 
903	 0,547012681785973 
904	 0,546654886150153 
905	 0,546869989641615 
906	 0,547176578847849 
907	 0,547290715188179 
908	 0,546917670180155 
909	 0,546189194727944 
910	 0,54564734884861 
911	 0,546873145498899 
912	 0,547720704932355 
913	 0,547182336269197 
914	 0,546003342632045 
915	 0,545207576327319 
916	 0,545775140699275 
917	 0,546175733479056 
918	 0,546088864994352 
919	 0,54549223405257 
920	 0,545461500566749 
921	 0,546064383291147 
922	 0,545568417296575 
923	 0,544897784107543 
924	 0,544824592477933 
925	 0,544411317033952 
926	 0,543876723456535 
927	 0,543817395967654 
928	 0,544485236475029 
929	 0,545321376378832 
930	 0,544138266337164 
931	 0,542568513641283 
932	 0,541727809212909 
933	 0,54197386478206 
934	 0,542284829749759 
935	 0,541350707363332 
936	 0,54110093402719 
937	 0,541512701663671 
938	 0,541284134377186 
939	 0,540985582009568 
940	 0,540776903742916 
941	 0,540547578321011 
942	 0,539914760493387 
943	 0,538605160243714 
944	 0,537311841485837 
945	 0,536182132234476 
946	 0,535215169630923 
947	 0,5345325432639 
948	 0,534206724889494 
949	 0,534513811108788 
950	 0,534180012966007 
951	 0,532556412039094 
952	 0,530538242980819 
953	 0,52921381336248 
954	 0,529644048789595 
955	 0,529876923808103 
956	 0,529326413304314 
957	 0,527634381855238 
958	 0,526474425500678 
959	 0,526219057161843 
960	 0,52531061125542 
961	 0,524822138201563 
962	 0,525377705740774 
963	 0,524790114425949 
964	 0,52358664198048 
965	 0,523036612132342 
966	 0,523183462356858 
967	 0,523562133810615 
968	 0,522656682095581 
969	 0,521657494172273 
970	 0,52119009923597 
971	 0,521688618021249 
972	 0,521805887329551 
973	 0,520427824553305 
974	 0,519354754290358 
975	 0,519090442806076 
976	 0,519915444383413 
977	 0,520821316916682 
978	 0,521330533249592 
979	 0,521127491169374 
980	 0,520690805328853 
981	 0,52030857322114 
982	 0,519878082982855 
983	 0,520048524387101 
984	 0,521227958780766 
985	 0,5202391540339 
986	 0,518262821499171 
987	 0,518655189858966 
988	 0,519892069790688 
989	 0,52104064348211 
990	 0,520198730248754 
991	 0,520304497799752 
992	 0,522493832714806 
993	 0,523555781133438 
994	 0,524160557508676 
995	 0,525042720930721 
996	 0,522634737493328 
997	 0,519502417622738 
998	 0,521693591936961 
999	 0,523864693533503 
1000	 0,524988796630575 
1001	 0,527724019915148 
1002	 0,528070091368915 
1003	 0,524784008016664 
1004	 0,522985969839479 
1005	 0,523917458750457 
1006	 0,527769831931006 
1007	 0,528402613859741 
1008	 0,526994950189253 
1009	 0,527648353028864 
1010	 0,528294694381458 
1011	 0,529130485430158 
1012	 0,532869312623571 
1013	 0,533147448633561 
1014	 0,528699341253011 
1015	 0,528253431743409 
1016	 0,530599046803972 
1017	 0,53386859671967 
1018	 0,53519095851813 
1019	 0,534534274001335 
1020	 0,532763913125823 
1021	 0,532019090353547 
1022	 0,53331059766391 
1023	 0,537788481510882 
1024	 0,540458780631689 
1025	 0,539595666291946 
1026	 0,536399726693351 
1027	 0,536945418883838 
1028	 0,543569339402516 
1029	 0,543019956352018 
1030	 0,539623848338545 
1031	 0,539943879683271 
1032	 0,541012398505057 
1033	 0,5419295328677 
1034	 0,541894891439036 
1035	 0,541395934638154 
1036	 0,541183296069659 
1037	 0,543596051584827 
1038	 0,543622015617582 
1039	 0,540009600782883 
1040	 0,539057490880991 
1041	 0,540378784425698 
1042	 0,542585918980025 
1043	 0,53911094034109 
1044	 0,536659657663112 
1045	 0,544936910469007 
1046	 0,54855320147707 
1047	 0,545736392383411 
1048	 0,540299448045071 
1049	 0,541910493624107 
1050	 0,550089516866897 
1051	 0,550456961904997 
1052	 0,546569497361152 
1053	 0,541556843038779 
1054	 0,541781720022887 
1055	 0,541092910950417 
1056	 0,535639432452821 
1057	 0,544236644336104 
1058	 0,555266631799277 
1059	 0,550115046260903 
1060	 0,544807868456428 
1061	 0,541480364227617 
1062	 0,536338739078559 
1063	 0,537723990148727 
1064	 0,544271120371984 
1065	 0,541465882584842 
1066	 0,539770451196905 
1067	 0,542864741961746 
1068	 0,540916166071843 
1069	 0,547726330676223 
1070	 0,568671842933961 
1071	 0,562040669254669 
1072	 0,545674225873617 
1073	 0,54545970182644 
1074	 0,54190002944322 
1075	 0,536871704218766 
