Wavelength	GRA-VAN00869.asd
325	 0,19396977337581 
326	-2,90345792378469E-02 
327	-0,115667947708546 
328	 0,069695205435631 
329	-0,053572860082226 
330	-0,194309010733006 
331	 2,22338321047719E-02 
332	 0,126497827131255 
333	 0,152428113961243 
334	 2,12987076802123E-02 
335	 2,60882827876889E-02 
336	 0,194377983191243 
337	 0,180057352998275 
338	 9,67054578192337E-02 
339	 2,85460818137013E-02 
340	 6,48543606007569E-02 
341	 0,135165454026624 
342	 0,102179380888458 
343	 8,71870701713063E-02 
344	 0,115233772423173 
345	 0,104273546580491 
346	 8,69008430873843E-02 
347	 9,90767097986259E-02 
348	 5,04531939942527E-02 
349	-3,16079373220086E-02 
350	-1,13023419958367E-02 
351	 4,55376615057066E-02 
352	 8,84303022234057E-02 
353	 7,02325437315179E-02 
354	 2,77266036675883E-02 
355	 6,58857202631184E-03 
356	 2,68280176245479E-02 
357	 6,40918393511268E-02 
358	 4,65568775567658E-02 
359	 3,43776710421822E-02 
360	 5,36405098590794E-02 
361	 6,26286650053897E-02 
362	 5,30480898978978E-02 
363	 1,69955398429652E-02 
364	-7,77510156865594E-03 
365	-8,1728728018911E-03 
366	 2,15750352393693E-02 
367	 4,45092786343902E-02 
368	 4,09385761110159E-02 
369	 4,67824120958996E-02 
370	 4,91571063154988E-02 
371	 1,31438178205716E-02 
372	 0,011413165488854 
373	 4,52633074027796E-02 
374	 2,65509130548597E-02 
375	 6,43306675408636E-03 
376	 2,40815308868831E-02 
377	 2,01435810048504E-02 
378	 3,83975692102378E-03 
379	 1,65392665194848E-02 
380	 2,13653500942972E-02 
381	 0,015039226112261 
382	 3,67884127123705E-02 
383	 5,65124679790074E-02 
384	 4,78054875628787E-02 
385	 4,57925781274403E-02 
386	 4,90074863304656E-02 
387	 0,034878092322847 
388	 2,63619182637576E-02 
389	 3,21270022499077E-02 
390	 3,84520266547718E-02 
391	 3,86350018432969E-02 
392	 2,68568228658239E-02 
393	 2,18470068500885E-02 
394	 2,61777033979424E-02 
395	 3,58627395928206E-02 
396	 3,49886365075145E-02 
397	 2,01368617163272E-02 
398	 3,01671598397267E-02 
399	 4,59389004091425E-02 
400	 3,36916116415539E-02 
401	 2,61019900946363E-02 
402	 2,81118731310586E-02 
403	 2,38627830044187E-02 
404	 1,93679734106051E-02 
405	 1,92148697183402E-02 
406	 2,17284811092292E-02 
407	 2,54554120441794E-02 
408	 2,98893475843088E-02 
409	 2,66753361963943E-02 
410	 1,68981318905917E-02 
411	 1,72697665355482E-02 
412	 1,95069448681934E-02 
413	 1,55852586538871E-02 
414	 1,42986541222141E-02 
415	 1,59056309251411E-02 
416	 1,77159706494398E-02 
417	 1,71473481412464E-02 
418	 1,47568431584021E-02 
419	 2,13189159283146E-02 
420	 2,92205126992831E-02 
421	 2,85863004126321E-02 
422	 2,54147684078272E-02 
423	 2,21955414445262E-02 
424	 2,22969142621972E-02 
425	 2,14634630264528E-02 
426	 1,77151721501919E-02 
427	 1,73386499988969E-02 
428	 1,97637783793018E-02 
429	 2,31294736020207E-02 
430	 2,10685792799892E-02 
431	 1,36157705767499E-02 
432	 9,05204163880104E-03 
433	 1,19782375269965E-02 
434	 2,44124187798527E-02 
435	 2,27794592449523E-02 
436	 1,09085798681629E-02 
437	 9,53892741586915E-03 
438	 1,20913958152951E-02 
439	 1,54550619564747E-02 
440	 1,53653917029253E-02 
441	 1,42545457853397E-02 
442	 1,57373050033157E-02 
443	 1,68925099831105E-02 
444	 1,73483132575172E-02 
445	 1,84461414722159E-02 
446	 1,84000488015407E-02 
447	 1,62274609071303E-02 
448	 1,30412873972987E-02 
449	 1,14400634366453E-02 
450	 1,60305630351492E-02 
451	 1,86559795163931E-02 
452	 1,75415622659425E-02 
453	 1,76152951444583E-02 
454	 1,81727979113853E-02 
455	 1,84613698963228E-02 
456	 2,04949208715458E-02 
457	 2,24340478724417E-02 
458	 1,83138333697681E-02 
459	 1,55479453820041E-02 
460	 0,016962689175121 
461	 1,77421131290663E-02 
462	 1,76066610417476E-02 
463	 1,68189461574315E-02 
464	 1,59049615476081E-02 
465	 1,54095900589241E-02 
466	 1,64931300618289E-02 
467	 1,73735985948137E-02 
468	 1,70112384243036E-02 
469	 1,77796542136164E-02 
470	 1,82073387682204E-02 
471	 1,42613028770025E-02 
472	 1,41858630606495E-02 
473	 1,88124923119035E-02 
474	 1,83590568315066E-02 
475	 1,66437543034031E-02 
476	 1,78527805212344E-02 
477	 0,018712360585725 
478	 1,85468290699567E-02 
479	 1,72881162435839E-02 
480	 1,56850512235283E-02 
481	 1,46017431802847E-02 
482	 1,67328201157271E-02 
483	 1,92909888543842E-02 
484	 0,017892596999301 
485	 1,67428099367861E-02 
486	 1,69830198843092E-02 
487	 1,84841932276725E-02 
488	 1,91334052412802E-02 
489	 1,74844533937525E-02 
490	 1,58889365070276E-02 
491	 1,52817128116651E-02 
492	 1,67935985666291E-02 
493	 1,81997040861689E-02 
494	 0,018667196150203 
495	 0,019125000877115 
496	 1,83860668096342E-02 
497	 1,51591733154563E-02 
498	 0,015129627808896 
499	 1,77878686173647E-02 
500	 1,74344300268188E-02 
501	 0,016545767256692 
502	 1,64444626323793E-02 
503	 1,60156806096527E-02 
504	 1,56870811304324E-02 
505	 1,63855015418177E-02 
506	 1,71834362594772E-02 
507	 1,78226319468325E-02 
508	 1,88108587055428E-02 
509	 1,88628206505389E-02 
510	 1,69932259985537E-02 
511	 1,66211567086936E-02 
512	 1,74276236316267E-02 
513	 1,64765049331557E-02 
514	 1,69851603525319E-02 
515	 1,96659658838245E-02 
516	 1,99797434180264E-02 
517	 1,87621659601368E-02 
518	 1,77836846709658E-02 
519	 1,75716616932553E-02 
520	 1,80242762915844E-02 
521	 1,80100785503571E-02 
522	 1,76861584880625E-02 
523	 1,72603078404935E-02 
524	 1,75178358095905E-02 
525	 1,82352560803527E-02 
526	 1,87943575824205E-02 
527	 1,85632437634074E-02 
528	 1,74435063340319E-02 
529	 1,62192948418351E-02 
530	 1,58186489322306E-02 
531	 1,71455180011383E-02 
532	 1,73371989302274E-02 
533	 1,63036645547031E-02 
534	 0,015921856707023 
535	 1,61466506944572E-02 
536	 1,68590582581958E-02 
537	 1,71146321483313E-02 
538	 1,70746104383603E-02 
539	 1,72557319006619E-02 
540	 0,017923394151078 
541	 1,87925302645264E-02 
542	 1,82239441541871E-02 
543	 0,017212811276131 
544	 1,68055527351797E-02 
545	 1,64136483492479E-02 
546	 1,62318503824257E-02 
547	 1,71027805347952E-02 
548	 1,79462754326236E-02 
549	 1,81533179779479E-02 
550	 1,76752840354164E-02 
551	 1,70634126209063E-02 
552	 1,71641150268131E-02 
553	 1,72410686797435E-02 
554	 1,70545669138201E-02 
555	 1,64479686601475E-02 
556	 1,61768871744769E-02 
557	 1,68067239656886E-02 
558	 1,71697281493331E-02 
559	 1,72942986711194E-02 
560	 0,018027316147484 
561	 1,76545156376834E-02 
562	 1,60915397114252E-02 
563	 1,73980921608426E-02 
564	 1,90621145983876E-02 
565	 1,73569501817009E-02 
566	 1,65090474892379E-02 
567	 1,70720731022046E-02 
568	 1,69778964057855E-02 
569	 1,66524847210666E-02 
570	 1,64277255178714E-02 
571	 1,65929994243216E-02 
572	 1,69104526678504E-02 
573	 1,66679695131591E-02 
574	 1,70601886190422E-02 
575	 1,81907910888714E-02 
576	 1,82891902355732E-02 
577	 1,80632768101243E-02 
578	 1,84373549595036E-02 
579	 1,86347986559178E-02 
580	 1,86439850257899E-02 
581	 1,90141237438232E-02 
582	 1,90558620050462E-02 
583	 1,85749576296092E-02 
584	 1,93890352592707E-02 
585	 2,05322420969533E-02 
586	 0,019895139086841 
587	 1,93526294833161E-02 
588	 1,95458614878822E-02 
589	 0,020649743981744 
590	 2,13741175410632E-02 
591	 2,06100874251395E-02 
592	 2,05437629743846E-02 
593	 0,021097821011217 
594	 0,020798889433811 
595	 2,04674367623624E-02 
596	 2,04965014627063E-02 
597	 0,020909877501487 
598	 2,12772921062371E-02 
599	 2,09712311254233E-02 
600	 2,04977424846923E-02 
601	 2,01624019742149E-02 
602	 0,020495249310787 
603	 2,09412014058895E-02 
604	 2,09727491792221E-02 
605	 1,98702559650823E-02 
606	 1,84059528233736E-02 
607	 1,87537776327129E-02 
608	 1,90696201742137E-02 
609	 0,018768370374958 
610	 1,87485191369629E-02 
611	 1,88165720368395E-02 
612	 1,86547677419475E-02 
613	 0,018707635063987 
614	 1,89084509955177E-02 
615	 1,86304481488277E-02 
616	 1,85499884054912E-02 
617	 1,90101709626081E-02 
618	 0,018994662469131 
619	 1,85706504616775E-02 
620	 1,81179807117152E-02 
621	 1,80241609770976E-02 
622	 0,018293740271768 
623	 0,018069978759997 
624	 1,79855914824305E-02 
625	 1,86952959522724E-02 
626	 1,89606139995996E-02 
627	 0,018728105220385 
628	 1,86997348644821E-02 
629	 1,84975341205568E-02 
630	 1,80801687140799E-02 
631	 1,84245421626482E-02 
632	 0,019234453358797 
633	 1,99014307214894E-02 
634	 1,97163465148493E-02 
635	 1,89614535352642E-02 
636	 1,98087418861126E-02 
637	 2,07435368549478E-02 
638	 0,020481521077065 
639	 2,03676643452167E-02 
640	 2,04692886515739E-02 
641	 0,020221842108755 
642	 2,05006325315035E-02 
643	 2,14835404182429E-02 
644	 2,19483117879871E-02 
645	 2,21798923442857E-02 
646	 2,27111202100794E-02 
647	 2,22741997102516E-02 
648	 0,021056499661328 
649	 2,06974223846661E-02 
650	 2,08723707518485E-02 
651	 2,12702115672389E-02 
652	 2,11536714896849E-02 
653	 2,07099418693578E-02 
654	 2,05998924338551E-02 
655	 2,03589277429805E-02 
656	 1,98953199555007E-02 
657	 1,94714981544567E-02 
658	 1,91321708215867E-02 
659	 1,88998208689699E-02 
660	 1,85933725757002E-02 
661	 1,81962673145184E-02 
662	 1,77620595193903E-02 
663	 1,74384499058887E-02 
664	 1,73335392581699E-02 
665	 1,76467207523326E-02 
666	 1,78385910894581E-02 
667	 1,70445519756502E-02 
668	 0,016442591405119 
669	 1,64132566903572E-02 
670	 0,016983720834111 
671	 1,74432381866304E-02 
672	 1,72360846311531E-02 
673	 1,69244339627582E-02 
674	 1,66857562497583E-02 
675	 0,016669393119126 
676	 1,67447254732729E-02 
677	 1,68459860206399E-02 
678	 1,69088116865475E-02 
679	 1,69795800732605E-02 
680	 1,71189487907321E-02 
681	 1,68905929113314E-02 
682	 0,01656988593985 
683	 1,74112367467416E-02 
684	 1,80364152421933E-02 
685	 1,77051228993282E-02 
686	 1,74846447096181E-02 
687	 1,76805986598882E-02 
688	 1,86101551110419E-02 
689	 1,90088608677787E-02 
690	 1,87680986592045E-02 
691	 1,92110378485817E-02 
692	 2,02361266845305E-02 
693	 2,16810281867461E-02 
694	 0,023220835017838 
695	 2,48768113641495E-02 
696	 2,68478905107374E-02 
697	 2,93301349115803E-02 
698	 3,23553550384837E-02 
699	 3,54749582932963E-02 
700	 3,88592675456317E-02 
701	 4,27675735178166E-02 
702	 4,74180938518494E-02 
703	 5,26612591122804E-02 
704	 5,78436637395931E-02 
705	 6,33529656755307E-02 
706	 6,93039819639152E-02 
707	 7,46277845970662E-02 
708	 7,98568888846341E-02 
709	 8,62774557061776E-02 
710	 9,23763445831946E-02 
711	 9,77820153583184E-02 
712	 0,103138509432756 
713	 0,108511625586332 
714	 0,113899593550981 
715	 0,118675869014429 
716	 0,123198572299764 
717	 0,128842269577933 
718	 0,13370836891916 
719	 0,137153565541358 
720	 0,140495233529324 
721	 0,144016738975833 
722	 0,14790937123785 
723	 0,15105169991995 
724	 0,15351860645388 
725	 0,156593157542961 
726	 0,159320968374618 
727	 0,161200831708182 
728	 0,163224978962882 
729	 0,165298003328905 
730	 0,167009570125588 
731	 0,168450672196811 
732	 0,169736327029503 
733	 0,171268037544302 
734	 0,172615086594128 
735	 0,173429588054354 
736	 0,174357957379593 
737	 0,175430705674637 
738	 0,176387128810175 
739	 0,177446316027004 
740	 0,178559960291417 
741	 0,179031568880969 
742	 0,179422143011749 
743	 0,180423088585858 
744	 0,181163085462605 
745	 0,181483878882771 
746	 0,181461326161778 
747	 0,181797016568111 
748	 0,182758042091062 
749	 0,183208172665495 
750	 0,183383993927351 
751	 0,183867697336982 
752	 0,184280642811443 
753	 0,184533142836393 
754	 0,184642221026823 
755	 0,184841008161028 
756	 0,185283535242812 
757	 0,185737750959346 
758	 0,186051487482834 
759	 0,185981531829525 
760	 0,186074917617984 
761	 0,186446162583204 
762	 0,186654329394801 
763	 0,186847947512214 
764	 0,187164107374096 
765	 0,187199338494915 
766	 0,18704564112871 
767	 0,187087214529363 
768	 0,187404282381395 
769	 0,187912895168881 
770	 0,187853178380208 
771	 0,187737592038067 
772	 0,18822660455554 
773	 0,188502345735128 
774	 0,188461814264599 
775	 0,188357828285763 
776	 0,188401733895548 
777	 0,188653628280901 
778	 0,188601379846221 
779	 0,188474268381458 
780	 0,188698950122648 
781	 0,188517069019049 
782	 0,188014435360776 
783	 0,188205440403198 
784	 0,188575223198399 
785	 0,188734009154359 
786	 0,188451879784105 
787	 0,188135436921942 
788	 0,188578407129779 
789	 0,188860819114396 
790	 0,188791295394014 
791	 0,188863108144618 
792	 0,188833287760749 
793	 0,188540796108473 
794	 0,188490276752238 
795	 0,188608754742505 
796	 0,188575095197293 
797	 0,188347608977368 
798	 0,188011096422558 
799	 0,188041180868018 
800	 0,188265417980555 
801	 0,188483922965265 
802	 0,188600383624671 
803	 0,188623968585477 
804	 0,18865372878167 
805	 0,188631904365122 
806	 0,188603434101094 
807	 0,188913349525944 
808	 0,189133400021033 
809	 0,188820011763156 
810	 0,188806590002561 
811	 0,189181999329252 
812	 0,189713025340331 
813	 0,190084043164102 
814	 0,190141221385184 
815	 0,190009220593992 
816	 0,189945090308392 
817	 0,190222910788396 
818	 0,190367702700055 
819	 0,190374659644027 
820	 0,190594423427684 
821	 0,190705642836655 
822	 0,19062307357332 
823	 0,190767794971107 
824	 0,191220758967912 
825	 0,19201430692282 
826	 0,192553404855733 
827	 0,192681102036634 
828	 0,192434190125771 
829	 0,192316292264996 
830	 0,192530989186628 
831	 0,192341555716286 
832	 0,192162526104018 
833	 0,192646612932458 
834	 0,193010190008224 
835	 0,193144976254263 
836	 0,193394388278556 
837	 0,193680787200902 
838	 0,193860022180515 
839	 0,1931782885918 
840	 0,192541121921646 
841	 0,193293447098074 
842	 0,194133549447611 
843	 0,1945101154795 
844	 0,193792752062173 
845	 0,193248913551472 
846	 0,193543611264423 
847	 0,19382232865253 
848	 0,193980999777702 
849	 0,194017441543667 
850	 0,193860603025758 
851	 0,193633556583353 
852	 0,193782978754117 
853	 0,193866527487211 
854	 0,193662813234229 
855	 0,193434857479386 
856	 0,193271697329511 
857	 0,193248764165706 
858	 0,193646291777751 
859	 0,19423574322655 
860	 0,194115593396545 
861	 0,19387182777721 
862	 0,193829065761612 
863	 0,193933398092725 
864	 0,194113010655286 
865	 0,19427338962414 
866	 0,194356874643848 
867	 0,194402619575846 
868	 0,194572701235539 
869	 0,194780281237554 
870	 0,195031591163393 
871	 0,19572080518657 
872	 0,196099522945479 
873	 0,195295544109495 
874	 0,195055977817217 
875	 0,195374617073394 
876	 0,194919948374216 
877	 0,194982566926615 
878	 0,195966992675793 
879	 0,196979657519319 
880	 0,197491790842737 
881	 0,197083595175194 
882	 0,197097593631574 
883	 0,197369094470457 
884	 0,196554615781331 
885	 0,196371154407333 
886	 0,197235487899293 
887	 0,197852701697596 
888	 0,198032521979469 
889	 0,197735764993223 
890	 0,197846581345547 
891	 0,198305692677268 
892	 0,198616550551777 
893	 0,198732543607171 
894	 0,198629561010509 
895	 0,198313986825712 
896	 0,198350862203128 
897	 0,199066682348026 
898	 0,199190732052359 
899	 0,198932479957374 
900	 0,199036429403159 
901	 0,199089412487348 
902	 0,198953337386562 
903	 0,198424156564614 
904	 0,198385510866523 
905	 0,199229772459458 
906	 0,199505113943368 
907	 0,199248704695301 
908	 0,198795509717833 
909	 0,198662071752028 
910	 0,198985303007477 
911	 0,19977490301792 
912	 0,200030367513942 
913	 0,199380216444091 
914	 0,198865416206325 
915	 0,198541246323498 
916	 0,198378680249693 
917	 0,198825033834778 
918	 0,199394889630384 
919	 0,198660449391325 
920	 0,198153318203033 
921	 0,198210257791274 
922	 0,197662174588825 
923	 0,19712840554778 
924	 0,197135553607525 
925	 0,197244327716423 
926	 0,197156455366787 
927	 0,196480574964537 
928	 0,195857719820333 
929	 0,195465868798676 
930	 0,195197073132239 
931	 0,19471202712462 
932	 0,194007944691836 
933	 0,194636844701189 
934	 0,19522290908487 
935	 0,193880977747534 
936	 0,193068834996163 
937	 0,192820791371634 
938	 0,191529668928835 
939	 0,1906181360075 
940	 0,19044647096026 
941	 0,18993300801147 
942	 0,189336426219281 
943	 0,188880764752078 
944	 0,187818307017953 
945	 0,186819698743867 
946	 0,187379164706322 
947	 0,186560253283555 
948	 0,184075709591938 
949	 0,181983499460263 
950	 0,181400377918439 
951	 0,182346534812708 
952	 0,180326979751894 
953	 0,17765679831695 
954	 0,177602742364516 
955	 0,177829890218276 
956	 0,177203867711555 
957	 0,173767209422234 
958	 0,172889811311335 
959	 0,175171543211238 
960	 0,17403918282778 
961	 0,172105626396811 
962	 0,171513439433432 
963	 0,171096702183254 
964	 0,170829659718581 
965	 0,170862319658055 
966	 0,170039856501811 
967	 0,16853141270311 
968	 0,167495300132992 
969	 0,168323679336753 
970	 0,170667708546777 
971	 0,169160391360366 
972	 0,167190409654303 
973	 0,168108861749938 
974	 0,170393461774434 
975	 0,171736790637668 
976	 0,168548593101812 
977	 0,167077839629035 
978	 0,168382540723764 
979	 0,169539813287124 
980	 0,170333460731054 
981	 0,170403336238018 
982	 0,168842506215307 
983	 0,167873303666492 
984	 0,169593493800377 
985	 0,170552293105863 
986	 0,170926652197896 
987	 0,17234002245551 
988	 0,173396716218352 
989	 0,173740609102758 
990	 0,173647259775393 
991	 0,173223432460436 
992	 0,17290657888533 
993	 0,174734907534894 
994	 0,176352073671459 
995	 0,175437530157754 
996	 0,176071908553592 
997	 0,177853424090533 
998	 0,178521019459371 
999	 0,179525990424964 
1000	 0,180524047738285 
1001	 0,179009192205729 
1002	 0,177559356790354 
1003	 0,177718641097837 
1004	 0,180101158858297 
1005	 0,181867036100565 
1006	 0,180449091956822 
1007	 0,178990679067454 
1008	 0,178534605398295 
1009	 0,17982797821347 
1010	 0,181185666804155 
1011	 0,182319646550165 
1012	 0,184317752722773 
1013	 0,184905563702962 
1014	 0,184029255049101 
1015	 0,187047175462223 
1016	 0,190086099326991 
1017	 0,189752909890998 
1018	 0,187850947318626 
1019	 0,186105525382288 
1020	 0,186631408157916 
1021	 0,189135231311591 
1022	 0,192063880511597 
1023	 0,1912754519255 
1024	 0,191188377885775 
1025	 0,192726912890272 
1026	 0,192629124061373 
1027	 0,192474671618967 
1028	 0,19350647512609 
1029	 0,196410708327214 
1030	 0,198978228273832 
1031	 0,198656413235891 
1032	 0,197707459433742 
1033	 0,197128388406805 
1034	 0,19816633645557 
1035	 0,193843037043728 
1036	 0,187500245021625 
1037	 0,197760033817159 
1038	 0,206628219652272 
1039	 0,206975152447649 
1040	 0,208099132370839 
1041	 0,20922318542816 
1042	 0,208903910567302 
1043	 0,202938193418476 
1044	 0,196186745327316 
1045	 0,195971161456997 
1046	 0,195985763176634 
1047	 0,197286793706353 
1048	 0,205417302496992 
1049	 0,213312142246318 
1050	 0,21641497864324 
1051	 0,207902477193594 
1052	 0,201955458423901 
1053	 0,205398110444836 
1054	 0,206667034932183 
1055	 0,212491630152695 
1056	 0,225478348264569 
1057	 0,21452873707171 
1058	 0,198336089320143 
1059	 0,208904955638594 
1060	 0,21132304542622 
1061	 0,207189663929544 
1062	 0,217156463132786 
1063	 0,218881690910502 
1064	 0,209367366851459 
1065	 0,201722649490284 
1066	 0,202776132265978 
1067	 0,212222442463743 
1068	 0,209956409619939 
1069	 0,211589504998622 
1070	 0,225678299720529 
1071	 0,218538528734415 
1072	 0,207189605002712 
1073	 0,215677043036419 
1074	 0,216612949379192 
1075	 0,21109910662069 
