Wavelength	GRA-BER00242.asd
325	 0,376580854152535 
326	 0,378099277962242 
327	 0,359628890693469 
328	 0,323704164077066 
329	 0,299499239799166 
330	 0,298295956108299 
331	 0,332605780788274 
332	 0,374173337286293 
333	 0,384695529488374 
334	 0,294771990224859 
335	 0,235465549107932 
336	 0,268163039661729 
337	 0,315320875210258 
338	 0,352007523896851 
339	 0,370296060600641 
340	 0,342603498095564 
341	 0,297669266613774 
342	 0,287862386557705 
343	 0,286360312383865 
344	 0,290193499928609 
345	 0,325788839877682 
346	 0,344640444289941 
347	 0,304633155229506 
348	 0,286632000111528 
349	 0,288943739371301 
350	 0,266571488904599 
351	 0,290342700235671 
352	 0,356814330287144 
353	 0,317823355526443 
354	 0,280572672297551 
355	 0,381704134432639 
356	 0,40764712010726 
357	 0,354240678070268 
358	 0,312038623589158 
359	 0,304325870961569 
360	 0,335724436704064 
361	 0,355324607287738 
362	 0,365878556881896 
363	 0,378322229830927 
364	 0,386577444929848 
365	 0,385044874727487 
366	 0,358081664601135 
367	 0,339081981154788 
368	 0,348686463467814 
369	 0,358358188318486 
370	 0,365711600415321 
371	 0,375226776968862 
372	 0,375271552490409 
373	 0,369264553697948 
374	 0,387004409908928 
375	 0,399107756433507 
376	 0,385008068837139 
377	 0,376953431701052 
378	 0,37978610105173 
379	 0,393095814389125 
380	 0,388645927539366 
381	 0,364582609707202 
382	 0,365139961776291 
383	 0,375529388865026 
384	 0,379491149035936 
385	 0,379132290952641 
386	 0,375683853841304 
387	 0,37120747007909 
388	 0,374163409630822 
389	 0,384491705469223 
390	 0,379158746364334 
391	 0,37663144340136 
392	 0,399822175952532 
393	 0,409072707854608 
394	 0,40135424835026 
395	 0,390250623153961 
396	 0,385862263998778 
397	 0,391606510576836 
398	 0,382671419422996 
399	 0,370265767288203 
400	 0,37365166744704 
401	 0,390274076451191 
402	 0,41024874829573 
403	 0,40488727782784 
404	 0,395877335795307 
405	 0,397791689418118 
406	 0,395482565411559 
407	 0,392065262973827 
408	 0,397688524141371 
409	 0,402274536021935 
410	 0,401913282570458 
411	 0,394109896150712 
412	 0,388861849497303 
413	 0,39495398468462 
414	 0,400411157082675 
415	 0,402691157339346 
416	 0,401376070768072 
417	 0,401716966563412 
418	 0,404660528070957 
419	 0,40107961638314 
420	 0,395740377283122 
421	 0,395443462753033 
422	 0,396295379035118 
423	 0,397412558808536 
424	 0,398923226241374 
425	 0,400556459600764 
426	 0,401693904580838 
427	 0,398499166836554 
428	 0,394495771730803 
429	 0,396618765265263 
430	 0,400237189879426 
431	 0,402858856428338 
432	 0,399917112799495 
433	 0,398317122250318 
434	 0,40360207191483 
435	 0,402825442303345 
436	 0,397573076741815 
437	 0,397870269901805 
438	 0,398924027121793 
439	 0,399019228931727 
440	 0,39889469355145 
441	 0,399693099738293 
442	 0,402807590639778 
443	 0,400649883203721 
444	 0,394683550239737 
445	 0,395482937431002 
446	 0,399119474785303 
447	 0,402348408153983 
448	 0,39980740290366 
449	 0,394935720924003 
450	 0,395118604816509 
451	 0,39833298882716 
452	 0,402781383979178 
453	 0,403055543475419 
454	 0,402048365976993 
455	 0,402747891900382 
456	 0,404906229209591 
457	 0,406793944233099 
458	 0,403907788655345 
459	 0,401050363175092 
460	 0,400626234102572 
461	 0,40322308413705 
462	 0,406379064246903 
463	 0,406881549766961 
464	 0,405300630187579 
465	 0,403073780524846 
466	 0,404665124273229 
467	 0,405931168427907 
468	 0,404596427084941 
469	 0,406977310514079 
470	 0,410944818554269 
471	 0,410661083732902 
472	 0,409818293356986 
473	 0,409525828578112 
474	 0,40916241558452 
475	 0,409370894115942 
476	 0,410697260289124 
477	 0,411289092568097 
478	 0,410946047257173 
479	 0,410093319895738 
480	 0,409917000859257 
481	 0,410786352077729 
482	 0,410951476635403 
483	 0,41024337056138 
484	 0,408651594385518 
485	 0,408680438607342 
486	 0,410167760209729 
487	 0,409535140146773 
488	 0,409242440135373 
489	 0,410959704485209 
490	 0,411419289020612 
491	 0,410671828842833 
492	 0,409740723891057 
493	 0,410575112963065 
494	 0,41288181620223 
495	 0,410888216880517 
496	 0,40814222313352 
497	 0,409070017964601 
498	 0,408595695670162 
499	 0,407076353639066 
500	 0,409308541218177 
501	 0,410819052372546 
502	 0,409507249769498 
503	 0,410236228083436 
504	 0,412141789209377 
505	 0,412600047147079 
506	 0,413768770959728 
507	 0,415786942734111 
508	 0,416727560327444 
509	 0,417067150666269 
510	 0,417282004411633 
511	 0,416579060396957 
512	 0,415414561078122 
513	 0,415248796156638 
514	 0,41509493192522 
515	 0,414518940888597 
516	 0,413384671043571 
517	 0,412931324351543 
518	 0,414910747542761 
519	 0,415140053830932 
520	 0,413656568327727 
521	 0,414931019621655 
522	 0,416217815935762 
523	 0,415567884413362 
524	 0,414868222453799 
525	 0,414703608807902 
526	 0,415811320909686 
527	 0,416362917207091 
528	 0,415772263896903 
529	 0,414833052601534 
530	 0,414168148334645 
531	 0,414373684433695 
532	 0,414112527304484 
533	 0,413404367861538 
534	 0,413197445285577 
535	 0,413708856147872 
536	 0,414846412947158 
537	 0,414745915651798 
538	 0,41393627654167 
539	 0,413870451885401 
540	 0,413694295424744 
541	 0,413345165063283 
542	 0,413465731373907 
543	 0,414256621350443 
544	 0,415772076357296 
545	 0,415676545461051 
546	 0,414613074287983 
547	 0,41594071713956 
548	 0,41649173584112 
549	 0,415123199770829 
550	 0,415306285724983 
551	 0,416349729877269 
552	 0,41656532395896 
553	 0,416766243958673 
554	 0,416935834883879 
555	 0,416176397535128 
556	 0,415652297816211 
557	 0,416233565976536 
558	 0,415986100401624 
559	 0,415094923996868 
560	 0,414893350515752 
561	 0,414743720303178 
562	 0,414543529476254 
563	 0,415098910613554 
564	 0,415706414275693 
565	 0,415364972919936 
566	 0,415834011446774 
567	 0,417167781122251 
568	 0,417869345899398 
569	 0,418583676551914 
570	 0,419700746499659 
571	 0,420287955091076 
572	 0,420890268909573 
573	 0,423153045859321 
574	 0,424418170798091 
575	 0,424167769331041 
576	 0,42520904599457 
577	 0,42644196140081 
578	 0,426438874424257 
579	 0,426336324164411 
580	 0,426513182574457 
581	 0,427243399705875 
582	 0,428073055171193 
583	 0,428806440309869 
584	 0,430215002551572 
585	 0,431747644379939 
586	 0,432364802021701 
587	 0,432113238389702 
588	 0,431549380668414 
589	 0,433068510694154 
590	 0,434434244005901 
591	 0,433580111452999 
592	 0,433162669864764 
593	 0,433575354369833 
594	 0,434534651400211 
595	 0,434668539341616 
596	 0,433582617322998 
597	 0,433550543894183 
598	 0,434317872985231 
599	 0,435165640108148 
600	 0,434763861445142 
601	 0,433330327322557 
602	 0,433307498581895 
603	 0,433816166396282 
604	 0,434054057662114 
605	 0,433688492369346 
606	 0,432800397174372 
607	 0,431667457553793 
608	 0,431034437507277 
609	 0,431056641358946 
610	 0,430627200031028 
611	 0,429831596829227 
612	 0,428903111567483 
613	 0,428839094618713 
614	 0,429471970006752 
615	 0,429337496191577 
616	 0,429252401816614 
617	 0,429615140040534 
618	 0,429097766124021 
619	 0,428208725826932 
620	 0,42820097913891 
621	 0,429009948876028 
622	 0,430295328821011 
623	 0,430442141507838 
624	 0,430407309995548 
625	 0,431247716483218 
626	 0,432047406291183 
627	 0,432520673128012 
628	 0,432435414256154 
629	 0,43229180827578 
630	 0,432381983459146 
631	 0,432549330826383 
632	 0,433015098572016 
633	 0,434183003824223 
634	 0,434936707449014 
635	 0,435127924179947 
636	 0,435731246985454 
637	 0,436283055716874 
638	 0,436422119126907 
639	 0,437020609863939 
640	 0,437944494090116 
641	 0,438472358205918 
642	 0,438880000933181 
643	 0,439307815127922 
644	 0,440042558604562 
645	 0,440618963737647 
646	 0,440406647221479 
647	 0,440718567257482 
648	 0,441418498657268 
649	 0,440864952415393 
650	 0,440035099688811 
651	 0,439561458175418 
652	 0,438763790963747 
653	 0,43780451081687 
654	 0,437133466270049 
655	 0,43689702945213 
656	 0,436865473476659 
657	 0,435649252982171 
658	 0,434321132281717 
659	 0,434025564665184 
660	 0,433101404404497 
661	 0,431624436882191 
662	 0,430782481570226 
663	 0,430226736939897 
664	 0,429820021674297 
665	 0,429762365393601 
666	 0,429741404069356 
667	 0,429247995194805 
668	 0,429073211624519 
669	 0,429290342835729 
670	 0,429254373363769 
671	 0,429141410169114 
672	 0,429111981096507 
673	 0,429194588755207 
674	 0,42935810888974 
675	 0,429539708785745 
676	 0,429557771387266 
677	 0,429452333021416 
678	 0,429827966903647 
679	 0,430492740564718 
680	 0,431152029467033 
681	 0,431042661499304 
682	 0,430478360037738 
683	 0,431033119641064 
684	 0,431789339022606 
685	 0,432262885736562 
686	 0,433087037987398 
687	 0,434380199004341 
688	 0,436193565897134 
689	 0,438295851804485 
690	 0,440669442878867 
691	 0,443510920056403 
692	 0,447055149114625 
693	 0,451439956226583 
694	 0,455638851811132 
695	 0,459837615994252 
696	 0,465041336202094 
697	 0,4707039163707 
698	 0,476579779443281 
699	 0,482627203711211 
700	 0,488754526034972 
701	 0,494868481865396 
702	 0,501729572244786 
703	 0,509020321470009 
704	 0,515308425843204 
705	 0,520832772497328 
706	 0,525862881843676 
707	 0,531515034720902 
708	 0,537399065539526 
709	 0,542509114414423 
710	 0,546964719766233 
711	 0,550957193219189 
712	 0,55530174882329 
713	 0,559403695939291 
714	 0,562733465270033 
715	 0,566217728247508 
716	 0,569860762545099 
717	 0,573252759070878 
718	 0,576254631483899 
719	 0,578835035477101 
720	 0,581414096577317 
721	 0,583694525173139 
722	 0,58525186565803 
723	 0,587312902306787 
724	 0,589847834565104 
725	 0,591685718752504 
726	 0,59330558062398 
727	 0,594951005352448 
728	 0,59615804417287 
729	 0,597041856765632 
730	 0,597880922712057 
731	 0,598817913071409 
732	 0,599844298712511 
733	 0,600618992151293 
734	 0,601356622267486 
735	 0,602227818048112 
736	 0,602772997437131 
737	 0,603106209290102 
738	 0,603754534724157 
739	 0,604135732082796 
740	 0,604149942704033 
741	 0,604509667732487 
742	 0,604970879655804 
743	 0,60518878137117 
744	 0,60541400492489 
745	 0,605764800335695 
746	 0,606460659342052 
747	 0,60702023713671 
748	 0,607199388245457 
749	 0,607331058381848 
750	 0,607491134577324 
751	 0,607719807352286 
752	 0,608150648383972 
753	 0,608613137754659 
754	 0,608303669464959 
755	 0,608165590721055 
756	 0,608796812011185 
757	 0,608800329770404 
758	 0,608581406734992 
759	 0,609475080871296 
760	 0,60982536323926 
761	 0,609304448745839 
762	 0,609100190449321 
763	 0,60913820453998 
764	 0,609268803542617 
765	 0,609105358777329 
766	 0,608803582607063 
767	 0,609045204672644 
768	 0,608982172934271 
769	 0,608381055829405 
770	 0,607928581757909 
771	 0,607874764486825 
772	 0,608411215056645 
773	 0,608568562618913 
774	 0,60827717719642 
775	 0,608072947805977 
776	 0,608041347241214 
777	 0,608212667618209 
778	 0,608311216658139 
779	 0,608383495786688 
780	 0,608549046001869 
781	 0,608733140013442 
782	 0,608860254122629 
783	 0,608727254383259 
784	 0,608661536509645 
785	 0,608860256175469 
786	 0,608998482330575 
787	 0,609115834338454 
788	 0,609388462162539 
789	 0,609391189429637 
790	 0,609110976242112 
791	 0,609051767562402 
792	 0,609089569991434 
793	 0,609108575128919 
794	 0,60914809174003 
795	 0,609030931308047 
796	 0,608331113370723 
797	 0,607963773373238 
798	 0,608140680323858 
799	 0,608234934270778 
800	 0,608032925041161 
801	 0,607428401389185 
802	 0,607457598115829 
803	 0,60777715954601 
804	 0,606827989907395 
805	 0,606735617991308 
806	 0,607963784987225 
807	 0,608486735920201 
808	 0,608413062117179 
809	 0,608047080409627 
810	 0,607836934524612 
811	 0,60787647575896 
812	 0,608014813796602 
813	 0,608445584738016 
814	 0,609080396234765 
815	 0,608951561521198 
816	 0,608758784509694 
817	 0,609405054582847 
818	 0,609941816144567 
819	 0,610134023042558 
820	 0,60989221215792 
821	 0,610068231403537 
822	 0,610846930135073 
823	 0,610486695809731 
824	 0,609793931301161 
825	 0,61001027014746 
826	 0,610157150358606 
827	 0,610206547841824 
828	 0,610856992556384 
829	 0,611227307200076 
830	 0,610911307457216 
831	 0,610601067928033 
832	 0,610326561848828 
833	 0,610019775070005 
834	 0,609800364742224 
835	 0,609790706860154 
836	 0,610378267767796 
837	 0,610421460326596 
838	 0,609532203438839 
839	 0,609795437572063 
840	 0,610343333939494 
841	 0,609644749035337 
842	 0,609401613503016 
843	 0,609684393895754 
844	 0,609222352137449 
845	 0,608911734457745 
846	 0,609237900458853 
847	 0,609953981382445 
848	 0,610509237471546 
849	 0,610202233058 
850	 0,60990603155818 
851	 0,609920719921776 
852	 0,610445809902118 
853	 0,610798036367918 
854	 0,61058599224802 
855	 0,609992330685427 
856	 0,60950055046972 
857	 0,609708435305442 
858	 0,609958830426027 
859	 0,610154405743588 
860	 0,610633005539786 
861	 0,610746293456169 
862	 0,610323199208019 
863	 0,610619274682659 
864	 0,611216225402373 
865	 0,611398447172691 
866	 0,611628555999972 
867	 0,611792162778506 
868	 0,611255378204883 
869	 0,61069105744447 
870	 0,610449762455805 
871	 0,610387904716397 
872	 0,610526860103566 
873	 0,610879736393446 
874	 0,610784817501047 
875	 0,610438284552183 
876	 0,610889817040994 
877	 0,611148115013365 
878	 0,610897410853595 
879	 0,610936067038393 
880	 0,610948467941356 
881	 0,610570069547806 
882	 0,61056936018838 
883	 0,610883823784501 
884	 0,610930401559814 
885	 0,610993347628155 
886	 0,611107600541804 
887	 0,610956213916707 
888	 0,610919038382283 
889	 0,611334632754096 
890	 0,61166558587514 
891	 0,611889632695235 
892	 0,612281691662838 
893	 0,611844998228678 
894	 0,610713735631998 
895	 0,610919472810958 
896	 0,61145289763649 
897	 0,611472318334753 
898	 0,611345160743753 
899	 0,61139980526341 
900	 0,61216425277071 
901	 0,6123434236301 
902	 0,611766829147972 
903	 0,611305348957119 
904	 0,611123360703936 
905	 0,611316195033028 
906	 0,611671232349346 
907	 0,612028364100574 
908	 0,612214401386505 
909	 0,611646992401085 
910	 0,610698334689533 
911	 0,61091566630036 
912	 0,611386006813588 
913	 0,611614944174754 
914	 0,611383958556425 
915	 0,611279310657813 
916	 0,611920959858561 
917	 0,61220372395416 
918	 0,611936070014019 
919	 0,611152241447795 
920	 0,610910003732147 
921	 0,611351261780193 
922	 0,610960383360587 
923	 0,610862392686799 
924	 0,611852796854595 
925	 0,611784157953887 
926	 0,610837986468811 
927	 0,609905908677775 
928	 0,610431816899144 
929	 0,611804682441226 
930	 0,610014806315738 
931	 0,608423254967292 
932	 0,60888893906509 
933	 0,609447205880914 
934	 0,609690224230791 
935	 0,609398786988398 
936	 0,609348216455616 
937	 0,609579875584738 
938	 0,609755679268262 
939	 0,609368486487549 
940	 0,608496033160181 
941	 0,608600974647857 
942	 0,609109542496065 
943	 0,609366717733451 
944	 0,609059979296215 
945	 0,607996072748789 
946	 0,605869574532748 
947	 0,60558230845505 
948	 0,607178398632026 
949	 0,607405148505415 
950	 0,607404408630581 
951	 0,607578646202592 
952	 0,606230480827334 
953	 0,604655098821999 
954	 0,604546383943532 
955	 0,604553956887688 
956	 0,604275297615437 
957	 0,603382181781331 
958	 0,602907910420517 
959	 0,60288282755021 
960	 0,601421733695989 
961	 0,60093324536366 
962	 0,602768723116444 
963	 0,601551979047487 
964	 0,599692351310033 
965	 0,601895035633676 
966	 0,603048257462745 
967	 0,602460238302321 
968	 0,602297945104514 
969	 0,600954374353197 
970	 0,598547131613814 
971	 0,599082351589977 
972	 0,600268114860157 
973	 0,599808966220538 
974	 0,598978704987379 
975	 0,598265675337165 
976	 0,598154657189147 
977	 0,598724156194779 
978	 0,599840437834565 
979	 0,601118035693733 
980	 0,601755206595027 
981	 0,601512615496048 
982	 0,601629336659473 
983	 0,602206091005507 
984	 0,603032143991511 
985	 0,601566298555315 
986	 0,59921736058469 
987	 0,599543711502694 
988	 0,600499333195684 
989	 0,601021480221778 
990	 0,599242878216579 
991	 0,599073582296308 
992	 0,601860880707908 
993	 0,602332602097647 
994	 0,60208138767264 
995	 0,603009880360305 
996	 0,601712954587585 
997	 0,599402815242371 
998	 0,599378515792526 
999	 0,602020838932418 
1000	 0,606029325985497 
1001	 0,607023037025994 
1002	 0,605386225987806 
1003	 0,602430375050923 
1004	 0,604521092598236 
1005	 0,606801449683085 
1006	 0,604542638829516 
1007	 0,60486426504562 
1008	 0,606645547850857 
1009	 0,605782864411257 
1010	 0,606414376523618 
1011	 0,608400324482642 
1012	 0,607627643946948 
1013	 0,606929730460711 
1014	 0,607423992699257 
1015	 0,60783165622389 
1016	 0,609290966658768 
1017	 0,612225913147615 
1018	 0,611072085058946 
1019	 0,609286054778475 
1020	 0,612928934711701 
1021	 0,614168003144429 
1022	 0,61202687764202 
1023	 0,60897842607673 
1024	 0,608327542882382 
1025	 0,610505829478687 
1026	 0,610525737080951 
1027	 0,611819649358808 
1028	 0,615662578933302 
1029	 0,61400321950194 
1030	 0,612080142972114 
1031	 0,616309661735366 
1032	 0,616449907327195 
1033	 0,614292967628791 
1034	 0,617531342911784 
1035	 0,619115458533963 
1036	 0,618251329008215 
1037	 0,619689226285428 
1038	 0,619084116786348 
1039	 0,615381958047521 
1040	 0,613298166485506 
1041	 0,614490053685448 
1042	 0,619322837157213 
1043	 0,621755186383041 
1044	 0,621780576959294 
1045	 0,620859989201306 
1046	 0,622080886461984 
1047	 0,622924692776806 
1048	 0,615451424127669 
1049	 0,614799535391254 
1050	 0,620503848145538 
1051	 0,610298726075082 
1052	 0,609270468669591 
1053	 0,624438518951126 
1054	 0,62017616283091 
1055	 0,612548089529037 
1056	 0,617032278252773 
1057	 0,625164592724102 
1058	 0,628530368658949 
1059	 0,618389874437355 
1060	 0,611412167746241 
1061	 0,610434029552508 
1062	 0,612326114040899 
1063	 0,617268637456706 
1064	 0,622176962245832 
1065	 0,617659800475267 
1066	 0,614898976445483 
1067	 0,618006217364973 
1068	 0,616271156808763 
1069	 0,621655993607419 
1070	 0,638780984856469 
1071	 0,629193259913436 
1072	 0,617702595977312 
1073	 0,635815597972217 
1074	 0,638644280438011 
1075	 0,629552109327723 
