Wavelength	GRA-BER00199.asd
325	 0,105051126170387 
326	 0,209168006801245 
327	 0,264609964222614 
328	 0,231504604779931 
329	 0,264291333710487 
330	 0,26269540634463 
331	 0,150171618507895 
332	 0,185300919063149 
333	 0,265938915971023 
334	 0,119363155710619 
335	 0,033649847037126 
336	 0,115795214295853 
337	 0,195550494641039 
338	 0,190232750932637 
339	 5,00696699255174E-02 
340	 2,99060705159853E-02 
341	 0,102025109231302 
342	 7,88909439316102E-02 
343	 7,20486238299924E-02 
344	 0,104465004553434 
345	 0,11644859686629 
346	 0,106104627984781 
347	 7,66628409240719E-02 
348	 5,83429758402922E-02 
349	 5,32548882733423E-02 
350	 0,058828119979067 
351	 6,17713461219391E-02 
352	 5,61887264606662E-02 
353	 0,043113290848713 
354	 3,76087581890913E-02 
355	 5,79951014068949E-02 
356	 6,15622312453058E-02 
357	 4,76207017717311E-02 
358	 3,51540256362911E-02 
359	 3,19981727323516E-02 
360	 4,13494289868758E-02 
361	 0,0593666742875 
362	 7,14514112961833E-02 
363	 5,67506490764457E-02 
364	 5,82302264224461E-02 
365	 7,30094361528084E-02 
366	 5,22554975055811E-02 
367	 0,034296472854119 
368	 0,043053691941095 
369	 5,57197740336184E-02 
370	 6,32816057644418E-02 
371	 5,61436846935806E-02 
372	 5,04593675271998E-02 
373	 5,28991045770058E-02 
374	 6,61582147214129E-02 
375	 7,13489228761237E-02 
376	 5,53263172030693E-02 
377	 0,041245171298637 
378	 3,46399390261956E-02 
379	 3,51799840641175E-02 
380	 3,39048332130401E-02 
381	 2,91770166612476E-02 
382	 2,94383886623972E-02 
383	 3,51407303640939E-02 
384	 4,53640489465953E-02 
385	 4,70382027983248E-02 
386	 3,90919760663897E-02 
387	 0,02500322627885 
388	 1,74821426896573E-02 
389	 2,02594355254346E-02 
390	 2,44500259858325E-02 
391	 2,91769585991579E-02 
392	 3,42655806662234E-02 
393	 4,43250027314855E-02 
394	 5,24758910433196E-02 
395	 3,65493784637452E-02 
396	 2,08007911983429E-02 
397	 1,96068003742703E-02 
398	 0,027658479284524 
399	 3,48060893697845E-02 
400	 2,74444332103391E-02 
401	 2,64032761695694E-02 
402	 3,35379657862558E-02 
403	 3,66429628663114E-02 
404	 3,39251357017234E-02 
405	 2,54881395845658E-02 
406	 2,31687020488754E-02 
407	 2,58041164914625E-02 
408	 0,028028136120583 
409	 2,75455576252681E-02 
410	 2,41957239273949E-02 
411	 2,25873899343287E-02 
412	 1,86319812648393E-02 
413	 9,31480715464568E-03 
414	 1,27113674330724E-02 
415	 2,42788663673606E-02 
416	 2,58569322022789E-02 
417	 2,50554011344459E-02 
418	 2,45651535357218E-02 
419	 2,23525730169776E-02 
420	 1,94531545306781E-02 
421	 1,71644448900016E-02 
422	 1,87680044697509E-02 
423	 2,34662744786907E-02 
424	 2,67965995155454E-02 
425	 2,75734411386224E-02 
426	 2,51642172348035E-02 
427	 1,96750711122416E-02 
428	 1,57441802145602E-02 
429	 2,15206494926976E-02 
430	 2,63920933189759E-02 
431	 2,67045479338526E-02 
432	 2,20781865611796E-02 
433	 1,83482826268671E-02 
434	 2,02691020939916E-02 
435	 1,99193308155087E-02 
436	 1,70456231120582E-02 
437	 1,40228681715077E-02 
438	 1,53211044086515E-02 
439	 2,13465743356959E-02 
440	 0,022442203746214 
441	 2,14288522356727E-02 
442	 2,29686943650073E-02 
443	 2,09796967546328E-02 
444	 1,67628597498573E-02 
445	 1,87314983757484E-02 
446	 2,27207498931705E-02 
447	 2,54120374168932E-02 
448	 2,24520285999708E-02 
449	 1,76682487439429E-02 
450	 1,91203111881742E-02 
451	 2,07687384258697E-02 
452	 2,07178288237914E-02 
453	 1,89633359810514E-02 
454	 1,78582619854318E-02 
455	 1,95337271397579E-02 
456	 0,02229893989983 
457	 2,44090436820731E-02 
458	 2,27024981875311E-02 
459	 1,93272093299792E-02 
460	 1,60028344835371E-02 
461	 1,66189542230501E-02 
462	 1,90063477711892E-02 
463	 1,98102137041844E-02 
464	 1,86625152735954E-02 
465	 1,62520751863474E-02 
466	 1,51190570610465E-02 
467	 1,61433466859904E-02 
468	 1,93852470074216E-02 
469	 0,019972174025727 
470	 1,88846110447789E-02 
471	 1,97592357144901E-02 
472	 1,88695887264444E-02 
473	 1,63121485801175E-02 
474	 1,78120402326135E-02 
475	 2,08219117507971E-02 
476	 2,23713727513044E-02 
477	 2,13918667260896E-02 
478	 1,86108790072551E-02 
479	 1,62569855823409E-02 
480	 1,61492480213323E-02 
481	 0,018481498769892 
482	 0,017801628677618 
483	 1,57408031278095E-02 
484	 1,55510772278846E-02 
485	 1,64908806720367E-02 
486	 1,75033127766314E-02 
487	 1,51368205461298E-02 
488	 1,30820144573847E-02 
489	 1,41220642445712E-02 
490	 1,62059613315875E-02 
491	 1,81872083306888E-02 
492	 1,84279255763423E-02 
493	 1,82246679280577E-02 
494	 1,79811575687434E-02 
495	 1,71857516161531E-02 
496	 1,66574996033775E-02 
497	 0,017295724374154 
498	 1,51164954331306E-02 
499	 0,011588300439076 
500	 1,40080355323419E-02 
501	 0,016354052660928 
502	 1,55431457627026E-02 
503	 1,62834224168183E-02 
504	 1,78654757140551E-02 
505	 1,80826447654569E-02 
506	 1,80995619590542E-02 
507	 1,83367812938606E-02 
508	 1,92218257304565E-02 
509	 1,98511205878766E-02 
510	 1,93677584749165E-02 
511	 1,71269097702965E-02 
512	 1,46429267614272E-02 
513	 0,016021287914112 
514	 1,76126826453227E-02 
515	 1,77620214556873E-02 
516	 1,70449108058364E-02 
517	 0,016297403802269 
518	 1,66104024086027E-02 
519	 1,62244415120098E-02 
520	 1,52143985818894E-02 
521	 0,015522760064076 
522	 1,60505500973742E-02 
523	 1,59917649646905E-02 
524	 1,58042682725844E-02 
525	 1,59442018419958E-02 
526	 1,75455646313033E-02 
527	 1,77361065905827E-02 
528	 1,61699449624253E-02 
529	 1,69884196891277E-02 
530	 1,82113912053693E-02 
531	 1,72887913550843E-02 
532	 1,66085779656099E-02 
533	 1,64802993708594E-02 
534	 1,60043136575988E-02 
535	 1,58817062236751E-02 
536	 1,64194715343726E-02 
537	 1,65708008020104E-02 
538	 1,64358798095053E-02 
539	 1,64606553789545E-02 
540	 1,66250260676968E-02 
541	 1,68559964767615E-02 
542	 1,66923846866753E-02 
543	 1,68453220450617E-02 
544	 1,79511532134691E-02 
545	 1,82780942019287E-02 
546	 1,78904059468825E-02 
547	 1,81069705205448E-02 
548	 1,78565253241081E-02 
549	 0,016856421994959 
550	 1,68569261139337E-02 
551	 1,73028596424357E-02 
552	 1,70157356444869E-02 
553	 1,68616630209702E-02 
554	 1,68880044509917E-02 
555	 1,61978796805099E-02 
556	 1,60570795047423E-02 
557	 1,73779122269421E-02 
558	 1,77395876843251E-02 
559	 1,72986891103393E-02 
560	 1,76607053462526E-02 
561	 1,77085978469064E-02 
562	 1,71797300179821E-02 
563	 1,70967251493764E-02 
564	 1,74195111566951E-02 
565	 1,79595512809799E-02 
566	 1,87837227418353E-02 
567	 1,95128245385662E-02 
568	 1,88438063203283E-02 
569	 1,82965935057234E-02 
570	 1,89001934297385E-02 
571	 1,95232213340727E-02 
572	 2,00243124123105E-02 
573	 2,05596964362272E-02 
574	 2,07012571473485E-02 
575	 2,05034119385542E-02 
576	 2,11059385788011E-02 
577	 2,17877673913517E-02 
578	 2,16726789465974E-02 
579	 2,18547410726471E-02 
580	 2,23710053004185E-02 
581	 2,25699421088261E-02 
582	 2,25448942133015E-02 
583	 0,022411598378771 
584	 2,26931019923652E-02 
585	 2,31353460147308E-02 
586	 2,32119592200051E-02 
587	 2,27801485834217E-02 
588	 2,20436399986231E-02 
589	 0,022095622309901 
590	 2,22598985573224E-02 
591	 0,021918064329596 
592	 2,23863640707797E-02 
593	 2,33341971507826E-02 
594	 2,32806421363305E-02 
595	 2,27720931116562E-02 
596	 0,02208794484925 
597	 2,13244945911795E-02 
598	 2,09453813202048E-02 
599	 2,15957654487896E-02 
600	 2,20758669566365E-02 
601	 2,19634043979183E-02 
602	 2,10232021501276E-02 
603	 2,07445252657225E-02 
604	 2,20786168822892E-02 
605	 2,15938427822849E-02 
606	 2,00092878527916E-02 
607	 2,06394817383004E-02 
608	 2,08693316071309E-02 
609	 1,99708113417292E-02 
610	 1,96091433294736E-02 
611	 0,019445112175327 
612	 1,88952893297482E-02 
613	 1,90244458625142E-02 
614	 0,019720272832509 
615	 1,98083154792833E-02 
616	 1,96303590430314E-02 
617	 1,94142381896822E-02 
618	 1,91618110831669E-02 
619	 0,018992384289137 
620	 1,91074061473282E-02 
621	 1,92576647416941E-02 
622	 1,93553910527661E-02 
623	 1,93863130145483E-02 
624	 1,96334408848618E-02 
625	 2,03575096211203E-02 
626	 2,08159554832934E-02 
627	 2,08659187252445E-02 
628	 2,05793392833995E-02 
629	 2,04535696027541E-02 
630	 0,020741793436735 
631	 2,10375656008703E-02 
632	 2,13854229542573E-02 
633	 2,19545177777298E-02 
634	 2,23661625133396E-02 
635	 0,022524342038885 
636	 2,25581026664951E-02 
637	 2,25995777974019E-02 
638	 2,28010200068175E-02 
639	 2,36779117652169E-02 
640	 2,48750428694565E-02 
641	 2,53870820321214E-02 
642	 2,53876938006115E-02 
643	 2,50466051481176E-02 
644	 2,51143365839894E-02 
645	 2,52171489724467E-02 
646	 2,47665466900195E-02 
647	 2,49623477784274E-02 
648	 2,56662425899828E-02 
649	 2,52351648953335E-02 
650	 2,51299349529535E-02 
651	 2,61673318467366E-02 
652	 2,63348016328335E-02 
653	 2,57483560060039E-02 
654	 0,025189491570685 
655	 2,52085077625369E-02 
656	 2,57600849243752E-02 
657	 0,025439521320345 
658	 2,48563023394745E-02 
659	 2,47076372559649E-02 
660	 2,42180971410306E-02 
661	 2,33677199805542E-02 
662	 2,24789666198995E-02 
663	 2,18903684894599E-02 
664	 2,17522154908276E-02 
665	 2,16323715041452E-02 
666	 2,14946729236605E-02 
667	 2,14035367077108E-02 
668	 2,08129914125117E-02 
669	 1,99633697134328E-02 
670	 2,04448551504051E-02 
671	 2,08850173217164E-02 
672	 2,02294051542572E-02 
673	 1,99374703349487E-02 
674	 2,00709063519443E-02 
675	 2,01610827724567E-02 
676	 0,020247148386927 
677	 2,03398991291895E-02 
678	 0,020565249925055 
679	 2,07847947715104E-02 
680	 2,08278719129615E-02 
681	 2,10094139042039E-02 
682	 2,12004414967839E-02 
683	 2,07200159946117E-02 
684	 2,03300779624904E-02 
685	 2,05043588177119E-02 
686	 2,10740185992751E-02 
687	 2,16857081571086E-02 
688	 2,17509038439445E-02 
689	 2,20817143143502E-02 
690	 2,27891665384305E-02 
691	 2,31023849801909E-02 
692	 2,37089656702668E-02 
693	 2,52065981719179E-02 
694	 2,66822794738799E-02 
695	 2,82027500585468E-02 
696	 3,04405836793414E-02 
697	 3,26893676326691E-02 
698	 3,47951032261873E-02 
699	 3,75936630841698E-02 
700	 4,10923992578138E-02 
701	 4,51912590584849E-02 
702	 4,93977591607246E-02 
703	 5,35954205829998E-02 
704	 5,79888639014844E-02 
705	 6,26032842823658E-02 
706	 6,74308055671099E-02 
707	 7,24253588416296E-02 
708	 0,077392430398805 
709	 8,20192187603744E-02 
710	 8,64381955698394E-02 
711	 9,08662159530526E-02 
712	 9,61141583308982E-02 
713	 0,101090638920976 
714	 0,10486692507353 
715	 0,109456603442972 
716	 0,114604667962162 
717	 0,118698867281815 
718	 0,122397444371732 
719	 0,125946396196031 
720	 0,129341837968257 
721	 0,132473353829041 
722	 0,135193845796913 
723	 0,138432626192382 
724	 0,141912258763768 
725	 0,143913499979445 
726	 0,145746416783067 
727	 0,148215655995271 
728	 0,150800746575703 
729	 0,153165517206321 
730	 0,154828012240538 
731	 0,156466530041904 
732	 0,15817610154859 
733	 0,159349330008222 
734	 0,160407910936568 
735	 0,161711585133978 
736	 0,162690745620511 
737	 0,163536731160646 
738	 0,165043091313015 
739	 0,16610523647176 
740	 0,166505908678779 
741	 0,167609077649642 
742	 0,16871015713232 
743	 0,168899571639487 
744	 0,169462773441218 
745	 0,170419805168345 
746	 0,170855519616851 
747	 0,171417270916055 
748	 0,172364065265553 
749	 0,172969679015572 
750	 0,173362374805457 
751	 0,173870803794171 
752	 0,174465831487427 
753	 0,17499045431206 
754	 0,174804092132459 
755	 0,174849686641962 
756	 0,175732612123751 
757	 0,176184006358266 
758	 0,176348706043289 
759	 0,176972490853722 
760	 0,177308070869424 
761	 0,177255952343939 
762	 0,177506685355608 
763	 0,177911128963531 
764	 0,178283183021946 
765	 0,178469152954168 
766	 0,178527876724033 
767	 0,17867208591441 
768	 0,17900126431757 
769	 0,179458514322056 
770	 0,179367415399406 
771	 0,179404649229109 
772	 0,180393466728771 
773	 0,180861141992615 
774	 0,180663190226348 
775	 0,180384902909569 
776	 0,180521451857333 
777	 0,181254492970812 
778	 0,181707845765389 
779	 0,181901035789887 
780	 0,182028806305733 
781	 0,182109197468505 
782	 0,182215898189184 
783	 0,182518503167009 
784	 0,18286261429864 
785	 0,183145661059975 
786	 0,183463274295452 
787	 0,183727423487656 
788	 0,183753262342625 
789	 0,183964572603931 
790	 0,184331772443318 
791	 0,184118320344344 
792	 0,184039522466583 
793	 0,184603463309468 
794	 0,18470234887478 
795	 0,18443615563035 
796	 0,184369911604269 
797	 0,184695430205677 
798	 0,185352857071969 
799	 0,185664497753377 
800	 0,185705694404607 
801	 0,185611657623837 
802	 0,185780869574899 
803	 0,186078325995795 
804	 0,185879378264771 
805	 0,185991802587179 
806	 0,186586701996736 
807	 0,186899241309372 
808	 0,186897700865037 
809	 0,186637309070832 
810	 0,186590216117048 
811	 0,186937290382424 
812	 0,187924254891398 
813	 0,188499921183403 
814	 0,188340544036621 
815	 0,188596560216509 
816	 0,189159249731413 
817	 0,189758043744409 
818	 0,189695332796483 
819	 0,189281146081757 
820	 0,189949991345423 
821	 0,190648163633442 
822	 0,190888679903084 
823	 0,190967887923532 
824	 0,19118699882465 
825	 0,191882199223492 
826	 0,19221144189764 
827	 0,192128448750962 
828	 0,192130891165901 
829	 0,192419802058321 
830	 0,192993434084831 
831	 0,192969664347047 
832	 0,192790928109241 
833	 0,193181844361749 
834	 0,193460502138391 
835	 0,193597115625222 
836	 0,194088541328469 
837	 0,194406726313513 
838	 0,194334446268619 
839	 0,194536524379768 
840	 0,194813348120526 
841	 0,194785386423513 
842	 0,194485673279595 
843	 0,194127559815606 
844	 0,194316896607548 
845	 0,194762630281918 
846	 0,195249832696714 
847	 0,195516865756555 
848	 0,195705215429537 
849	 0,196064180063334 
850	 0,1963176321461 
851	 0,196490157882278 
852	 0,196925326206202 
853	 0,197147802301341 
854	 0,196989020178507 
855	 0,197224964173199 
856	 0,197521558279107 
857	 0,197317842205446 
858	 0,196977464938072 
859	 0,196792310067633 
860	 0,197327911906775 
861	 0,198065740159135 
862	 0,198614424951406 
863	 0,198486559953955 
864	 0,198115876490109 
865	 0,19813871784165 
866	 0,198710041486896 
867	 0,199566171716077 
868	 0,199816462113357 
869	 0,199874356494456 
870	 0,199965778801063 
871	 0,200283939305599 
872	 0,200445188947941 
873	 0,199996326209287 
874	 0,199855011308959 
875	 0,200063199347067 
876	 0,200057061621968 
877	 0,20033081128612 
878	 0,200937381774842 
879	 0,201019503920909 
880	 0,20091642965447 
881	 0,201040879649925 
882	 0,200687476334722 
883	 0,20016783389068 
884	 0,200728886085813 
885	 0,200785663672403 
886	 0,200033279499567 
887	 0,200013779811539 
888	 0,200422600213216 
889	 0,200881812019109 
890	 0,20151736427273 
891	 0,202067865072021 
892	 0,202009696320902 
893	 0,201609965902046 
894	 0,20119195542455 
895	 0,201675363146432 
896	 0,202142419579811 
897	 0,201937838207032 
898	 0,202316161879162 
899	 0,202868939467501 
900	 0,202560788816444 
901	 0,202036595407215 
902	 0,201631088385537 
903	 0,20173605536874 
904	 0,202249269497408 
905	 0,202935608453064 
906	 0,202669368824995 
907	 0,202246389160037 
908	 0,202979220782787 
909	 0,202924750739747 
910	 0,202232400893092 
911	 0,20294507738347 
912	 0,203436713245139 
913	 0,20302292112743 
914	 0,202568827754656 
915	 0,202180360184418 
916	 0,201923586093103 
917	 0,202465077081295 
918	 0,203183637081297 
919	 0,202096820217789 
920	 0,201817696692021 
921	 0,202807251697619 
922	 0,202608995481975 
923	 0,201974426428005 
924	 0,201615591065246 
925	 0,201303141002722 
926	 0,200857573160551 
927	 0,199958515913346 
928	 0,19980110002048 
929	 0,200231698089487 
930	 0,199402839830055 
931	 0,198213165157028 
932	 0,197359836920104 
933	 0,197789175908615 
934	 0,197855279308821 
935	 0,195479467250696 
936	 0,195894429006588 
937	 0,198159041792803 
938	 0,196153304190974 
939	 0,194591220914017 
940	 0,194795219515087 
941	 0,193922481155719 
942	 0,192688942501669 
943	 0,191812462061438 
944	 0,190590180867292 
945	 0,189179463158849 
946	 0,188018888850479 
947	 0,187638089358916 
948	 0,187638691790921 
949	 0,186033748802391 
950	 0,18428986647271 
951	 0,183164218938244 
952	 0,181703271997002 
953	 0,180058073803842 
954	 0,178574674480117 
955	 0,17898821437579 
956	 0,179975979872389 
957	 0,17711242410935 
958	 0,175354298667753 
959	 0,175670161765353 
960	 0,173989594671643 
961	 0,172321986882524 
962	 0,172167230142617 
963	 0,171591628768664 
964	 0,1713131442307 
965	 0,172766727586379 
966	 0,172503108366112 
967	 0,17056680538209 
968	 0,169994811167782 
969	 0,169073961025173 
970	 0,167777099607081 
971	 0,169646510973732 
972	 0,171890178660297 
973	 0,171707194356364 
974	 0,169436793046384 
975	 0,166968895202112 
976	 0,167489761399947 
977	 0,168172806059555 
978	 0,168389648121257 
979	 0,168701433105846 
980	 0,170019778214316 
981	 0,172185407474295 
982	 0,171639647540161 
983	 0,170194381462241 
984	 0,170014362732697 
985	 0,170399167236325 
986	 0,171238156198444 
987	 0,172521213436406 
988	 0,172958971820753 
989	 0,17252381499369 
990	 0,172635385896068 
991	 0,172938876020831 
992	 0,173367956160264 
993	 0,174874900789258 
994	 0,175086807510842 
995	 0,171984357465515 
996	 0,172420841513286 
997	 0,174663983472768 
998	 0,172729769459417 
999	 0,173871741332617 
1000	 0,178279588888694 
1001	 0,179804276813363 
1002	 0,178321674852704 
1003	 0,174897121630713 
1004	 0,176333215282868 
1005	 0,17866242348084 
1006	 0,177858843111609 
1007	 0,179683165368739 
1008	 0,182750191881325 
1009	 0,182971642585419 
1010	 0,183320371159155 
1011	 0,184657495492776 
1012	 0,18775234986044 
1013	 0,186740073682983 
1014	 0,181314536730469 
1015	 0,184155177506148 
1016	 0,188275554773961 
1017	 0,187673919678282 
1018	 0,189507522210099 
1019	 0,190581697833104 
1020	 0,185175558063801 
1021	 0,188305508774849 
1022	 0,197254740787864 
1023	 0,194381891585053 
1024	 0,191532510204717 
1025	 0,192234127615751 
1026	 0,193307402235941 
1027	 0,194280688749381 
1028	 0,194658968758457 
1029	 0,193464125848693 
1030	 0,192834623685775 
1031	 0,194895077026248 
1032	 0,191753827077804 
1033	 0,18865134167816 
1034	 0,19903695715886 
1035	 0,204807777041766 
1036	 0,203759846862054 
1037	 0,208896594082995 
1038	 0,207591693078349 
1039	 0,197411493804444 
1040	 0,19661846387073 
1041	 0,198577948150183 
1042	 0,197740928120537 
1043	 0,203247037325015 
1044	 0,208330002865342 
1045	 0,202981452015347 
1046	 0,204125392041577 
1047	 0,20897590751029 
1048	 0,202049001844452 
1049	 0,200219742015104 
1050	 0,206453156656184 
1051	 0,211012291680232 
1052	 0,214501703462849 
1053	 0,216317442543019 
1054	 0,213641567501919 
1055	 0,212200556460671 
1056	 0,21598382956447 
1057	 0,21237976044921 
1058	 0,207298639917046 
1059	 0,210811178692761 
1060	 0,214596697601872 
1061	 0,213868770818586 
1062	 0,201358282393914 
1063	 0,205703295144309 
1064	 0,224882205923666 
1065	 0,218410372657884 
1066	 0,206111265900869 
1067	 0,201329704297525 
1068	 0,218805603152925 
1069	 0,234437180607415 
1070	 0,231543474252887 
1071	 0,230024754475937 
1072	 0,229741940777665 
1073	 0,22757366752635 
1074	 0,220699124930181 
1075	 0,208732395459913 
