Wavelength	GRA-VIE00209.asd
325	-5,96523454573376E-02 
326	 3,22658869827897E-02 
327	 0,055304935403989 
328	-2,54040947615393E-02 
329	 9,37737779099123E-02 
330	 0,220929308873611 
331	 0,139811486886358 
332	 0,103941464356064 
333	 0,136420089278897 
334	 0,288348430063581 
335	 0,291125126969504 
336	 0,161155147853281 
337	 0,190742947076089 
338	 0,238107334771279 
339	 0,206420086306527 
340	 0,156413099683157 
341	 0,123511619951263 
342	 0,193395274240602 
343	 0,248863607227495 
344	 0,253858263596046 
345	 0,208902150009608 
346	 0,15557473627114 
347	 0,145096325985025 
348	 0,1274365988714 
349	 0,111981655256685 
350	 0,155518491572798 
351	 0,153848382960329 
352	 9,38969920401906E-02 
353	 0,116940926497528 
354	 0,178325716570372 
355	 0,213836120543897 
356	 0,192450018252387 
357	 0,133757005140963 
358	 0,108529215763487 
359	 0,110180924589157 
360	 0,133298444147544 
361	 0,154393841553951 
362	 0,167866005175741 
363	 0,173783722486821 
364	 0,184857013794781 
365	 0,196156988580443 
366	 0,175914171900793 
367	 0,163360177060404 
368	 0,178266765399628 
369	 0,160870680913931 
370	 0,136517884133925 
371	 0,159956300640433 
372	 0,17655010225735 
373	 0,175635205957143 
374	 0,186377627496611 
375	 0,188255369133579 
376	 0,167003975121989 
377	 0,148420301728222 
378	 0,144025405968018 
379	 0,168475019374437 
380	 0,174280178833888 
381	 0,155668963258766 
382	 0,154935601863905 
383	 0,157742619884556 
384	 0,14934306535491 
385	 0,161567186608318 
386	 0,184163486073535 
387	 0,18190699640961 
388	 0,18049957285429 
389	 0,187720329405422 
390	 0,19111478840617 
391	 0,183393645660061 
392	 0,157868877133168 
393	 0,158801449707576 
394	 0,180775912992112 
395	 0,173542312073936 
396	 0,168892958884483 
397	 0,17947627124104 
398	 0,178957895952055 
399	 0,171492270420207 
400	 0,166909596214801 
401	 0,168401828233035 
402	 0,175005330970382 
403	 0,179133029495939 
404	 0,183465342070158 
405	 0,188469757395945 
406	 0,178616351033256 
407	 0,166172105752751 
408	 0,182205675648772 
409	 0,182915768669372 
410	 0,164142835068298 
411	 0,166528372183632 
412	 0,178444268024385 
413	 0,18644092900749 
414	 0,179707431502608 
415	 0,166752464653534 
416	 0,176064561742164 
417	 0,179859391697054 
418	 0,17043919411769 
419	 0,172015935427719 
420	 0,176592166728449 
421	 0,171553864024388 
422	 0,169873541126065 
423	 0,173319877965829 
424	 0,178744740462869 
425	 0,178613584219154 
426	 0,169946613279947 
427	 0,169259783333309 
428	 0,174263890589233 
429	 0,177019126550542 
430	 0,179147165843069 
431	 0,180271698031798 
432	 0,178379380826817 
433	 0,176256013779335 
434	 0,176456994294793 
435	 0,179532235230845 
436	 0,182691171859943 
437	 0,178530693289594 
438	 0,175635675802594 
439	 0,177490138809968 
440	 0,181928037268226 
441	 0,184633392517508 
442	 0,180791535619525 
443	 0,179682128494519 
444	 0,18220439558772 
445	 0,183176166053034 
446	 0,182921505550762 
447	 0,181866564333494 
448	 0,182056610201881 
449	 0,183240500250314 
450	 0,184450922694625 
451	 0,184740036828719 
452	 0,184400155535666 
453	 0,186303643644617 
454	 0,188782967047939 
455	 0,190138821489187 
456	 0,190854589329681 
457	 0,19070119181702 
458	 0,188535902295385 
459	 0,187942192994036 
460	 0,190062981798177 
461	 0,191290246901192 
462	 0,191177011162739 
463	 0,189634872775066 
464	 0,190421655423885 
465	 0,193053105214566 
466	 0,192228510562077 
467	 0,191033923597987 
468	 0,191488405240818 
469	 0,192325930657244 
470	 0,192746413569141 
471	 0,191354286375032 
472	 0,19156306220063 
473	 0,193711043814604 
474	 0,193433285559755 
475	 0,193367217768309 
476	 0,19615185665897 
477	 0,197583493637311 
478	 0,197431197297726 
479	 0,197711846722463 
480	 0,196935586356164 
481	 0,194865119249774 
482	 0,194053475773688 
483	 0,194954389590468 
484	 0,197844896015241 
485	 0,199219637082285 
486	 0,1983024590807 
487	 0,195961558988596 
488	 0,195350949268672 
489	 0,198519004563657 
490	 0,201063976211111 
491	 0,201549332620731 
492	 0,198270663303694 
493	 0,196112875616767 
494	 0,196707498668401 
495	 0,197668232042182 
496	 0,198347998422209 
497	 0,198262161680124 
498	 0,198650820600389 
499	 0,199439008053868 
500	 0,199399601795013 
501	 0,199758301662327 
502	 0,201109523539868 
503	 0,202271777663431 
504	 0,2031110920608 
505	 0,203718134703937 
506	 0,204354932100276 
507	 0,204930991493568 
508	 0,204533674234396 
509	 0,204529778386781 
510	 0,206083493565388 
511	 0,207188480976309 
512	 0,207716974064758 
513	 0,208344579134589 
514	 0,209260635643309 
515	 0,210504361848086 
516	 0,211644099049012 
517	 0,212463101880101 
518	 0,212754213995474 
519	 0,213074905847613 
520	 0,21347416387554 
521	 0,213450841743723 
522	 0,213585368615756 
523	 0,214251115539045 
524	 0,214642140206315 
525	 0,214850404170811 
526	 0,215411135198116 
527	 0,215867603665694 
528	 0,216009911478117 
529	 0,215565932638373 
530	 0,215253811704438 
531	 0,215880400622882 
532	 0,216403059493014 
533	 0,216567131922993 
534	 0,216316332836013 
535	 0,21648367443614 
536	 0,217466142084097 
537	 0,218231491015181 
538	 0,218362391199477 
539	 0,217293954501409 
540	 0,216930237206785 
541	 0,217723035242249 
542	 0,218479374320405 
543	 0,219200243888141 
544	 0,219923326615039 
545	 0,220142118459586 
546	 0,220125530754496 
547	 0,220887145636335 
548	 0,221665531398152 
549	 0,222149446331068 
550	 0,223058003676177 
551	 0,223686097222909 
552	 0,222806463149334 
553	 0,222525573202645 
554	 0,223099262692059 
555	 0,222923173757588 
556	 0,222365210500956 
557	 0,221832278177996 
558	 0,222134647546959 
559	 0,222821015144497 
560	 0,222376578050275 
561	 0,221967688696761 
562	 0,222016208970549 
563	 0,222062677780683 
564	 0,222097684371271 
565	 0,222157424126597 
566	 0,222249505422569 
567	 0,222555469252801 
568	 0,223692263422471 
569	 0,224804501672056 
570	 0,225352298858795 
571	 0,226250332179588 
572	 0,22774746341057 
573	 0,230277291788441 
574	 0,231490936540455 
575	 0,231094862550911 
576	 0,232496174316855 
577	 0,2345042127924 
578	 0,235548073400881 
579	 0,237543024610201 
580	 0,240043308571189 
581	 0,240416796096369 
582	 0,240755218671861 
583	 0,242222040400756 
584	 0,243836854188752 
585	 0,245293665266323 
586	 0,246260107559289 
587	 0,247506298346844 
588	 0,249116695779378 
589	 0,250407463954854 
590	 0,251222551237375 
591	 0,251490564847429 
592	 0,252055892274167 
593	 0,252866162796866 
594	 0,253170426502263 
595	 0,253847661940655 
596	 0,255087753722696 
597	 0,255330141574213 
598	 0,255011580256269 
599	 0,255010638261213 
600	 0,255483645821373 
601	 0,256149338308003 
602	 0,255697215068104 
603	 0,254983218500187 
604	 0,254694957407576 
605	 0,254301149122687 
606	 0,253815001325205 
607	 0,253471116920764 
608	 0,253084517082497 
609	 0,252561076913493 
610	 0,251813467211343 
611	 0,250962926607984 
612	 0,250165850540446 
613	 0,249776955241921 
614	 0,249801988003396 
615	 0,249967599593471 
616	 0,250038809738202 
617	 0,249827223145805 
618	 0,249177432217067 
619	 0,24850560716606 
620	 0,248631966669125 
621	 0,248944386751802 
622	 0,249183892181458 
623	 0,249190533630131 
624	 0,249104190541358 
625	 0,249097304778946 
626	 0,249517702025588 
627	 0,250197890716069 
628	 0,250455752473837 
629	 0,250600934067779 
630	 0,250795128000732 
631	 0,250985287251745 
632	 0,251332038121759 
633	 0,252077161305208 
634	 0,253016817080877 
635	 0,254016791376021 
636	 0,25481724769018 
637	 0,255684831179514 
638	 0,256842993882903 
639	 0,258087448540928 
640	 0,259262581385767 
641	 0,260128774084846 
642	 0,260790455003328 
643	 0,261323066364876 
644	 0,261904638149492 
645	 0,26252235067084 
646	 0,263135397230883 
647	 0,263188148741166 
648	 0,262612847008795 
649	 0,261693119788011 
650	 0,260847708759479 
651	 0,260273276546157 
652	 0,258956803452984 
653	 0,257191257577599 
654	 0,255836679367276 
655	 0,254635543300404 
656	 0,253377808523949 
657	 0,251515184810502 
658	 0,249086240488548 
659	 0,246209096587175 
660	 0,243521718004463 
661	 0,241185448788563 
662	 0,239130812388182 
663	 0,237085661950533 
664	 0,234946581031965 
665	 0,233088487333751 
666	 0,231507866715509 
667	 0,23010571229926 
668	 0,229062143247797 
669	 0,228377556547945 
670	 0,22790773949953 
671	 0,227455119415468 
672	 0,226879303063948 
673	 0,226418909914766 
674	 0,226224929602535 
675	 0,226632187017246 
676	 0,226736572815865 
677	 0,226334700788656 
678	 0,226397394528409 
679	 0,226825597579989 
680	 0,227399533517918 
681	 0,228384108912533 
682	 0,229751155982327 
683	 0,23119821415713 
684	 0,232928124239374 
685	 0,235114942181789 
686	 0,238157295229329 
687	 0,241560388236392 
688	 0,24423254973784 
689	 0,248547765317903 
690	 0,254580553131044 
691	 0,259209237631933 
692	 0,264130523458153 
693	 0,270912251151805 
694	 0,278076161387394 
695	 0,285441257089559 
696	 0,293303504734353 
697	 0,301647403664078 
698	 0,310352632026453 
699	 0,318948783275768 
700	 0,327399685321147 
701	 0,335723372537917 
702	 0,343608806412636 
703	 0,351180090591661 
704	 0,359197470491533 
705	 0,366751002778578 
706	 0,373304211010454 
707	 0,379759611171452 
708	 0,38584906264738 
709	 0,39077889942783 
710	 0,395574329389797 
711	 0,400529072160826 
712	 0,405279045354215 
713	 0,40968642047059 
714	 0,413654027092558 
715	 0,417283757090556 
716	 0,420615343978038 
717	 0,423680281917596 
718	 0,426518712415238 
719	 0,429155117023849 
720	 0,431531057975522 
721	 0,433691748125691 
722	 0,435711944597305 
723	 0,437752316364171 
724	 0,439743418505778 
725	 0,441286019402511 
726	 0,442880406982116 
727	 0,444714495852105 
728	 0,445598651754317 
729	 0,44610801151329 
730	 0,447572748243273 
731	 0,448594980282414 
732	 0,449057325991174 
733	 0,450342752435845 
734	 0,45169306838189 
735	 0,45242105827218 
736	 0,453027101829294 
737	 0,453629804737628 
738	 0,454286656633503 
739	 0,454953277867239 
740	 0,45559725866057 
741	 0,456146912145239 
742	 0,456625602677865 
743	 0,457071358681411 
744	 0,457657142791828 
745	 0,458399575230079 
746	 0,459248689933195 
747	 0,459904947745938 
748	 0,460257734912743 
749	 0,460869317403425 
750	 0,461452512006425 
751	 0,461444180292318 
752	 0,46189157210643 
753	 0,462821008404971 
754	 0,463141599743642 
755	 0,463437172575236 
756	 0,464119591859361 
757	 0,464788230276956 
758	 0,465286149402193 
759	 0,465403113202668 
760	 0,465670573298993 
761	 0,466235826856079 
762	 0,466886393164657 
763	 0,467260570205862 
764	 0,467094369545325 
765	 0,467563392398041 
766	 0,468402290212982 
767	 0,468244583651765 
768	 0,468404293830307 
769	 0,469223308975163 
770	 0,469476040793082 
771	 0,469523474207174 
772	 0,46990650213087 
773	 0,470526481493931 
774	 0,471175913155462 
775	 0,471327563724489 
776	 0,471293787802419 
777	 0,471262097316476 
778	 0,471217429812982 
779	 0,471456458464801 
780	 0,472396414739664 
781	 0,472986871013158 
782	 0,473082266303545 
783	 0,473340615413219 
784	 0,473510488500765 
785	 0,473458986506796 
786	 0,473478321823539 
787	 0,473585026847142 
788	 0,473704706251032 
789	 0,474132137589707 
790	 0,474790655987088 
791	 0,4750593882982 
792	 0,475066692925028 
793	 0,474964267941917 
794	 0,475062608664531 
795	 0,475286348243404 
796	 0,475340107701514 
797	 0,475398579211159 
798	 0,475497150568405 
799	 0,475518887477114 
800	 0,475604936726356 
801	 0,475883743405558 
802	 0,476177065091491 
803	 0,476501681804049 
804	 0,477023756448634 
805	 0,477401421798448 
806	 0,477592185408356 
807	 0,478150555229714 
808	 0,478692530187747 
809	 0,478793122810669 
810	 0,479086448017294 
811	 0,479555575117013 
812	 0,479786018869163 
813	 0,479924472860333 
814	 0,480038130992714 
815	 0,480181346075674 
816	 0,480289205924408 
817	 0,480290905041096 
818	 0,480780421605761 
819	 0,481554118588284 
820	 0,481584431880955 
821	 0,481716069054059 
822	 0,482231936376093 
823	 0,482179229117613 
824	 0,482088702419762 
825	 0,482737102856591 
826	 0,483257042055611 
827	 0,48343242249886 
828	 0,483262889574039 
829	 0,483221594894409 
830	 0,483544370365566 
831	 0,483933943750702 
832	 0,484087052537124 
833	 0,48365615308488 
834	 0,484080511984992 
835	 0,485083801203161 
836	 0,48451562771985 
837	 0,483967680765159 
838	 0,48424270766925 
839	 0,484400920806756 
840	 0,484541164449277 
841	 0,484939759514115 
842	 0,484847003363356 
843	 0,484472415288852 
844	 0,48525520968716 
845	 0,485493548262276 
846	 0,484515710270319 
847	 0,484688826377315 
848	 0,48532319542603 
849	 0,485080141091919 
850	 0,485369410093356 
851	 0,486116790815798 
852	 0,486001384739493 
853	 0,485595238115532 
854	 0,485260385682721 
855	 0,48518375256466 
856	 0,485244305826126 
857	 0,485233549150536 
858	 0,485317651006488 
859	 0,485486131514272 
860	 0,485603464049712 
861	 0,485653616588386 
862	 0,485692276770111 
863	 0,486101742503567 
864	 0,486757375502397 
865	 0,48742958041772 
866	 0,487422072947534 
867	 0,487028833753522 
868	 0,487702455269511 
869	 0,488298444365984 
870	 0,48827613919959 
871	 0,487873895826988 
872	 0,487722999087715 
873	 0,488509753269834 
874	 0,48904993339177 
875	 0,489227089728839 
876	 0,489475638065674 
877	 0,490079944979831 
878	 0,490983512359984 
879	 0,491063670555147 
880	 0,490931945911778 
881	 0,491333372524332 
882	 0,491854327741347 
883	 0,492460574606898 
884	 0,493351049852583 
885	 0,493760578400521 
886	 0,493595921054175 
887	 0,493969983672315 
888	 0,49456752848438 
889	 0,494993702781016 
890	 0,494932791048766 
891	 0,494642739190362 
892	 0,49473516450074 
893	 0,495643713306133 
894	 0,496982382425309 
895	 0,496381943061033 
896	 0,495675858313472 
897	 0,496282643286143 
898	 0,496630522021845 
899	 0,496917322698171 
900	 0,497949185977759 
901	 0,498218610952431 
902	 0,497628614974997 
903	 0,497480668820391 
904	 0,497784821685387 
905	 0,498415380727921 
906	 0,49835412741791 
907	 0,498080528622011 
908	 0,498454227848021 
909	 0,498447517665003 
910	 0,498134029121769 
911	 0,498531910543837 
912	 0,498926849245347 
913	 0,499028385588849 
914	 0,499220675852748 
915	 0,499653396971746 
916	 0,500412063125101 
917	 0,500809009731628 
918	 0,500551366645633 
919	 0,499151066255915 
920	 0,498686195329209 
921	 0,499567152557232 
922	 0,499741050249952 
923	 0,49945276409758 
924	 0,499059976905947 
925	 0,499362802475968 
926	 0,499721401961428 
927	 0,49874433423213 
928	 0,497945286040704 
929	 0,4977355310126 
930	 0,497849544455793 
931	 0,498145675935109 
932	 0,498351390579878 
933	 0,497390501431563 
934	 0,496267320523606 
935	 0,496377223496487 
936	 0,49670018153167 
937	 0,496735690272521 
938	 0,495629067169796 
939	 0,495407736584544 
940	 0,496257237768121 
941	 0,494811768635552 
942	 0,492907802966729 
943	 0,492396051755953 
944	 0,493276295166454 
945	 0,494029689334776 
946	 0,491872834814773 
947	 0,490018545203125 
948	 0,489141062144813 
949	 0,488038215034509 
950	 0,486718534530739 
951	 0,485310303994843 
952	 0,484598966112217 
953	 0,484396043084334 
954	 0,484314435672332 
955	 0,483212426413307 
956	 0,48139680394027 
957	 0,480211603878438 
958	 0,479851138422856 
959	 0,48004164809598 
960	 0,478970850382308 
961	 0,4781364968374 
962	 0,478460116536779 
963	 0,477082166483345 
964	 0,4755973912981 
965	 0,47695961751265 
966	 0,477268305988851 
967	 0,476401497497117 
968	 0,477226283864013 
969	 0,477472873308513 
970	 0,476612642465567 
971	 0,477242789487195 
972	 0,478051431466037 
973	 0,477736779325996 
974	 0,477293090822497 
975	 0,477052349930246 
976	 0,477315150171831 
977	 0,477370090424003 
978	 0,477099093602628 
979	 0,476761606387923 
980	 0,476854566872698 
981	 0,477742721604265 
982	 0,480111356837206 
983	 0,481395707694364 
984	 0,479279581489625 
985	 0,478327394268135 
986	 0,478883121327933 
987	 0,479872885717335 
988	 0,479901913691889 
989	 0,479399813898567 
990	 0,481752377827654 
991	 0,483558532635665 
992	 0,483426151130559 
993	 0,484777661966527 
994	 0,486277144303919 
995	 0,486310761871697 
996	 0,485291671097907 
997	 0,484913226689886 
998	 0,488261917800546 
999	 0,490257480695607 
1000	 0,489945714914183 
1001	 0,489824796863546 
1002	 0,489579998231443 
1003	 0,48949752218164 
1004	 0,491562539147736 
1005	 0,493999667635476 
1006	 0,494701662011155 
1007	 0,491111688079223 
1008	 0,48790287124534 
1009	 0,4938111291296 
1010	 0,497637785759576 
1011	 0,497570721209908 
1012	 0,498877303014328 
1013	 0,498345307925109 
1014	 0,495679576002998 
1015	 0,495888563963623 
1016	 0,498396312291722 
1017	 0,50174057967719 
1018	 0,500767311752576 
1019	 0,497857697667592 
1020	 0,497745774838118 
1021	 0,498240112065912 
1022	 0,500063747654086 
1023	 0,507256752897942 
1024	 0,508216339015294 
1025	 0,501922925147686 
1026	 0,50359149343099 
1027	 0,506471588847218 
1028	 0,506135094070873 
1029	 0,505942346143331 
1030	 0,507365852523499 
1031	 0,511227673306109 
1032	 0,510567830406836 
1033	 0,506234542426614 
1034	 0,502735277268476 
1035	 0,504646020510092 
1036	 0,511156404581965 
1037	 0,514709050061231 
1038	 0,516034045475234 
1039	 0,51533801564788 
1040	 0,51313232707678 
1041	 0,512153653653594 
1042	 0,51403282784045 
1043	 0,511889356605925 
1044	 0,510509954582577 
1045	 0,516787377942663 
1046	 0,515398834235905 
1047	 0,509027211878958 
1048	 0,512266610118064 
1049	 0,512535141799887 
1050	 0,508550091760615 
1051	 0,510360687835796 
1052	 0,514137190774809 
1053	 0,51774493940377 
1054	 0,520563420200186 
1055	 0,523526128851116 
1056	 0,526731045295001 
1057	 0,524437328970889 
1058	 0,516965565621963 
1059	 0,50711218566597 
1060	 0,519195099389122 
1061	 0,536221189019302 
1062	 0,509818122645016 
1063	 0,502486200602392 
1064	 0,520509420872381 
1065	 0,511323728993291 
1066	 0,505962469527751 
1067	 0,514275080890951 
1068	 0,513522049910575 
1069	 0,514069058754458 
1070	 0,521441137495039 
1071	 0,507490699284776 
1072	 0,498918620304453 
1073	 0,527130099249274 
1074	 0,535270613611624 
1075	 0,524283200175736 
