Wavelength	GRA-VIE00594.asd
325	 0,38342114278289 
326	 0,240244713577031 
327	 0,158137049763564 
328	 0,221482910708113 
329	 0,282933822454913 
330	 0,281432016133372 
331	 0,177798673273492 
332	 0,230641429323622 
333	 0,385006337071102 
334	 0,262381348170657 
335	 0,217329270309215 
336	 0,312564871243266 
337	 0,347949345058322 
338	 0,337794706197713 
339	 0,292607107099083 
340	 0,237516351166664 
341	 0,17978862403682 
342	 0,140713703043124 
343	 0,171367907999497 
344	 0,243724734315106 
345	 0,231630975510814 
346	 0,194146629156649 
347	 0,199320812397624 
348	 0,191059848713577 
349	 0,172526357839989 
350	 0,18259903681705 
351	 0,175173327559102 
352	 0,142789134104672 
353	 0,147600916808069 
354	 0,170169190793422 
355	 0,181699606427871 
356	 0,191712388953231 
357	 0,194971516286332 
358	 0,167971077050455 
359	 0,167458147749962 
360	 0,210016069548513 
361	 0,198631190448975 
362	 0,170617512955087 
363	 0,190403093313862 
364	 0,192158887556899 
365	 0,168482560569495 
366	 0,145066961746597 
367	 0,147052783559517 
368	 0,181504264260204 
369	 0,169208270322656 
370	 0,143058467538777 
371	 0,176149212819826 
372	 0,1925451124062 
373	 0,179487537735604 
374	 0,183941035028257 
375	 0,184787960505076 
376	 0,166073469038341 
377	 0,149300388817367 
378	 0,141822681598468 
379	 0,14850371553625 
380	 0,16269018739491 
381	 0,176788575752566 
382	 0,170886158211338 
383	 0,153765080636139 
384	 0,137429120005936 
385	 0,15594019545492 
386	 0,187001589973185 
387	 0,162229854305003 
388	 0,156919168886348 
389	 0,190255413623097 
390	 0,192060198245754 
391	 0,17842934654181 
392	 0,174592801321636 
393	 0,167438580614642 
394	 0,160987178150735 
395	 0,176580969424603 
396	 0,183193012194716 
397	 0,168907714703685 
398	 0,162603805361731 
399	 0,16192319984787 
400	 0,157239423032753 
401	 0,15838614163016 
402	 0,164728375028259 
403	 0,166589604459958 
404	 0,163770574947297 
405	 0,156946605994935 
406	 0,149526015961966 
407	 0,148514790668399 
408	 0,168889017357254 
409	 0,173690131066824 
410	 0,158786654168122 
411	 0,157449638689175 
412	 0,16170944202111 
413	 0,162322964477648 
414	 0,157968238587646 
415	 0,152396901487248 
416	 0,156886662371109 
417	 0,157855070663267 
418	 0,152195654214297 
419	 0,156305718204432 
420	 0,161727812897653 
421	 0,156269352625798 
422	 0,152648791779552 
423	 0,153235012364694 
424	 0,156136821276996 
425	 0,154467691991371 
426	 0,146103510918326 
427	 0,151512440912684 
428	 0,162743144823612 
429	 0,161433642803184 
430	 0,161123160309672 
431	 0,163298783665823 
432	 0,157000513691119 
433	 0,150644849386389 
434	 0,151908701324044 
435	 0,158591152675999 
436	 0,165067517177942 
437	 0,158244820521314 
438	 0,153485915574411 
439	 0,156690850103771 
440	 0,162065341553024 
441	 0,164441259248672 
442	 0,158423957838591 
443	 0,153331954984757 
444	 0,15215914837175 
445	 0,155884225301048 
446	 0,159997115417368 
447	 0,161552405639574 
448	 0,161671120857032 
449	 0,161156475303424 
450	 0,161165810144538 
451	 0,161477516602259 
452	 0,162061983565165 
453	 0,162797639447632 
454	 0,163852291176699 
455	 0,165256138025831 
456	 0,164863603827457 
457	 0,163535749184949 
458	 0,164615139448395 
459	 0,165737978374876 
460	 0,165983378728547 
461	 0,166306988397544 
462	 0,166439926849458 
463	 0,165943554268884 
464	 0,164706093595973 
465	 0,163473270462651 
466	 0,16458272907383 
467	 0,166911951358421 
468	 0,169184017058751 
469	 0,167217619105239 
470	 0,163359858357415 
471	 0,163157482215603 
472	 0,16401397871425 
473	 0,164895867935016 
474	 0,164588713580446 
475	 0,164532604476381 
476	 0,166127685112547 
477	 0,167331353461937 
478	 0,167708585894883 
479	 0,167268016292824 
480	 0,166954229863341 
481	 0,167056133300636 
482	 0,16582306460565 
483	 0,164777722619058 
484	 0,166454947236653 
485	 0,166964876033058 
486	 0,165809563195036 
487	 0,165101588860229 
488	 0,165598430041363 
489	 0,167595248522658 
490	 0,1684039501311 
491	 0,167533209487202 
492	 0,164653961291426 
493	 0,163007227209549 
494	 0,163736925456892 
495	 0,165512596402945 
496	 0,166583586885042 
497	 0,165206713146973 
498	 0,164314832513826 
499	 0,164253770818335 
500	 0,163417512616068 
501	 0,164233007266236 
502	 0,16750656398173 
503	 0,168034430443681 
504	 0,167050566567247 
505	 0,167875869212204 
506	 0,169030053971904 
507	 0,169925765484413 
508	 0,169701359576756 
509	 0,169771863950451 
510	 0,171370299597955 
511	 0,172952349338876 
512	 0,17394960876624 
513	 0,173700223014905 
514	 0,17364685433287 
515	 0,174342157155326 
516	 0,17472853345729 
517	 0,174893358229624 
518	 0,17507333657806 
519	 0,17613061879602 
520	 0,177674735097419 
521	 0,17750798114125 
522	 0,177104205201767 
523	 0,177537334744737 
524	 0,177994412545547 
525	 0,178277000393108 
526	 0,178227960639379 
527	 0,178082173763688 
528	 0,177945977065518 
529	 0,177806040519135 
530	 0,177846727272191 
531	 0,178260053347723 
532	 0,178144807111403 
533	 0,177617048311624 
534	 0,177702312761828 
535	 0,177896609924909 
536	 0,177953389762014 
537	 0,178418528760762 
538	 0,178990318584202 
539	 0,17903762150278 
540	 0,17880179834884 
541	 0,178593515420553 
542	 0,179488088913002 
543	 0,18027503534265 
544	 0,179783490609392 
545	 0,179475784625535 
546	 0,179680710329132 
547	 0,180505492842578 
548	 0,180909867684698 
549	 0,180529644676099 
550	 0,180864189243187 
551	 0,181531717119401 
552	 0,181670245276128 
553	 0,182017957887081 
554	 0,182348862587989 
555	 0,180901761812187 
556	 0,179744666771004 
557	 0,18051372873549 
558	 0,180910705213399 
559	 0,180592093404951 
560	 0,179785663836562 
561	 0,178957431080948 
562	 0,178409990861287 
563	 0,178276538420602 
564	 0,178503168801381 
565	 0,178996891151352 
566	 0,1794156967688 
567	 0,179767301297709 
568	 0,180535189453859 
569	 0,181092373920248 
570	 0,18116287933767 
571	 0,182576954840229 
572	 0,184767952083189 
573	 0,185880142006397 
574	 0,187110360157449 
575	 0,188814748593669 
576	 0,190656512555545 
577	 0,192506574665524 
578	 0,194269722107034 
579	 0,196580111638495 
580	 0,199048082708283 
581	 0,200166289795528 
582	 0,20086259094591 
583	 0,201740367015294 
584	 0,202984723058207 
585	 0,204462565602305 
586	 0,205874700075935 
587	 0,207259400773617 
588	 0,208650958920437 
589	 0,210310610004759 
590	 0,211626148222679 
591	 0,212042869048278 
592	 0,212185217418725 
593	 0,21235098955676 
594	 0,212836515822702 
595	 0,213731251005936 
596	 0,214936595465003 
597	 0,215540437682205 
598	 0,215760642543873 
599	 0,216101270560952 
600	 0,215961437195559 
601	 0,215431650718506 
602	 0,215546299420565 
603	 0,215304758782083 
604	 0,213972317826229 
605	 0,21266890418531 
606	 0,211802743175192 
607	 0,211851737167027 
608	 0,211946545841304 
609	 0,211547357574543 
610	 0,209846897364969 
611	 0,208211565995635 
612	 0,20836763351293 
613	 0,20798171854578 
614	 0,20684362496569 
615	 0,206309626993201 
616	 0,205739111715169 
617	 0,204803460057305 
618	 0,204261583311383 
619	 0,204218076018344 
620	 0,204710156500238 
621	 0,204925664163182 
622	 0,204676385421079 
623	 0,204680149150326 
624	 0,20465603044066 
625	 0,204310059050265 
626	 0,204660902336593 
627	 0,205500654548555 
628	 0,205595897928438 
629	 0,205609718800965 
630	 0,205922700698081 
631	 0,206636969820311 
632	 0,20768094606692 
633	 0,208926963226055 
634	 0,209998757790971 
635	 0,210796350183639 
636	 0,211475234878358 
637	 0,212244566109328 
638	 0,213270681165336 
639	 0,214352378691441 
640	 0,215425932042802 
641	 0,216464622462046 
642	 0,217403311722815 
643	 0,218207076155104 
644	 0,218902126165032 
645	 0,21953611206989 
646	 0,220167685136374 
647	 0,220331019029741 
648	 0,219954673125779 
649	 0,21923704578111 
650	 0,218499114698608 
651	 0,217815446524096 
652	 0,215613530143591 
653	 0,212975219667871 
654	 0,212574734176483 
655	 0,211695880796127 
656	 0,209559354700499 
657	 0,207228122028566 
658	 0,204684778120322 
659	 0,201872792670901 
660	 0,199034285553543 
661	 0,196347656456976 
662	 0,194117520991385 
663	 0,191774564770297 
664	 0,189129019583674 
665	 0,187044363727116 
666	 0,185321187670752 
667	 0,183439585661297 
668	 0,182453913921425 
669	 0,182266468373348 
670	 0,181283550189067 
671	 0,180498865337879 
672	 0,180647276655782 
673	 0,180316592545052 
674	 0,179504094260708 
675	 0,178686827462987 
676	 0,178551703816009 
677	 0,179129408927998 
678	 0,178754885573949 
679	 0,178384394860607 
680	 0,17929304380725 
681	 0,180168666663729 
682	 0,180901210687894 
683	 0,182052219530313 
684	 0,183840237833547 
685	 0,186342183146844 
686	 0,188921096625736 
687	 0,191796867334659 
688	 0,195392221603629 
689	 0,20056716246261 
690	 0,207128188842554 
691	 0,212910453655686 
692	 0,219252561572336 
693	 0,227363565293475 
694	 0,235722831211882 
695	 0,244516027226861 
696	 0,255047171098037 
697	 0,265998496967826 
698	 0,276851677770714 
699	 0,288384720306192 
700	 0,300081899402939 
701	 0,311204383725891 
702	 0,322249403014056 
703	 0,33322256385484 
704	 0,343814274668149 
705	 0,354128021197037 
706	 0,364119164326401 
707	 0,373006198100205 
708	 0,381083889359376 
709	 0,389061889818826 
710	 0,396625298709169 
711	 0,403699428749024 
712	 0,410299538228186 
713	 0,416349190390613 
714	 0,421808629451697 
715	 0,426821088156537 
716	 0,431507537605919 
717	 0,43608465740688 
718	 0,440285744882728 
719	 0,443985917902445 
720	 0,447065822418493 
721	 0,449948373723134 
722	 0,453185922894181 
723	 0,456323726405434 
724	 0,459121626289568 
725	 0,461205510263289 
726	 0,463189355145748 
727	 0,465397871771248 
728	 0,46708682433301 
729	 0,468470409104116 
730	 0,470111878451402 
731	 0,471483429480578 
732	 0,472563745749116 
733	 0,473942461360147 
734	 0,475258738838562 
735	 0,476211536057052 
736	 0,477412716300992 
737	 0,478667916415242 
738	 0,47917008600981 
739	 0,479876315163673 
740	 0,481008604233499 
741	 0,481618967826145 
742	 0,481971277917938 
743	 0,482461841252237 
744	 0,483251703930441 
745	 0,484243302677445 
746	 0,485015502029906 
747	 0,48562167487976 
748	 0,486157018345683 
749	 0,48718282269459 
750	 0,4881930503189 
751	 0,488307304814921 
752	 0,488622370753137 
753	 0,48931377487531 
754	 0,48979842615087 
755	 0,490189485052556 
756	 0,490596933626087 
757	 0,491231418663646 
758	 0,491895371606048 
759	 0,492081774907446 
760	 0,492613248992581 
761	 0,493547012983414 
762	 0,493858982859949 
763	 0,493822161759716 
764	 0,493786988352764 
765	 0,494327473539954 
766	 0,495249194638009 
767	 0,495782158596052 
768	 0,496055104965261 
769	 0,496136487454558 
770	 0,496183223965356 
771	 0,49654975894607 
772	 0,497593044136684 
773	 0,497990507798551 
774	 0,497859348657048 
775	 0,498605380999335 
776	 0,499189549194978 
777	 0,499157168165594 
778	 0,499318745123586 
779	 0,499626865294497 
780	 0,499877611007379 
781	 0,500023009959929 
782	 0,500184127580683 
783	 0,500838138296787 
784	 0,501585056593734 
785	 0,502097779776568 
786	 0,502059687483705 
787	 0,501867572448289 
788	 0,502297311703793 
789	 0,502726232145771 
790	 0,503036154887902 
791	 0,503597636480758 
792	 0,503939280072884 
793	 0,503758304968085 
794	 0,504110827460975 
795	 0,504731995525679 
796	 0,504622754581966 
797	 0,50488490032212 
798	 0,505680699077149 
799	 0,50593068795331 
800	 0,506098116433557 
801	 0,50662521043895 
802	 0,506712183814517 
803	 0,506585725344306 
804	 0,507218532468924 
805	 0,507703233625009 
806	 0,507780142234426 
807	 0,507958876449162 
808	 0,508272453660757 
809	 0,50871395950407 
810	 0,509226693762484 
811	 0,509727287943542 
812	 0,510078522901678 
813	 0,510220210414222 
814	 0,510220610357503 
815	 0,510610124109042 
816	 0,511147904048152 
817	 0,511496635434808 
818	 0,512057515422654 
819	 0,512734811147222 
820	 0,512999631733648 
821	 0,513242305151646 
822	 0,513632741825803 
823	 0,514009841223563 
824	 0,51424636028346 
825	 0,514207904377458 
826	 0,514472895785816 
827	 0,514961175756441 
828	 0,514960990722997 
829	 0,514802005424293 
830	 0,514795263218315 
831	 0,515817554323926 
832	 0,516848098718138 
833	 0,516411691718614 
834	 0,516139181263399 
835	 0,516296035051401 
836	 0,516300557025211 
837	 0,516350989025893 
838	 0,516585221348584 
839	 0,517254531096308 
840	 0,517849256981801 
841	 0,517644684596735 
842	 0,517319970017936 
843	 0,517182336309167 
844	 0,517605001998006 
845	 0,517894008304033 
846	 0,517803656715863 
847	 0,518642605403168 
848	 0,519424647290823 
849	 0,518602742381615 
850	 0,518714029827564 
851	 0,519880837036482 
852	 0,520279573398604 
853	 0,520634218995612 
854	 0,521166873228687 
855	 0,520734066320539 
856	 0,520077606873122 
857	 0,520346848826095 
858	 0,520739456206764 
859	 0,521085668775011 
860	 0,521489794714777 
861	 0,5218681902026 
862	 0,522151315657418 
863	 0,522166583928687 
864	 0,522344837422606 
865	 0,523235366760862 
866	 0,523542745142762 
867	 0,523323952910931 
868	 0,523791936369162 
869	 0,524039105781457 
870	 0,52381104076217 
871	 0,524276623895827 
872	 0,525002374244199 
873	 0,525335333509024 
874	 0,525349062972343 
875	 0,525196417903908 
876	 0,525231739509875 
877	 0,525564877204491 
878	 0,526132644607865 
879	 0,526234316736292 
880	 0,526245980495813 
881	 0,52662320269452 
882	 0,527093681463062 
883	 0,527432414460643 
884	 0,527216097305984 
885	 0,526815459016613 
886	 0,526567952857981 
887	 0,52730931612014 
888	 0,528155608569093 
889	 0,528267161154302 
890	 0,528488013737526 
891	 0,528994469128844 
892	 0,52989425301022 
893	 0,530343824766173 
894	 0,53019601662756 
895	 0,53032360121144 
896	 0,530018415658027 
897	 0,52893373377938 
898	 0,529343917434494 
899	 0,530619667020558 
900	 0,530999311660402 
901	 0,53145756138516 
902	 0,532110536577646 
903	 0,53246579263131 
904	 0,532853574685886 
905	 0,533354280705409 
906	 0,53292477393957 
907	 0,532307070363199 
908	 0,532700673001479 
909	 0,533038316896946 
910	 0,533234879449478 
911	 0,533971793547822 
912	 0,534195918703793 
913	 0,533577285353867 
914	 0,533339049641946 
915	 0,533540730694016 
916	 0,5340763964288 
917	 0,534103344927522 
918	 0,533919256649657 
919	 0,534851624879701 
920	 0,535111091145067 
921	 0,534461484360711 
922	 0,535068674843742 
923	 0,535372739695014 
924	 0,534269899640208 
925	 0,535062100493389 
926	 0,536393199818498 
927	 0,534933231041453 
928	 0,53306718758652 
929	 0,532000030509199 
930	 0,533312936444754 
931	 0,535012472534549 
932	 0,535760014288158 
933	 0,535545385359619 
934	 0,53500155454744 
935	 0,534953964871001 
936	 0,534925168356117 
937	 0,534922172345874 
938	 0,535214589762704 
939	 0,535638463179887 
940	 0,535840887422527 
941	 0,534534699895506 
942	 0,532958249757459 
943	 0,532419092341529 
944	 0,534107496578886 
945	 0,535864382042109 
946	 0,533361870990085 
947	 0,531732051815796 
948	 0,531825755696742 
949	 0,530921597826579 
950	 0,529872921310363 
951	 0,529191083632108 
952	 0,528848130426211 
953	 0,528830308766302 
954	 0,529057012476314 
955	 0,528279874547355 
956	 0,526784015546509 
957	 0,525924962650557 
958	 0,525701766613452 
959	 0,525872999963747 
960	 0,525023213519692 
961	 0,524781573753346 
962	 0,526018920876436 
963	 0,524586963220888 
964	 0,523134005033245 
965	 0,526448696458257 
966	 0,527471973784048 
967	 0,525624018219296 
968	 0,524824277465111 
969	 0,524142505990637 
970	 0,523615155971925 
971	 0,524999743796181 
972	 0,525789806744662 
973	 0,523973373738481 
974	 0,524404949157373 
975	 0,526277372407358 
976	 0,526713327840319 
977	 0,526623856539865 
978	 0,526209570832957 
979	 0,52522363049942 
980	 0,52576527317499 
981	 0,528204460678293 
982	 0,528148139862234 
983	 0,527326666350517 
984	 0,527818656600339 
985	 0,528329114007814 
986	 0,52873102285345 
987	 0,529188517988683 
988	 0,52940669478894 
989	 0,529595769008903 
990	 0,530725981995838 
991	 0,532257992435597 
992	 0,533543214964406 
993	 0,532476706936804 
994	 0,532300275894948 
995	 0,536021443221893 
996	 0,536558647157898 
997	 0,534771711510343 
998	 0,534837590247089 
999	 0,536332224519389 
1000	 0,538552102606183 
1001	 0,539304395749123 
1002	 0,539236095229674 
1003	 0,539357975668353 
1004	 0,543690996662713 
1005	 0,546890241045396 
1006	 0,543922652775438 
1007	 0,540886522827335 
1008	 0,540406789818384 
1009	 0,544967370923381 
1010	 0,547671202305742 
1011	 0,547407976635632 
1012	 0,547904502495804 
1013	 0,546768179638017 
1014	 0,54448238749827 
1015	 0,548533571106453 
1016	 0,552428536769659 
1017	 0,550745381556167 
1018	 0,550277678128877 
1019	 0,550579490640088 
1020	 0,549612659332668 
1021	 0,550868777659858 
1022	 0,55440689782616 
1023	 0,558758400839705 
1024	 0,55833529115991 
1025	 0,553253970160326 
1026	 0,553220553965791 
1027	 0,55729981623011 
1028	 0,562957974819202 
1029	 0,55875911338552 
1030	 0,554223201213414 
1031	 0,560918051847552 
1032	 0,559717410227337 
1033	 0,553549640197257 
1034	 0,555771720729691 
1035	 0,559517041357992 
1036	 0,56298135649927 
1037	 0,566902215800798 
1038	 0,567775235492678 
1039	 0,565268152877804 
1040	 0,567343920818646 
1041	 0,567701147614407 
1042	 0,56202838875809 
1043	 0,562958271533075 
1044	 0,566410634866282 
1045	 0,564873279212997 
1046	 0,560456496984658 
1047	 0,558771253949264 
1048	 0,571664356220102 
1049	 0,578723536400439 
1050	 0,57445117134341 
1051	 0,565302051657084 
1052	 0,56139727918239 
1053	 0,56660772913451 
1054	 0,569990528112855 
1055	 0,573791051871859 
1056	 0,579425003925634 
1057	 0,577221249870365 
1058	 0,574708405375508 
1059	 0,583475705371057 
1060	 0,58510521904473 
1061	 0,576178638524069 
1062	 0,556823189963738 
1063	 0,560393552839717 
1064	 0,583628054487991 
1065	 0,571465806927636 
1066	 0,560846306479959 
1067	 0,566395386515514 
1068	 0,575721027499541 
1069	 0,576839396759339 
1070	 0,564367737619659 
1071	 0,565925433146114 
1072	 0,575853602400034 
1073	 0,582614623904989 
1074	 0,568338369661651 
1075	 0,556023589114978 
