Wavelength	GRA-BER00559.asd
325	 7,32039611476754E-04 
326	 0,030990869704379 
327	 7,67860531454491E-02 
328	 0,135390836925228 
329	 0,220711887402306 
330	 0,234497345518897 
331	 7,22301262939771E-02 
332	 4,42918582318074E-03 
333	 9,9908136414829E-03 
334	-7,39164444938162E-02 
335	-6,15838199505652E-02 
336	 0,041429952858697 
337	 2,24733123225856E-02 
338	 1,18025983009446E-02 
339	 0,128809873550743 
340	 0,120102417845726 
341	 2,08627040071125E-02 
342	-2,97905847224641E-02 
343	-7,23157604195418E-02 
344	-0,100901396064637 
345	-4,45834534755818E-02 
346	 1,44826888290134E-02 
347	-4,83641536273115E-03 
348	 2,05132889615469E-02 
349	 7,53465649704933E-02 
350	 8,19448789000175E-02 
351	 8,09352434551792E-02 
352	 8,69796588784624E-02 
353	 0,100871536207169 
354	 8,89541848697425E-02 
355	 1,18525422634556E-02 
356	-3,28032598948934E-02 
357	-1,83643195377955E-02 
358	 5,13979653441227E-02 
359	 6,42451829613108E-02 
360	 2,68905415389082E-03 
361	 3,55152275700999E-02 
362	 9,58497826180456E-02 
363	 5,88588152937817E-02 
364	 2,38565399038781E-02 
365	 8,35025582265988E-03 
366	-7,71709298557963E-03 
367	-3,27502054533262E-04 
368	 3,88317525554194E-02 
369	 5,71363024687366E-02 
370	 5,28349289126587E-02 
371	 3,28970793129748E-02 
372	 3,86622760480277E-02 
373	 6,88948843621595E-02 
374	 5,75404309037587E-02 
375	 3,32662780214929E-02 
376	 1,89777961170427E-02 
377	 4,60995646362801E-04 
378	-1,30601084346553E-02 
379	 5,10584884086829E-04 
380	 5,44619190966742E-03 
381	-5,62471496376873E-04 
382	 2,93616714845639E-02 
383	 5,18471884961677E-02 
384	 2,83884616256723E-02 
385	 1,85101562785228E-02 
386	 2,52337245422387E-02 
387	 2,40061467018222E-02 
388	 2,79575785536418E-02 
389	 0,036591439021414 
390	 2,44469930195382E-02 
391	 1,14244676767635E-02 
392	 2,34501482860738E-02 
393	 2,39847165290509E-02 
394	 1,39318857817415E-02 
395	 0,022845249306305 
396	 2,84322513383649E-02 
397	 2,08992931023866E-02 
398	 1,43502079235676E-02 
399	 1,37917911106687E-02 
400	 2,42494824260215E-02 
401	 0,024728115035251 
402	 0,016630835222969 
403	 2,82796189313657E-02 
404	 0,030490127317232 
405	 6,85644479664509E-03 
406	 4,22122110147858E-03 
407	 1,78841558544148E-02 
408	 2,71851923544753E-02 
409	 2,91293084799781E-02 
410	 2,34291479847858E-02 
411	 1,78500099248408E-02 
412	 1,32464925642332E-02 
413	 1,00287974491578E-02 
414	 1,01295292981605E-02 
415	 1,24571158326743E-02 
416	 1,31403013691718E-02 
417	 1,68326886764699E-02 
418	 2,33584353872753E-02 
419	 2,18620654140033E-02 
420	 1,67970227816174E-02 
421	 1,50318372210473E-02 
422	 1,30611936491152E-02 
423	 1,19771662961362E-02 
424	 1,79249332506638E-02 
425	 2,17250994588008E-02 
426	 1,86944323844322E-02 
427	 1,86974211298304E-02 
428	 0,020660489952767 
429	 2,07247587870434E-02 
430	 1,62060025182535E-02 
431	 9,44342250607988E-03 
432	 1,44860901290373E-02 
433	 1,93971805896564E-02 
434	 0,014132471673846 
435	 0,01515846160558 
436	 2,05154221160498E-02 
437	 1,75580656682562E-02 
438	 1,47496042093922E-02 
439	 1,47792834906673E-02 
440	 1,26946668259848E-02 
441	 1,06908712423818E-02 
442	 1,19266653338053E-02 
443	 0,012713615386893 
444	 1,24967599750944E-02 
445	 1,24997785690245E-02 
446	 1,32690258486246E-02 
447	 0,014934858427447 
448	 1,53263502526243E-02 
449	 1,52549313751659E-02 
450	 1,69435972187023E-02 
451	 0,017145426415151 
452	 1,56431098544591E-02 
453	 1,62226113197292E-02 
454	 1,73290472179214E-02 
455	 0,017390530736875 
456	 1,68883316610315E-02 
457	 1,63711244783835E-02 
458	 1,67954615810507E-02 
459	 1,87162041887241E-02 
460	 2,16562877702834E-02 
461	 2,17249666752213E-02 
462	 1,88535090649695E-02 
463	 1,34304154693397E-02 
464	 1,33903884397877E-02 
465	 1,77220531286598E-02 
466	 1,48888879908508E-02 
467	 1,27094349822419E-02 
468	 1,59935782452433E-02 
469	 1,87943090767429E-02 
470	 1,90606245673138E-02 
471	 1,41671279269976E-02 
472	 1,16981606720167E-02 
473	 1,36863314478103E-02 
474	 0,016163024817052 
475	 1,70190046576815E-02 
476	 1,46426561585831E-02 
477	 1,40928016839274E-02 
478	 0,015168049369147 
479	 1,37788280700121E-02 
480	 1,43073683914366E-02 
481	 1,78721331318692E-02 
482	 1,74622395275386E-02 
483	 1,56489747442585E-02 
484	 1,73700858046052E-02 
485	 1,60703079452151E-02 
486	 1,20537146751385E-02 
487	 1,29232043128989E-02 
488	 1,54985848135473E-02 
489	 1,69249002542684E-02 
490	 1,43365474720778E-02 
491	 1,03595115979803E-02 
492	 1,23371009608303E-02 
493	 1,33235366591396E-02 
494	 1,16435868258469E-02 
495	 1,18809985881344E-02 
496	 1,30860532045658E-02 
497	 1,37984231486393E-02 
498	 1,38700023620471E-02 
499	 1,32597001818534E-02 
500	 1,18899470187645E-02 
501	 1,13712392040966E-02 
502	 1,24119994199892E-02 
503	 1,26758327192527E-02 
504	 1,23388636330237E-02 
505	 1,21757018437987E-02 
506	 1,30535106475953E-02 
507	 1,46842262500317E-02 
508	 1,46141751116957E-02 
509	 1,40179513312841E-02 
510	 1,40517812270373E-02 
511	 1,43631133525809E-02 
512	 1,46730558229465E-02 
513	 1,43298857577682E-02 
514	 1,42753918803375E-02 
515	 1,47989567164301E-02 
516	 1,49570166815813E-02 
517	 1,47237622349045E-02 
518	 1,42063335659809E-02 
519	 1,35937881749328E-02 
520	 1,30842963311071E-02 
521	 0,013036498045878 
522	 1,31291617911558E-02 
523	 1,31548044889704E-02 
524	 1,36440749321776E-02 
525	 1,42402660204356E-02 
526	 0,013977968568794 
527	 1,38135444335057E-02 
528	 0,013921368667306 
529	 1,33639855429816E-02 
530	 1,25903855230235E-02 
531	 1,21855939771196E-02 
532	 1,25640725630987E-02 
533	 1,34100425420807E-02 
534	 1,35812022233593E-02 
535	 1,30522296111774E-02 
536	 1,20909646534617E-02 
537	 1,31066009621387E-02 
538	 1,48805787744372E-02 
539	 1,47056620984182E-02 
540	 1,35632028906593E-02 
541	 1,22090880347316E-02 
542	 1,26722829880463E-02 
543	 1,33873712292436E-02 
544	 1,28002081382667E-02 
545	 1,29640781648258E-02 
546	 1,37987743677567E-02 
547	 1,40199394665048E-02 
548	 1,38061904043165E-02 
549	 1,33455622232122E-02 
550	 1,34651287516345E-02 
551	 1,38773264602117E-02 
552	 1,39594037985446E-02 
553	 1,45429300665295E-02 
554	 1,53047299481262E-02 
555	 1,39846167736878E-02 
556	 1,29999247753461E-02 
557	 1,42265299708201E-02 
558	 1,43808684472359E-02 
559	 1,35363724400412E-02 
560	 1,31688353828643E-02 
561	 1,40270510996508E-02 
562	 1,60336072757406E-02 
563	 1,64071320867418E-02 
564	 1,60821388367458E-02 
565	 1,66301504381977E-02 
566	 1,72075757123379E-02 
567	 1,77004979073222E-02 
568	 0,018438091932667 
569	 1,88307551777047E-02 
570	 1,86700953431541E-02 
571	 2,02570812666726E-02 
572	 2,25389288365337E-02 
573	 2,24998292009485E-02 
574	 2,24193812822684E-02 
575	 2,30281000340642E-02 
576	 2,37568344223593E-02 
577	 2,44704280419623E-02 
578	 2,50487802125135E-02 
579	 2,53791375716633E-02 
580	 2,54193652383186E-02 
581	 0,025158927086675 
582	 2,47264981179232E-02 
583	 2,42344083401106E-02 
584	 2,38008349183799E-02 
585	 2,34538619949856E-02 
586	 2,31668709138493E-02 
587	 2,33110514314285E-02 
588	 2,36471694791566E-02 
589	 2,26483273703955E-02 
590	 2,15939234377897E-02 
591	 2,16906121709996E-02 
592	 2,16222272045566E-02 
593	 2,11948392025886E-02 
594	 2,04911545518231E-02 
595	 2,03590766996339E-02 
596	 2,10397419634667E-02 
597	 2,11809064185509E-02 
598	 2,07829152694947E-02 
599	 0,020067575874896 
600	 1,96758339979349E-02 
601	 1,97087282698967E-02 
602	 1,97077280931444E-02 
603	 1,94946667289076E-02 
604	 1,89605037826053E-02 
605	 1,84692863550118E-02 
606	 1,81457359242878E-02 
607	 1,81868162008242E-02 
608	 1,78212954955178E-02 
609	 1,69600267462772E-02 
610	 1,68956157516956E-02 
611	 0,017378888550271 
612	 1,79554848675414E-02 
613	 1,78918616682235E-02 
614	 1,73425478198728E-02 
615	 1,75610708472805E-02 
616	 1,77329448113367E-02 
617	 1,73946277557216E-02 
618	 1,73102478707281E-02 
619	 1,74620862394426E-02 
620	 1,75675145292305E-02 
621	 1,79505526596406E-02 
622	 1,85355532667078E-02 
623	 1,84848946623125E-02 
624	 1,83790934517159E-02 
625	 1,88511856866463E-02 
626	 1,94728214706453E-02 
627	 2,00762440231983E-02 
628	 2,04310809478103E-02 
629	 2,09757116181264E-02 
630	 2,17986496130468E-02 
631	 2,17825001638759E-02 
632	 2,15092269559534E-02 
633	 2,20889267920619E-02 
634	 0,023137125415436 
635	 2,42735637867904E-02 
636	 0,024439004447958 
637	 2,45747270714144E-02 
638	 0,025475481831529 
639	 2,63233573689554E-02 
640	 2,70133616188713E-02 
641	 2,77789238894863E-02 
642	 2,79206939972862E-02 
643	 2,74279299012179E-02 
644	 2,80946726944898E-02 
645	 2,89238194959591E-02 
646	 2,84187845464465E-02 
647	 2,85575607611925E-02 
648	 2,93257404842765E-02 
649	 0,028761805603561 
650	 2,86704237117967E-02 
651	 3,00353962567369E-02 
652	 3,01508179235823E-02 
653	 2,93144766306013E-02 
654	 2,89034117591011E-02 
655	 2,89409055029579E-02 
656	 0,029407980521544 
657	 2,99736095047087E-02 
658	 2,99989968129348E-02 
659	 2,89030974120138E-02 
660	 2,78189749013427E-02 
661	 0,027136861889287 
662	 2,72002666791183E-02 
663	 2,69257241812152E-02 
664	 2,58206298183231E-02 
665	 2,47521331696038E-02 
666	 2,39513961948895E-02 
667	 2,35765470795928E-02 
668	 0,023590783844619 
669	 2,37134678986188E-02 
670	 0,023012721014025 
671	 0,022186066101746 
672	 2,18135969216607E-02 
673	 2,16045294457554E-02 
674	 2,14641946393651E-02 
675	 2,13088218989541E-02 
676	 2,09765211386788E-02 
677	 2,05541952957233E-02 
678	 2,09266426482129E-02 
679	 2,13800856485491E-02 
680	 2,10022461474247E-02 
681	 2,05814308417207E-02 
682	 2,03442201849357E-02 
683	 2,02529181140816E-02 
684	 2,07068709600192E-02 
685	 0,021807010111115 
686	 2,23556116022769E-02 
687	 2,26359027993897E-02 
688	 2,34692703454106E-02 
689	 2,41607440346888E-02 
690	 2,47142965961119E-02 
691	 2,59938337539736E-02 
692	 2,75207025069064E-02 
693	 2,88959077308299E-02 
694	 3,11713703049224E-02 
695	 3,41685092696553E-02 
696	 3,68817096496822E-02 
697	 4,01462539392588E-02 
698	 4,42378690728785E-02 
699	 4,86280881400488E-02 
700	 5,32187568615422E-02 
701	 5,79505815663298E-02 
702	 6,38552539518558E-02 
703	 7,07075381639927E-02 
704	 7,69265541027434E-02 
705	 8,32248913699267E-02 
706	 9,00209408472486E-02 
707	 9,68390147612847E-02 
708	 0,103713665666769 
709	 0,110888542553721 
710	 0,117797101230408 
711	 0,124272168490852 
712	 0,130487464727969 
713	 0,136769494253081 
714	 0,143351171148324 
715	 0,149356822973332 
716	 0,154826603399388 
717	 0,160296176526464 
718	 0,165700419525831 
719	 0,170965547864516 
720	 0,175737288864423 
721	 0,180264147300135 
722	 0,184902838156204 
723	 0,188774540468596 
724	 0,192081004234278 
725	 0,196143785522895 
726	 0,20012903079539 
727	 0,203509589169644 
728	 0,206428140164914 
729	 0,209048862283867 
730	 0,211616267706747 
731	 0,214201372680402 
732	 0,216789114811473 
733	 0,219204343106422 
734	 0,221256399605813 
735	 0,222827739943424 
736	 0,224490053690377 
737	 0,226267382174522 
738	 0,227924181330454 
739	 0,229488381975562 
740	 0,23096870802828 
741	 0,232408541352945 
742	 0,233785538447132 
743	 0,235065701933304 
744	 0,235977141227672 
745	 0,236588159530302 
746	 0,237249670754253 
747	 0,238036163378221 
748	 0,23900722077273 
749	 0,240175858671481 
750	 0,241331124277151 
751	 0,242167444484717 
752	 0,242862514901558 
753	 0,2435322841276 
754	 0,244413014054851 
755	 0,245215574781761 
756	 0,245758033304121 
757	 0,246449949422736 
758	 0,247195890052171 
759	 0,247669728809063 
760	 0,248165919878178 
761	 0,248730583310048 
762	 0,24906308132822 
763	 0,249522744077406 
764	 0,250415915239583 
765	 0,251003036868126 
766	 0,251212566836117 
767	 0,251164074551663 
768	 0,251548135475356 
769	 0,252499865318296 
770	 0,252924482329104 
771	 0,253093436525948 
772	 0,253438849660848 
773	 0,253869886645647 
774	 0,254328784752982 
775	 0,254677051930411 
776	 0,254992654739229 
777	 0,255326113493086 
778	 0,25570801068543 
779	 0,256144727729495 
780	 0,256642380967718 
781	 0,256994685963022 
782	 0,25718743643679 
783	 0,257338172398618 
784	 0,257765967361728 
785	 0,258568645655926 
786	 0,258652184962977 
787	 0,258490092209666 
788	 0,259223646866896 
789	 0,259604354574526 
790	 0,2595019947849 
791	 0,260003917536837 
792	 0,260560509441311 
793	 0,2607570069672 
794	 0,261307432216232 
795	 0,262005583603006 
796	 0,262164310509634 
797	 0,26236570015627 
798	 0,262742225005667 
799	 0,26292447869397 
800	 0,263166441681145 
801	 0,263680993148248 
802	 0,263801160887762 
803	 0,263661172657197 
804	 0,263927483295534 
805	 0,264153690157346 
806	 0,264283548505299 
807	 0,264844727489356 
808	 0,265540889678745 
809	 0,266018371770762 
810	 0,266352584478943 
811	 0,266588931774289 
812	 0,266810626296697 
813	 0,267090003456963 
814	 0,267444046025166 
815	 0,267709832817167 
816	 0,267985640077031 
817	 0,268405581062786 
818	 0,269103641342431 
819	 0,269872892425417 
820	 0,270015997199982 
821	 0,270212279502003 
822	 0,270736373948561 
823	 0,271103433746525 
824	 0,271321844591901 
825	 0,271468099970232 
826	 0,271952113627578 
827	 0,272702188325572 
828	 0,273180125640588 
829	 0,273507004022441 
830	 0,27372687836338 
831	 0,27371466031012 
832	 0,273842616328314 
833	 0,274606331475012 
834	 0,275134959128396 
835	 0,275307805639578 
836	 0,275442445493685 
837	 0,275916102558509 
838	 0,276822775078919 
839	 0,277190985930462 
840	 0,277361646368818 
841	 0,27796720969974 
842	 0,278435450172682 
843	 0,278733459108543 
844	 0,27926602291931 
845	 0,279611744960242 
846	 0,279570457045299 
847	 0,279393524016036 
848	 0,279564941569392 
849	 0,280688716412546 
850	 0,281087349971107 
851	 0,280754174949875 
852	 0,281173295761253 
853	 0,281725699963987 
854	 0,282082386191242 
855	 0,282341211593248 
856	 0,282635512085894 
857	 0,283136094648988 
858	 0,283144376737968 
859	 0,282977066914226 
860	 0,284353734732214 
861	 0,284909693138529 
862	 0,283806120155791 
863	 0,284332432856083 
864	 0,285391135986037 
865	 0,285140676500582 
866	 0,285185863196316 
867	 0,285633892298153 
868	 0,285581536854253 
869	 0,286018966473633 
870	 0,287161387436589 
871	 0,287327203435194 
872	 0,287054618791264 
873	 0,287178681119144 
874	 0,287409605159471 
875	 0,287627859745304 
876	 0,287565837094351 
877	 0,287871930731113 
878	 0,288599423483138 
879	 0,288366403433185 
880	 0,287986924044962 
881	 0,288423162085127 
882	 0,288965887936845 
883	 0,289329177729369 
884	 0,289135321088653 
885	 0,288967460422556 
886	 0,289111203833265 
887	 0,289769951157215 
888	 0,29027256301294 
889	 0,290051996169243 
890	 0,290338229977684 
891	 0,290806585756196 
892	 0,290222329153065 
893	 0,289935442595613 
894	 0,290216900223474 
895	 0,290105117280847 
896	 0,290146454526355 
897	 0,290698398445868 
898	 0,290731648827307 
899	 0,290511771245041 
900	 0,290791306764187 
901	 0,291176518603106 
902	 0,291437274896756 
903	 0,291136518716037 
904	 0,290920600047103 
905	 0,291111820194679 
906	 0,290734729600416 
907	 0,290520096661278 
908	 0,291627130274173 
909	 0,292252177153709 
910	 0,291901717283184 
911	 0,290428550211374 
912	 0,289734608085935 
913	 0,290566765575939 
914	 0,291152141524822 
915	 0,291424154963445 
916	 0,291481069042316 
917	 0,291167864811788 
918	 0,290600985485824 
919	 0,290082550437253 
920	 0,289649605195447 
921	 0,289448696752668 
922	 0,290057520414533 
923	 0,290262969572506 
924	 0,289166808436239 
925	 0,288523850080879 
926	 0,288159341128865 
927	 0,287182459574627 
928	 0,287142953589796 
929	 0,287675265080212 
930	 0,285682875098472 
931	 0,284480305671648 
932	 0,285555367326912 
933	 0,284756149740941 
934	 0,28281110658222 
935	 0,281273598526333 
936	 0,280980259123605 
937	 0,281390486204526 
938	 0,280415365173111 
939	 0,278894688377464 
940	 0,277367141499587 
941	 0,276982059307095 
942	 0,276557149366199 
943	 0,275067189997885 
944	 0,273923774300201 
945	 0,272970170323561 
946	 0,271489346615458 
947	 0,269932365312714 
948	 0,268436638910991 
949	 0,267051908448398 
950	 0,265497245193809 
951	 0,263661190879153 
952	 0,261958294368542 
953	 0,26025884015899 
954	 0,258370500053773 
955	 0,256760828820246 
956	 0,255610175783962 
957	 0,255195102294319 
958	 0,254098783335962 
959	 0,252033216814881 
960	 0,250173856688047 
961	 0,249105434881073 
962	 0,249011820632045 
963	 0,247626201243272 
964	 0,246396292288559 
965	 0,247968320995358 
966	 0,247946324043844 
967	 0,246242986660615 
968	 0,246258437630104 
969	 0,245857409155206 
970	 0,244263692232779 
971	 0,241960574439596 
972	 0,241337679954626 
973	 0,244108712236329 
974	 0,245080345410009 
975	 0,244760989196391 
976	 0,245775589901831 
977	 0,245392311985697 
978	 0,243507689400643 
979	 0,241894971074758 
980	 0,242394060302624 
981	 0,24522049366727 
982	 0,245671342618701 
983	 0,244807167048741 
984	 0,244277508753567 
985	 0,24534686758485 
986	 0,247123639364801 
987	 0,247348377079901 
988	 0,247870954430914 
989	 0,24854515777507 
990	 0,246811914000999 
991	 0,245903776908303 
992	 0,247548421728315 
993	 0,251049859161409 
994	 0,252853090182192 
995	 0,249892331464894 
996	 0,248399669144687 
997	 0,248919557063694 
998	 0,250029655570949 
999	 0,251371397092884 
1000	 0,252581280842773 
1001	 0,253686378135209 
1002	 0,251797822136639 
1003	 0,247266181610058 
1004	 0,250372833630066 
1005	 0,256271458589484 
1006	 0,259268120469934 
1007	 0,25940956244834 
1008	 0,258191179294719 
1009	 0,25843230406399 
1010	 0,25840392271983 
1011	 0,258669117002549 
1012	 0,262465187034184 
1013	 0,265127217146655 
1014	 0,264862984816853 
1015	 0,263676798320621 
1016	 0,263904251590466 
1017	 0,266980799509086 
1018	 0,268765775403284 
1019	 0,268825587867614 
1020	 0,267522753152155 
1021	 0,266220203459211 
1022	 0,266129618001911 
1023	 0,269402182365208 
1024	 0,271535292256704 
1025	 0,271556181542586 
1026	 0,273453210230235 
1027	 0,273835383288524 
1028	 0,271155221999154 
1029	 0,27076616956269 
1030	 0,27244656237514 
1031	 0,275060560448735 
1032	 0,277595041511203 
1033	 0,278772438945024 
1034	 0,276521157922122 
1035	 0,277279239299299 
1036	 0,280966535230118 
1037	 0,280901703652993 
1038	 0,27789044589548 
1039	 0,27414326480883 
1040	 0,278755987732866 
1041	 0,284958048381819 
1042	 0,286371776992264 
1043	 0,282966139137767 
1044	 0,281227044388904 
1045	 0,289567724436884 
1046	 0,29215922892968 
1047	 0,288989997079231 
1048	 0,288980868319563 
1049	 0,281346982486161 
1050	 0,26927113856982 
1051	 0,277458665936458 
1052	 0,283369920960888 
1053	 0,278508734243562 
1054	 0,284632148000976 
1055	 0,293679440828174 
1056	 0,296930219124126 
1057	 0,294221911181152 
1058	 0,287931233952514 
1059	 0,281972871128024 
1060	 0,285136980626916 
1061	 0,29309612534325 
1062	 0,291141072089771 
1063	 0,295051833988217 
1064	 0,302392147764906 
1065	 0,286077174536853 
1066	 0,283297318083359 
1067	 0,302903508171549 
1068	 0,29587915118351 
1069	 0,284848295581533 
1070	 0,288890480120221 
1071	 0,299174903069786 
1072	 0,305301401517054 
1073	 0,296888242535721 
1074	 0,290803098790618 
1075	 0,28377921177373 
