Wavelength	GRA-VIE00457.asd
325	 9,38537322953705E-02 
326	 1,96976415486517E-02 
327	 4,09939915151748E-02 
328	 0,113629510133934 
329	 0,206355725090828 
330	 0,240962774857975 
331	 0,135926574327821 
332	 0,16069192219022 
333	 0,259649399632501 
334	 0,100443108002943 
335	 6,91375522641911E-02 
336	 0,196881928055496 
337	 0,182419995479058 
338	 0,132890520777488 
339	 0,121799757782088 
340	 0,096100182664321 
341	 7,40705018559069E-02 
342	 0,13024873145575 
343	 0,188061862744021 
344	 0,211911230501542 
345	 0,156678480688345 
346	 8,98722951782981E-02 
347	 9,31563038598167E-02 
348	 0,108856690627297 
349	 0,116079261510504 
350	 9,53225849705742E-02 
351	 7,03412458011384E-02 
352	 4,94266955011398E-02 
353	 0,058314206991643 
354	 7,83385492273331E-02 
355	 8,62299484235802E-02 
356	 8,15248174247628E-02 
357	 5,92778832730136E-02 
358	-2,00994052847868E-03 
359	-2,03022577177085E-02 
360	 0,033648772618967 
361	 6,39005207245498E-02 
362	 7,21685760532427E-02 
363	 8,19816680219276E-02 
364	 6,36515558219535E-02 
365	 2,74214989685996E-02 
366	 2,98367892540776E-02 
367	 4,38743413150222E-02 
368	 4,98330040527627E-02 
369	 4,10362069523926E-02 
370	 3,01306899692394E-02 
371	 3,91336327762515E-02 
372	 5,54414557448641E-02 
373	 6,98700054826833E-02 
374	 0,062123203095595 
375	 4,61958321618593E-02 
376	 3,32097621254248E-02 
377	 1,77313166102854E-02 
378	 1,36318601324638E-02 
379	 5,21373982922894E-02 
380	 7,12078507075867E-02 
381	 5,95793166817159E-02 
382	 5,54689281602665E-02 
383	 4,69732743748418E-02 
384	 2,31036316528256E-02 
385	 2,70596494456866E-02 
386	 5,25830626051501E-02 
387	 7,22482914454441E-02 
388	 7,08642677316179E-02 
389	 4,74012794658178E-02 
390	 3,85270287497996E-02 
391	 4,20762267496367E-02 
392	 0,051690660366095 
393	 4,36725141731393E-02 
394	 2,27596511345078E-02 
395	 2,12154028229455E-02 
396	 2,87078724219505E-02 
397	 3,83797266154899E-02 
398	 4,12617159105986E-02 
399	 3,40844744248179E-02 
400	 1,28301713445726E-02 
401	 1,32770480325383E-02 
402	 3,28274418892146E-02 
403	 2,36339724395772E-02 
404	 1,88368333705105E-02 
405	 0,038119997383828 
406	 3,50078695557299E-02 
407	 0,020076011528373 
408	 2,83348002672294E-02 
409	 3,42785386965875E-02 
410	 3,13395376748572E-02 
411	 2,29998538928426E-02 
412	 1,73038783443726E-02 
413	 2,05626542329549E-02 
414	 1,45762806971443E-02 
415	 4,5896161745514E-03 
416	 0,01335263669951 
417	 2,03073786601884E-02 
418	 1,85964728500003E-02 
419	 1,98305378858572E-02 
420	 2,15932115718994E-02 
421	 1,96875010692058E-02 
422	 1,59695656803493E-02 
423	 1,24752773619774E-02 
424	 1,40304135909516E-02 
425	 1,40985065615474E-02 
426	 9,64937159381604E-03 
427	 1,12101219110094E-02 
428	 1,53486123623899E-02 
429	 1,36315675669758E-02 
430	 1,28682815571526E-02 
431	 1,43845902784463E-02 
432	 1,51020714400602E-02 
433	 1,48612475778513E-02 
434	 1,38970112582954E-02 
435	 1,70832132490995E-02 
436	 2,14529982091539E-02 
437	 0,017280655738999 
438	 1,32806319196088E-02 
439	 1,34313685308187E-02 
440	 1,82104829913428E-02 
441	 2,25102793566332E-02 
442	 2,02779641136208E-02 
443	 1,71656423644894E-02 
444	 1,56629885132489E-02 
445	 1,91117859955963E-02 
446	 2,17414628089885E-02 
447	 2,00362287426356E-02 
448	 1,64627133274073E-02 
449	 1,36479759002191E-02 
450	 1,55452975955191E-02 
451	 1,90252029214141E-02 
452	 2,19729158758727E-02 
453	 2,04332157717978E-02 
454	 1,83471131089364E-02 
455	 1,93931317172185E-02 
456	 1,96200954353772E-02 
457	 1,89596989157913E-02 
458	 1,93643896564763E-02 
459	 1,90229691943981E-02 
460	 1,74570624307842E-02 
461	 1,64107583951221E-02 
462	 1,66422548765261E-02 
463	 1,88728784589003E-02 
464	 2,02186479493657E-02 
465	 2,00544485043895E-02 
466	 1,93052955408604E-02 
467	 1,78553240399833E-02 
468	 1,60976567977161E-02 
469	 1,83422144728522E-02 
470	 2,15321678578515E-02 
471	 1,84186426689009E-02 
472	 1,65754175555629E-02 
473	 1,78010191088706E-02 
474	 1,82478639678026E-02 
475	 1,76152455132377E-02 
476	 1,59406780363358E-02 
477	 1,59137087197712E-02 
478	 1,71226365174977E-02 
479	 1,68829813166248E-02 
480	 1,62083839310102E-02 
481	 0,015589616055038 
482	 1,49813918741507E-02 
483	 1,49025436906203E-02 
484	 1,60700567322308E-02 
485	 1,78341268415379E-02 
486	 1,90318458463703E-02 
487	 1,58759054899131E-02 
488	 1,43255959648799E-02 
489	 1,84154326599507E-02 
490	 2,06081908210674E-02 
491	 1,97903853822564E-02 
492	 1,60060978097696E-02 
493	 1,37886629561761E-02 
494	 1,46571167008814E-02 
495	 1,61156628736952E-02 
496	 0,016806272756304 
497	 0,015508223080206 
498	 0,01463405750202 
499	 1,43959873946506E-02 
500	 1,32607758402748E-02 
501	 1,33204384548499E-02 
502	 1,53545033541567E-02 
503	 1,54548635921348E-02 
504	 1,45768058462221E-02 
505	 1,53114326211814E-02 
506	 1,58080046609067E-02 
507	 1,55308491950057E-02 
508	 1,45012112196774E-02 
509	 1,37434403708452E-02 
510	 1,41663109709907E-02 
511	 1,53496192549163E-02 
512	 1,65012373113569E-02 
513	 1,59481928203212E-02 
514	 1,50369702545812E-02 
515	 1,45967778358604E-02 
516	 1,57165258294073E-02 
517	 1,71562722996026E-02 
518	 1,71138919343481E-02 
519	 1,67330425251833E-02 
520	 1,63466608651945E-02 
521	 1,59842895006429E-02 
522	 1,58465139103847E-02 
523	 1,60405183721562E-02 
524	 1,59797463882106E-02 
525	 1,60453064057977E-02 
526	 0,017669802699856 
527	 1,74710366685879E-02 
528	 1,49693411685377E-02 
529	 1,43289139597076E-02 
530	 1,50265164184277E-02 
531	 1,60548658421374E-02 
532	 1,61182153110716E-02 
533	 1,53056262445093E-02 
534	 0,014951813178205 
535	 1,51332465497481E-02 
536	 0,015871637179879 
537	 1,69356351348042E-02 
538	 1,74823071135571E-02 
539	 1,60219539386371E-02 
540	 1,50748832389408E-02 
541	 1,53926797885695E-02 
542	 1,63149614459015E-02 
543	 1,67419018639925E-02 
544	 1,57075278275148E-02 
545	 1,47644762170143E-02 
546	 1,44024917881522E-02 
547	 0,014927524507412 
548	 1,57055826328905E-02 
549	 1,62593492518183E-02 
550	 1,58440981379365E-02 
551	 1,52471722437112E-02 
552	 1,58122607619463E-02 
553	 1,63801840740856E-02 
554	 1,64779235009991E-02 
555	 1,56867478250832E-02 
556	 0,014737516158966 
557	 1,43197856454831E-02 
558	 1,50113823365064E-02 
559	 1,62359019068683E-02 
560	 1,64049523035056E-02 
561	 1,62468473452459E-02 
562	 1,60430911101315E-02 
563	 1,57432331913125E-02 
564	 1,57091465944623E-02 
565	 1,63965783133215E-02 
566	 1,66657200364403E-02 
567	 1,63599129089684E-02 
568	 1,60472717146214E-02 
569	 1,59380852663936E-02 
570	 1,61856523185788E-02 
571	 1,66446308168369E-02 
572	 1,71966946599908E-02 
573	 1,77740154668192E-02 
574	 1,75870394108349E-02 
575	 1,67134776553088E-02 
576	 0,017273018302021 
577	 1,77946230574183E-02 
578	 1,65452520596735E-02 
579	 1,74965421731082E-02 
580	 2,00625342233894E-02 
581	 0,01954026804383 
582	 1,89189827599332E-02 
583	 1,97114675665355E-02 
584	 1,96575598131189E-02 
585	 1,90459717185517E-02 
586	 1,87955359736116E-02 
587	 1,93969161700165E-02 
588	 2,05563947987287E-02 
589	 2,01709889688756E-02 
590	 1,96063423923852E-02 
591	 2,01716388252962E-02 
592	 2,04888373778938E-02 
593	 2,03367298335873E-02 
594	 1,98171412968599E-02 
595	 1,94103580812393E-02 
596	 1,94552832200693E-02 
597	 2,04053880895806E-02 
598	 2,12615202933413E-02 
599	 2,04702129762881E-02 
600	 2,05222536724279E-02 
601	 2,15640911007046E-02 
602	 2,13698253648565E-02 
603	 2,05819523790922E-02 
604	 1,98166759818682E-02 
605	 1,96895080338085E-02 
606	 1,99201961304002E-02 
607	 1,95280222845706E-02 
608	 1,90562359067635E-02 
609	 1,87319739920378E-02 
610	 1,86665878992736E-02 
611	 1,87232351494907E-02 
612	 1,87189552656781E-02 
613	 1,84383322194444E-02 
614	 1,80818580976461E-02 
615	 1,85566604990636E-02 
616	 1,88285839863121E-02 
617	 1,83280668360365E-02 
618	 1,83382976144425E-02 
619	 1,86519330578654E-02 
620	 1,84426229508197E-02 
621	 1,86096653212476E-02 
622	 1,92684499850428E-02 
623	 1,96276046522973E-02 
624	 1,94627177396349E-02 
625	 1,86484592982807E-02 
626	 1,85099202869774E-02 
627	 1,90152411461528E-02 
628	 1,92072924064619E-02 
629	 1,90789348959704E-02 
630	 1,86710042490642E-02 
631	 1,83835849305065E-02 
632	 1,86441981251378E-02 
633	 2,00843537742592E-02 
634	 2,08073689661642E-02 
635	 2,04151998182463E-02 
636	 1,98745572151424E-02 
637	 1,95929658138622E-02 
638	 1,98863903818027E-02 
639	 2,04569473574091E-02 
640	 2,10006240879201E-02 
641	 2,09234167366675E-02 
642	 2,09233810435827E-02 
643	 2,12367416246497E-02 
644	 2,13543391505735E-02 
645	 2,15864844745399E-02 
646	 2,23880729642223E-02 
647	 2,26145994368375E-02 
648	 2,22110238605759E-02 
649	 2,20298920560581E-02 
650	 2,21189061921183E-02 
651	 2,24071951431239E-02 
652	 2,18182157466686E-02 
653	 2,09160247626584E-02 
654	 2,11646765833707E-02 
655	 2,14656417813442E-02 
656	 2,13989036356636E-02 
657	 2,08130290431503E-02 
658	 2,02433054584025E-02 
659	 2,02203071334658E-02 
660	 1,96147861309064E-02 
661	 1,86317060217714E-02 
662	 0,018653022082791 
663	 0,018194562928073 
664	 1,67596287679183E-02 
665	 1,64470825446711E-02 
666	 1,68231464307702E-02 
667	 1,68481917973561E-02 
668	 1,65032504228824E-02 
669	 1,60163071139625E-02 
670	 1,63897092983298E-02 
671	 1,70877273841209E-02 
672	 1,75706480252366E-02 
673	 0,017022944263435 
674	 1,59907826887676E-02 
675	 0,01608064120712 
676	 1,64422821393509E-02 
677	 0,016708738107545 
678	 0,016580482975905 
679	 0,016365811737264 
680	 1,64637812117209E-02 
681	 1,66636881450355E-02 
682	 1,69290395261655E-02 
683	 1,73499533939836E-02 
684	 0,017540140564525 
685	 1,73476329396282E-02 
686	 1,75121707132677E-02 
687	 1,79813165545143E-02 
688	 1,84244444169368E-02 
689	 0,019471553855953 
690	 2,09581694730405E-02 
691	 2,13322640134675E-02 
692	 2,17948722121258E-02 
693	 2,34534408600295E-02 
694	 2,55100474538047E-02 
695	 2,76978760240553E-02 
696	 2,97032550736014E-02 
697	 3,20601063873526E-02 
698	 3,49991815275484E-02 
699	 3,83928917539689E-02 
700	 4,20439358690715E-02 
701	 4,57119982839194E-02 
702	 4,98671171406526E-02 
703	 5,44346518263414E-02 
704	 5,87689282343366E-02 
705	 6,33651492166225E-02 
706	 6,84182893883978E-02 
707	 7,28637267737215E-02 
708	 7,69223110720603E-02 
709	 8,12765098483816E-02 
710	 8,56194442738214E-02 
711	 8,98706386501014E-02 
712	 9,41469167929584E-02 
713	 9,79121232763757E-02 
714	 0,10074758337314 
715	 0,103751744068516 
716	 0,107096512153472 
717	 0,110719253669829 
718	 0,113709124497686 
719	 0,115759773084201 
720	 0,117730956997885 
721	 0,119669728203993 
722	 0,121527574722704 
723	 0,123795147779677 
724	 0,126277879069657 
725	 0,128009941760361 
726	 0,129371555076603 
727	 0,130643273449757 
728	 0,132120853471393 
729	 0,133531541954416 
730	 0,134281584069968 
731	 0,135156281000637 
732	 0,136272312322057 
733	 0,137006226803291 
734	 0,137584680347275 
735	 0,138237668837296 
736	 0,13905802156716 
737	 0,139982489888584 
738	 0,14086189817822 
739	 0,141409495224781 
740	 0,141607918656584 
741	 0,142051308993093 
742	 0,142731971048523 
743	 0,143564314214073 
744	 0,1439381738712 
745	 0,143993704694281 
746	 0,144609341440042 
747	 0,145363740562751 
748	 0,145986807426787 
749	 0,146272608941446 
750	 0,146387699834512 
751	 0,146627797402462 
752	 0,146847126012533 
753	 0,147108790749338 
754	 0,147787440385653 
755	 0,148319929450054 
756	 0,14835953843471 
757	 0,148812182370079 
758	 0,149439907527989 
759	 0,149446830169021 
760	 0,149648486983951 
761	 0,150183866604968 
762	 0,150417545846196 
763	 0,150452949051537 
764	 0,150433014312712 
765	 0,150548820474834 
766	 0,150797400883797 
767	 0,151049206088125 
768	 0,151304546275511 
769	 0,151556802369045 
770	 0,151824796823323 
771	 0,15207096355835 
772	 0,152255496182627 
773	 0,152668729839719 
774	 0,153198933725911 
775	 0,153317645938013 
776	 0,153389963234243 
777	 0,153568256623665 
778	 0,153463841427896 
779	 0,153424680303013 
780	 0,154007232260996 
781	 0,154433164864333 
782	 0,154521510816266 
783	 0,154405441040094 
784	 0,15455296606195 
785	 0,155160273704558 
786	 0,155071314334931 
787	 0,154601232623049 
788	 0,154586213343692 
789	 0,154777096853662 
790	 0,155113449265818 
791	 0,155630021145587 
792	 0,155923456683347 
793	 0,155725404487132 
794	 0,155800596230389 
795	 0,156038236068835 
796	 0,155912049657131 
797	 0,155751008650892 
798	 0,155691223489747 
799	 0,155746771428597 
800	 0,156136584180091 
801	 0,156979578488818 
802	 0,157032450626602 
803	 0,156612568390827 
804	 0,157212373279932 
805	 0,157484919026739 
806	 0,157177208909982 
807	 0,157684921812541 
808	 0,15836928814925 
809	 0,158470004295388 
810	 0,158710094649204 
811	 0,159048616039402 
812	 0,15893740767408 
813	 0,158951788567718 
814	 0,159276770180648 
815	 0,159379469277182 
816	 0,159563517406844 
817	 0,160208961388507 
818	 0,160162996402429 
819	 0,159653178818911 
820	 0,160156274508467 
821	 0,160732834788238 
822	 0,160920438536901 
823	 0,160795637208853 
824	 0,160716012030757 
825	 0,161125412191094 
826	 0,161956073356308 
827	 0,162789536275898 
828	 0,162481732362684 
829	 0,161801205315892 
830	 0,161291971607631 
831	 0,161555613177761 
832	 0,162071824292533 
833	 0,162039831087817 
834	 0,162345623563929 
835	 0,162902914392488 
836	 0,162730271666246 
837	 0,162575328701274 
838	 0,162842868788998 
839	 0,163323080121902 
840	 0,16364055293733 
841	 0,163319939946764 
842	 0,163089630808895 
843	 0,16314846293927 
844	 0,163508178649529 
845	 0,163553839648069 
846	 0,163092282329552 
847	 0,163418854418709 
848	 0,163927421649594 
849	 0,163574793152408 
850	 0,163694536935653 
851	 0,164250795275571 
852	 0,164031434009964 
853	 0,163646777124285 
854	 0,163449834255641 
855	 0,163376034308958 
856	 0,163532500143511 
857	 0,164052027498138 
858	 0,163824994394327 
859	 0,162995408118466 
860	 0,162912605917645 
861	 0,163173027377875 
862	 0,163490786802138 
863	 0,163296590354862 
864	 0,163259584404566 
865	 0,164299551327023 
866	 0,165128868212427 
867	 0,165516506892541 
868	 0,165851733465851 
869	 0,165888972776405 
870	 0,165657964053381 
871	 0,166004035942735 
872	 0,166414828905728 
873	 0,166197151487245 
874	 0,165950473164699 
875	 0,165927845981291 
876	 0,166465352522085 
877	 0,166878334865806 
878	 0,166958740427845 
879	 0,167443943617202 
880	 0,167883860372113 
881	 0,167797678473312 
882	 0,168505987472016 
883	 0,169567579029296 
884	 0,169125791137182 
885	 0,16864748701656 
886	 0,168701990807852 
887	 0,169201310308959 
888	 0,169893455265903 
889	 0,170504342063332 
890	 0,170732408514051 
891	 0,170885162315216 
892	 0,171836085733273 
893	 0,17217492228482 
894	 0,171662411586894 
895	 0,171495214615424 
896	 0,171240244304015 
897	 0,170655263103736 
898	 0,170959023033319 
899	 0,171841824483395 
900	 0,172437429457029 
901	 0,172677566465558 
902	 0,172699238009646 
903	 0,173300220677086 
904	 0,173492655840104 
905	 0,172808298137175 
906	 0,172638093571519 
907	 0,172824484375763 
908	 0,172884086822401 
909	 0,173295657545719 
910	 0,173949302659879 
911	 0,174219207684131 
912	 0,174382271031406 
913	 0,174502245120355 
914	 0,174203578520145 
915	 0,173818781180329 
916	 0,173749910741695 
917	 0,17400456673247 
918	 0,174277821585672 
919	 0,17379958195533 
920	 0,173344074050936 
921	 0,173234196469224 
922	 0,173585081154952 
923	 0,173753501820111 
924	 0,173250525099547 
925	 0,172807061174195 
926	 0,172589184578528 
927	 0,172666152063048 
928	 0,172678804759983 
929	 0,172479825792476 
930	 0,171969190041429 
931	 0,171631588838648 
932	 0,171673856601481 
933	 0,171339205909464 
934	 0,170954854080402 
935	 0,171024998850969 
936	 0,171038032514171 
937	 0,170594822682623 
938	 0,168681580365179 
939	 0,16833806461278 
940	 0,16979155552683 
941	 0,167458578346114 
942	 0,165466084859239 
943	 0,1673753095908 
944	 0,168084823301572 
945	 0,16714886138285 
946	 0,165352730181564 
947	 0,164188672748706 
948	 0,16364012931981 
949	 0,161474469281366 
950	 0,16023255331349 
951	 0,160960934079121 
952	 0,160458048391271 
953	 0,158840081634645 
954	 0,156774614548399 
955	 0,156231413617996 
956	 0,156779208683864 
957	 0,156022179311423 
958	 0,155978002151392 
959	 0,156642823327199 
960	 0,154937479477003 
961	 0,153172115990874 
962	 0,153069360510912 
963	 0,152739229552852 
964	 0,152399373028383 
965	 0,152741089321682 
966	 0,15446162318165 
967	 0,156003195139755 
968	 0,151822433793265 
969	 0,149707409652525 
970	 0,152300318037759 
971	 0,153946938564324 
972	 0,154075666485887 
973	 0,152675102437462 
974	 0,151767967501839 
975	 0,152119616197835 
976	 0,154398801387923 
977	 0,154570250804057 
978	 0,152624259536221 
979	 0,152682691069339 
980	 0,153789145383453 
981	 0,155121743907801 
982	 0,154883109756218 
983	 0,153542496775203 
984	 0,151978888067782 
985	 0,152802871742122 
986	 0,154546857504085 
987	 0,153311522391198 
988	 0,153447615813204 
989	 0,155660509057138 
990	 0,158103913320197 
991	 0,158650473734337 
992	 0,156860518862324 
993	 0,157659522750388 
994	 0,159048377530359 
995	 0,158689958767933 
996	 0,159268045395119 
997	 0,160549200795702 
998	 0,161148129169381 
999	 0,162708789736199 
1000	 0,164455651514632 
1001	 0,161895634058105 
1002	 0,161216614677193 
1003	 0,164626101268364 
1004	 0,165004243024954 
1005	 0,164384355557036 
1006	 0,165276923505524 
1007	 0,167303331533016 
1008	 0,169129152379733 
1009	 0,168549912236652 
1010	 0,168359552650068 
1011	 0,169229326039478 
1012	 0,170863623955414 
1013	 0,171268326353532 
1014	 0,169754544664836 
1015	 0,167602498428603 
1016	 0,16765507525942 
1017	 0,171621712898896 
1018	 0,173610445517306 
1019	 0,173631284226054 
1020	 0,17308823093668 
1021	 0,170654547756105 
1022	 0,168969531921225 
1023	 0,176142542555799 
1024	 0,180277766498923 
1025	 0,178243546152797 
1026	 0,176431292634507 
1027	 0,177667003072143 
1028	 0,182284486559009 
1029	 0,179056329023573 
1030	 0,175436041189539 
1031	 0,180754913394058 
1032	 0,18060113527915 
1033	 0,176283284115141 
1034	 0,175992363029417 
1035	 0,179449290169463 
1036	 0,185339339735267 
1037	 0,189327764934573 
1038	 0,191213981086919 
1039	 0,190607820019874 
1040	 0,187381473652726 
1041	 0,183495229240364 
1042	 0,181404826780801 
1043	 0,186668574783811 
1044	 0,191497932677532 
1045	 0,185582514407195 
1046	 0,183887555358225 
1047	 0,188063408560213 
1048	 0,19387292694289 
1049	 0,194889136122964 
1050	 0,191485182214675 
1051	 0,194794842002633 
1052	 0,198318941529861 
1053	 0,198424501248156 
1054	 0,193960452030273 
1055	 0,190408511986992 
1056	 0,1925654952433 
1057	 0,198666757144469 
1058	 0,200334223979256 
1059	 0,187639248991147 
1060	 0,191190457569933 
1061	 0,202141036662624 
1062	 0,185877091170439 
1063	 0,185258921326249 
1064	 0,202588509949454 
1065	 0,195135942669807 
1066	 0,191150745507115 
1067	 0,200552030844224 
1068	 0,207123083343469 
1069	 0,208212434250203 
1070	 0,204048718927189 
1071	 0,209856413691876 
1072	 0,20714865380373 
1073	 0,176215257843089 
1074	 0,184725660885238 
1075	 0,215727324989778 
