Wavelength	GRA-VIE00811.asd
325	 8,31748431833485E-02 
326	 5,50189840090902E-02 
327	 8,03914793414342E-02 
328	 0,107279712273252 
329	 3,70166942973328E-02 
330	-0,022729194587018 
331	 4,24659709291416E-02 
332	 0,064094684089188 
333	 7,37288955172221E-02 
334	 0,197000418226192 
335	 0,184260505988236 
336	 6,48277541648063E-02 
337	 0,143181281262057 
338	 0,209118281446757 
339	 0,124401195641243 
340	 0,109340782482975 
341	 0,159773764725562 
342	 0,161202593775492 
343	 0,163276718202674 
344	 0,171512299782393 
345	 0,156938958515703 
346	 0,101956145996337 
347	 3,53461156287177E-04 
348	-1,35661692574034E-02 
349	 4,91507135807498E-02 
350	 9,81168017204763E-02 
351	 7,42557560526797E-02 
352	-1,84404687822418E-02 
353	-0,013737202102157 
354	 5,34409694070942E-02 
355	 0,12138645373041 
356	 0,126456509664177 
357	 7,70204910711332E-02 
358	 3,75830480921657E-02 
359	 1,72501919827983E-02 
360	 2,08565500341709E-02 
361	 4,25861834738629E-02 
362	 7,19963564979125E-02 
363	 0,100797667844914 
364	 8,44762022655408E-02 
365	 0,035423008992733 
366	 3,59148020787327E-02 
367	 4,98728192426088E-02 
368	 5,08454265847716E-02 
369	 2,47237703263932E-02 
370	-1,4087859760078E-03 
371	 1,99976043283725E-02 
372	 4,17981724381843E-02 
373	 4,90897685806595E-02 
374	 4,44803115216015E-02 
375	 0,032322028975975 
376	 1,72539090560574E-02 
377	 1,45318865537554E-02 
378	 2,45276089199414E-02 
379	 0,0407982311365 
380	 0,053609145649364 
381	 5,94815498976231E-02 
382	 0,061116885541426 
383	 4,84970883847454E-02 
384	 1,49995826041789E-02 
385	 2,19892350631492E-02 
386	 5,13271707614268E-02 
387	 3,16512330704077E-02 
388	 2,32832444277515E-02 
389	 4,30539858885496E-02 
390	 4,44083867571938E-02 
391	 3,66223243644811E-02 
392	 3,47695440852995E-02 
393	 2,43544408680029E-02 
394	 1,02215736011212E-02 
395	 1,61893214694532E-02 
396	 2,50781952820444E-02 
397	 2,89976975078578E-02 
398	 3,62746770424644E-02 
399	 3,71764946215605E-02 
400	 1,59561762138821E-02 
401	 1,26846805758702E-02 
402	 2,92445164793822E-02 
403	 3,11078347036345E-02 
404	 2,97182266230012E-02 
405	 3,24424451722638E-02 
406	 0,02543310413349 
407	 1,80576610150323E-02 
408	 0,034816789477483 
409	 3,72191739795129E-02 
410	 2,04832290060516E-02 
411	 1,56107887960161E-02 
412	 1,84145923476009E-02 
413	 2,27430395392146E-02 
414	 1,83338089265075E-02 
415	 1,00101787611692E-02 
416	 1,65507081897094E-02 
417	 1,86740094476511E-02 
418	 1,11649611170304E-02 
419	 1,13398641732491E-02 
420	 1,50580508868425E-02 
421	 1,52892159043086E-02 
422	 1,30075891068536E-02 
423	 1,00020387021456E-02 
424	 1,16930787349106E-02 
425	 1,17827554115998E-02 
426	 7,39035331627924E-03 
427	 8,55722200704656E-03 
428	 1,29862678479436E-02 
429	 1,46376068820548E-02 
430	 1,47738217235433E-02 
431	 1,36379363292214E-02 
432	 1,12064406271266E-02 
433	 9,6390362294729E-03 
434	 1,08131571628542E-02 
435	 1,50287930841128E-02 
436	 1,87540726280023E-02 
437	 1,30127885447992E-02 
438	 8,38001346330901E-03 
439	 9,41277561242485E-03 
440	 1,44401206672844E-02 
441	 1,85551319825416E-02 
442	 1,62169308283267E-02 
443	 1,28370873062204E-02 
444	 1,07917970712689E-02 
445	 1,27843905738326E-02 
446	 1,56516067524078E-02 
447	 1,72128647935912E-02 
448	 1,71513192542955E-02 
449	 1,62083025863655E-02 
450	 1,57216840554531E-02 
451	 1,68545354035746E-02 
452	 1,88011493024791E-02 
453	 1,58186217621492E-02 
454	 1,38048158532157E-02 
455	 1,79484447707001E-02 
456	 1,79255755911746E-02 
457	 1,45422796349716E-02 
458	 1,53282130311294E-02 
459	 1,62553252769144E-02 
460	 1,57921572641473E-02 
461	 1,47985220514507E-02 
462	 0,01481596549926 
463	 1,77776434907426E-02 
464	 1,74497238696971E-02 
465	 1,38004876835994E-02 
466	 1,22236961860504E-02 
467	 1,27219956681798E-02 
468	 0,014889317454756 
469	 1,51937022923897E-02 
470	 0,01371276954328 
471	 1,13342222032734E-02 
472	 1,21202407364687E-02 
473	 1,61153883501587E-02 
474	 1,64995631327737E-02 
475	 0,015234147074054 
476	 1,46759571542259E-02 
477	 0,015158332157294 
478	 1,57664056743324E-02 
479	 1,32519790249042E-02 
480	 1,25521455399837E-02 
481	 1,51199966268704E-02 
482	 1,38417617270871E-02 
483	 1,09171149883756E-02 
484	 1,06472839147976E-02 
485	 1,23059198706432E-02 
486	 0,014510743601643 
487	 1,25379601528835E-02 
488	 1,13615245692407E-02 
489	 1,43321850516931E-02 
490	 0,014333563625405 
491	 1,23554859919515E-02 
492	 1,34005906202557E-02 
493	 1,38432944650397E-02 
494	 1,28158562357497E-02 
495	 0,012642539347594 
496	 1,22545158459895E-02 
497	 1,03243410452625E-02 
498	 1,08121422969009E-02 
499	 1,30357950835312E-02 
500	 1,20059344763508E-02 
501	 1,15048436778787E-02 
502	 1,33005398969928E-02 
503	 0,013369990838672 
504	 1,23544218732904E-02 
505	 1,21893776136885E-02 
506	 1,27174730640741E-02 
507	 1,34541716775489E-02 
508	 1,22474129120177E-02 
509	 1,12838151331122E-02 
510	 1,24555121934227E-02 
511	 1,21523555591308E-02 
512	 1,08250850683784E-02 
513	 1,15019566571476E-02 
514	 1,18226812767825E-02 
515	 1,10512703265319E-02 
516	 1,12325572731485E-02 
517	 1,21165556290867E-02 
518	 1,31056046724062E-02 
519	 0,013657841555588 
520	 1,34792235265748E-02 
521	 0,01202932408719 
522	 1,14105026235325E-02 
523	 1,29356986578691E-02 
524	 1,34253936874331E-02 
525	 1,29233339276495E-02 
526	 1,27546427979924E-02 
527	 1,24117628439844E-02 
528	 1,19240312876523E-02 
529	 1,21332098686091E-02 
530	 1,24064046920744E-02 
531	 1,19711434898056E-02 
532	 1,14985713189221E-02 
533	 1,11848777174475E-02 
534	 1,09970542864758E-02 
535	 1,13113563851287E-02 
536	 1,22958165071433E-02 
537	 1,36088478317075E-02 
538	 1,42989121337221E-02 
539	 1,27000824608639E-02 
540	 1,17228695938233E-02 
541	 1,20807076113796E-02 
542	 1,22012013441792E-02 
543	 1,21566616634834E-02 
544	 1,20991335133375E-02 
545	 0,012171160974615 
546	 1,23609581101295E-02 
547	 1,25903918731469E-02 
548	 1,25759085744846E-02 
549	 1,22521129912936E-02 
550	 1,22669863342124E-02 
551	 1,24126370489972E-02 
552	 1,22287666891064E-02 
553	 1,24633469277699E-02 
554	 1,29226075869999E-02 
555	 1,20194253326199E-02 
556	 1,08974588061898E-02 
557	 1,05875911425962E-02 
558	 1,12455527363096E-02 
559	 0,012269638877369 
560	 1,21355147936985E-02 
561	 1,19125000105324E-02 
562	 1,20160425072912E-02 
563	 1,22588436060668E-02 
564	 1,25016842686104E-02 
565	 1,25872088687475E-02 
566	 1,21531838801789E-02 
567	 1,15800239415655E-02 
568	 1,25656222212256E-02 
569	 1,33008092158228E-02 
570	 1,26653895945392E-02 
571	 1,29267408262728E-02 
572	 1,38971776299038E-02 
573	 1,45711837628668E-02 
574	 0,013975101929636 
575	 1,23536793531276E-02 
576	 0,013266726982287 
577	 1,43352446246772E-02 
578	 1,27127287141515E-02 
579	 1,33312918271486E-02 
580	 1,58949381777289E-02 
581	 0,016047660317651 
582	 1,53297627159393E-02 
583	 1,46820025961157E-02 
584	 1,43173527758513E-02 
585	 1,45427444092379E-02 
586	 1,58256306116917E-02 
587	 1,66286487004092E-02 
588	 1,66277388390184E-02 
589	 1,69822670032285E-02 
590	 0,017019558485306 
591	 1,61421833967345E-02 
592	 1,57597577559763E-02 
593	 1,59455460786035E-02 
594	 1,60954517906817E-02 
595	 0,016106445088461 
596	 1,59729446969088E-02 
597	 1,62574220392145E-02 
598	 0,016523155392109 
599	 1,60173996251679E-02 
600	 1,60452626013334E-02 
601	 1,66660518391796E-02 
602	 1,66455172329683E-02 
603	 1,63308232060509E-02 
604	 1,60420894133702E-02 
605	 1,60186669887861E-02 
606	 1,60133183143387E-02 
607	 1,52670939809139E-02 
608	 1,46364707780258E-02 
609	 0,014412992995007 
610	 0,014106225797111 
611	 1,40152779170954E-02 
612	 1,45424238362089E-02 
613	 1,45513645750668E-02 
614	 1,40965321862634E-02 
615	 1,44142108951426E-02 
616	 1,46212184840972E-02 
617	 1,41991712994715E-02 
618	 1,38593520017329E-02 
619	 1,37226723859931E-02 
620	 1,37952697682975E-02 
621	 0,014069930364214 
622	 1,43725805543955E-02 
623	 0,013994018702509 
624	 1,34398499925986E-02 
625	 1,32975386365467E-02 
626	 1,41227472781957E-02 
627	 1,53248057914224E-02 
628	 1,49162508365841E-02 
629	 1,41882438838635E-02 
630	 1,38954016552866E-02 
631	 1,42825949026133E-02 
632	 1,49584658651108E-02 
633	 1,52501721330777E-02 
634	 1,53202379765032E-02 
635	 1,52435939486925E-02 
636	 1,51276708949058E-02 
637	 0,015315569721305 
638	 0,016028912829485 
639	 1,62967423230924E-02 
640	 1,61654766965646E-02 
641	 1,61620796422041E-02 
642	 1,65655148206525E-02 
643	 1,73489549526762E-02 
644	 1,74444345027711E-02 
645	 0,017386360120419 
646	 1,79989055182009E-02 
647	 1,80124365061837E-02 
648	 1,73945560962614E-02 
649	 1,70865585816837E-02 
650	 1,72196676906754E-02 
651	 1,77554195818498E-02 
652	 1,74428666517744E-02 
653	 1,66070908150498E-02 
654	 1,62644385670323E-02 
655	 1,62251835859618E-02 
656	 1,63353713347468E-02 
657	 1,59810030262493E-02 
658	 1,56845024215863E-02 
659	 1,59871803306133E-02 
660	 1,58251449174455E-02 
661	 1,50811820099255E-02 
662	 1,40006659309107E-02 
663	 1,33740554839661E-02 
664	 1,35389542020411E-02 
665	 1,35511559192252E-02 
666	 1,33689166771899E-02 
667	 1,31188006287413E-02 
668	 1,29228552437583E-02 
669	 1,28073699422806E-02 
670	 1,25654296836279E-02 
671	 1,28305064784805E-02 
672	 1,39554702193423E-02 
673	 1,38540179953289E-02 
674	 1,29335320282845E-02 
675	 1,30247301391293E-02 
676	 1,34019413984544E-02 
677	 1,37434164612636E-02 
678	 1,35997871889779E-02 
679	 1,33666102614229E-02 
680	 1,35572230050681E-02 
681	 0,013902389845147 
682	 1,41576841927706E-02 
683	 1,37136120297184E-02 
684	 1,34967510900603E-02 
685	 1,39695273425355E-02 
686	 1,39709712480146E-02 
687	 1,39073515124433E-02 
688	 1,47631468602429E-02 
689	 1,57600052098369E-02 
690	 1,65714431608249E-02 
691	 1,68651437265105E-02 
692	 1,73877625145154E-02 
693	 1,88031769473394E-02 
694	 2,05637561461544E-02 
695	 2,24669507984555E-02 
696	 2,41749138999726E-02 
697	 0,026620997287781 
698	 3,00688893206567E-02 
699	 3,34398655082165E-02 
700	 3,70480291121117E-02 
701	 4,14163963310879E-02 
702	 4,60552979424808E-02 
703	 5,09662143694718E-02 
704	 5,65222595488654E-02 
705	 6,26736107846348E-02 
706	 6,92663257343385E-02 
707	 7,54703180310542E-02 
708	 0,081406006804994 
709	 0,087527785196793 
710	 9,36951583216528E-02 
711	 9,99165056779125E-02 
712	 0,106392503977755 
713	 0,112621054127247 
714	 0,118178498906729 
715	 0,12363725203371 
716	 0,129064542416577 
717	 0,134376109010749 
718	 0,139326466073064 
719	 0,143826694552968 
720	 0,148014810794821 
721	 0,152029679334721 
722	 0,156048111430806 
723	 0,159960041656159 
724	 0,163526372639969 
725	 0,166118071742202 
726	 0,168456367124089 
727	 0,170996147518938 
728	 0,173485915243022 
729	 0,175713523693497 
730	 0,177344287777489 
731	 0,178915982723729 
732	 0,180578305693486 
733	 0,182139367635933 
734	 0,183589808643665 
735	 0,184909652046641 
736	 0,185894561701487 
737	 0,186676265550505 
738	 0,187650509053262 
739	 0,18860824819141 
740	 0,189441224499064 
741	 0,189956894753003 
742	 0,190502894505395 
743	 0,191478557960004 
744	 0,19202808870611 
745	 0,192171123749051 
746	 0,192525212875174 
747	 0,193226224796807 
748	 0,1942423419697 
749	 0,19475917714609 
750	 0,194835522674753 
751	 0,194704108884252 
752	 0,19505502377016 
753	 0,195900837432579 
754	 0,196465666826422 
755	 0,196732662358601 
756	 0,196754377784825 
757	 0,19719218289026 
758	 0,197642124983705 
759	 0,196969920841256 
760	 0,19703389569823 
761	 0,19809313546423 
762	 0,198297237801115 
763	 0,19805399294838 
764	 0,197868246881031 
765	 0,198126106264742 
766	 0,198618297873479 
767	 0,198544106722938 
768	 0,198560306348166 
769	 0,198879984669839 
770	 0,199152078823371 
771	 0,199365137373442 
772	 0,199539210732969 
773	 0,199549086427731 
774	 0,199531376193991 
775	 0,199993289898581 
776	 0,200372371704129 
777	 0,200372387786334 
778	 0,200178641662065 
779	 0,200002476334163 
780	 0,200110617141009 
781	 0,200225833169218 
782	 0,200357251036841 
783	 0,200870731934055 
784	 0,201134660173257 
785	 0,200820094830547 
786	 0,200958165771223 
787	 0,201274529594365 
788	 0,200997303483689 
789	 0,20096972274438 
790	 0,20130738553619 
791	 0,201365063663744 
792	 0,201438653320095 
793	 0,201750911914038 
794	 0,201913678921859 
795	 0,202005928947129 
796	 0,202369095719504 
797	 0,202490391473837 
798	 0,202263499810968 
799	 0,202013357657147 
800	 0,202081076091716 
801	 0,202699650832396 
802	 0,202775969280565 
803	 0,202414376084589 
804	 0,202376462591382 
805	 0,202724798261054 
806	 0,203347266649414 
807	 0,203372384684532 
808	 0,203179424815953 
809	 0,203236483009741 
810	 0,203210825604398 
811	 0,20314574467094 
812	 0,203315666461794 
813	 0,203531943255324 
814	 0,203709399976454 
815	 0,203840419719815 
816	 0,2040594617216 
817	 0,20451510674181 
818	 0,204848434645957 
819	 0,205028055621671 
820	 0,205245613197575 
821	 0,205427052231338 
822	 0,205496453863954 
823	 0,205190823555391 
824	 0,2048513371421 
825	 0,204937541067237 
826	 0,205140614863729 
827	 0,205311751928664 
828	 0,205279063418759 
829	 0,205006986097269 
830	 0,204609055541188 
831	 0,204914669172197 
832	 0,205474227569456 
833	 0,20555917844556 
834	 0,205627195515961 
835	 0,205684646936738 
836	 0,205383107297226 
837	 0,205213971662498 
838	 0,205402746554225 
839	 0,205459249593634 
840	 0,205433771404021 
841	 0,205476398430783 
842	 0,205478668534994 
843	 0,205471472219057 
844	 0,205668880961526 
845	 0,205685314431778 
846	 0,205404418999735 
847	 0,205627735709427 
848	 0,205951098824744 
849	 0,205687440381426 
850	 0,206050801022036 
851	 0,206879480922225 
852	 0,206690747865193 
853	 0,2061643241885 
854	 0,205738946672681 
855	 0,205649857809617 
856	 0,205831662508175 
857	 0,206134530798814 
858	 0,206302880255286 
859	 0,206182940835909 
860	 0,205449720068839 
861	 0,205288728025726 
862	 0,206129263353721 
863	 0,206304756475554 
864	 0,206118503578495 
865	 0,206204674377237 
866	 0,20685966799012 
867	 0,207664251568326 
868	 0,207087858790301 
869	 0,206644389998592 
870	 0,206972438316328 
871	 0,207143166501675 
872	 0,207114434733226 
873	 0,206953554800663 
874	 0,207265669254607 
875	 0,207793843453278 
876	 0,207387033700776 
877	 0,207024524366819 
878	 0,207146401129622 
879	 0,207693412249669 
880	 0,20808624172461 
881	 0,207761417290505 
882	 0,207846055016564 
883	 0,208295775621558 
884	 0,208399091237472 
885	 0,208321023318192 
886	 0,208168615400288 
887	 0,208256105396196 
888	 0,208396597898917 
889	 0,208401783917673 
890	 0,208408905453599 
891	 0,208506865700232 
892	 0,208835609723204 
893	 0,209202632585299 
894	 0,209467546857734 
895	 0,209436344186066 
896	 0,209098853864586 
897	 0,208532956096077 
898	 0,208369884993181 
899	 0,208623761550199 
900	 0,20913480802546 
901	 0,209215615187289 
902	 0,208930115024656 
903	 0,209340564587227 
904	 0,210068815502949 
905	 0,210706173361181 
906	 0,210238278738778 
907	 0,209304860053343 
908	 0,208988698058668 
909	 0,208986574915854 
910	 0,20915969125362 
911	 0,209208078880267 
912	 0,20951611721444 
913	 0,210045651858104 
914	 0,209519081808165 
915	 0,208771929294057 
916	 0,208855091778559 
917	 0,20977479840027 
918	 0,210577543048256 
919	 0,208833093888699 
920	 0,207389072053942 
921	 0,207335039486937 
922	 0,208563277000881 
923	 0,20910831115922 
924	 0,207567949503175 
925	 0,206985658978174 
926	 0,207216854198134 
927	 0,207109783502649 
928	 0,206318905476057 
929	 0,205199949659822 
930	 0,205539777476442 
931	 0,205896215127583 
932	 0,205464847012316 
933	 0,20513722300183 
934	 0,204730145973369 
935	 0,203914768383803 
936	 0,203333220065845 
937	 0,202760011953087 
938	 0,200994821584427 
939	 0,200023236502876 
940	 0,200186719199903 
941	 0,198984574308806 
942	 0,197498399796711 
943	 0,196813238760689 
944	 0,19651896557071 
945	 0,196346033923447 
946	 0,19596625513322 
947	 0,194831320808013 
948	 0,192900101868156 
949	 0,190581980858797 
950	 0,188980850598289 
951	 0,18851632418181 
952	 0,187321763939556 
953	 0,185900948760731 
954	 0,185071072191423 
955	 0,183615099791553 
956	 0,181829863801445 
957	 0,180910390858337 
958	 0,181442089953422 
959	 0,182732647159805 
960	 0,180856418578674 
961	 0,178094701583967 
962	 0,176293607902491 
963	 0,174139989383071 
964	 0,173108048481274 
965	 0,175514464228255 
966	 0,176905862087407 
967	 0,176389768742538 
968	 0,174987604634468 
969	 0,174285966151652 
970	 0,174922490681588 
971	 0,175704329294645 
972	 0,176251849146683 
973	 0,176279098520801 
974	 0,175967379518572 
975	 0,17557738791701 
976	 0,175523683403227 
977	 0,174645402294674 
978	 0,173488342720766 
979	 0,175013403831186 
980	 0,17651681486265 
981	 0,176559426357713 
982	 0,175618232159763 
983	 0,174151016660123 
984	 0,172883904345674 
985	 0,175374859006354 
986	 0,178845575313554 
987	 0,176711901106979 
988	 0,17490933731659 
989	 0,175327738861059 
990	 0,178448830820886 
991	 0,179782107079602 
992	 0,177626610120986 
993	 0,17744054817132 
994	 0,178936378074815 
995	 0,181105080020596 
996	 0,181475492761557 
997	 0,180799151419155 
998	 0,1814166120116 
999	 0,184491305197841 
1000	 0,188337003949992 
1001	 0,186042227835208 
1002	 0,183228287152654 
1003	 0,183072936249054 
1004	 0,185113508124646 
1005	 0,188040405877494 
1006	 0,190300843128626 
1007	 0,189347328699177 
1008	 0,187739443301089 
1009	 0,19072075361304 
1010	 0,192262297828722 
1011	 0,192209882631047 
1012	 0,196186931341689 
1013	 0,196694431630539 
1014	 0,192150850953579 
1015	 0,191907392655933 
1016	 0,195686127000643 
1017	 0,201750352599943 
1018	 0,202825662497843 
1019	 0,200191032077189 
1020	 0,197620405858339 
1021	 0,197469048782795 
1022	 0,200296329095089 
1023	 0,205902364412857 
1024	 0,20814845465482 
1025	 0,205767873691593 
1026	 0,204363178574431 
1027	 0,20481389629216 
1028	 0,206743699503588 
1029	 0,20328154748934 
1030	 0,200273303043689 
1031	 0,204882607494198 
1032	 0,207834060981907 
1033	 0,207700026038933 
1034	 0,205182187597944 
1035	 0,207438251206983 
1036	 0,214130991169977 
1037	 0,216847168663382 
1038	 0,216517769052741 
1039	 0,214054694413996 
1040	 0,212686065109061 
1041	 0,21111350260787 
1042	 0,208888091286272 
1043	 0,212695556732173 
1044	 0,216817682061998 
1045	 0,213165388342938 
1046	 0,210128119159838 
1047	 0,211094209701202 
1048	 0,219296815870004 
1049	 0,222234533708063 
1050	 0,218755676575365 
1051	 0,221666685687196 
1052	 0,225410646703644 
1053	 0,227263977382506 
1054	 0,228164358966475 
1055	 0,22811870204945 
1056	 0,227424594632919 
1057	 0,229948542883643 
1058	 0,226927789950086 
1059	 0,207254995173253 
1060	 0,209459523510467 
1061	 0,224473450613702 
1062	 0,213216737540915 
1063	 0,217260627243992 
1064	 0,23853142309683 
1065	 0,237202158971521 
1066	 0,230199671183174 
1067	 0,225784137390169 
1068	 0,225117119400489 
1069	 0,230147255582492 
1070	 0,240103394744873 
1071	 0,242289039365191 
1072	 0,238487825817565 
1073	 0,23314683917722 
1074	 0,231760977088715 
1075	 0,234576202785228 
