Wavelength	GRA-VIE00388.asd
325	 0,338721014021948 
326	 0,373984979076019 
327	 0,266820878045035 
328	 0,135498312032499 
329	 0,220679160094935 
330	 0,316299676871315 
331	 0,22465476035822 
332	 0,166399902664354 
333	 0,135313010592325 
334	 0,142276315162552 
335	 0,200146457846125 
336	 0,261081506307853 
337	 0,245861043929616 
338	 0,22184940217188 
339	 0,232259578319311 
340	 0,224080928936694 
341	 0,203904110724474 
342	 0,216737871057835 
343	 0,230069630383901 
344	 0,230345641110622 
345	 0,20169524094199 
346	 0,173360425496193 
347	 0,17984082778726 
348	 0,128979756978013 
349	 0,068667460404493 
350	 0,17732289813047 
351	 0,213213222882377 
352	 0,127915875262199 
353	 0,104386246622627 
354	 0,130253693468623 
355	 0,165345050510791 
356	 0,17908296994075 
357	 0,159502841754941 
358	 9,00200930946395E-02 
359	 5,95933036399939E-02 
360	 9,82058749284259E-02 
361	 8,96309325104836E-02 
362	 7,14516620903563E-02 
363	 0,112105522273298 
364	 0,122652368046145 
365	 0,099342869854795 
366	 0,106452541459567 
367	 0,118841397218358 
368	 0,11800227577427 
369	 9,01678430043823E-02 
370	 6,49964390914255E-02 
371	 9,47853733182794E-02 
372	 0,111186127598721 
373	 0,100506064194609 
374	 0,10184730121207 
375	 0,089111845929593 
376	 4,68105042970771E-02 
377	 5,29334068983966E-02 
378	 9,37086278073927E-02 
379	 0,109725083524634 
380	 0,112105908910232 
381	 0,104411746003485 
382	 9,02341933011444E-02 
383	 7,68297445982521E-02 
384	 0,072461846930131 
385	 9,14277529956817E-02 
386	 0,117739507570453 
387	 0,113949498870205 
388	 9,99145708580135E-02 
389	 8,72617850310794E-02 
390	 9,01080342165153E-02 
391	 9,85084861992114E-02 
392	 9,94174305241988E-02 
393	 8,49239520544625E-02 
394	 0,066913953461436 
395	 9,02049481474437E-02 
396	 0,103711568736881 
397	 8,67670872988643E-02 
398	 7,90957656692343E-02 
399	 7,74758402090656E-02 
400	 6,85332353346502E-02 
401	 7,48295941436683E-02 
402	 9,16929044516864E-02 
403	 8,22006981091499E-02 
404	 7,36615934184111E-02 
405	 8,26733300006464E-02 
406	 7,13264960280797E-02 
407	 5,35050774017188E-02 
408	 6,87149351202447E-02 
409	 7,96527678544047E-02 
410	 7,77895506253402E-02 
411	 7,52610143489404E-02 
412	 7,61472593208869E-02 
413	 8,28034363673655E-02 
414	 7,92078191623675E-02 
415	 6,93869503389198E-02 
416	 7,20133794046429E-02 
417	 0,072087233053385 
418	 6,55820188865997E-02 
419	 6,53825625871529E-02 
420	 6,91151307614437E-02 
421	 7,25079805524287E-02 
422	 6,99955999173016E-02 
423	 6,40742387537181E-02 
424	 6,80223926906929E-02 
425	 6,84009446272973E-02 
426	 5,87537537537538E-02 
427	 5,75157338201903E-02 
428	 0,062792568154145 
429	 6,72576883915961E-02 
430	 6,90853608269533E-02 
431	 0,067714166780118 
432	 6,52597064569671E-02 
433	 6,30249554716095E-02 
434	 6,22621229884651E-02 
435	 6,62549937958154E-02 
436	 7,17215511113519E-02 
437	 6,94741184490841E-02 
438	 6,58247664740473E-02 
439	 6,39243316375938E-02 
440	 6,60766013673272E-02 
441	 6,83268010862037E-02 
442	 6,56622348658572E-02 
443	 6,31853230200428E-02 
444	 6,26004535934865E-02 
445	 6,46857034270515E-02 
446	 6,85566959420421E-02 
447	 0,072836698625047 
448	 7,14081515061726E-02 
449	 6,73015599706108E-02 
450	 0,067541251651555 
451	 6,89419666323499E-02 
452	 7,02078638092076E-02 
453	 6,99604546895882E-02 
454	 6,87595155015044E-02 
455	 6,73198621515299E-02 
456	 0,067259162831025 
457	 6,82642770476243E-02 
458	 0,068337379138752 
459	 6,99312364242941E-02 
460	 7,29814232041925E-02 
461	 7,05743916663286E-02 
462	 6,69499235482113E-02 
463	 6,85348826486557E-02 
464	 7,03980140003323E-02 
465	 7,10202453951078E-02 
466	 6,95907484877222E-02 
467	 6,81963767491922E-02 
468	 6,81229540079219E-02 
469	 0,067309538182949 
470	 6,66139694065403E-02 
471	 6,84773300483043E-02 
472	 6,85801085395011E-02 
473	 6,65371277947189E-02 
474	 6,75526096915266E-02 
475	 0,069967559245615 
476	 7,17119531106767E-02 
477	 0,069660420383999 
478	 6,58116989274147E-02 
479	 6,75304632749177E-02 
480	 6,91164906104414E-02 
481	 6,81769236717877E-02 
482	 6,79869207367487E-02 
483	 6,79687452190711E-02 
484	 6,67431247068956E-02 
485	 6,68717211642113E-02 
486	 6,80591661580427E-02 
487	 6,62147831224307E-02 
488	 6,56944779865059E-02 
489	 6,92973746237764E-02 
490	 6,98779731602517E-02 
491	 6,75140723348003E-02 
492	 6,44695026274996E-02 
493	 0,064535501429149 
494	 6,81405582890614E-02 
495	 0,068862037088386 
496	 6,78828981891432E-02 
497	 0,067124025782825 
498	 6,65381329309386E-02 
499	 0,066220064214783 
500	 6,61143764704978E-02 
501	 6,63485110390953E-02 
502	 6,68603518929543E-02 
503	 6,64775127468729E-02 
504	 6,61845640324797E-02 
505	 6,80441997068604E-02 
506	 6,89336957285797E-02 
507	 6,81748005616386E-02 
508	 6,72043702945155E-02 
509	 6,69024998667941E-02 
510	 6,79061318912409E-02 
511	 6,83135707724715E-02 
512	 6,81194700684317E-02 
513	 0,068276983074489 
514	 6,87522823948133E-02 
515	 6,94731465792302E-02 
516	 6,99242651791915E-02 
517	 7,02129426518072E-02 
518	 7,05915749557237E-02 
519	 7,05031211642243E-02 
520	 7,00299253402982E-02 
521	 7,00364845307127E-02 
522	 6,97832754520403E-02 
523	 6,88256503002384E-02 
524	 6,83260265103588E-02 
525	 6,85645536578013E-02 
526	 6,98747266940665E-02 
527	 7,06013464545626E-02 
528	 7,02308286436186E-02 
529	 6,97833049052722E-02 
530	 6,92239201713142E-02 
531	 6,84269287779126E-02 
532	 6,85673947669897E-02 
533	 6,93891881660179E-02 
534	 6,93336943930782E-02 
535	 6,86990357351434E-02 
536	 6,78821351879258E-02 
537	 6,88386498625656E-02 
538	 7,00574456223862E-02 
539	 6,82079516301895E-02 
540	 6,72668263167606E-02 
541	 6,80922651431295E-02 
542	 6,84178064130808E-02 
543	 0,068350844474618 
544	 6,81473617360132E-02 
545	 6,87650335181395E-02 
546	 6,97978165244231E-02 
547	 6,95953198309476E-02 
548	 6,91148280563089E-02 
549	 6,89001173839324E-02 
550	 6,93403979860945E-02 
551	 6,97611170722442E-02 
552	 6,90147740966195E-02 
553	 6,89144759346588E-02 
554	 6,96227340104159E-02 
555	 6,96717735454641E-02 
556	 6,91495300498232E-02 
557	 6,82604195631069E-02 
558	 6,83504673056759E-02 
559	 6,89159898905415E-02 
560	 6,79410655879193E-02 
561	 6,75324287246947E-02 
562	 6,82197119802409E-02 
563	 6,76991523768836E-02 
564	 6,68980649743896E-02 
565	 6,72867367470574E-02 
566	 6,76660870104757E-02 
567	 6,79188286133934E-02 
568	 6,88470817336242E-02 
569	 6,93331903985348E-02 
570	 0,068752003363423 
571	 6,91158417237265E-02 
572	 7,01876818030877E-02 
573	 0,070815286677262 
574	 7,08964945085265E-02 
575	 7,07013776466892E-02 
576	 0,072166181903429 
577	 7,34635014032825E-02 
578	 7,24955361698538E-02 
579	 7,35303012456666E-02 
580	 7,62502405999071E-02 
581	 0,076526166814631 
582	 7,66368275872876E-02 
583	 7,77543837821563E-02 
584	 7,84210984272841E-02 
585	 7,87953090875827E-02 
586	 7,94529793302843E-02 
587	 0,080234820978447 
588	 8,10547365829004E-02 
589	 8,17203771552772E-02 
590	 8,22938173869186E-02 
591	 8,28298171304943E-02 
592	 0,083124757386253 
593	 8,31976182390587E-02 
594	 0,083102403925809 
595	 8,34057525913624E-02 
596	 0,084256012211324 
597	 0,08465201916957 
598	 8,46770194570943E-02 
599	 8,46316538398749E-02 
600	 8,45238567513371E-02 
601	 8,44214126612354E-02 
602	 8,45036129933391E-02 
603	 8,44728860785596E-02 
604	 8,41055686874638E-02 
605	 8,37607497520095E-02 
606	 8,33221441823483E-02 
607	 8,22885412504148E-02 
608	 8,14729750873704E-02 
609	 8,11068942272157E-02 
610	 8,03759217514793E-02 
611	 7,98967483606423E-02 
612	 8,04880797876864E-02 
613	 8,04139135077228E-02 
614	 7,95676062253572E-02 
615	 7,90833220636267E-02 
616	 7,89560425055057E-02 
617	 7,91162926318463E-02 
618	 7,88465178468066E-02 
619	 7,83731470075861E-02 
620	 0,078306876154792 
621	 7,87975353491362E-02 
622	 7,95583317783721E-02 
623	 7,89399496930913E-02 
624	 7,81609315124358E-02 
625	 7,85449565605845E-02 
626	 7,89417713765112E-02 
627	 7,92385773767477E-02 
628	 7,99504778908156E-02 
629	 8,01666448054786E-02 
630	 7,95623216240458E-02 
631	 7,94081620437432E-02 
632	 7,98327808793826E-02 
633	 8,07943863010815E-02 
634	 8,13875973067694E-02 
635	 8,14649431517483E-02 
636	 8,16525256705514E-02 
637	 8,22731788952899E-02 
638	 0,083539182992482 
639	 8,48371555958566E-02 
640	 8,57459049733868E-02 
641	 8,54558436770331E-02 
642	 8,56636398513095E-02 
643	 8,68759520085404E-02 
644	 8,74061347219665E-02 
645	 0,087686827615582 
646	 8,84825178343755E-02 
647	 8,85828226222026E-02 
648	 8,80461481468706E-02 
649	 8,81249486517585E-02 
650	 8,83193797069921E-02 
651	 0,088222311706515 
652	 8,73350501147631E-02 
653	 8,61469046135934E-02 
654	 8,58303718579953E-02 
655	 8,51237232280527E-02 
656	 8,37826602448449E-02 
657	 8,26713422172901E-02 
658	 8,20163805998107E-02 
659	 8,19281357017775E-02 
660	 8,06355816117989E-02 
661	 7,83780640321681E-02 
662	 7,69643103894814E-02 
663	 7,56873765776623E-02 
664	 7,43072140644982E-02 
665	 7,34982957914906E-02 
666	 0,072922271013016 
667	 7,19120448696629E-02 
668	 0,071631593098105 
669	 0,072002502645983 
670	 7,13871654645927E-02 
671	 7,07719217444494E-02 
672	 7,09324573604879E-02 
673	 7,09206410963734E-02 
674	 7,07268791390635E-02 
675	 7,07223500320503E-02 
676	 7,07700980378099E-02 
677	 7,08082443332402E-02 
678	 7,07167552802279E-02 
679	 7,07180286809588E-02 
680	 7,10787020889797E-02 
681	 7,13914620919048E-02 
682	 0,071621209522359 
683	 7,18794034735662E-02 
684	 7,26769633012274E-02 
685	 0,074196529096249 
686	 7,51574039402883E-02 
687	 7,61640052011374E-02 
688	 7,85636856860705E-02 
689	 8,13411284303584E-02 
690	 8,42666941440598E-02 
691	 8,75867811728912E-02 
692	 9,17693975206167E-02 
693	 0,097187302435803 
694	 0,103147964652701 
695	 0,109603744574393 
696	 0,116739192285845 
697	 0,124947631775531 
698	 0,134310656860647 
699	 0,144306473856855 
700	 0,154595917465022 
701	 0,164821162273675 
702	 0,175444817107466 
703	 0,186399323822803 
704	 0,197129826715376 
705	 0,207955228968783 
706	 0,218921076680402 
707	 0,228833713522428 
708	 0,238002365943673 
709	 0,247299855979188 
710	 0,256250935480517 
711	 0,264687110821235 
712	 0,272487041090634 
713	 0,279737400483562 
714	 0,286547356086536 
715	 0,292827262679702 
716	 0,298680461040902 
717	 0,30439787984144 
718	 0,309772779710559 
719	 0,314630291187398 
720	 0,318383218534907 
721	 0,321762736345022 
722	 0,325766991519441 
723	 0,329684166731573 
724	 0,333176062591069 
725	 0,335772442756933 
726	 0,33812753311037 
727	 0,340650057681839 
728	 0,343067929376482 
729	 0,345232953678171 
730	 0,346927104252045 
731	 0,34860003486243 
732	 0,350317599905713 
733	 0,351651894504549 
734	 0,352937946466308 
735	 0,35444598508216 
736	 0,355637595505937 
737	 0,356524927163188 
738	 0,357343497243894 
739	 0,358283625062703 
740	 0,359369562704099 
741	 0,360176550336378 
742	 0,360926620227954 
743	 0,361905252260607 
744	 0,362555764216946 
745	 0,362946756866359 
746	 0,363648081702135 
747	 0,364489157249366 
748	 0,36535597705669 
749	 0,366126296077515 
750	 0,366723251595858 
751	 0,367054304859321 
752	 0,367533386742495 
753	 0,368222414179469 
754	 0,368877652536862 
755	 0,369339907183064 
756	 0,369540631934359 
757	 0,369989978668094 
758	 0,370556431356264 
759	 0,370745908691298 
760	 0,371395481505717 
761	 0,372526910912529 
762	 0,37299727657638 
763	 0,37294470466306 
764	 0,372626736950462 
765	 0,373070433470705 
766	 0,374009361838537 
767	 0,374206316571176 
768	 0,374248149056431 
769	 0,374410162025096 
770	 0,374954408347912 
771	 0,375557203930399 
772	 0,375818669339861 
773	 0,376226367744041 
774	 0,376784591322903 
775	 0,37720743093253 
776	 0,377417975229138 
777	 0,377439350904246 
778	 0,377761517304132 
779	 0,37821635658583 
780	 0,378473047918076 
781	 0,378712527321508 
782	 0,379011389226484 
783	 0,379495937982528 
784	 0,379912990437816 
785	 0,380100716691061 
786	 0,380236639932963 
787	 0,380354589877856 
788	 0,380448610422585 
789	 0,380721580559475 
790	 0,381213592345581 
791	 0,381829421489066 
792	 0,382306461952745 
793	 0,382463206921852 
794	 0,382718742995082 
795	 0,383044593194733 
796	 0,383209724865504 
797	 0,38343118073422 
798	 0,383758985026487 
799	 0,384051369777572 
800	 0,384374942612501 
801	 0,384789839743078 
802	 0,385187785097782 
803	 0,385495465416185 
804	 0,385538137846353 
805	 0,385860945716563 
806	 0,386507110785031 
807	 0,386453680756695 
808	 0,386387821384668 
809	 0,387090550209408 
810	 0,387895790457596 
811	 0,388480343573435 
812	 0,388323149529112 
813	 0,388359117311109 
814	 0,388957840072207 
815	 0,389671491790653 
816	 0,390028732398513 
817	 0,389569964748232 
818	 0,390004658749773 
819	 0,391188913043994 
820	 0,391431601344854 
821	 0,391776264814382 
822	 0,392532525796786 
823	 0,392473264249008 
824	 0,392142327572103 
825	 0,392379785573746 
826	 0,392906768117062 
827	 0,393362285467141 
828	 0,392732693948555 
829	 0,392511956252286 
830	 0,393353407662261 
831	 0,393855730728047 
832	 0,394160483392558 
833	 0,394671823921845 
834	 0,395057113445272 
835	 0,395192010856112 
836	 0,394863789928925 
837	 0,394931472300725 
838	 0,395712439152907 
839	 0,395784648075424 
840	 0,395640654362511 
841	 0,396188664975494 
842	 0,396640725934685 
843	 0,396857968835304 
844	 0,397082248655387 
845	 0,397172635644522 
846	 0,397184963722512 
847	 0,398056386565492 
848	 0,398938067444877 
849	 0,398522187365709 
850	 0,398860235303884 
851	 0,399978450325897 
852	 0,400237565399298 
853	 0,400157873715007 
854	 0,400085210050668 
855	 0,400406980551683 
856	 0,400827212369928 
857	 0,400878681834385 
858	 0,400890824280252 
859	 0,401040368311618 
860	 0,401630386970283 
861	 0,402167150685223 
862	 0,402386224232025 
863	 0,402380459641067 
864	 0,402669242500155 
865	 0,403873202452047 
866	 0,404567986898517 
867	 0,404613102920023 
868	 0,40473941743793 
869	 0,404786017512175 
870	 0,404763257415525 
871	 0,405015372753579 
872	 0,405441959562065 
873	 0,405858188315769 
874	 0,40551052077795 
875	 0,40484810303123 
876	 0,405667196782967 
877	 0,406254400794736 
878	 0,406148463708505 
879	 0,407277647960585 
880	 0,408152886733905 
881	 0,407169420955033 
882	 0,407307335900919 
883	 0,40833798251563 
884	 0,407953581762142 
885	 0,407960314538098 
886	 0,408744767977566 
887	 0,408911691684182 
888	 0,408768893600885 
889	 0,408741713465538 
890	 0,40953192681823 
891	 0,410635312586695 
892	 0,410626475609031 
893	 0,411016636062012 
894	 0,411942395159547 
895	 0,411802309350683 
896	 0,41132386643633 
897	 0,411168915976858 
898	 0,411493503736958 
899	 0,412009856482888 
900	 0,412111640041596 
901	 0,412874902953667 
902	 0,414153170377482 
903	 0,414323528219377 
904	 0,414158006316955 
905	 0,414099275408374 
906	 0,413523818565872 
907	 0,412873834612251 
908	 0,412838778020021 
909	 0,413602896455536 
910	 0,414798844467605 
911	 0,41528140531079 
912	 0,415218931520238 
913	 0,414761987950464 
914	 0,414260796417153 
915	 0,414422650608692 
916	 0,415851745973815 
917	 0,416259940560988 
918	 0,415677259332849 
919	 0,415480239889239 
920	 0,415044702489961 
921	 0,414498461242377 
922	 0,415201627594439 
923	 0,415911419433222 
924	 0,415630636520574 
925	 0,415733511108969 
926	 0,416026158311508 
927	 0,415824577810178 
928	 0,414576227474312 
929	 0,413123493608323 
930	 0,415115766145191 
931	 0,416754246128573 
932	 0,415996778246783 
933	 0,41574516581298 
934	 0,415533901573793 
935	 0,414410681975385 
936	 0,413344256258993 
937	 0,412717523967497 
938	 0,412858090629008 
939	 0,413373116773805 
940	 0,413836960937596 
941	 0,413171683103817 
942	 0,412312658328436 
943	 0,412180253952111 
944	 0,412749258298273 
945	 0,413431262665143 
946	 0,41323512292176 
947	 0,411607229398347 
948	 0,409027770763353 
949	 0,407707652412294 
950	 0,407241660664209 
951	 0,407140491383418 
952	 0,405751227050739 
953	 0,404484841986615 
954	 0,405141029170342 
955	 0,404576211932522 
956	 0,402845839575022 
957	 0,401696535826151 
958	 0,401721350064042 
959	 0,40261380187619 
960	 0,40187109280464 
961	 0,400102539656027 
962	 0,398144741623157 
963	 0,398023974690321 
964	 0,39912569414674 
965	 0,399995822055576 
966	 0,401011811611143 
967	 0,401533085374219 
968	 0,399464103729556 
969	 0,397922355450245 
970	 0,39826721178282 
971	 0,399529422321627 
972	 0,400446529745851 
973	 0,399960250496339 
974	 0,399110315017061 
975	 0,398616425428514 
976	 0,399421694300382 
977	 0,399268291473564 
978	 0,39843142113142 
979	 0,400159796065783 
980	 0,401890864835329 
981	 0,402310016486233 
982	 0,401972286395409 
983	 0,401572386554579 
984	 0,401782488147915 
985	 0,402162932369294 
986	 0,40301735555724 
987	 0,405119195075365 
988	 0,405678117030769 
989	 0,405080880975904 
990	 0,408046396936529 
991	 0,409857755326007 
992	 0,408595544539846 
993	 0,408836557857721 
994	 0,409801190960632 
995	 0,410326824198101 
996	 0,411255262991318 
997	 0,412008765972235 
998	 0,411147372261365 
999	 0,412823634729357 
1000	 0,416557204678837 
1001	 0,416522827534307 
1002	 0,415090516571073 
1003	 0,414282379592716 
1004	 0,418220005168156 
1005	 0,421706754801968 
1006	 0,41973595260824 
1007	 0,417825981199012 
1008	 0,417372389346532 
1009	 0,418999209899521 
1010	 0,420591644173858 
1011	 0,421787306960214 
1012	 0,424062673935707 
1013	 0,424240376320184 
1014	 0,421938430738369 
1015	 0,422621994483507 
1016	 0,425137155326796 
1017	 0,427806574473864 
1018	 0,428235059739136 
1019	 0,426973117232741 
1020	 0,425530523952005 
1021	 0,427539083361592 
1022	 0,431842283203978 
1023	 0,433112325359787 
1024	 0,430593620059285 
1025	 0,426236929691077 
1026	 0,429756078469758 
1027	 0,434937154176941 
1028	 0,437142155110488 
1029	 0,436152438860577 
1030	 0,436904731198195 
1031	 0,444227505446253 
1032	 0,443289135303335 
1033	 0,436112883935497 
1034	 0,432784310541089 
1035	 0,433617892089786 
1036	 0,437919541795213 
1037	 0,442299931235131 
1038	 0,444979868785348 
1039	 0,445476025104048 
1040	 0,447913335103678 
1041	 0,448742689334581 
1042	 0,445329495386897 
1043	 0,443055268588327 
1044	 0,442206467533236 
1045	 0,441878171927594 
1046	 0,440381426157805 
1047	 0,440403163713731 
1048	 0,449513593659939 
1049	 0,449803958217215 
1050	 0,440718146755428 
1051	 0,444394408457946 
1052	 0,445779315803434 
1053	 0,440225286988297 
1054	 0,444686552059283 
1055	 0,454236356808935 
1056	 0,462532279156751 
1057	 0,465207047537976 
1058	 0,45952410637275 
1059	 0,444338220354389 
1060	 0,445996193961053 
1061	 0,457728837334901 
1062	 0,45135359644435 
1063	 0,451701523131721 
1064	 0,462023587970355 
1065	 0,467625674901377 
1066	 0,462167923351664 
1067	 0,448243644953297 
1068	 0,455875294695159 
1069	 0,46405078660122 
1070	 0,457474109281327 
1071	 0,459755965190287 
1072	 0,465038663936604 
1073	 0,463882931731297 
1074	 0,464125250744262 
1075	 0,465815710109106 
