Wavelength	GRA-VAN00012.asd
325	 0,309178204218441 
326	 0,264109110699584 
327	 0,185343113945167 
328	 0,182691200368517 
329	 6,73955283420051E-02 
330	 1,41817122888759E-02 
331	 0,208439114782736 
332	 0,21332320445075 
333	 0,153420708021084 
334	 0,218146528426122 
335	 0,254205815634086 
336	 0,209350930210977 
337	 0,174251794823439 
338	 0,140935858078989 
339	 0,103645145391819 
340	 0,131480385654345 
341	 0,172583413983081 
342	 0,124355837477387 
343	 9,18862882284006E-02 
344	 0,110066973905507 
345	 0,1170572976515 
346	 0,130673198802072 
347	 0,160824515690016 
348	 0,121375540018508 
349	 4,11751706424161E-02 
350	 0,05325879591033 
351	 8,27031686442235E-02 
352	 0,094418186659566 
353	 0,104274938065384 
354	 9,80348618612869E-02 
355	 5,79456268466876E-02 
356	 6,31441409677768E-02 
357	 9,49189682475054E-02 
358	 5,74958276815649E-02 
359	 2,72507213871706E-02 
360	 4,50611972279033E-02 
361	 8,55089791066958E-02 
362	 0,116503818492516 
363	 9,66197029669057E-02 
364	 7,40168657058393E-02 
365	 6,42442812485878E-02 
366	 7,15901864000788E-02 
367	 8,88735211306092E-02 
368	 0,106956246143233 
369	 9,82273009816843E-02 
370	 7,16730502201165E-02 
371	 4,52246805358036E-02 
372	 4,35595493850299E-02 
373	 6,38494300460454E-02 
374	 5,83196236574549E-02 
375	 5,52044896621127E-02 
376	 7,35190835720816E-02 
377	 6,22783059824215E-02 
378	 4,13011533756995E-02 
379	 0,076151840222738 
380	 7,90073805890676E-02 
381	 4,31979266847547E-02 
382	 7,24201497908872E-02 
383	 0,100224218948901 
384	 6,63000442453509E-02 
385	 5,93180943743392E-02 
386	 7,46277171358051E-02 
387	 0,056666800735828 
388	 4,29072804696847E-02 
389	 4,73535041472178E-02 
390	 0,049556563054539 
391	 5,29037172579886E-02 
392	 6,29603721259826E-02 
393	 0,063428008205051 
394	 5,53252539217869E-02 
395	 5,24161639126475E-02 
396	 4,97205551546152E-02 
397	 4,63394118551445E-02 
398	 5,53815352774805E-02 
399	 6,28017387791067E-02 
400	 4,58839796518529E-02 
401	 4,23362633303951E-02 
402	 5,49854111344314E-02 
403	 5,82391564703628E-02 
404	 5,24827491836492E-02 
405	 3,98458359161878E-02 
406	 3,82258413635054E-02 
407	 4,50139674945055E-02 
408	 5,05299560097954E-02 
409	 5,44406458766582E-02 
410	 5,49454434402316E-02 
411	 4,73940104357502E-02 
412	 0,041597308656806 
413	 4,63542604793786E-02 
414	 5,23072672008842E-02 
415	 5,49273429434442E-02 
416	 4,71870356599267E-02 
417	 4,02800509294901E-02 
418	 3,98788356390051E-02 
419	 4,73947741434318E-02 
420	 5,50110873857767E-02 
421	 5,37297305923072E-02 
422	 5,11227625457629E-02 
423	 4,89666396268606E-02 
424	 4,63390534553361E-02 
425	 4,54468822305161E-02 
426	 4,74725310197545E-02 
427	 5,10984580830261E-02 
428	 5,32838013507902E-02 
429	 4,92396214209598E-02 
430	 4,54170169689844E-02 
431	 4,38529728196128E-02 
432	 4,32395199790231E-02 
433	 4,52935025776648E-02 
434	 5,08486701441018E-02 
435	 4,95492558983231E-02 
436	 4,35633468097343E-02 
437	 4,32160579053805E-02 
438	 4,41393051383832E-02 
439	 4,48559129308634E-02 
440	 4,65567259646496E-02 
441	 4,81844597119788E-02 
442	 4,83648718984676E-02 
443	 4,68037091211177E-02 
444	 4,49230356018165E-02 
445	 0,047841713112427 
446	 4,90944675563804E-02 
447	 4,55138344345996E-02 
448	 4,68913880419467E-02 
449	 5,09316665234021E-02 
450	 5,09419464061496E-02 
451	 5,01858049096846E-02 
452	 4,96922344034996E-02 
453	 4,97451124432676E-02 
454	 4,97576097238269E-02 
455	 4,93387840863048E-02 
456	 0,052147336256193 
457	 5,56943065367715E-02 
458	 5,16503378202535E-02 
459	 4,81642392581186E-02 
460	 0,048736484569116 
461	 5,08352558911995E-02 
462	 5,22046337631047E-02 
463	 0,050275391669119 
464	 4,70523677267014E-02 
465	 4,46687706379457E-02 
466	 4,80438882921808E-02 
467	 5,15365655830189E-02 
468	 0,051647017700872 
469	 5,32393778395864E-02 
470	 0,054923329720734 
471	 5,24876654602039E-02 
472	 5,14755191814209E-02 
473	 5,29240493658863E-02 
474	 5,21039002082994E-02 
475	 5,16871177070233E-02 
476	 5,43513292886945E-02 
477	 5,51822956739451E-02 
478	 5,42014705105437E-02 
479	 5,43954720662938E-02 
480	 5,41274169712389E-02 
481	 0,052951417277633 
482	 5,27457203866737E-02 
483	 5,36836115617959E-02 
484	 5,57947103169705E-02 
485	 0,056069638755388 
486	 5,43779881841565E-02 
487	 5,35934163095731E-02 
488	 5,35830917354318E-02 
489	 5,41649407730975E-02 
490	 5,46074639456768E-02 
491	 5,52446786559854E-02 
492	 5,74692384522296E-02 
493	 5,84588301798977E-02 
494	 5,75314210288872E-02 
495	 5,73047177682987E-02 
496	 5,65512238275112E-02 
497	 5,37453799907701E-02 
498	 0,054113098373911 
499	 5,69904319277497E-02 
500	 5,66194044335262E-02 
501	 5,59355394866564E-02 
502	 5,65113861861663E-02 
503	 5,71631253824854E-02 
504	 5,73391020464088E-02 
505	 5,61989448057143E-02 
506	 5,63487158318142E-02 
507	 5,80929456208157E-02 
508	 5,91638774687922E-02 
509	 5,93702631460872E-02 
510	 5,87184399827962E-02 
511	 5,86454520098508E-02 
512	 5,89811013896295E-02 
513	 5,83552985547938E-02 
514	 5,81342965952997E-02 
515	 5,88712678713799E-02 
516	 6,00544900901706E-02 
517	 6,10824961015496E-02 
518	 0,061237866248981 
519	 6,14528405797988E-02 
520	 6,18923828532571E-02 
521	 6,23512428172942E-02 
522	 6,20717986464536E-02 
523	 6,07234996061693E-02 
524	 6,08335925032803E-02 
525	 0,062049692494528 
526	 6,28495172631929E-02 
527	 0,062611076135178 
528	 6,14925237731662E-02 
529	 6,18893628732627E-02 
530	 6,29736663439861E-02 
531	 6,35843312378277E-02 
532	 6,39727348023972E-02 
533	 6,39914982281403E-02 
534	 6,29656506701682E-02 
535	 6,25629581052147E-02 
536	 6,35959255350188E-02 
537	 6,38301963778773E-02 
538	 6,36722558976625E-02 
539	 6,44223163670731E-02 
540	 0,06539902247814 
541	 6,62859964560455E-02 
542	 6,68363208122392E-02 
543	 6,66617370681079E-02 
544	 0,065497927780803 
545	 6,53128580795041E-02 
546	 6,60561632382453E-02 
547	 6,62382864462137E-02 
548	 6,69168963319782E-02 
549	 6,83129431302938E-02 
550	 6,84756323963238E-02 
551	 6,79344005722166E-02 
552	 6,78272647712486E-02 
553	 0,068139697472147 
554	 6,86166471553154E-02 
555	 6,80639543728618E-02 
556	 6,76351430917513E-02 
557	 6,82598703479992E-02 
558	 6,88283269258038E-02 
559	 6,91257472206797E-02 
560	 6,91649563128126E-02 
561	 6,90778282218963E-02 
562	 6,90655432559101E-02 
563	 6,99145100758813E-02 
564	 7,07226197449248E-02 
565	 7,02459565157572E-02 
566	 6,98811987769617E-02 
567	 6,98728708548877E-02 
568	 6,96243080404717E-02 
569	 6,96537748206341E-02 
570	 7,02855149465376E-02 
571	 7,09560482033187E-02 
572	 7,14754645107321E-02 
573	 0,07162797600914 
574	 7,20894408042969E-02 
575	 7,29016929352932E-02 
576	 7,29157919508824E-02 
577	 7,27211142886281E-02 
578	 7,30610018767487E-02 
579	 7,34574776637918E-02 
580	 7,37945397749245E-02 
581	 7,40788308371454E-02 
582	 7,41740247604074E-02 
583	 7,40976928359426E-02 
584	 7,46229853222566E-02 
585	 7,53685879759194E-02 
586	 7,54995464067725E-02 
587	 7,55253618751378E-02 
588	 0,075708031354442 
589	 7,65560180009561E-02 
590	 7,71295902844047E-02 
591	 7,66200539392112E-02 
592	 7,68778148960017E-02 
593	 7,76604098160111E-02 
594	 7,72332551516783E-02 
595	 7,68943653047082E-02 
596	 7,71717366189691E-02 
597	 7,72973343888343E-02 
598	 7,73380630869644E-02 
599	 7,75155126336846E-02 
600	 7,76019619054636E-02 
601	 7,76174355064962E-02 
602	 7,79348530858071E-02 
603	 7,80900654161224E-02 
604	 7,77313583663561E-02 
605	 7,72578895406299E-02 
606	 7,68455424072554E-02 
607	 7,66657414927816E-02 
608	 7,68108370285198E-02 
609	 7,72157584774878E-02 
610	 7,72835636112193E-02 
611	 7,73006300645911E-02 
612	 7,76831679359316E-02 
613	 7,74769708552955E-02 
614	 7,68678794109467E-02 
615	 7,72794056840142E-02 
616	 7,76212687566704E-02 
617	 7,72826608753101E-02 
618	 7,75123183217008E-02 
619	 7,79059905898302E-02 
620	 7,73267083780041E-02 
621	 7,66816686353177E-02 
622	 7,63347831500246E-02 
623	 0,076343505676329 
624	 7,67898778683357E-02 
625	 7,76981514692765E-02 
626	 0,077849947736886 
627	 7,73834478159669E-02 
628	 7,75492760402187E-02 
629	 7,77191243117079E-02 
630	 0,077613265241686 
631	 7,74897644797164E-02 
632	 7,75967748171867E-02 
633	 7,82864121676782E-02 
634	 7,89095100711229E-02 
635	 7,92305588984959E-02 
636	 7,92789181101506E-02 
637	 7,90893119536685E-02 
638	 7,87600252615321E-02 
639	 7,91055215419617E-02 
640	 7,99165587668504E-02 
641	 8,03062759519227E-02 
642	 8,05465181422588E-02 
643	 8,07384846608271E-02 
644	 8,09871766230531E-02 
645	 8,12408476439284E-02 
646	 0,08141849357684 
647	 8,13356625397208E-02 
648	 8,09907719609421E-02 
649	 8,04738795797892E-02 
650	 8,03140087332863E-02 
651	 8,07294722024853E-02 
652	 8,01617750507033E-02 
653	 7,92479845445577E-02 
654	 7,98185213361797E-02 
655	 8,00734017668406E-02 
656	 0,079427575691609 
657	 7,81481941593559E-02 
658	 7,71143766287761E-02 
659	 7,71756260803413E-02 
660	 0,077165372758239 
661	 7,67466283105992E-02 
662	 7,57070639573285E-02 
663	 7,48750490020653E-02 
664	 7,46637456737752E-02 
665	 7,46008684785936E-02 
666	 7,44825188478285E-02 
667	 7,40748168401444E-02 
668	 0,073983747455435 
669	 7,42309494790286E-02 
670	 7,41978468194014E-02 
671	 7,40224311311968E-02 
672	 0,073843187066675 
673	 7,37545186492859E-02 
674	 7,38319769446893E-02 
675	 7,42475846335787E-02 
676	 7,44284052252868E-02 
677	 7,42995433069654E-02 
678	 7,48235805870177E-02 
679	 7,54416019234177E-02 
680	 7,54118774057201E-02 
681	 7,54345934882322E-02 
682	 7,57236384356388E-02 
683	 7,63623063421511E-02 
684	 7,71848821255134E-02 
685	 7,80094819697756E-02 
686	 7,82641620907298E-02 
687	 7,84380012814444E-02 
688	 7,95515372907691E-02 
689	 8,03833025395208E-02 
690	 0,080788501465204 
691	 8,17126726352819E-02 
692	 8,32903026181093E-02 
693	 8,55142595533701E-02 
694	 8,68805721641807E-02 
695	 8,77714929732475E-02 
696	 8,99839552531709E-02 
697	 9,21958303493276E-02 
698	 9,39576264406329E-02 
699	 9,58857664812063E-02 
700	 9,83632136447754E-02 
701	 0,101790714506366 
702	 0,10461300370863 
703	 0,106707359175839 
704	 0,109100574289738 
705	 0,111856906142313 
706	 0,114912356977207 
707	 0,117361053356212 
708	 0,119387223246612 
709	 0,121560026295395 
710	 0,123854919517015 
711	 0,126198687417879 
712	 0,12820605779727 
713	 0,130043100074844 
714	 0,131870036465383 
715	 0,133468451791799 
716	 0,134925195001859 
717	 0,136603516355201 
718	 0,137956337894513 
719	 0,138831219926298 
720	 0,139778940408438 
721	 0,140803536268554 
722	 0,14184011566065 
723	 0,142537872494676 
724	 0,143094965978042 
725	 0,144558746033872 
726	 0,145560396476885 
727	 0,145410367350256 
728	 0,145894721174179 
729	 0,146855380619589 
730	 0,147558702808726 
731	 0,148229615977748 
732	 0,148828577805407 
733	 0,14897784094053 
734	 0,149241702661193 
735	 0,150060707937799 
736	 0,150378176439616 
737	 0,150375157407394 
738	 0,151012598427912 
739	 0,151555920217563 
740	 0,151737662029159 
741	 0,15168264181376 
742	 0,151715696259979 
743	 0,152184805902922 
744	 0,152460985788905 
745	 0,152509189049276 
746	 0,152689717750052 
747	 0,152902013421909 
748	 0,153135965322507 
749	 0,153699450777447 
750	 0,154243396005323 
751	 0,154192814281712 
752	 0,154153473627278 
753	 0,154260693107195 
754	 0,154301239246149 
755	 0,154428226636774 
756	 0,15472443684597 
757	 0,154811370335354 
758	 0,154898343858745 
759	 0,155581356305957 
760	 0,155847761074454 
761	 0,155599939328502 
762	 0,156090653495979 
763	 0,156657407398182 
764	 0,156637203983471 
765	 0,156494050701601 
766	 0,15644869822777 
767	 0,156853353646238 
768	 0,157144117197923 
769	 0,157140064361592 
770	 0,157230485718338 
771	 0,157504989805916 
772	 0,158011193459704 
773	 0,157985429395151 
774	 0,157563160410641 
775	 0,157693567674742 
776	 0,15800219867459 
777	 0,158262081522344 
778	 0,158276097339348 
779	 0,158214476475644 
780	 0,158363180729692 
781	 0,158496652927222 
782	 0,158569932122561 
783	 0,158622162204372 
784	 0,158740121727457 
785	 0,158977706317919 
786	 0,159270947409374 
787	 0,159546837786268 
788	 0,159707391675299 
789	 0,159728272854139 
790	 0,159709558844678 
791	 0,160127892504255 
792	 0,160334790497421 
793	 0,159894457967672 
794	 0,160059753934202 
795	 0,160561344284544 
796	 0,160358784543362 
797	 0,160188434246228 
798	 0,160297474670758 
799	 0,160634781938515 
800	 0,160994159801152 
801	 0,16118056670014 
802	 0,16128178680931 
803	 0,161290346144507 
804	 0,161113624856403 
805	 0,161071928593307 
806	 0,161286712408615 
807	 0,161672692869039 
808	 0,161896273918683 
809	 0,161643956996642 
810	 0,16162873292776 
811	 0,161910839923588 
812	 0,162220866780997 
813	 0,162438092557847 
814	 0,162532088768469 
815	 0,162829008597397 
816	 0,162929373369589 
817	 0,162363830865812 
818	 0,162272878805914 
819	 0,162705897634791 
820	 0,163022782544079 
821	 0,163066403546017 
822	 0,162820297571907 
823	 0,162846448734427 
824	 0,163081231628996 
825	 0,16336082720108 
826	 0,163830230783839 
827	 0,16428810950257 
828	 0,164079287673091 
829	 0,163712617467106 
830	 0,163489985421563 
831	 0,163428062010969 
832	 0,163445669826664 
833	 0,163419368604331 
834	 0,163779084498271 
835	 0,16441086251982 
836	 0,164647092092859 
837	 0,164739982555808 
838	 0,164771946179887 
839	 0,164366456111728 
840	 0,163872699797171 
841	 0,163816089658939 
842	 0,16404077337586 
843	 0,16439906598915 
844	 0,164585190086829 
845	 0,164551278661695 
846	 0,164347514764557 
847	 0,16458214952165 
848	 0,164815831977008 
849	 0,16434633220667 
850	 0,164186792161396 
851	 0,164450376767266 
852	 0,164647644194271 
853	 0,164630971603813 
854	 0,16437044230747 
855	 0,16435774728886 
856	 0,16442323578404 
857	 0,164259107423337 
858	 0,164137132813458 
859	 0,164183642723812 
860	 0,164613821009324 
861	 0,164879196464364 
862	 0,164703975539099 
863	 0,164442662692697 
864	 0,16407739341074 
865	 0,163547300493175 
866	 0,163743614016721 
867	 0,164384993633795 
868	 0,163858112001069 
869	 0,16378503498568 
870	 0,164709222086572 
871	 0,164929576382883 
872	 0,164763910798932 
873	 0,164792482447271 
874	 0,165251260545259 
875	 0,165727415319237 
876	 0,164768866345387 
877	 0,164327740796047 
878	 0,165006159938335 
879	 0,165026557954072 
880	 0,164763074182606 
881	 0,164783480309913 
882	 0,165430937476413 
883	 0,166186165539074 
884	 0,165433290355854 
885	 0,165092049088273 
886	 0,165663726479287 
887	 0,165819706980929 
888	 0,165728071932284 
889	 0,165633882201377 
890	 0,165685228748751 
891	 0,16588696595111 
892	 0,166192909965515 
893	 0,16632616982331 
894	 0,166166796092701 
895	 0,165629636653061 
896	 0,165397761862324 
897	 0,165947559136056 
898	 0,166506011201987 
899	 0,166727671354399 
900	 0,166228394696689 
901	 0,16632733013254 
902	 0,166874024092535 
903	 0,165642430095532 
904	 0,164916133506442 
905	 0,165936459967673 
906	 0,166402235299739 
907	 0,166448945238617 
908	 0,16667838138209 
909	 0,166990723994813 
910	 0,1671683896111 
911	 0,166573050037479 
912	 0,165920289792662 
913	 0,165677321634048 
914	 0,166297228455334 
915	 0,166864557737494 
916	 0,166382643861634 
917	 0,166150498934299 
918	 0,166442424135768 
919	 0,167346364593571 
920	 0,167682902087869 
921	 0,16709767718555 
922	 0,166146476466069 
923	 0,165840866330738 
924	 0,166849114372357 
925	 0,167449339579313 
926	 0,167190438421992 
927	 0,165766296331314 
928	 0,165753972688131 
929	 0,167225901470299 
930	 0,167471965081228 
931	 0,16709293180081 
932	 0,166612979299938 
933	 0,167335868604863 
934	 0,167488045324194 
935	 0,164776240228977 
936	 0,163844791745736 
937	 0,164871958632473 
938	 0,165303860642596 
939	 0,165078601084846 
940	 0,164376022135829 
941	 0,164754290497902 
942	 0,16546864977065 
943	 0,165747984034761 
944	 0,165552437650129 
945	 0,165302925419651 
946	 0,165841900649273 
947	 0,165482692731984 
948	 0,16431469675058 
949	 0,164502974396359 
950	 0,164880933193288 
951	 0,164721043404736 
952	 0,164029757656112 
953	 0,163103778162205 
954	 0,162365332086864 
955	 0,16327864292541 
956	 0,164834062395747 
957	 0,163541532314223 
958	 0,163271130488685 
959	 0,164463947821026 
960	 0,162688243405171 
961	 0,16098207998223 
962	 0,161689091632859 
963	 0,162973990731794 
964	 0,163948332214487 
965	 0,163707924960886 
966	 0,163212242108385 
967	 0,16285918237721 
968	 0,163074983193804 
969	 0,162863791689538 
970	 0,162129854131502 
971	 0,162903344872712 
972	 0,16347634267292 
973	 0,16237087731442 
974	 0,162271597664009 
975	 0,162623442127946 
976	 0,161589322042216 
977	 0,161942361582579 
978	 0,163635164010868 
979	 0,163966979744484 
980	 0,163251293964823 
981	 0,16200277427042 
982	 0,162280084340668 
983	 0,163116290389943 
984	 0,163290116897552 
985	 0,162526765330174 
986	 0,161747854101284 
987	 0,162832391283739 
988	 0,163812668185806 
989	 0,164430581336228 
990	 0,166173217292645 
991	 0,166716565739045 
992	 0,165387775539757 
993	 0,166231685332949 
994	 0,166463511393109 
995	 0,163363655564003 
996	 0,163908167025535 
997	 0,166999219495433 
998	 0,167977352484359 
999	 0,168633292522473 
1000	 0,168922652585131 
1001	 0,167124013183931 
1002	 0,166453847806493 
1003	 0,168003564926047 
1004	 0,167654489337228 
1005	 0,166969349520945 
1006	 0,167639571350917 
1007	 0,167849514190944 
1008	 0,16676986807074 
1009	 0,163431671897369 
1010	 0,164475159565042 
1011	 0,168952007662292 
1012	 0,167224550796002 
1013	 0,16737984377253 
1014	 0,171371695712331 
1015	 0,169994764784686 
1016	 0,16797537765198 
1017	 0,169244687964324 
1018	 0,168272749413648 
1019	 0,166464424160523 
1020	 0,167021550914553 
1021	 0,169773212329884 
1022	 0,173294907689829 
1023	 0,173845950844199 
1024	 0,173434448840628 
1025	 0,172880526015749 
1026	 0,172440948260195 
1027	 0,172795077571101 
1028	 0,173927999652194 
1029	 0,172452439012111 
1030	 0,17121137750279 
1031	 0,173569834632964 
1032	 0,173619376761669 
1033	 0,17210255556614 
1034	 0,172919319842537 
1035	 0,171563632867042 
1036	 0,168844453257199 
1037	 0,172031337654765 
1038	 0,174481496392324 
1039	 0,173692145049625 
1040	 0,173414349405669 
1041	 0,174482602847013 
1042	 0,176736778505568 
1043	 0,17433854734905 
1044	 0,17020284603034 
1045	 0,169610991558119 
1046	 0,173327478822792 
1047	 0,178547427547593 
1048	 0,178084004412048 
1049	 0,180398158508299 
1050	 0,18459739825229 
1051	 0,1777998021459 
1052	 0,171475299053077 
1053	 0,172100594515447 
1054	 0,176566275838017 
1055	 0,180947359811633 
1056	 0,182062070041068 
1057	 0,183162731543211 
1058	 0,187198176450202 
1059	 0,1962385707879 
1060	 0,184518355999775 
1061	 0,165196710298646 
1062	 0,18157214580247 
1063	 0,190601621659028 
1064	 0,183944866229244 
1065	 0,179611785096909 
1066	 0,177120543153456 
1067	 0,177230217409919 
1068	 0,181668034217416 
1069	 0,184211154885018 
1070	 0,181739738424829 
1071	 0,189285544114144 
1072	 0,195750781809624 
1073	 0,18636064332395 
1074	 0,169407527864825 
1075	 0,160205770082358 
