Wavelength	GRA-VAN00737.asd
325	 0,208708649766733 
326	 0,121536871249228 
327	 7,93726272791762E-02 
328	 0,147342964261494 
329	 8,65701383030298E-02 
330	-2,02512688243614E-02 
331	 2,30664783688841E-02 
332	 0,126243115525119 
333	 0,224898484698425 
334	 0,135909783303032 
335	 0,106781355690107 
336	 0,184972987367206 
337	 0,10917777395671 
338	 4,87890371332428E-02 
339	 0,151779201577132 
340	 0,189401835308504 
341	 0,136812671648078 
342	 2,77606243068399E-02 
343	-1,08029672537781E-03 
344	 7,04336437333961E-02 
345	 4,79599858102367E-02 
346	 1,86175362651122E-02 
347	 7,42161331701884E-02 
348	 4,57846305120488E-02 
349	-3,19873743375488E-02 
350	 2,27642609082586E-02 
351	 8,46626691600055E-02 
352	 0,095203701238184 
353	 6,58917591813749E-02 
354	 3,58849947744869E-02 
355	 5,09227184454245E-02 
356	 6,88354310340512E-02 
357	 7,20398896560264E-02 
358	 3,59654522604604E-02 
359	 1,93849343014167E-02 
360	 4,67651152643267E-02 
361	 5,54796223749427E-02 
362	 4,05481968784501E-02 
363	 4,9863017083137E-04 
364	-5,85046634961971E-03 
365	 2,57543964967504E-02 
366	 0,046286387946966 
367	 6,64743711684973E-02 
368	 8,91788730839533E-02 
369	 0,084774164710249 
370	 5,87072218286072E-02 
371	 2,00768320135117E-02 
372	 0,029597112905857 
373	 7,58075227396177E-02 
374	 4,26170290415838E-02 
375	 1,02921444254696E-04 
376	 7,15468419932654E-03 
377	 1,86723901706401E-02 
378	 2,79480161557705E-02 
379	 3,35463383797762E-02 
380	 3,94837120644956E-02 
381	 0,046192706184139 
382	 4,89806572161718E-02 
383	 4,48326537132447E-02 
384	 3,27187723719116E-02 
385	 4,70159233316441E-02 
386	 6,75333282389146E-02 
387	 2,50024873357565E-02 
388	 9,07555200432858E-03 
389	 4,63611941300917E-02 
390	 4,80125129561017E-02 
391	 3,24144620971488E-02 
392	 2,84900613313806E-02 
393	 3,54151572321126E-02 
394	 4,69683415606061E-02 
395	 4,54085147470708E-02 
396	 3,69181617519825E-02 
397	 2,72507235354065E-02 
398	 3,33066243827992E-02 
399	 4,19431782903891E-02 
400	 3,10585506688391E-02 
401	 3,00194939590112E-02 
402	 0,040066983535393 
403	 0,039556433890762 
404	 2,99739527291162E-02 
405	 0,015004000648881 
406	 2,01141359228596E-02 
407	 3,23834235792648E-02 
408	 1,89677125264978E-02 
409	 1,96648211678042E-02 
410	 3,81779916146958E-02 
411	 3,52048506173955E-02 
412	 2,67294901607322E-02 
413	 2,88940929912665E-02 
414	 2,81274304315301E-02 
415	 2,51323851109397E-02 
416	 2,83503580559458E-02 
417	 2,66056470173642E-02 
418	 0,018166733519149 
419	 2,18642545900752E-02 
420	 2,89837895035222E-02 
421	 2,72016564075559E-02 
422	 2,84604566929488E-02 
423	 3,19548268539376E-02 
424	 2,54679028170355E-02 
425	 2,17546058704149E-02 
426	 2,76343223413394E-02 
427	 3,16205120537376E-02 
428	 3,23843821655697E-02 
429	 3,09419954114451E-02 
430	 2,62261742573383E-02 
431	 2,01105219057307E-02 
432	 2,02186122437124E-02 
433	 2,54892603584081E-02 
434	 3,37089269407156E-02 
435	 3,10041865835105E-02 
436	 2,17547898204288E-02 
437	 2,41105692251965E-02 
438	 2,60550193058487E-02 
439	 2,37895563412356E-02 
440	 2,35367046426702E-02 
441	 2,56976847639393E-02 
442	 3,00577788314048E-02 
443	 0,031784577925494 
444	 3,03780285825922E-02 
445	 2,84562924590881E-02 
446	 2,74569407390455E-02 
447	 2,79978706796391E-02 
448	 2,60344619315977E-02 
449	 2,43025742110887E-02 
450	 2,91270208708274E-02 
451	 3,18366822550623E-02 
452	 3,05684946964287E-02 
453	 3,05541858457793E-02 
454	 2,99473313822885E-02 
455	 2,71850299079756E-02 
456	 2,85780860437646E-02 
457	 3,22371450304687E-02 
458	 2,99601973650363E-02 
459	 0,028223685239695 
460	 2,92934390831297E-02 
461	 0,028649967498126 
462	 2,78883976894707E-02 
463	 2,96594709020507E-02 
464	 2,83242272096833E-02 
465	 2,49535430402229E-02 
466	 2,80959667556823E-02 
467	 0,032172647051344 
468	 3,35292813218679E-02 
469	 3,51796413724183E-02 
470	 3,56234805660661E-02 
471	 3,06237404117054E-02 
472	 2,99325598626831E-02 
473	 3,44606916802739E-02 
474	 3,18043656448242E-02 
475	 2,81084742815313E-02 
476	 2,99525326023421E-02 
477	 3,22968580146097E-02 
478	 0,033791766436902 
479	 3,39217693740911E-02 
480	 3,30817329049823E-02 
481	 3,17942991092588E-02 
482	 3,19451715259452E-02 
483	 0,03261943575114 
484	 3,21217372040991E-02 
485	 0,032927721242025 
486	 3,45913654453242E-02 
487	 3,31120706892578E-02 
488	 3,10123163501666E-02 
489	 3,03537557619978E-02 
490	 3,11897880740548E-02 
491	 3,29133516673281E-02 
492	 3,44337284917207E-02 
493	 3,45616141240955E-02 
494	 3,34264320973045E-02 
495	 3,48149881101761E-02 
496	 3,57687838135934E-02 
497	 3,27682141872909E-02 
498	 3,18137694419701E-02 
499	 3,35617951968933E-02 
500	 3,58634070459829E-02 
501	 3,67314231087406E-02 
502	 3,52712638630436E-02 
503	 3,44826556753285E-02 
504	 0,034767606849205 
505	 3,61207287280785E-02 
506	 3,68516785840632E-02 
507	 3,66776522093235E-02 
508	 0,037348400512894 
509	 3,69198686561117E-02 
510	 3,38705094030182E-02 
511	 3,37359548770071E-02 
512	 3,55521202302453E-02 
513	 3,35430421839146E-02 
514	 3,36691559030156E-02 
515	 3,75382015436906E-02 
516	 3,81213585152876E-02 
517	 3,71689862138299E-02 
518	 0,038089546468 
519	 3,87179802813428E-02 
520	 3,85883174010919E-02 
521	 3,79744496085326E-02 
522	 3,70983431758377E-02 
523	 3,62434755995004E-02 
524	 3,64023476060411E-02 
525	 0,037192727050472 
526	 3,74435713876859E-02 
527	 3,76353175345467E-02 
528	 3,78632984823059E-02 
529	 3,78695332183704E-02 
530	 3,80420870717715E-02 
531	 3,88174016894421E-02 
532	 3,88341034594923E-02 
533	 3,81026766246274E-02 
534	 3,75036362143021E-02 
535	 3,77711677108255E-02 
536	 3,90839009744152E-02 
537	 3,89049341054152E-02 
538	 0,038137370326255 
539	 3,90550731794768E-02 
540	 4,03457280019853E-02 
541	 4,13227658291729E-02 
542	 0,040937188737972 
543	 4,00739736842478E-02 
544	 3,96624370826104E-02 
545	 3,95145456562552E-02 
546	 3,96437227840971E-02 
547	 4,01142031919432E-02 
548	 4,06614895026566E-02 
549	 4,11576558828513E-02 
550	 4,19147589292643E-02 
551	 4,24196207002963E-02 
552	 4,18264257816509E-02 
553	 4,15408073553927E-02 
554	 4,17630569441201E-02 
555	 0,041398989392447 
556	 4,12310906313315E-02 
557	 4,18775172638421E-02 
558	 4,24882943665358E-02 
559	 4,27213246445887E-02 
560	 4,20982848902311E-02 
561	 4,16349063892655E-02 
562	 4,18232731927822E-02 
563	 4,27803792798347E-02 
564	 4,34776875461746E-02 
565	 4,25925256351078E-02 
566	 4,22185488599065E-02 
567	 4,25979537431323E-02 
568	 4,24670536064424E-02 
569	 4,24008721547617E-02 
570	 4,27562594189799E-02 
571	 4,28599285320549E-02 
572	 4,28909526572062E-02 
573	 4,34466491351293E-02 
574	 4,42031126526926E-02 
575	 4,49512120478052E-02 
576	 4,53002433340088E-02 
577	 4,55208159851197E-02 
578	 0,045936419157782 
579	 4,57268856287724E-02 
580	 4,52077577075475E-02 
581	 0,045954929005764 
582	 4,65317142453136E-02 
583	 4,62076291761408E-02 
584	 4,61338277867146E-02 
585	 4,64384613876982E-02 
586	 4,71125567274323E-02 
587	 4,73085357569869E-02 
588	 4,70950987301813E-02 
589	 4,81579139100425E-02 
590	 4,90862276488527E-02 
591	 4,86000580688431E-02 
592	 4,89437258864256E-02 
593	 4,98716326361811E-02 
594	 4,94339711663575E-02 
595	 4,91129338866374E-02 
596	 4,95029033341796E-02 
597	 4,96919974049412E-02 
598	 4,96964779969792E-02 
599	 4,97032789533021E-02 
600	 4,92368039327801E-02 
601	 4,84958279150816E-02 
602	 4,86701102049262E-02 
603	 4,91683981929852E-02 
604	 4,94273441409473E-02 
605	 4,87674158464821E-02 
606	 0,047814285115022 
607	 4,84931977374372E-02 
608	 4,86562916321048E-02 
609	 4,77468911030439E-02 
610	 4,74974272767535E-02 
611	 4,78287519116012E-02 
612	 4,84507053584303E-02 
613	 4,86965071381648E-02 
614	 4,84377382551357E-02 
615	 4,79177626104909E-02 
616	 4,74929831488422E-02 
617	 4,74658672963264E-02 
618	 4,82527963032979E-02 
619	 4,91407491857196E-02 
620	 4,86716352181897E-02 
621	 4,80230213874169E-02 
622	 4,76266550513753E-02 
623	 0,047475344662703 
624	 4,74918164257353E-02 
625	 0,04758907461612 
626	 4,78161498285888E-02 
627	 0,048180648189371 
628	 4,88169739821818E-02 
629	 4,89496075614254E-02 
630	 4,83379278178121E-02 
631	 4,84544233740854E-02 
632	 0,048918977329653 
633	 4,88088962639725E-02 
634	 4,89002886007514E-02 
635	 0,049372257968686 
636	 5,00546100162858E-02 
637	 5,05762798094176E-02 
638	 0,050649851043908 
639	 5,07136218078587E-02 
640	 5,08863669647569E-02 
641	 5,12451216254323E-02 
642	 5,15824557996279E-02 
643	 5,17750036224093E-02 
644	 0,051696530901484 
645	 5,16079847883263E-02 
646	 5,18563687186619E-02 
647	 0,051973874185984 
648	 5,18309765050138E-02 
649	 5,13717845192696E-02 
650	 0,05117320520437 
651	 5,15098329877341E-02 
652	 5,10113206815636E-02 
653	 5,02390032077418E-02 
654	 5,08087642884676E-02 
655	 5,10446096637787E-02 
656	 5,04059542758152E-02 
657	 4,91792529567506E-02 
658	 4,82046632337774E-02 
659	 4,82809078610618E-02 
660	 4,79414805317709E-02 
661	 0,047133362194823 
662	 4,65894612581825E-02 
663	 4,64869104727146E-02 
664	 4,68546749110146E-02 
665	 4,71973931295265E-02 
666	 0,047033556009305 
667	 0,045711611935213 
668	 4,48932408377211E-02 
669	 4,49576302449033E-02 
670	 4,52239601084742E-02 
671	 4,54134273548797E-02 
672	 4,53302548929503E-02 
673	 4,53649727078216E-02 
674	 4,55450602105562E-02 
675	 4,58261075382851E-02 
676	 4,57699951471351E-02 
677	 4,54131530642049E-02 
678	 4,59699245882538E-02 
679	 4,67799388113585E-02 
680	 4,69498873489452E-02 
681	 4,68235742226607E-02 
682	 4,67538789467934E-02 
683	 4,75953400510562E-02 
684	 4,85137892401859E-02 
685	 4,89699896327127E-02 
686	 0,048917144966961 
687	 4,88858752669244E-02 
688	 4,98340685916505E-02 
689	 5,05402961470324E-02 
690	 0,050852222638275 
691	 5,17027938269876E-02 
692	 5,32043698731797E-02 
693	 5,53539262342061E-02 
694	 5,70463806200396E-02 
695	 5,84355775200361E-02 
696	 6,04383873514193E-02 
697	 6,29991083027227E-02 
698	 6,59825623081242E-02 
699	 6,85284474640318E-02 
700	 7,11720170910773E-02 
701	 7,46920654938887E-02 
702	 7,83365643678183E-02 
703	 8,18512745151204E-02 
704	 8,50592451586944E-02 
705	 8,85715131328451E-02 
706	 9,26400382001413E-02 
707	 0,095975867846892 
708	 9,88121153195369E-02 
709	 0,101902970866167 
710	 0,105060090093696 
711	 0,108177148681928 
712	 0,110966832075201 
713	 0,11351892116943 
714	 0,115933706198064 
715	 0,118261021976583 
716	 0,120508402267564 
717	 0,122662709824728 
718	 0,124636058272302 
719	 0,126352913759585 
720	 0,127564982040738 
721	 0,12875297327755 
722	 0,130545160670645 
723	 0,131778761195608 
724	 0,13249464062389 
725	 0,133794604058236 
726	 0,135191549806923 
727	 0,136345705193537 
728	 0,137077367492186 
729	 0,13762699802347 
730	 0,138496236070147 
731	 0,139006570307776 
732	 0,139128843295442 
733	 0,139657814497599 
734	 0,140163755114989 
735	 0,140305613264213 
736	 0,141026413752332 
737	 0,142054521670994 
738	 0,142305079544063 
739	 0,142528328287078 
740	 0,142930864014909 
741	 0,143022216426647 
742	 0,143127712586309 
743	 0,143648759302816 
744	 0,144007760267553 
745	 0,144130954057811 
746	 0,144176723301509 
747	 0,144472418830778 
748	 0,145099705904824 
749	 0,14523169342496 
750	 0,145138434939238 
751	 0,145385457163685 
752	 0,145648832259309 
753	 0,145888715709852 
754	 0,146298141744342 
755	 0,14658410181896 
756	 0,146573560612092 
757	 0,146831822479284 
758	 0,147130862491167 
759	 0,146776697558726 
760	 0,146812204067497 
761	 0,147393986203887 
762	 0,147520270946941 
763	 0,147495115470185 
764	 0,147639312376075 
765	 0,147628061946944 
766	 0,147562975944338 
767	 0,147848136169404 
768	 0,148150804668876 
769	 0,148318314744625 
770	 0,148249476536349 
771	 0,148402477181325 
772	 0,1492888866743 
773	 0,149522922818453 
774	 0,149129028395024 
775	 0,149241245814443 
776	 0,149259929524063 
777	 0,148979549812587 
778	 0,149123805321749 
779	 0,14947331763799 
780	 0,149598325925865 
781	 0,149541590714694 
782	 0,149392483283148 
783	 0,149474545635395 
784	 0,149478506279875 
785	 0,149270250548687 
786	 0,149490262644044 
787	 0,150046051103633 
788	 0,150638064095374 
789	 0,150890563237709 
790	 0,15080321446856 
791	 0,151011568285153 
792	 0,151121795243149 
793	 0,150855469325517 
794	 0,150835598534988 
795	 0,151064147924079 
796	 0,151356989438107 
797	 0,151294021296925 
798	 0,150915568875148 
799	 0,151178306546653 
800	 0,151670792157072 
801	 0,151943264974579 
802	 0,151902566668615 
803	 0,151722035912696 
804	 0,151948193392164 
805	 0,151903539384891 
806	 0,151522742000577 
807	 0,151877548049331 
808	 0,152292071466846 
809	 0,152005526140674 
810	 0,15197315796121 
811	 0,152347023146931 
812	 0,153029390852841 
813	 0,153468346950087 
814	 0,153442565117057 
815	 0,153363204801031 
816	 0,153305540805732 
817	 0,153314665925233 
818	 0,153470601658974 
819	 0,153656584804641 
820	 0,153432023914071 
821	 0,153454554377232 
822	 0,153937945203376 
823	 0,154042172749366 
824	 0,154018648763876 
825	 0,154293043189454 
826	 0,154483873797434 
827	 0,154509560506047 
828	 0,154417546307652 
829	 0,154275374824442 
830	 0,154124212942712 
831	 0,15390628247117 
832	 0,153739957096527 
833	 0,153783274842676 
834	 0,154226546268234 
835	 0,154805122819851 
836	 0,154529324228887 
837	 0,154332818947434 
838	 0,154612497530276 
839	 0,154250489680552 
840	 0,153869717356048 
841	 0,15448984187586 
842	 0,154825500772854 
843	 0,15465927371408 
844	 0,154394772797461 
845	 0,1543102408041 
846	 0,154550875418501 
847	 0,154866071166602 
848	 0,155019623903607 
849	 0,154740996048697 
850	 0,154552775549455 
851	 0,15459053383979 
852	 0,1547914478014 
853	 0,155016203749811 
854	 0,155132904978687 
855	 0,154866450334533 
856	 0,154615204561939 
857	 0,154949190310098 
858	 0,154949135216094 
859	 0,154660331878243 
860	 0,155026513147847 
861	 0,155189456649433 
862	 0,154820314601863 
863	 0,154947927897138 
864	 0,155067979910415 
865	 0,154416614974651 
866	 0,154242216815779 
867	 0,154692754868881 
868	 0,155345421212456 
869	 0,155499195772755 
870	 0,155005281744238 
871	 0,155436523503035 
872	 0,155841069677607 
873	 0,154962566393589 
874	 0,154687427273455 
875	 0,155044457649265 
876	 0,154827883434702 
877	 0,154755041909604 
878	 0,155045269763482 
879	 0,155253868457283 
880	 0,155282213953503 
881	 0,155088142510932 
882	 0,155204904166605 
883	 0,155442562598982 
884	 0,154831150077359 
885	 0,155210470019163 
886	 0,156772763273272 
887	 0,156892513137047 
888	 0,156405237933852 
889	 0,156227464873787 
890	 0,155769694103707 
891	 0,15527727714394 
892	 0,155471927685984 
893	 0,155347554264805 
894	 0,154871054680441 
895	 0,155486120557709 
896	 0,155984366023506 
897	 0,155474325247279 
898	 0,155269552128239 
899	 0,15532433765066 
900	 0,155167872156586 
901	 0,155407118726057 
902	 0,155945881554585 
903	 0,15573484734101 
904	 0,155887616950738 
905	 0,156865140305405 
906	 0,156587884666571 
907	 0,15583552881751 
908	 0,156054763416664 
909	 0,156497200605802 
910	 0,156922861289148 
911	 0,15717770053176 
912	 0,157219749355172 
913	 0,157078881460336 
914	 0,157181500446938 
915	 0,156897222156978 
916	 0,15560083880465 
917	 0,155482080570656 
918	 0,156234256128011 
919	 0,15581159947817 
920	 0,156078022798381 
921	 0,157204251021983 
922	 0,157054471803883 
923	 0,156142127712653 
924	 0,155156056826699 
925	 0,155564252190364 
926	 0,156686045617311 
927	 0,156877744796936 
928	 0,156619434022975 
929	 0,156168504948679 
930	 0,156068721692402 
931	 0,155974067383438 
932	 0,155686886242804 
933	 0,155369119964697 
934	 0,154978433868937 
935	 0,154455121802183 
936	 0,154374739831506 
937	 0,154702208841939 
938	 0,15504252322897 
939	 0,154828358333891 
940	 0,154130257792258 
941	 0,154703184890385 
942	 0,155025496360352 
943	 0,153811617865064 
944	 0,153156248190685 
945	 0,152891855618499 
946	 0,152006513307696 
947	 0,151778393334086 
948	 0,152253792617075 
949	 0,152405102036048 
950	 0,151460376180948 
951	 0,149607543768147 
952	 0,151315734677848 
953	 0,153108463534829 
954	 0,15048642876262 
955	 0,149199333956551 
956	 0,149516296890797 
957	 0,148708893813558 
958	 0,149088616692218 
959	 0,150688142794555 
960	 0,150380325904482 
961	 0,149010237355479 
962	 0,147583439748737 
963	 0,147964034686122 
964	 0,148982879737896 
965	 0,148452429381621 
966	 0,147710624381573 
967	 0,147279367125477 
968	 0,147706219519322 
969	 0,14823378917633 
970	 0,148585849486802 
971	 0,14963638179424 
972	 0,149087965300719 
973	 0,145469523025892 
974	 0,146445982678645 
975	 0,149555749829705 
976	 0,148048816526213 
977	 0,147712416455602 
978	 0,149103721190502 
979	 0,148679331506095 
980	 0,148056488933771 
981	 0,147951414700076 
982	 0,147516524960764 
983	 0,147683001076477 
984	 0,149237415809402 
985	 0,14940960428933 
986	 0,148844600736656 
987	 0,149832153734497 
988	 0,15013132858271 
989	 0,149775024829267 
990	 0,151313096878947 
991	 0,152266527984618 
992	 0,151599824315653 
993	 0,151792827968111 
994	 0,15112251154727 
995	 0,148134045220361 
996	 0,149938537767887 
997	 0,154379485087493 
998	 0,154658483500782 
999	 0,156359554358302 
1000	 0,159140804803205 
1001	 0,156460096915378 
1002	 0,153706927712073 
1003	 0,153775424548569 
1004	 0,156201926742406 
1005	 0,157875403892379 
1006	 0,156117751898612 
1007	 0,155454359234145 
1008	 0,15524863779715 
1009	 0,152894316769014 
1010	 0,154689925252181 
1011	 0,159300476441589 
1012	 0,156653659186224 
1013	 0,155082184776303 
1014	 0,15713655468406 
1015	 0,155490244174664 
1016	 0,154653916167425 
1017	 0,158102778646318 
1018	 0,159239092367564 
1019	 0,158996670991529 
1020	 0,160209032587592 
1021	 0,159469857124922 
1022	 0,157523709137922 
1023	 0,15812733175985 
1024	 0,161736084985965 
1025	 0,166610158399244 
1026	 0,16542590425032 
1027	 0,160665675342333 
1028	 0,155938379074778 
1029	 0,161971764965683 
1030	 0,168021442567074 
1031	 0,161216267529243 
1032	 0,158860472537861 
1033	 0,161782781936846 
1034	 0,164905785743208 
1035	 0,164275163239471 
1036	 0,161236918682326 
1037	 0,166195143725555 
1038	 0,166573739955225 
1039	 0,159091337689984 
1040	 0,158341866295468 
1041	 0,160154924251183 
1042	 0,160504384511422 
1043	 0,161945156860098 
1044	 0,162193130984962 
1045	 0,158282453577696 
1046	 0,160755603856006 
1047	 0,166632326439567 
1048	 0,162816061341197 
1049	 0,16912061289027 
1050	 0,182953236621715 
1051	 0,172817841381637 
1052	 0,162476680433122 
1053	 0,16361764333243 
1054	 0,161679059900585 
1055	 0,16698222928274 
1056	 0,184674660798142 
1057	 0,178086424084992 
1058	 0,162485891378852 
1059	 0,166819217072823 
1060	 0,166840610372382 
1061	 0,163376032561223 
1062	 0,169843066625004 
1063	 0,169098412015985 
1064	 0,160402666825249 
1065	 0,160428608980245 
1066	 0,164334759999887 
1067	 0,168383998607275 
1068	 0,16663201777992 
1069	 0,165335104317414 
1070	 0,169486829310148 
1071	 0,179140482304047 
1072	 0,182306482416485 
1073	 0,166508085447292 
1074	 0,148215045958641 
1075	 0,14731477228109 
