Wavelength	GRA-VAN00845.asd
325	 0,269406489212326 
326	 0,150856353893863 
327	 0,174336027938666 
328	 0,34444856751673 
329	 0,189024320414107 
330	 5,31242199850237E-02 
331	 0,331518382162867 
332	 0,331813256175081 
333	 0,197284121796353 
334	 7,68635447889539E-02 
335	 6,58017377662755E-02 
336	 0,173768494272676 
337	 0,227087920926079 
338	 0,215552866166834 
339	 0,121218334154756 
340	 0,174763703583196 
341	 0,276990740251446 
342	 0,200944486528779 
343	 0,120056879149255 
344	 0,118742729687843 
345	 0,168254765179452 
346	 0,22032295580711 
347	 0,208028757457222 
348	 0,144332357837874 
349	 6,24538733847867E-02 
350	 7,30473564958546E-02 
351	 0,115850757657832 
352	 0,150414392224737 
353	 0,160624119829482 
354	 0,14614959718042 
355	 0,105984139521275 
356	 0,109902401312472 
357	 0,143742609692853 
358	 0,130135251814066 
359	 0,125963879936942 
360	 0,150238524148589 
361	 0,132621263218828 
362	 0,109557785188756 
363	 0,138306982113889 
364	 0,152170802993132 
365	 0,144456042843283 
366	 0,156256613332042 
367	 0,164549279180903 
368	 0,156574168706227 
369	 0,146364654973724 
370	 0,135883059891562 
371	 0,123624419420936 
372	 0,12656913126879 
373	 0,139491407984922 
374	 0,12011873439151 
375	 0,113718189649915 
376	 0,150637428112959 
377	 0,145776057677901 
378	 0,114943272820116 
379	 0,120453353807788 
380	 0,138991280238628 
381	 0,160174601061301 
382	 0,165685926158178 
383	 0,164215515920544 
384	 0,165133903902136 
385	 0,167762557111186 
386	 0,164600668589634 
387	 0,130595711621468 
388	 0,124002134930547 
389	 0,158196044192216 
390	 0,151056330961474 
391	 0,127289282348294 
392	 0,122216836067633 
393	 0,130377213575972 
394	 0,144379099519347 
395	 0,145679008963973 
396	 0,144545312585727 
397	 0,145685138502435 
398	 0,142363112956338 
399	 0,139644017483966 
400	 0,145911374592026 
401	 0,14744481222557 
402	 0,142975521321588 
403	 0,142985322035183 
404	 0,137852815136714 
405	 0,123092638727692 
406	 0,125646443089943 
407	 0,137643020413052 
408	 0,137893611223928 
409	 0,136091282014148 
410	 0,13480627232747 
411	 0,133121250352122 
412	 0,13284992865088 
413	 0,135242347585214 
414	 0,131261431873783 
415	 0,124400692987219 
416	 0,127237478220945 
417	 0,130896043627522 
418	 0,132455751163594 
419	 0,138972393164047 
420	 0,143662568705844 
421	 0,137987769695351 
422	 0,13640377019679 
423	 0,138798416506007 
424	 0,131854110805535 
425	 0,129132681248376 
426	 0,137275664798108 
427	 0,139094435838492 
428	 0,136343734852914 
429	 0,136572572332423 
430	 0,135422603554675 
431	 0,132585674252103 
432	 0,131117712768941 
433	 0,132365549161652 
434	 0,136832855953843 
435	 0,136698710455549 
436	 0,133384035155571 
437	 0,134318002453361 
438	 0,135886624072837 
439	 0,136529716131026 
440	 0,135633654741605 
441	 0,134216747025556 
442	 0,133645607195569 
443	 0,133717654996729 
444	 0,134438817715158 
445	 0,136445863489318 
446	 0,135912095049099 
447	 0,131499316176506 
448	 0,133297072872591 
449	 0,138603552777283 
450	 0,139992604120239 
451	 0,139309181104506 
452	 0,137495831543444 
453	 0,136504215413589 
454	 0,136988835478111 
455	 0,139307583117406 
456	 0,141116453593674 
457	 0,14159585487484 
458	 0,139868831282066 
459	 0,139195491162968 
460	 0,140739542606003 
461	 0,141677171848492 
462	 0,141464150348748 
463	 0,139763724453933 
464	 0,13895209649208 
465	 0,139332866756565 
466	 0,139316431536852 
467	 0,139695207616988 
468	 0,140946471123272 
469	 0,142821530059323 
470	 0,143908333032433 
471	 0,14154419955306 
472	 0,139384794409179 
473	 0,139098588973241 
474	 0,141585135698496 
475	 0,144740890613476 
476	 0,146326618023502 
477	 0,145209130949466 
478	 0,142656996619739 
479	 0,142540073472364 
480	 0,142818451130333 
481	 0,142585272888984 
482	 0,142296788913905 
483	 0,142075615088672 
484	 0,142056299393728 
485	 0,14187870030477 
486	 0,14144373094178 
487	 0,140509792186801 
488	 0,140732634779401 
489	 0,143050946343544 
490	 0,14340090230344 
491	 0,142378482086563 
492	 0,142999203844428 
493	 0,143254397493286 
494	 0,142596025156428 
495	 0,142041004566935 
496	 0,140635705032137 
497	 0,137318551193753 
498	 0,138222153903949 
499	 0,142268124486961 
500	 0,141795270659872 
501	 0,140907740507611 
502	 0,141914306861827 
503	 0,143922385101422 
504	 0,145547186764282 
505	 0,144485727091519 
506	 0,144580069329964 
507	 0,146413921881121 
508	 0,147372214323067 
509	 0,146774912581156 
510	 0,14437795099749 
511	 0,144885218067985 
512	 0,14711706726699 
513	 0,14531074070379 
514	 0,144576175715318 
515	 0,146786272572327 
516	 0,149007769304594 
517	 0,150361557127814 
518	 0,150109696886418 
519	 0,150140155138056 
520	 0,150564567395408 
521	 0,149793280021372 
522	 0,148648054171806 
523	 0,147863893583914 
524	 0,148069407200513 
525	 0,149227095204899 
526	 0,151440894513661 
527	 0,151676653330976 
528	 0,149453869409078 
529	 0,148739994983287 
530	 0,148902547768632 
531	 0,148844116733941 
532	 0,148724276101296 
533	 0,148508822648876 
534	 0,147980817245736 
535	 0,148079470621052 
536	 0,149152203951526 
537	 0,14914718469397 
538	 0,14856470713953 
539	 0,148801303531013 
540	 0,149508716874702 
541	 0,150260149046892 
542	 0,149481819910457 
543	 0,148885213087946 
544	 0,150101142759884 
545	 0,150330462666256 
546	 0,149492788277453 
547	 0,148854668968166 
548	 0,148985284905095 
549	 0,150102922848119 
550	 0,151429010166624 
551	 0,151981348888878 
552	 0,150385192978872 
553	 0,149773918434516 
554	 0,150497006429507 
555	 0,149803026540717 
556	 0,149177325346317 
557	 0,149787149162998 
558	 0,149552863115804 
559	 0,148673972056227 
560	 0,148581472591627 
561	 0,14850182518245 
562	 0,148223017875758 
563	 0,148363402035939 
564	 0,148302452147653 
565	 0,147174509144679 
566	 0,146490778931371 
567	 0,146621256844347 
568	 0,147297692667013 
569	 0,148045307826922 
570	 0,148521018581276 
571	 0,148949692457332 
572	 0,149445872254619 
573	 0,150128020686484 
574	 0,151268976659828 
575	 0,1528005661973 
576	 0,153895154400597 
577	 0,154726232323535 
578	 0,155567841912013 
579	 0,156904711312084 
580	 0,158520189870107 
581	 0,159403694294542 
582	 0,160014541609291 
583	 0,160659474622165 
584	 0,161525316146252 
585	 0,162563315760878 
586	 0,1636890420473 
587	 0,164179546333432 
588	 0,164140992040576 
589	 0,165063061677372 
590	 0,166345395771599 
591	 0,167345053408227 
592	 0,167896653487221 
593	 0,168138506062661 
594	 0,168646232736478 
595	 0,168735409032446 
596	 0,168308829193574 
597	 0,168947423178998 
598	 0,169798016425306 
599	 0,169362559155135 
600	 0,168689461244786 
601	 0,168189042975264 
602	 0,168286549828914 
603	 0,168158476830805 
604	 0,167188651709517 
605	 0,166168574424166 
606	 0,165400817510087 
607	 0,165313058758409 
608	 0,164958735963734 
609	 0,164092834160795 
610	 0,163647859974792 
611	 0,16341251707055 
612	 0,163029549989387 
613	 0,162918577912779 
614	 0,162879943055203 
615	 0,161972217328784 
616	 0,160899232498104 
617	 0,160229059970786 
618	 0,160634351671939 
619	 0,161437407811682 
620	 0,16114834791686 
621	 0,160780023012614 
622	 0,160651073772942 
623	 0,160645819895679 
624	 0,160701979404761 
625	 0,16075937502938 
626	 0,16085896453651 
627	 0,161095963587712 
628	 0,161828724487043 
629	 0,162094683333364 
630	 0,161558916060421 
631	 0,161697801934192 
632	 0,162401895579823 
633	 0,163209997913943 
634	 0,16378446389538 
635	 0,164103960279935 
636	 0,164590406560228 
637	 0,165420885922391 
638	 0,166682194125806 
639	 0,167695424656919 
640	 0,16823290320631 
641	 0,167936377152648 
642	 0,168402440925464 
643	 0,169999379345161 
644	 0,17046739773474 
645	 0,170498140174229 
646	 0,171261711744684 
647	 0,171603278204969 
648	 0,171240587686183 
649	 0,170112082432255 
650	 0,169463118435925 
651	 0,169938757847117 
652	 0,169160826589789 
653	 0,16762446500719 
654	 0,167147248179653 
655	 0,166170953222812 
656	 0,164337500962998 
657	 0,162403463009835 
658	 0,160820476358076 
659	 0,159974039120111 
660	 0,159076287414593 
661	 0,157798467219953 
662	 0,155688230849056 
663	 0,153975288275564 
664	 0,15325251278509 
665	 0,152787825315525 
666	 0,152088533633988 
667	 0,150516576536349 
668	 0,149617766932318 
669	 0,149609977326132 
670	 0,149395991493429 
671	 0,149219139126297 
672	 0,149267273571631 
673	 0,14917796135948 
674	 0,149018544273193 
675	 0,149162603238286 
676	 0,149011979621129 
677	 0,148500927542344 
678	 0,148510483652873 
679	 0,148951788821059 
680	 0,149615962313102 
681	 0,149670871189252 
682	 0,149346170352454 
683	 0,149992173007523 
684	 0,151077532380836 
685	 0,152256430182936 
686	 0,1533064728409 
687	 0,154560816188549 
688	 0,156654628347036 
689	 0,159000957081931 
690	 0,161636937805057 
691	 0,165297383777685 
692	 0,169924873968321 
693	 0,175402609216117 
694	 0,180904454894284 
695	 0,186783232447229 
696	 0,194334700349692 
697	 0,202721615471485 
698	 0,211558954833881 
699	 0,220788570918771 
700	 0,230490267230481 
701	 0,240769208690167 
702	 0,251222802993687 
703	 0,261561864144459 
704	 0,27133693929814 
705	 0,281287195596041 
706	 0,291666890262707 
707	 0,300634402506663 
708	 0,308824051081362 
709	 0,317911460442164 
710	 0,326152595630167 
711	 0,33326990645985 
712	 0,340504209989601 
713	 0,347514353159459 
714	 0,353931422339863 
715	 0,35994276039581 
716	 0,365534498767803 
717	 0,370508350397114 
718	 0,375391970598736 
719	 0,380320474482427 
720	 0,384480408791692 
721	 0,388236990148359 
722	 0,39216025215187 
723	 0,395479829026265 
724	 0,398227102735117 
725	 0,401118679621912 
726	 0,403693489290548 
727	 0,405730858129608 
728	 0,407825121679259 
729	 0,409879856071951 
730	 0,411575256158458 
731	 0,413066876644085 
732	 0,414459303602812 
733	 0,415996138400203 
734	 0,417350484296153 
735	 0,418248920722044 
736	 0,418948455310462 
737	 0,419776997218066 
738	 0,421505087130362 
739	 0,422697005200361 
740	 0,422934958791028 
741	 0,423365022484526 
742	 0,423934379906952 
743	 0,424468491663383 
744	 0,424954582298304 
745	 0,425419522475154 
746	 0,425961915548919 
747	 0,426536176570247 
748	 0,427109376179711 
749	 0,427646760160449 
750	 0,428144827248712 
751	 0,42861049515692 
752	 0,429011476824949 
753	 0,429375577845373 
754	 0,429845393762917 
755	 0,430270765826198 
756	 0,430535326875125 
757	 0,430624047605806 
758	 0,430710137504389 
759	 0,431152746142157 
760	 0,431471988561003 
761	 0,43157974742828 
762	 0,431850434576843 
763	 0,432243249308018 
764	 0,432676981372269 
765	 0,432768514809038 
766	 0,432616751118077 
767	 0,432658520506585 
768	 0,432756453052566 
769	 0,432927449122763 
770	 0,433505746853277 
771	 0,434073813087299 
772	 0,434122595634625 
773	 0,433978013663623 
774	 0,433794315289366 
775	 0,433736297850653 
776	 0,43391357206441 
777	 0,434291378982299 
778	 0,434163113937554 
779	 0,43396326353974 
780	 0,434441949051636 
781	 0,434692010878434 
782	 0,434613324843089 
783	 0,434783612809029 
784	 0,43488004626451 
785	 0,434748197461364 
786	 0,434935128718891 
787	 0,435356175971001 
788	 0,435742725338334 
789	 0,435841888076815 
790	 0,43570806896036 
791	 0,436031637721419 
792	 0,436105971321713 
793	 0,43543879388907 
794	 0,435158349734841 
795	 0,435291418323689 
796	 0,435482168613286 
797	 0,435554089538239 
798	 0,435490969073556 
799	 0,435625887775829 
800	 0,435942331773794 
801	 0,436340892200514 
802	 0,43580238911481 
803	 0,434876364178468 
804	 0,435442462511798 
805	 0,436038108444263 
806	 0,436207331466654 
807	 0,436630663462184 
808	 0,436836993645055 
809	 0,43634519915113 
810	 0,436498563378935 
811	 0,437195493805263 
812	 0,437292401129431 
813	 0,437584502704183 
814	 0,438220305101486 
815	 0,438073960423418 
816	 0,437802762430067 
817	 0,438278900561281 
818	 0,438766402558641 
819	 0,439155118498499 
820	 0,439667702492738 
821	 0,440010887657157 
822	 0,440085559395916 
823	 0,44027963077487 
824	 0,4404024848994 
825	 0,440173300368422 
826	 0,440588092615017 
827	 0,441380221467358 
828	 0,440840425990316 
829	 0,440743186629625 
830	 0,441786946658059 
831	 0,442025599203161 
832	 0,441732775187516 
833	 0,441573697521557 
834	 0,441829355764728 
835	 0,442367673370273 
836	 0,442436523542447 
837	 0,442519116016115 
838	 0,442804147534329 
839	 0,442720980406024 
840	 0,442438495458129 
841	 0,442277508856676 
842	 0,44240376507144 
843	 0,442701221587373 
844	 0,442605037338019 
845	 0,442550704021226 
846	 0,442763847319038 
847	 0,443053482696545 
848	 0,443193546776221 
849	 0,442907840356129 
850	 0,44317410649779 
851	 0,44384366451261 
852	 0,443528858660049 
853	 0,443426133891131 
854	 0,444045138382101 
855	 0,444171868157244 
856	 0,443864242109159 
857	 0,443397155891515 
858	 0,443418828010706 
859	 0,443886318508767 
860	 0,444047556767209 
861	 0,444237056738705 
862	 0,444561646679803 
863	 0,444684357264839 
864	 0,444466298381112 
865	 0,443802789702677 
866	 0,444127315175297 
867	 0,445263046522506 
868	 0,445565437560132 
869	 0,445763267091939 
870	 0,446148551726619 
871	 0,446472028293671 
872	 0,446556374233739 
873	 0,446241276264982 
874	 0,446372704708088 
875	 0,446824081623509 
876	 0,446645701834908 
877	 0,446445724461049 
878	 0,446531122319806 
879	 0,447055229742044 
880	 0,447702718490533 
881	 0,448095459705076 
882	 0,447861542721437 
883	 0,44730368674387 
884	 0,4472965961836 
885	 0,447937039415392 
886	 0,44898211791969 
887	 0,448946232384888 
888	 0,44862786636006 
889	 0,448827623226915 
890	 0,448742037117457 
891	 0,44853326700041 
892	 0,448801957506095 
893	 0,449454281256 
894	 0,45014294601666 
895	 0,449513182395966 
896	 0,448901392104653 
897	 0,449377370240566 
898	 0,450322859068209 
899	 0,451074250124722 
900	 0,450645020413776 
901	 0,450479031354672 
902	 0,450911750502473 
903	 0,451534073267728 
904	 0,451747774652679 
905	 0,451259727279413 
906	 0,450901470010756 
907	 0,450925107049207 
908	 0,451503638629122 
909	 0,451930157700655 
910	 0,452066993012238 
911	 0,45218991047581 
912	 0,452009841159673 
913	 0,45160329488577 
914	 0,452234460654929 
915	 0,452829952655855 
916	 0,452166410437646 
917	 0,452114070879119 
918	 0,452649288228628 
919	 0,452751047393031 
920	 0,452750202931494 
921	 0,452672342239507 
922	 0,452183120144587 
923	 0,451927645262008 
924	 0,452344671282855 
925	 0,452158872985883 
926	 0,451552135063783 
927	 0,451227711483178 
928	 0,450797639464047 
929	 0,450385144678368 
930	 0,450781111470621 
931	 0,451052567108674 
932	 0,450684661903548 
933	 0,45022871896918 
934	 0,450053209143439 
935	 0,450505874466438 
936	 0,450557217726225 
937	 0,450160837207774 
938	 0,450070337305683 
939	 0,448921892787785 
940	 0,446935521311691 
941	 0,447829090570061 
942	 0,44921168887739 
943	 0,448787756489045 
944	 0,447589533722804 
945	 0,446320860558607 
946	 0,445946097149726 
947	 0,445782254163342 
948	 0,445616580989199 
949	 0,445596164360516 
950	 0,444665737673103 
951	 0,442632403478016 
952	 0,442378898271352 
953	 0,44290836226337 
954	 0,442600780525852 
955	 0,440733828394255 
956	 0,438362659683191 
957	 0,438685721973535 
958	 0,438394742261393 
959	 0,436914544111637 
960	 0,437075383408894 
961	 0,437514814865233 
962	 0,43721217479803 
963	 0,437405729766946 
964	 0,437842550763307 
965	 0,43791727488095 
966	 0,436454967881055 
967	 0,434210655602514 
968	 0,434185177190232 
969	 0,435317101125559 
970	 0,436863668228187 
971	 0,437613223701209 
972	 0,437332255027908 
973	 0,436120377953697 
974	 0,436317058949065 
975	 0,436932016878716 
976	 0,435417102262014 
977	 0,435088408404073 
978	 0,436498835956774 
979	 0,438389071693334 
980	 0,439102220138778 
981	 0,438232185093632 
982	 0,439004781272135 
983	 0,439938433461373 
984	 0,439318734354001 
985	 0,438328111873683 
986	 0,437524825789436 
987	 0,437429631308272 
988	 0,439410043311427 
989	 0,442685231008533 
990	 0,443421372040899 
991	 0,442124938086394 
992	 0,439861275948972 
993	 0,441148474152397 
994	 0,442932232237841 
995	 0,441902976664526 
996	 0,442280370742352 
997	 0,444008789060257 
998	 0,445474166020287 
999	 0,447343040465323 
1000	 0,449030391272949 
1001	 0,448167666145185 
1002	 0,44718146320503 
1003	 0,447406479586576 
1004	 0,448733353733793 
1005	 0,449370605111992 
1006	 0,447906083146677 
1007	 0,44827848685197 
1008	 0,449848962146542 
1009	 0,45023021837025 
1010	 0,452244758224758 
1011	 0,455007787466175 
1012	 0,453099511191818 
1013	 0,453181368276523 
1014	 0,456949755984729 
1015	 0,456503036073096 
1016	 0,456062551511903 
1017	 0,458986820111191 
1018	 0,459351032673706 
1019	 0,457884069037031 
1020	 0,457015852533975 
1021	 0,455957505451072 
1022	 0,455321533891006 
1023	 0,456757379618028 
1024	 0,460486435686131 
1025	 0,465249307905139 
1026	 0,466465253080157 
1027	 0,465103433398146 
1028	 0,462595848892001 
1029	 0,46274729265819 
1030	 0,465036607276026 
1031	 0,467986045150347 
1032	 0,468034878081867 
1033	 0,467331502397543 
1034	 0,47190638836254 
1035	 0,470454555969931 
1036	 0,464224057265113 
1037	 0,469826755408669 
1038	 0,471730209273967 
1039	 0,465320808424584 
1040	 0,465407113393046 
1041	 0,468376308544192 
1042	 0,470240530963421 
1043	 0,469212250604642 
1044	 0,468508776712426 
1045	 0,472674259676365 
1046	 0,474626143888104 
1047	 0,474583717095632 
1048	 0,476392250454057 
1049	 0,482269665182545 
1050	 0,488237461063548 
1051	 0,477111421440646 
1052	 0,470113630463399 
1053	 0,47599293060672 
1054	 0,473443906428679 
1055	 0,47068746268991 
1056	 0,474578315340761 
1057	 0,470379959211039 
1058	 0,468390893765962 
1059	 0,484457558836341 
1060	 0,490452462846615 
1061	 0,485820999033495 
1062	 0,483113277281661 
1063	 0,483171853831516 
1064	 0,483812934587014 
1065	 0,473692400454588 
1066	 0,467238146916926 
1067	 0,469886807948185 
1068	 0,470821476292239 
1069	 0,469677191857512 
1070	 0,467669551947309 
1071	 0,473707282208751 
1072	 0,483728740050066 
1073	 0,48986150207692 
1074	 0,473922432143829 
1075	 0,458491409090507 
