Wavelength	GRA-VAN00453.asd
325	 0,344453671130705 
326	 0,282788546883047 
327	 0,326455203810385 
328	 0,460112474568464 
329	 0,444218795927638 
330	 0,332327980697229 
331	 0,299768981477702 
332	 0,34485940589635 
333	 0,396144069195471 
334	 0,322630337575549 
335	 0,214640039316417 
336	 0,174583513215815 
337	 0,244866980610545 
338	 0,314239698329299 
339	 0,291558403154263 
340	 0,279490347020976 
341	 0,277954007751435 
342	 0,230923223138053 
343	 0,196013516067778 
344	 0,196045430372468 
345	 0,164155762116396 
346	 0,153974817857724 
347	 0,222811121747933 
348	 0,230998408259579 
349	 0,201474800795567 
350	 0,259520144028397 
351	 0,277667817559197 
352	 0,225490946611636 
353	 0,190693485010592 
354	 0,178437147905558 
355	 0,194459899306729 
356	 0,207405971778124 
357	 0,21370362319377 
358	 0,230496515996245 
359	 0,23809859331148 
360	 0,228026404635437 
361	 0,223575301676671 
362	 0,218078857504757 
363	 0,199009590207982 
364	 0,207808631798953 
365	 0,239236595992062 
366	 0,231570122672719 
367	 0,231244883009437 
368	 0,260020216706407 
369	 0,254984499983537 
370	 0,229918768845463 
371	 0,221358056352111 
372	 0,207511681388685 
373	 0,19219415478103 
374	 0,201216482947456 
375	 0,212898725298853 
376	 0,209242547812817 
377	 0,201143828309322 
378	 0,194881018237261 
379	 0,202009302196163 
380	 0,205522571614594 
381	 0,204801074366292 
382	 0,222872335557689 
383	 0,241429164437853 
384	 0,244211169957217 
385	 0,23734036153544 
386	 0,226544339578457 
387	 0,218684090012624 
388	 0,220636403641685 
389	 0,231937271231405 
390	 0,229842701110098 
391	 0,225125593198626 
392	 0,231869809295748 
393	 0,221723684086718 
394	 0,20220840918577 
395	 0,212918803799245 
396	 0,224369363095766 
397	 0,222285425953344 
398	 0,219212181435786 
399	 0,218970569412206 
400	 0,225225510797632 
401	 0,228685234824128 
402	 0,226913262562892 
403	 0,221927918458255 
404	 0,216101726417856 
405	 0,211968562187951 
406	 0,214414884845307 
407	 0,221012877865642 
408	 0,22778323299728 
409	 0,227316590428039 
410	 0,219807657252073 
411	 0,217976736890906 
412	 0,218502837423257 
413	 0,217702396443752 
414	 0,21615889040902 
415	 0,213867928437888 
416	 0,209841028546732 
417	 0,20980477232996 
418	 0,215628277973449 
419	 0,22335364714189 
420	 0,227684013246523 
421	 0,223221117222624 
422	 0,218713927466654 
423	 0,217187573169288 
424	 0,220476997291281 
425	 0,22396873547802 
426	 0,224634064836844 
427	 0,222451863159725 
428	 0,219640813557345 
429	 0,22005259893897 
430	 0,219676263415397 
431	 0,217855025840906 
432	 0,216919120364249 
433	 0,217317597732554 
434	 0,219060472157154 
435	 0,218089889256953 
436	 0,215078390678182 
437	 0,21314402907635 
438	 0,21457303012606 
439	 0,219046591995916 
440	 0,218460658385062 
441	 0,216140500460045 
442	 0,217207901921837 
443	 0,215752867869898 
444	 0,212938233283457 
445	 0,217275912518387 
446	 0,221247519429179 
447	 0,220189094312765 
448	 0,21713721003799 
449	 0,215200780195467 
450	 0,219458069639837 
451	 0,221821809565461 
452	 0,220634180484864 
453	 0,221354527644589 
454	 0,221178674723239 
455	 0,217754586694401 
456	 0,219434049527598 
457	 0,224118447705611 
458	 0,221913875707492 
459	 0,220745306196672 
460	 0,223188607045699 
461	 0,222791539931276 
462	 0,221895248062311 
463	 0,224373134960782 
464	 0,223242193671992 
465	 0,219120975761105 
466	 0,219915788400423 
467	 0,223210346072184 
468	 0,226759452794506 
469	 0,22569754130367 
470	 0,222314438415062 
471	 0,222367299802579 
472	 0,223414550788596 
473	 0,224690161246661 
474	 0,22607526158979 
475	 0,227170494414136 
476	 0,227562483623244 
477	 0,226501793989148 
478	 0,225011502501557 
479	 0,226213071781676 
480	 0,226879234559546 
481	 0,225815114769249 
482	 0,226263468942872 
483	 0,227047570714189 
484	 0,225981024193312 
485	 0,224853425991582 
486	 0,224174348771997 
487	 0,223669395319968 
488	 0,224003254371733 
489	 0,225453469881116 
490	 0,225356528060041 
491	 0,224311018046609 
492	 0,224536999257816 
493	 0,22585195484232 
494	 0,227523396436134 
495	 0,226010557919932 
496	 0,223336031977416 
497	 0,222069786516071 
498	 0,223061085830089 
499	 0,225020251175866 
500	 0,223172094881483 
501	 0,222010626995519 
502	 0,223876291922184 
503	 0,225679094805927 
504	 0,226929023222847 
505	 0,227625090094787 
506	 0,227131698370864 
507	 0,226241758661027 
508	 0,229255746482427 
509	 0,23147192053447 
510	 0,228796388853441 
511	 0,227798688455006 
512	 0,228486403173463 
513	 0,227078875707282 
514	 0,227419839004998 
515	 0,230448094519998 
516	 0,231134950525561 
517	 0,230609088177728 
518	 0,23114994654682 
519	 0,231641285964358 
520	 0,231798465005906 
521	 0,231409187489065 
522	 0,231360845171825 
523	 0,23221378802626 
524	 0,232588764466262 
525	 0,232677383665671 
526	 0,233666475345392 
527	 0,233387139465289 
528	 0,231576505576408 
529	 0,231116247663654 
530	 0,231234163748465 
531	 0,230794562329106 
532	 0,23045020590422 
533	 0,230188415118055 
534	 0,22939982692458 
535	 0,229412019600347 
536	 0,230746118256377 
537	 0,230773205190238 
538	 0,230105214066977 
539	 0,230549439823499 
540	 0,230858109535659 
541	 0,230826536340567 
542	 0,231351695979917 
543	 0,231611022064775 
544	 0,230829517587478 
545	 0,230466642114691 
546	 0,23074802689621 
547	 0,231383134690615 
548	 0,232121446664971 
549	 0,232704585077954 
550	 0,232511790000075 
551	 0,232174883183769 
552	 0,232776587446423 
553	 0,23327809806207 
554	 0,233257076014053 
555	 0,232310621329012 
556	 0,231441370360136 
557	 0,231455422098204 
558	 0,231418194627636 
559	 0,231272897728574 
560	 0,231419075615335 
561	 0,231050145026013 
562	 0,23004736974731 
563	 0,229803252386278 
564	 0,229945547075289 
565	 0,229817914076782 
566	 0,229273166440397 
567	 0,228641006742137 
568	 0,229173716194423 
569	 0,230077531006238 
570	 0,230781002044973 
571	 0,23152054776181 
572	 0,232295993987183 
573	 0,233041278254343 
574	 0,234021767880184 
575	 0,235296478569095 
576	 0,236663287514285 
577	 0,237966869668056 
578	 0,239041618590255 
579	 0,23959113877757 
580	 0,239891024581206 
581	 0,240848274636645 
582	 0,242405964704582 
583	 0,244349960201798 
584	 0,245259872081621 
585	 0,24566999504094 
586	 0,246883780592092 
587	 0,247901265762485 
588	 0,24860003278277 
589	 0,249738592236159 
590	 0,251008516631906 
591	 0,25205841130039 
592	 0,252370377093239 
593	 0,252073351104604 
594	 0,251676573379655 
595	 0,251802309747804 
596	 0,252647821218174 
597	 0,253095447231056 
598	 0,25338356338743 
599	 0,254099279146436 
600	 0,253975143573916 
601	 0,252963183332948 
602	 0,252249363445411 
603	 0,251982750933656 
604	 0,252147938249773 
605	 0,251290900671794 
606	 0,249856579489059 
607	 0,249544055241661 
608	 0,249412819928754 
609	 0,249098394033792 
610	 0,248549716329569 
611	 0,247912255976324 
612	 0,247377996166936 
613	 0,246651381830811 
614	 0,245817663284016 
615	 0,245278755280087 
616	 0,245163462356865 
617	 0,24549775624846 
618	 0,245818288834567 
619	 0,245798345861132 
620	 0,244922474976513 
621	 0,244416651337411 
622	 0,244549637107243 
623	 0,244279089164726 
624	 0,244104801879601 
625	 0,244577609610185 
626	 0,24511484991944 
627	 0,245588553032119 
628	 0,246139569552242 
629	 0,246215987486893 
630	 0,245720119365478 
631	 0,246082713549364 
632	 0,247054450796255 
633	 0,247967464689912 
634	 0,248568811384495 
635	 0,248831956707518 
636	 0,249084142072276 
637	 0,249607590248154 
638	 0,250610759711129 
639	 0,251710826313513 
640	 0,252675954186939 
641	 0,253107364187045 
642	 0,253781766356026 
643	 0,254897358917541 
644	 0,255549423587315 
645	 0,255999185508589 
646	 0,25669879771621 
647	 0,256710903456701 
648	 0,255948166962587 
649	 0,254853881370594 
650	 0,254192161967765 
651	 0,254327974196618 
652	 0,253497359871811 
653	 0,252030580811491 
654	 0,251157547869697 
655	 0,250363116870675 
656	 0,249296658380765 
657	 0,246964433796053 
658	 0,244767693670551 
659	 0,244152133319025 
660	 0,243246412254113 
661	 0,241684621599785 
662	 0,239568676556504 
663	 0,237870409513845 
664	 0,237049838194843 
665	 0,236316428067417 
666	 0,235503510533447 
667	 0,234517617168995 
668	 0,233545747689773 
669	 0,232809675942165 
670	 0,232877049349722 
671	 0,233107722843415 
672	 0,232971051563951 
673	 0,232755408178106 
674	 0,232526575750367 
675	 0,232326184578962 
676	 0,232172083854977 
677	 0,232085164208854 
678	 0,232048445434401 
679	 0,232242611705306 
680	 0,232867145814553 
681	 0,232867791520939 
682	 0,232525394227919 
683	 0,233482049351283 
684	 0,234917417997916 
685	 0,236310843007745 
686	 0,237540208433608 
687	 0,23899129864628 
688	 0,241378090464206 
689	 0,243933277716808 
690	 0,246695762720741 
691	 0,250616684896796 
692	 0,255662868434653 
693	 0,261753404699094 
694	 0,26847827166273 
695	 0,275747280308161 
696	 0,283579904165047 
697	 0,292167339763513 
698	 0,301482136560612 
699	 0,310882152371341 
700	 0,320632520991509 
701	 0,331133650182065 
702	 0,34175390211287 
703	 0,352092485751615 
704	 0,361562543645404 
705	 0,370952679202782 
706	 0,380679546461104 
707	 0,38996623101277 
708	 0,398693131451995 
709	 0,406836594150819 
710	 0,414312945882004 
711	 0,421260784580766 
712	 0,428345901419092 
713	 0,434870276298598 
714	 0,440218669483569 
715	 0,445569424191367 
716	 0,451021254275609 
717	 0,456220691539561 
718	 0,460881947474453 
719	 0,464864578487254 
720	 0,46819607606322 
721	 0,471270381431563 
722	 0,474575687895903 
723	 0,477514144602698 
724	 0,480058576987844 
725	 0,482587082562277 
726	 0,484952597956032 
727	 0,487043485451582 
728	 0,488637767329947 
729	 0,49010161727542 
730	 0,492172890306685 
731	 0,493609528932094 
732	 0,494312471955278 
733	 0,49565176873502 
734	 0,496846678585433 
735	 0,497233959488986 
736	 0,497765061242587 
737	 0,498621587500428 
738	 0,499858618983333 
739	 0,500803318947893 
740	 0,501201168623041 
741	 0,501350246124421 
742	 0,501666898441133 
743	 0,502575657599604 
744	 0,503119572226079 
745	 0,50326499698586 
746	 0,50363216045443 
747	 0,504016049746672 
748	 0,504357111642351 
749	 0,504999229694003 
750	 0,505626101077327 
751	 0,505706804210941 
752	 0,505731696560691 
753	 0,505866188469069 
754	 0,506136212881797 
755	 0,506494223543517 
756	 0,506879600861119 
757	 0,507123408041822 
758	 0,50720709209772 
759	 0,507112046615009 
760	 0,507344335800161 
761	 0,507952656274012 
762	 0,508254002121703 
763	 0,508519490129148 
764	 0,509000699588414 
765	 0,509064530979113 
766	 0,508751096409041 
767	 0,508401894913319 
768	 0,508385526369002 
769	 0,508794249975525 
770	 0,509050839338027 
771	 0,509224037918766 
772	 0,50945272994222 
773	 0,509451828736476 
774	 0,509293283003379 
775	 0,50934371899395 
776	 0,509600487496056 
777	 0,509980655888165 
778	 0,509926588854106 
779	 0,509626625718418 
780	 0,509448695208894 
781	 0,509402169642775 
782	 0,509507532529446 
783	 0,509824519238343 
784	 0,509873112115073 
785	 0,509422653986298 
786	 0,509378418736648 
787	 0,509642725405637 
788	 0,509805845313573 
789	 0,509873370541424 
790	 0,509912735347074 
791	 0,510304773714436 
792	 0,510552293382397 
793	 0,510290063255216 
794	 0,510128276089719 
795	 0,510126346876026 
796	 0,510210190634624 
797	 0,50998095398841 
798	 0,509512042205171 
799	 0,50984537876964 
800	 0,510359763415294 
801	 0,510422963398424 
802	 0,510283874267843 
803	 0,510082659257817 
804	 0,51005303339712 
805	 0,510053072375796 
806	 0,510122130432042 
807	 0,510767803584513 
808	 0,511228165829523 
809	 0,510730481135214 
810	 0,510967795441114 
811	 0,511807252388903 
812	 0,51182636526716 
813	 0,512007349033271 
814	 0,512569523638442 
815	 0,512305097555556 
816	 0,511914861033854 
817	 0,51231812490173 
818	 0,512315906717939 
819	 0,511963550602097 
820	 0,512198709721002 
821	 0,512711183181224 
822	 0,513213401732221 
823	 0,512848153177392 
824	 0,51238093908234 
825	 0,512882511769956 
826	 0,513332203717809 
827	 0,513522893585299 
828	 0,513655355769481 
829	 0,513649288537818 
830	 0,513461800200444 
831	 0,513036262007026 
832	 0,512677227491182 
833	 0,512783993404286 
834	 0,513305533754828 
835	 0,513982930218265 
836	 0,514099364876574 
837	 0,514072163142513 
838	 0,51408424927619 
839	 0,513714121889487 
840	 0,513338352277502 
841	 0,513523141859691 
842	 0,513897880466339 
843	 0,514215187975335 
844	 0,514020813797783 
845	 0,513798545189923 
846	 0,513828962116663 
847	 0,513997421939335 
848	 0,51415390037384 
849	 0,514107415009007 
850	 0,514365999166247 
851	 0,514736095177828 
852	 0,514098294122357 
853	 0,513803613151783 
854	 0,514436879310333 
855	 0,514557284603292 
856	 0,514319928880013 
857	 0,514164798302198 
858	 0,513767870911324 
859	 0,513423105915059 
860	 0,514301651779636 
861	 0,51487964424447 
862	 0,514521205213884 
863	 0,514866314263454 
864	 0,515211922446799 
865	 0,514466844773088 
866	 0,514356747238114 
867	 0,514882842554898 
868	 0,51464309273549 
869	 0,514886526515068 
870	 0,515918397707285 
871	 0,515882201694574 
872	 0,515340073187349 
873	 0,515183530839916 
874	 0,515476979648469 
875	 0,516003997265458 
876	 0,516113905053976 
877	 0,515872270377486 
878	 0,515426389626628 
879	 0,515380675613184 
880	 0,515837922198471 
881	 0,516782594298678 
882	 0,517067548358181 
883	 0,516796888434686 
884	 0,516934038164002 
885	 0,517016192992299 
886	 0,51697226177044 
887	 0,517174605746011 
888	 0,517450427408579 
889	 0,517561683911054 
890	 0,516687406241866 
891	 0,515800923181635 
892	 0,517422400051182 
893	 0,518084166706944 
894	 0,517122678782538 
895	 0,517089684074732 
896	 0,517431871871476 
897	 0,517631222976566 
898	 0,517571183616575 
899	 0,517560051162572 
900	 0,51822884033137 
901	 0,518167005825878 
902	 0,51741689435364 
903	 0,517675628684197 
904	 0,518380794786518 
905	 0,519000119977218 
906	 0,518485650263488 
907	 0,51771941526422 
908	 0,518117642679926 
909	 0,518366177819959 
910	 0,518360021332601 
911	 0,518867215687452 
912	 0,519111847837483 
913	 0,518695710797811 
914	 0,517545854021258 
915	 0,516854769922811 
916	 0,517845994154942 
917	 0,51866124127312 
918	 0,519000521538674 
919	 0,519225559648976 
920	 0,519160249606258 
921	 0,518786295945105 
922	 0,518176375666443 
923	 0,517871075673353 
924	 0,51822060833211 
925	 0,518168607872297 
926	 0,517612897299741 
927	 0,516656583021983 
928	 0,516652870339816 
929	 0,517405074518928 
930	 0,516561372913548 
931	 0,515873798128527 
932	 0,516268479305857 
933	 0,516526806530475 
934	 0,516497536042808 
935	 0,516174571048957 
936	 0,515885780565623 
937	 0,515445629137985 
938	 0,513959061764677 
939	 0,513158817719146 
940	 0,513533687465083 
941	 0,513848283950388 
942	 0,513623937493329 
943	 0,512554848843009 
944	 0,511336725313179 
945	 0,510361568871121 
946	 0,510065569812007 
947	 0,509705563805776 
948	 0,508987212265811 
949	 0,507722028290645 
950	 0,506614943385496 
951	 0,506160071288142 
952	 0,506887184140872 
953	 0,506671952979317 
954	 0,503168975070352 
955	 0,502089481034777 
956	 0,502951395002291 
957	 0,501051230137412 
958	 0,500311655596904 
959	 0,501297540137067 
960	 0,500469583512065 
961	 0,499090418593274 
962	 0,498337478278996 
963	 0,498805318881818 
964	 0,499415330587121 
965	 0,498426904323193 
966	 0,497510296724912 
967	 0,497185086320744 
968	 0,497719798427597 
969	 0,497959746121504 
970	 0,497436937140645 
971	 0,496712246040974 
972	 0,49623848399332 
973	 0,496482180489385 
974	 0,498562207710116 
975	 0,500235566664778 
976	 0,497287150259019 
977	 0,495897579318743 
978	 0,497229445368202 
979	 0,498961350427652 
980	 0,499712969853814 
981	 0,498951503619 
982	 0,498466645100209 
983	 0,498355909446526 
984	 0,49856031820313 
985	 0,498957639559387 
986	 0,49969741494697 
987	 0,501133825184686 
988	 0,502484325790694 
989	 0,503067154237843 
990	 0,501382446152281 
991	 0,50027663879627 
992	 0,501231657792038 
993	 0,503127314070552 
994	 0,504386970733461 
995	 0,503732911492744 
996	 0,504611744750647 
997	 0,506071167867284 
998	 0,505005960265643 
999	 0,50472309701905 
1000	 0,505491415911819 
1001	 0,504515486624056 
1002	 0,504894651178102 
1003	 0,507641858938214 
1004	 0,509108742968126 
1005	 0,509030604451132 
1006	 0,50770293974586 
1007	 0,507267203894128 
1008	 0,508318608571849 
1009	 0,511106901933775 
1010	 0,512168525810579 
1011	 0,511380579730712 
1012	 0,51165096201508 
1013	 0,513275132773445 
1014	 0,516164899662422 
1015	 0,518854098674694 
1016	 0,520288350795036 
1017	 0,519647934130265 
1018	 0,516619074019803 
1019	 0,513226980313554 
1020	 0,512453066177971 
1021	 0,515755220546536 
1022	 0,520753235727504 
1023	 0,519660587280445 
1024	 0,520453485784979 
1025	 0,524256160649587 
1026	 0,52335440482868 
1027	 0,522273635099463 
1028	 0,523645911804655 
1029	 0,522497525207124 
1030	 0,522005143633342 
1031	 0,525904310742202 
1032	 0,525838922715962 
1033	 0,524868821856387 
1034	 0,532589792582756 
1035	 0,533005563589818 
1036	 0,526054928999439 
1037	 0,528710988946857 
1038	 0,530012960236084 
1039	 0,526521065341996 
1040	 0,52663514025639 
1041	 0,529863666378663 
1042	 0,534310759031018 
1043	 0,530989358553467 
1044	 0,526816883165191 
1045	 0,532540923385019 
1046	 0,5342349368138 
1047	 0,53149819706967 
1048	 0,530051455149143 
1049	 0,534860226835221 
1050	 0,542483428692668 
1051	 0,533985877520673 
1052	 0,528269840826448 
1053	 0,533810720523212 
1054	 0,53643149065911 
1055	 0,537432434587925 
1056	 0,537951446048277 
1057	 0,531062265604729 
1058	 0,529600532080546 
1059	 0,550557918009726 
1060	 0,546429950366292 
1061	 0,526449450927964 
1062	 0,535470588607958 
1063	 0,545585681241714 
1064	 0,547985013975063 
1065	 0,53940966345679 
1066	 0,531601024045543 
1067	 0,532515927167654 
1068	 0,549788529762113 
1069	 0,553558848161016 
1070	 0,528463205010868 
1071	 0,539906556899701 
1072	 0,562206447741856 
1073	 0,554728354212279 
1074	 0,534110733453842 
1075	 0,517500180352499 
