Wavelength	GRA-VIE00739.asd
325	 0,394814714186148 
326	 0,266039409140038 
327	 0,22355530813481 
328	 0,289947951270818 
329	 0,351739220260921 
330	 0,323787242438763 
331	 0,168498802976783 
332	 0,184841231715478 
333	 0,323055740775617 
334	 0,29583414949204 
335	 0,258108331561666 
336	 0,264854427480473 
337	 0,279647434535575 
338	 0,28439226002718 
339	 0,266199233705307 
340	 0,214560997725119 
341	 0,15490304525459 
342	 0,179965987805384 
343	 0,216828502672034 
344	 0,235482724485747 
345	 0,226125712577663 
346	 0,196625174617456 
347	 0,160109562531866 
348	 0,164400216733405 
349	 0,194976540347469 
350	 0,19450949384883 
351	 0,163764659289496 
352	 0,112114865622365 
353	 0,125849103568061 
354	 0,164027317982113 
355	 0,171848936502749 
356	 0,185856557469678 
357	 0,197452676013471 
358	 0,160918299861671 
359	 0,13650929196744 
360	 0,147663758550416 
361	 0,141370042389288 
362	 0,140296000215131 
363	 0,182676999839581 
364	 0,18947898207026 
365	 0,161460948349085 
366	 0,171199052383274 
367	 0,191107798756607 
368	 0,198438913077099 
369	 0,161692830111588 
370	 0,120306135910363 
371	 0,145121416775185 
372	 0,167642468323287 
373	 0,168503381630409 
374	 0,158416243195134 
375	 0,144800207136674 
376	 0,133803518057401 
377	 0,135956039301578 
378	 0,14555456999316 
379	 0,145567685033964 
380	 0,147334084559271 
381	 0,151843341048696 
382	 0,149355782322839 
383	 0,143718977607942 
384	 0,139998809648955 
385	 0,150349196266038 
386	 0,165615092433287 
387	 0,16167639352898 
388	 0,1527301997595 
389	 0,147240633408159 
390	 0,156921939945648 
391	 0,167772366915175 
392	 0,162421052096116 
393	 0,148515401306617 
394	 0,133459003671659 
395	 0,133149210372643 
396	 0,143698668077167 
397	 0,159492705195615 
398	 0,15550921334508 
399	 0,138516056240971 
400	 0,121088704120538 
401	 0,121684746493452 
402	 0,136813125586968 
403	 0,132732758192857 
404	 0,131186849591444 
405	 0,144375784803789 
406	 0,133191511093984 
407	 0,114331824267648 
408	 0,133938989460995 
409	 0,14386976967552 
410	 0,134526713902916 
411	 0,127284902869179 
412	 0,127320664289878 
413	 0,13700837650516 
414	 0,132773296709237 
415	 0,120532965040157 
416	 0,127823780158814 
417	 0,132625139642573 
418	 0,127860505713541 
419	 0,126363489740341 
420	 0,126849268532677 
421	 0,126299726625449 
422	 0,12395834671243 
423	 0,121313676071926 
424	 0,124380914841421 
425	 0,124146053155591 
426	 0,11665739813888 
427	 0,117928149967676 
428	 0,124190854277211 
429	 0,12551593514271 
430	 0,123855754337544 
431	 0,121174001177714 
432	 0,124257399121699 
433	 0,127309624004228 
434	 0,125346222931766 
435	 0,12575939460664 
436	 0,127842253961459 
437	 0,126252737173393 
438	 0,125401571529034 
439	 0,126698637377113 
440	 0,127382603099391 
441	 0,126938923031256 
442	 0,125072902198437 
443	 0,124336230567988 
444	 0,125400395929087 
445	 0,127891942448179 
446	 0,131040077065169 
447	 0,133726686187212 
448	 0,130701934717559 
449	 0,126779569042056 
450	 0,132569250774968 
451	 0,133379213973314 
452	 0,12730660568681 
453	 0,127543484726932 
454	 0,129910964879903 
455	 0,130026382364461 
456	 0,12946770866309 
457	 0,128640035836982 
458	 0,127708740202728 
459	 0,128406317128491 
460	 0,130751808292203 
461	 0,129846642437457 
462	 0,127723911607641 
463	 0,127695676392153 
464	 0,128654885676731 
465	 0,130097366683195 
466	 0,131270224698158 
467	 0,131641039465972 
468	 0,131068091664907 
469	 0,131857040873519 
470	 0,13259340932547 
471	 0,129519041260748 
472	 0,12890115801337 
473	 0,13163454471961 
474	 0,131679695729932 
475	 0,12994351180809 
476	 0,127853543229733 
477	 0,129618615927771 
478	 0,133239660146597 
479	 0,130745322333569 
480	 0,127965702554426 
481	 0,127506094416998 
482	 0,12672199678025 
483	 0,126649020615412 
484	 0,129236030897077 
485	 0,130235716852318 
486	 0,12905242572649 
487	 0,12801484457495 
488	 0,127915170095275 
489	 0,129201742403685 
490	 0,130481916564598 
491	 0,130640770695103 
492	 0,12755376997799 
493	 0,12527713019638 
494	 0,125319650916284 
495	 0,126932699726739 
496	 0,127449498788875 
497	 0,124097778575809 
498	 0,123235939678616 
499	 0,124875527897181 
500	 0,124197141521152 
501	 0,123748483118734 
502	 0,124925900553432 
503	 0,126917788936118 
504	 0,128711921669425 
505	 0,12890946073103 
506	 0,128391554902905 
507	 0,127706946814338 
508	 0,127773772290701 
509	 0,128223490996378 
510	 0,128695019966278 
511	 0,129733006076207 
512	 0,131019997843571 
513	 0,13170248819247 
514	 0,13169435963199 
515	 0,131106333404718 
516	 0,130814603893488 
517	 0,1312290590315 
518	 0,132790569835626 
519	 0,133234264738975 
520	 0,132450213816742 
521	 0,132349809432834 
522	 0,132792599373372 
523	 0,133516652749068 
524	 0,132960768074655 
525	 0,131898901087885 
526	 0,13272925162517 
527	 0,133110968268648 
528	 0,132413904914355 
529	 0,131826725278235 
530	 0,131562399984014 
531	 0,131740722715865 
532	 0,132035826132573 
533	 0,132010187944443 
534	 0,130508213457048 
535	 0,129472842605653 
536	 0,130052019250818 
537	 0,131526042871194 
538	 0,132639550627429 
539	 0,131227585991385 
540	 0,131045121512192 
541	 0,132646264341084 
542	 0,132623821567654 
543	 0,132163975581194 
544	 0,132539242141609 
545	 0,132336129981413 
546	 0,131786995461189 
547	 0,132306431648942 
548	 0,132754795306057 
549	 0,13261342685403 
550	 0,132387852633261 
551	 0,132366868797658 
552	 0,132927897956763 
553	 0,133075946408404 
554	 0,132634935128564 
555	 0,132146673826234 
556	 0,131881871026496 
557	 0,13202525723456 
558	 0,132013883926143 
559	 0,131947034095339 
560	 0,132513763679878 
561	 0,132258418444329 
562	 0,130944699348793 
563	 0,131060910743923 
564	 0,131502420475193 
565	 0,130528747528061 
566	 0,130082195224289 
567	 0,130502819920286 
568	 0,131201473074755 
569	 0,13165308023709 
570	 0,131587768245526 
571	 0,132182408754108 
572	 0,133538408780759 
573	 0,135684078942398 
574	 0,136361552767373 
575	 0,135438917194242 
576	 0,137102102447024 
577	 0,139205164904097 
578	 0,139095100374979 
579	 0,140614869475067 
580	 0,143672889713941 
581	 0,145430840196627 
582	 0,146266834033997 
583	 0,146490856041975 
584	 0,14708201687428 
585	 0,148127584846873 
586	 0,149545422823228 
587	 0,150343686904758 
588	 0,150494639681704 
589	 0,15145947221917 
590	 0,15249655023221 
591	 0,152871712042924 
592	 0,153112306555881 
593	 0,153495152426904 
594	 0,154512783731699 
595	 0,155352363228807 
596	 0,155649931426152 
597	 0,155903230988954 
598	 0,156041096569689 
599	 0,155870798592161 
600	 0,155847026321414 
601	 0,155896073171906 
602	 0,155154979890609 
603	 0,154495036206756 
604	 0,154562352878291 
605	 0,15440165472902 
606	 0,15377859793268 
607	 0,152451666813413 
608	 0,151508508149821 
609	 0,151266382305426 
610	 0,150680485277032 
611	 0,150010440555428 
612	 0,149682994175165 
613	 0,149105885828987 
614	 0,148251422336432 
615	 0,147454250113722 
616	 0,147028667324045 
617	 0,147051954068468 
618	 0,146120123636264 
619	 0,145118837815684 
620	 0,146231079776883 
621	 0,147191189888504 
622	 0,147251026027583 
623	 0,14689170077638 
624	 0,146268257092805 
625	 0,145557706437919 
626	 0,145582658748372 
627	 0,146186394692294 
628	 0,146320149965301 
629	 0,146612924071362 
630	 0,147323710477052 
631	 0,147932936683706 
632	 0,148540942537304 
633	 0,149436365299418 
634	 0,149912886414551 
635	 0,150045447904877 
636	 0,151010631376026 
637	 0,152112498639835 
638	 0,152747268601714 
639	 0,153406586348037 
640	 0,154229202705668 
641	 0,155399210787125 
642	 0,156323407825928 
643	 0,156833817203201 
644	 0,157664429913926 
645	 0,15842576288715 
646	 0,158536784928556 
647	 0,158291878312721 
648	 0,157791090329349 
649	 0,157015188752709 
650	 0,156498107206587 
651	 0,156475956045235 
652	 0,155665319837504 
653	 0,154171288730202 
654	 0,152551416906926 
655	 0,15124221942656 
656	 0,150295008889344 
657	 0,149011422711109 
658	 0,147364239773532 
659	 0,145390672602035 
660	 0,143383258660758 
661	 0,141368757820829 
662	 0,139085830077349 
663	 0,137070608951333 
664	 0,135640971976121 
665	 0,134822542793326 
666	 0,134191871617463 
667	 0,133105272741665 
668	 0,132185649210915 
669	 0,13150524307947 
670	 0,13052467076786 
671	 0,130084975647799 
672	 0,130722551065332 
673	 0,130385605262675 
674	 0,129392468548483 
675	 0,129381266950886 
676	 0,129572868600912 
677	 0,129655298972439 
678	 0,129402592930155 
679	 0,12918591123458 
680	 0,129463342591622 
681	 0,129700149656699 
682	 0,129952408732501 
683	 0,130732436824272 
684	 0,131907637046462 
685	 0,133378433852404 
686	 0,13493562082998 
687	 0,136830530202195 
688	 0,139481879911679 
689	 0,143112263886929 
690	 0,147579077794016 
691	 0,15174537308904 
692	 0,156899777126283 
693	 0,164162473056486 
694	 0,172010142624447 
695	 0,180369854927813 
696	 0,189830366656721 
697	 0,200320503021702 
698	 0,211730928456565 
699	 0,223655217631793 
700	 0,236146064873584 
701	 0,249313059487153 
702	 0,262690890195634 
703	 0,276147358974888 
704	 0,289873015935204 
705	 0,303398647702951 
706	 0,316326201612898 
707	 0,32833894765075 
708	 0,339586951831212 
709	 0,350370806319583 
710	 0,360909868341133 
711	 0,371212523460262 
712	 0,380906465050519 
713	 0,389745366671634 
714	 0,397590617804981 
715	 0,405146417948655 
716	 0,412460110149171 
717	 0,419269605677532 
718	 0,425467299129827 
719	 0,43107983482232 
720	 0,436550407697827 
721	 0,44154343892926 
722	 0,445615717086665 
723	 0,449661871028015 
724	 0,453695013013545 
725	 0,456939487904709 
726	 0,460029765953662 
727	 0,463254111911629 
728	 0,465503516066934 
729	 0,467376891440212 
730	 0,470218626820261 
731	 0,472537687326515 
732	 0,474094258334841 
733	 0,475915311671253 
734	 0,47774034630577 
735	 0,479308941679955 
736	 0,480691539024599 
737	 0,481938457163078 
738	 0,483142087732695 
739	 0,484287660452887 
740	 0,485335099663851 
741	 0,486069139684981 
742	 0,48674074288176 
743	 0,487649042895986 
744	 0,48839647086659 
745	 0,48902487476672 
746	 0,489945728652377 
747	 0,490790903122644 
748	 0,491453622865236 
749	 0,492729172703027 
750	 0,494004483636019 
751	 0,494211581221055 
752	 0,494419731489236 
753	 0,494921426405834 
754	 0,495547531928635 
755	 0,496302012980354 
756	 0,497121164479654 
757	 0,497399543406639 
758	 0,497401604574412 
759	 0,497826151197926 
760	 0,498487906777741 
761	 0,499235434963418 
762	 0,499639935999042 
763	 0,499852668200643 
764	 0,500057826321404 
765	 0,500509344466926 
766	 0,501021094899965 
767	 0,500937632401295 
768	 0,500969246074966 
769	 0,501372027135276 
770	 0,501789298277354 
771	 0,502262408400064 
772	 0,502863754068542 
773	 0,503106298452821 
774	 0,503129917490377 
775	 0,503739975147525 
776	 0,50423417258279 
777	 0,504307415555142 
778	 0,504564620634177 
779	 0,504907521553372 
780	 0,505089074990184 
781	 0,505487029488617 
782	 0,505974620582422 
783	 0,505713069425014 
784	 0,505638794918132 
785	 0,506249153339412 
786	 0,506116398186121 
787	 0,505674630869712 
788	 0,506035674328248 
789	 0,506554697043719 
790	 0,507008125631916 
791	 0,507286881332123 
792	 0,507598464470276 
793	 0,508094201450544 
794	 0,508531225217894 
795	 0,508816053219373 
796	 0,508834891654764 
797	 0,508904246584748 
798	 0,50911446449293 
799	 0,509278909552507 
800	 0,509428584821864 
801	 0,509596538281932 
802	 0,509703856071516 
803	 0,509823591083884 
804	 0,510200369896945 
805	 0,510420864875162 
806	 0,510447771162542 
807	 0,510964463716165 
808	 0,511606660889655 
809	 0,511939497839299 
810	 0,512186065035705 
811	 0,512430345774099 
812	 0,512797774834197 
813	 0,513068787793896 
814	 0,513193388883802 
815	 0,513452684802328 
816	 0,513836862389457 
817	 0,514299377029804 
818	 0,514841469717555 
819	 0,515344645867395 
820	 0,515478814455136 
821	 0,515682941028368 
822	 0,516077242518087 
823	 0,515971277472464 
824	 0,515709374657117 
825	 0,515815062901127 
826	 0,516333611803968 
827	 0,517009330810777 
828	 0,517062157610579 
829	 0,516766888559412 
830	 0,516434917286856 
831	 0,517111798205787 
832	 0,517961806602917 
833	 0,517714694486861 
834	 0,517667968255988 
835	 0,517931709288326 
836	 0,517795478338045 
837	 0,517520164996965 
838	 0,517329072017358 
839	 0,517665686529874 
840	 0,518271297555653 
841	 0,518713317682634 
842	 0,518815837898105 
843	 0,518779994256081 
844	 0,519573546984175 
845	 0,519788412657587 
846	 0,518907969241458 
847	 0,519174091754955 
848	 0,519861232430715 
849	 0,519601651203104 
850	 0,519652564077244 
851	 0,520141874299741 
852	 0,520502740894914 
853	 0,52061734231082 
854	 0,520471517348035 
855	 0,520540015425709 
856	 0,520698649159321 
857	 0,520699870412113 
858	 0,520972142040304 
859	 0,521484108266712 
860	 0,521837023392281 
861	 0,521980651012492 
862	 0,521933174308125 
863	 0,522006156286088 
864	 0,522306071920977 
865	 0,522906495793075 
866	 0,523556259842126 
867	 0,524061457811585 
868	 0,524111110643182 
869	 0,524058914443893 
870	 0,524080729735067 
871	 0,524043795689918 
872	 0,524068121143052 
873	 0,524297114901019 
874	 0,524530315560679 
875	 0,52464167889531 
876	 0,524307648472794 
877	 0,524594481806575 
878	 0,525710935165671 
879	 0,526059843099465 
880	 0,525894090392428 
881	 0,525658981868797 
882	 0,525751756499863 
883	 0,526056776616771 
884	 0,525948238083627 
885	 0,526123616944899 
886	 0,526663222244192 
887	 0,526609733364239 
888	 0,526601553366901 
889	 0,527229634323533 
890	 0,527483679916687 
891	 0,527579660397465 
892	 0,528417091290125 
893	 0,529092512279775 
894	 0,529214231232387 
895	 0,528431321996846 
896	 0,528060406655834 
897	 0,528951365830726 
898	 0,528704239090656 
899	 0,528022410925326 
900	 0,528814321725075 
901	 0,529542633005652 
902	 0,529864454603675 
903	 0,530285766842285 
904	 0,530455005034649 
905	 0,530210759808191 
906	 0,530032838643861 
907	 0,529980237376765 
908	 0,530033926347148 
909	 0,530636513299304 
910	 0,53138749668849 
911	 0,530700110594474 
912	 0,530262013904381 
913	 0,53074612861714 
914	 0,530872160682772 
915	 0,531019694282421 
916	 0,531672440568549 
917	 0,531768035852588 
918	 0,531444837445476 
919	 0,531628214934516 
920	 0,531660397250957 
921	 0,531389700318153 
922	 0,531145468393645 
923	 0,531085368368721 
924	 0,531259585857503 
925	 0,530908965610877 
926	 0,530382620587612 
927	 0,530570778809231 
928	 0,529831331322749 
929	 0,528394072062727 
930	 0,528738697291325 
931	 0,529668290112982 
932	 0,530244970845114 
933	 0,529394299664645 
934	 0,528284898386208 
935	 0,52853303435253 
936	 0,52870973802461 
937	 0,528395293148952 
938	 0,527250544897103 
939	 0,526602223873243 
940	 0,52680214099781 
941	 0,526692533192993 
942	 0,526141165437006 
943	 0,52522685999827 
944	 0,525566475474028 
945	 0,525968508838699 
946	 0,523723113202899 
947	 0,522231812269743 
948	 0,52206106814542 
949	 0,521510434023825 
950	 0,520390026497519 
951	 0,518685427810742 
952	 0,516986745944116 
953	 0,516236669055744 
954	 0,517316587731055 
955	 0,516766219425799 
956	 0,514891349889208 
957	 0,514555939756897 
958	 0,513904144716598 
959	 0,51259433730906 
960	 0,511820814296376 
961	 0,511583302798987 
962	 0,511632505882152 
963	 0,509948422418815 
964	 0,508569482644635 
965	 0,510924112833122 
966	 0,512327903515506 
967	 0,511673125758024 
968	 0,509192254249801 
969	 0,508407972445136 
970	 0,510359551662642 
971	 0,511208104739121 
972	 0,511122511027627 
973	 0,510535448025759 
974	 0,509806281732927 
975	 0,509509186514433 
976	 0,510463897352378 
977	 0,511070957985547 
978	 0,511165293117716 
979	 0,511976865617318 
980	 0,51235049710113 
981	 0,511959268442943 
982	 0,512519199864364 
983	 0,512896138583968 
984	 0,51196496152801 
985	 0,511935724363971 
986	 0,512990452138404 
987	 0,514705838107397 
988	 0,514986532731904 
989	 0,514238890366532 
990	 0,516405190358081 
991	 0,518493325390331 
992	 0,519001340666566 
993	 0,519174560022333 
994	 0,519718210900248 
995	 0,521097610839712 
996	 0,520771086943951 
997	 0,520157273928469 
998	 0,522880903551375 
999	 0,52505399902431 
1000	 0,525497590536244 
1001	 0,524333735744185 
1002	 0,523943465131478 
1003	 0,525592088888091 
1004	 0,528498713464515 
1005	 0,530792548502647 
1006	 0,530777307220679 
1007	 0,529716319252604 
1008	 0,528487608921901 
1009	 0,528109897678533 
1010	 0,529353115271596 
1011	 0,531899235797203 
1012	 0,534447206387109 
1013	 0,534394396947822 
1014	 0,531901668372042 
1015	 0,534428090823658 
1016	 0,537441173106913 
1017	 0,537136804619151 
1018	 0,539319661199821 
1019	 0,541746082038507 
1020	 0,540006599275806 
1021	 0,53883945239371 
1022	 0,539971279056931 
1023	 0,545283030146689 
1024	 0,54676936709041 
1025	 0,543290334684657 
1026	 0,543443331713655 
1027	 0,546503952018604 
1028	 0,550931960174944 
1029	 0,550878244063229 
1030	 0,549421729215341 
1031	 0,55087596921601 
1032	 0,55308052591732 
1033	 0,553657437874164 
1034	 0,548540860317808 
1035	 0,546748703270809 
1036	 0,550209555204845 
1037	 0,556285150686266 
1038	 0,560024871324223 
1039	 0,55896474588872 
1040	 0,555681976025228 
1041	 0,552523843137134 
1042	 0,551602926576781 
1043	 0,553321330847334 
1044	 0,555088240351868 
1045	 0,553658984566325 
1046	 0,551510194396022 
1047	 0,551217141309139 
1048	 0,557114041687299 
1049	 0,562445500413544 
1050	 0,564113844718469 
1051	 0,559746257916524 
1052	 0,55730629694791 
1053	 0,559902882699944 
1054	 0,560129270871908 
1055	 0,559156035869681 
1056	 0,559197056916295 
1057	 0,568018669643411 
1058	 0,573576667662439 
1059	 0,558908775931008 
1060	 0,55615605865629 
1061	 0,560074491349885 
1062	 0,542208856209412 
1063	 0,542369263516408 
1064	 0,56360338732945 
1065	 0,570427668483632 
1066	 0,568246952775101 
1067	 0,561039677657191 
1068	 0,5572290655672 
1069	 0,558804881360806 
1070	 0,566045214694139 
1071	 0,573341913228556 
1072	 0,579386436814747 
1073	 0,583443015433703 
1074	 0,580398707149722 
1075	 0,572037435604628 
