Wavelength	GRA-VIE-00126.asd
325	 0,30444075355836 
326	-4,82479022218328E-02 
327	-0,118888598728621 
328	 0,149237381800319 
329	 0,229514571654976 
330	 0,286973327756683 
331	 0,372963149868599 
332	 0,373529338812227 
333	 0,315076481050034 
334	 0,305733507021895 
335	 0,294367983351082 
336	 0,268530339595911 
337	 0,24688864933759 
338	 0,210297473755234 
339	 0,152179218377864 
340	 0,151003723426809 
341	 0,185519783339538 
342	 0,217098946032641 
343	 0,215658241851757 
344	 0,176260778641579 
345	 0,172110121494416 
346	 0,171844444776562 
347	 0,144670095139015 
348	 0,146475802641108 
349	 0,168119030876034 
350	 0,153480658356802 
351	 0,166533267990592 
352	 0,212165220589826 
353	 0,161321696197213 
354	 0,102997075528537 
355	 0,157206164863702 
356	 0,170537277702993 
357	 0,144796479557279 
358	 0,152324611537109 
359	 0,180699003226446 
360	 0,214278800398871 
361	 0,193608731014394 
362	 0,163579066520585 
363	 0,193810335245454 
364	 0,197689874395936 
365	 0,168138069869172 
366	 0,157772255223791 
367	 0,169463739326984 
368	 0,197062454257902 
369	 0,190015930325326 
370	 0,174267428954411 
371	 0,208468488506919 
372	 0,224497691416456 
373	 0,209464044777374 
374	 0,194801479241864 
375	 0,190660752576941 
376	 0,20234335725922 
377	 0,204626455688839 
378	 0,203803973242303 
379	 0,222972768723077 
380	 0,230577155510966 
381	 0,22053482455254 
382	 0,218257773503023 
383	 0,220478858304101 
384	 0,222458529773974 
385	 0,230266506604448 
386	 0,240984734414698 
387	 0,244973894877193 
388	 0,243982590815485 
389	 0,239295425400108 
390	 0,232766892161925 
391	 0,231995925323772 
392	 0,244670708896051 
393	 0,243186413118844 
394	 0,231290178536726 
395	 0,237805666748359 
396	 0,244530773466592 
397	 0,242540913903608 
398	 0,242779911360196 
399	 0,247950056545109 
400	 0,26067152319409 
401	 0,267031723251502 
402	 0,263638257315402 
403	 0,251970782204357 
404	 0,245900543346548 
405	 0,253277947898085 
406	 0,256876523129941 
407	 0,255626611937352 
408	 0,251623467793769 
409	 0,253707239197506 
410	 0,261229172190975 
411	 0,256678166463699 
412	 0,254187242991532 
413	 0,266090324115346 
414	 0,268195957539959 
415	 0,261442112507046 
416	 0,259662660124815 
417	 0,259585539144982 
418	 0,259641779536948 
419	 0,257289462743105 
420	 0,254400424742878 
421	 0,253547276192504 
422	 0,253954076405921 
423	 0,255048396853898 
424	 0,256197605514076 
425	 0,2543772559448 
426	 0,249305508964181 
427	 0,255676489452485 
428	 0,265256343586498 
429	 0,259894774607575 
430	 0,256931910078598 
431	 0,259729068476827 
432	 0,259603728710459 
433	 0,259155857455865 
434	 0,260684895551884 
435	 0,258454457595562 
436	 0,254953119241038 
437	 0,259009209343752 
438	 0,263412446141455 
439	 0,265342813429421 
440	 0,267175308535546 
441	 0,266792882430814 
442	 0,261414349065529 
443	 0,259839481712429 
444	 0,262437545335574 
445	 0,262426476683796 
446	 0,26190104635152 
447	 0,26210392589339 
448	 0,262369138604426 
449	 0,262703073302462 
450	 0,263332100842562 
451	 0,263052332230197 
452	 0,262177233984549 
453	 0,263801867873883 
454	 0,26570380749881 
455	 0,265839194056798 
456	 0,267436625466353 
457	 0,269979222743689 
458	 0,271185439858069 
459	 0,268750501793287 
460	 0,263186654452388 
461	 0,263982032955177 
462	 0,267407001245671 
463	 0,267288030986835 
464	 0,267608136226373 
465	 0,268677701818061 
466	 0,268310855685349 
467	 0,268236442300872 
468	 0,269507062772286 
469	 0,270888502876464 
470	 0,271333979942509 
471	 0,269003381188323 
472	 0,267984332559435 
473	 0,269138804813406 
474	 0,269425742034904 
475	 0,26895213854196 
476	 0,268026859705297 
477	 0,267160322824436 
478	 0,267285913838664 
479	 0,270947799903232 
480	 0,272576924144633 
481	 0,270083689851745 
482	 0,269229698440684 
483	 0,269816099237753 
484	 0,270658801090972 
485	 0,269670305674878 
486	 0,267399146775159 
487	 0,268429815232667 
488	 0,269594571890348 
489	 0,268633823549128 
490	 0,26873161215124 
491	 0,269452309699186 
492	 0,268610440400174 
493	 0,268038021420443 
494	 0,26814297170608 
495	 0,267428083298195 
496	 0,266832168593104 
497	 0,267481563289113 
498	 0,267441397044489 
499	 0,266803776756417 
500	 0,267201557704191 
501	 0,26783800714042 
502	 0,268345035222151 
503	 0,26963498008304 
504	 0,271066239878777 
505	 0,271420454478088 
506	 0,271077925829744 
507	 0,27026120003791 
508	 0,269320236633413 
509	 0,268673552978287 
510	 0,268729421389249 
511	 0,271032472446653 
512	 0,273524425545452 
513	 0,270012862263779 
514	 0,267726674059185 
515	 0,269397182106804 
516	 0,270466757154752 
517	 0,27075177365766 
518	 0,27065119417374 
519	 0,270869944907442 
520	 0,271348465789414 
521	 0,271039023212898 
522	 0,270754409145462 
523	 0,271031953420859 
524	 0,270935184314517 
525	 0,270450173183414 
526	 0,269772553152136 
527	 0,269591160656292 
528	 0,270029866786644 
529	 0,270273693613746 
530	 0,270108151560053 
531	 0,269392775793303 
532	 0,269470471408627 
533	 0,27025513288523 
534	 0,270469285526377 
535	 0,270476234086044 
536	 0,27049065555705 
537	 0,270485374090544 
538	 0,270565430236777 
539	 0,270992362151216 
540	 0,270634150131197 
541	 0,26964535976029 
542	 0,270431999712158 
543	 0,271536902388316 
544	 0,271475993199451 
545	 0,271684714215868 
546	 0,272117552676995 
547	 0,271712183718208 
548	 0,271947897538396 
549	 0,273332487879265 
550	 0,27407772165596 
551	 0,27403826592953 
552	 0,273306391733475 
553	 0,272989096451239 
554	 0,273116553667802 
555	 0,272091906406367 
556	 0,271578511769747 
557	 0,272857960424451 
558	 0,273735477427787 
559	 0,273883066381311 
560	 0,273511469337663 
561	 0,273317020926167 
562	 0,273629325332625 
563	 0,274283631327824 
564	 0,274805981567815 
565	 0,274616766265751 
566	 0,274268055885174 
567	 0,274103649519333 
568	 0,274773742106343 
569	 0,275265591781061 
570	 0,275000162504484 
571	 0,275679239880679 
572	 0,277094012126573 
573	 0,278334742454622 
574	 0,278849625306643 
575	 0,278715669272602 
576	 0,27971801242472 
577	 0,281054820896391 
578	 0,281677091974834 
579	 0,281650562382078 
580	 0,281404110157632 
581	 0,282149704255455 
582	 0,283278692234897 
583	 0,28437717009464 
584	 0,285272820373432 
585	 0,28571786356481 
586	 0,285307053985718 
587	 0,285262780168461 
588	 0,285882000659424 
589	 0,286591858303718 
590	 0,286853882879115 
591	 0,286266596767415 
592	 0,286253007777656 
593	 0,286735522210824 
594	 0,286657800047087 
595	 0,286585496592975 
596	 0,286706823498996 
597	 0,28650989815893 
598	 0,286287360998352 
599	 0,286572062238308 
600	 0,286233884069375 
601	 0,285260407897179 
602	 0,284788620525911 
603	 0,284823329094516 
604	 0,28523574577403 
605	 0,284567514507824 
606	 0,283451247988713 
607	 0,284163112396353 
608	 0,284408037342618 
609	 0,283574858496663 
610	 0,283516236725703 
611	 0,283623322203123 
612	 0,282969947815374 
613	 0,282578196189178 
614	 0,282539444229308 
615	 0,282338088558837 
616	 0,281913513105398 
617	 0,281328613932912 
618	 0,281523768625617 
619	 0,282159040434099 
620	 0,282333118594107 
621	 0,282271524718125 
622	 0,282168675982691 
623	 0,282748043225509 
624	 0,28321127528272 
625	 0,282758111961069 
626	 0,283151498187902 
627	 0,284164901327065 
628	 0,284064446232543 
629	 0,283570414694782 
630	 0,283217052493151 
631	 0,283980217896842 
632	 0,28535144671489 
633	 0,286336062850573 
634	 0,287088713450494 
635	 0,287570310767272 
636	 0,287594144960388 
637	 0,287705825666448 
638	 0,28835187970353 
639	 0,288948372893078 
640	 0,289545681134897 
641	 0,29066765467904 
642	 0,291281752160379 
643	 0,29113763411313 
644	 0,291528898485361 
645	 0,29223125076505 
646	 0,292800171928205 
647	 0,292664727967215 
648	 0,291962586575183 
649	 0,291677588961864 
650	 0,291709256568547 
651	 0,291912414303242 
652	 0,291606676687692 
653	 0,290932065819873 
654	 0,290355542745759 
655	 0,29008292109318 
656	 0,290036260965722 
657	 0,289381985676554 
658	 0,288527304844162 
659	 0,287933501848822 
660	 0,286994293914125 
661	 0,285943449046437 
662	 0,285892019241131 
663	 0,285315588300226 
664	 0,283667539617304 
665	 0,282953726119486 
666	 0,282856298531621 
667	 0,282516675955997 
668	 0,28203224541348 
669	 0,281456040542835 
670	 0,280969283713832 
671	 0,280710011307715 
672	 0,280768315882784 
673	 0,280938928963657 
674	 0,28102522859555 
675	 0,280573186656067 
676	 0,280716483332848 
677	 0,281549280793923 
678	 0,280974025974026 
679	 0,280213743397584 
680	 0,280894011739445 
681	 0,281478206268519 
682	 0,281666394952129 
683	 0,281599457661053 
684	 0,282044250205906 
685	 0,283401329892222 
686	 0,284759044565517 
687	 0,286207731746068 
688	 0,288149628129931 
689	 0,290139802620607 
690	 0,292280094781212 
691	 0,295486121187764 
692	 0,299322345998458 
693	 0,303379795077932 
694	 0,308139023386827 
695	 0,313577967156485 
696	 0,319405387872991 
697	 0,3259055487113 
698	 0,333063649355296 
699	 0,340166412947468 
700	 0,347549689494114 
701	 0,355702394331084 
702	 0,36434578514041 
703	 0,373083315671924 
704	 0,381075946320966 
705	 0,388317382674734 
706	 0,394954268007925 
707	 0,402222599425751 
708	 0,409887667270837 
709	 0,417239275299495 
710	 0,423655386616696 
711	 0,429125062546551 
712	 0,434747027953846 
713	 0,440338215095087 
714	 0,445650444795115 
715	 0,450393697672372 
716	 0,454567213614616 
717	 0,458312757102843 
718	 0,461861820066342 
719	 0,465348254212066 
720	 0,468848323440961 
721	 0,472092343098062 
722	 0,474729305336734 
723	 0,476998959027387 
724	 0,479177638280134 
725	 0,48193458862032 
726	 0,484465468774659 
727	 0,486291088090852 
728	 0,487950349258714 
729	 0,489513044859181 
730	 0,490979019545299 
731	 0,492131248659245 
732	 0,493055917637969 
733	 0,494400433571204 
734	 0,495680878756172 
735	 0,496490738393357 
736	 0,497463190973635 
737	 0,498528001887072 
738	 0,499204510637792 
739	 0,499918871122742 
740	 0,500793772632977 
741	 0,501583565413886 
742	 0,502191163861331 
743	 0,502537960544626 
744	 0,503007064946346 
745	 0,503591187812923 
746	 0,503923235325852 
747	 0,504418271918004 
748	 0,505188926663429 
749	 0,50534289118405 
750	 0,505274245632553 
751	 0,505734946220676 
752	 0,506430591995236 
753	 0,507113551634037 
754	 0,507201797936755 
755	 0,507075207534712 
756	 0,507092328233628 
757	 0,507820952840549 
758	 0,508732381540467 
759	 0,508579694063565 
760	 0,508358447481651 
761	 0,50838634811857 
762	 0,508485743566706 
763	 0,508668647618706 
764	 0,508941739565204 
765	 0,509209888185823 
766	 0,509422463683326 
767	 0,509491553504374 
768	 0,509691738776751 
769	 0,510047791363322 
770	 0,510062299977326 
771	 0,509779187375566 
772	 0,509320684340058 
773	 0,509407109451416 
774	 0,510014151418157 
775	 0,510540782203591 
776	 0,510885834097156 
777	 0,510977569131086 
778	 0,510874882283247 
779	 0,510871443973444 
780	 0,511372057843507 
781	 0,511633709991853 
782	 0,511515699161191 
783	 0,511250687290142 
784	 0,511285991932992 
785	 0,511805038615094 
786	 0,511636614714367 
787	 0,511179739661419 
788	 0,511436155987271 
789	 0,511805425900962 
790	 0,512055605223709 
791	 0,512030808359695 
792	 0,511837691284188 
793	 0,511629015239803 
794	 0,511987616802253 
795	 0,512631584575953 
796	 0,512774392882938 
797	 0,512670700643544 
798	 0,512509754418799 
799	 0,512845271933523 
800	 0,513120702812665 
801	 0,51283451702442 
802	 0,512877556797397 
803	 0,513185646330393 
804	 0,513163132262611 
805	 0,513083254516982 
806	 0,513107354104358 
807	 0,513577485978004 
808	 0,514051652484326 
809	 0,514049051172635 
810	 0,514011862597198 
811	 0,514111215541315 
812	 0,514571467588701 
813	 0,514879996783317 
814	 0,514901058680949 
815	 0,515303027988848 
816	 0,515771726035927 
817	 0,515870030462722 
818	 0,515573339615148 
819	 0,515220659435803 
820	 0,515793553896486 
821	 0,516460825060534 
822	 0,516823199605016 
823	 0,517168998863362 
824	 0,517405015723728 
825	 0,517393023867107 
826	 0,517272144889885 
827	 0,517151721531729 
828	 0,517147675678441 
829	 0,517545746839321 
830	 0,51835555099597 
831	 0,518631646741561 
832	 0,518541679054063 
833	 0,518468403268645 
834	 0,51870009993384 
835	 0,519175071340899 
836	 0,519440648624045 
837	 0,519378830004605 
838	 0,519054608403845 
839	 0,519432903316378 
840	 0,520020619978125 
841	 0,519978542896727 
842	 0,519841907516049 
843	 0,519758163799082 
844	 0,519652408716301 
845	 0,520117644976681 
846	 0,521239269568647 
847	 0,521310664237635 
848	 0,520605354629236 
849	 0,519797417575907 
850	 0,520181238059151 
851	 0,521495051548834 
852	 0,521729251338645 
853	 0,521447631737383 
854	 0,521042140127476 
855	 0,521032394511575 
856	 0,521377279904332 
857	 0,521908552880574 
858	 0,521800584142446 
859	 0,521268061199096 
860	 0,521689445705546 
861	 0,522302048650319 
862	 0,522665989165097 
863	 0,522739747260452 
864	 0,522504858270376 
865	 0,521979630244107 
866	 0,522446519588749 
867	 0,523626832082899 
868	 0,523713871335044 
869	 0,523585219505704 
870	 0,523680647853015 
871	 0,524058339363718 
872	 0,52446110715754 
873	 0,524576172774854 
874	 0,524675980157706 
875	 0,524739978796888 
876	 0,52444697719839 
877	 0,524617097730255 
878	 0,525429355351053 
879	 0,525780098846163 
880	 0,525688559483194 
881	 0,525321370261968 
882	 0,525423641651499 
883	 0,525908095255557 
884	 0,526104099439654 
885	 0,526253290464721 
886	 0,52639003533831 
887	 0,526285973478789 
888	 0,526453974655142 
889	 0,527266390084439 
890	 0,526968298736561 
891	 0,526296014795029 
892	 0,527645858939389 
893	 0,528160357798709 
894	 0,527403359156113 
895	 0,527870694461044 
896	 0,528452544270011 
897	 0,528268587470322 
898	 0,528102563287396 
899	 0,528145828011699 
900	 0,52852042196825 
901	 0,528877178514799 
902	 0,529140235262538 
903	 0,529517414338185 
904	 0,529768599163762 
905	 0,52970827744761 
906	 0,529070206091781 
907	 0,528702909705209 
908	 0,529798198881295 
909	 0,530500246534068 
910	 0,530270095517472 
911	 0,528880250657663 
912	 0,528334148639196 
913	 0,529321234441729 
914	 0,529482062671011 
915	 0,529107540230978 
916	 0,528797814942574 
917	 0,529322905329162 
918	 0,530154344818128 
919	 0,529572661432602 
920	 0,528587001295629 
921	 0,527973616820581 
922	 0,529562551936059 
923	 0,531009058877288 
924	 0,530455198374559 
925	 0,530664980436602 
926	 0,530886871369364 
927	 0,528935215272973 
928	 0,528607587700417 
929	 0,530011279773295 
930	 0,529234304562149 
931	 0,528622609940532 
932	 0,529317116893791 
933	 0,529065455721392 
934	 0,528486579596593 
935	 0,528645162327662 
936	 0,528512322507807 
937	 0,527990169725318 
938	 0,52726457261589 
939	 0,527690704704011 
940	 0,529029267096247 
941	 0,52705363740009 
942	 0,525398059219624 
943	 0,527142826905235 
944	 0,527302517432738 
945	 0,526307185556793 
946	 0,526562958614617 
947	 0,525574178286172 
948	 0,523618310224483 
949	 0,524156701927807 
950	 0,525045110616793 
951	 0,524974378016362 
952	 0,524406894781473 
953	 0,522882812607417 
954	 0,519983295816335 
955	 0,518971870579381 
956	 0,519640471897475 
957	 0,519622530392094 
958	 0,518651301516269 
959	 0,517195189473426 
960	 0,518307273616434 
961	 0,519383386094522 
962	 0,518404017393184 
963	 0,516608197225645 
964	 0,515393204213843 
965	 0,516520149660278 
966	 0,517163435129671 
967	 0,516600572103418 
968	 0,514764753662171 
969	 0,514647420786328 
970	 0,516990475313749 
971	 0,518115347592498 
972	 0,517936759108511 
973	 0,516792045888885 
974	 0,516429931853133 
975	 0,516747202127594 
976	 0,51691725009994 
977	 0,517690587386308 
978	 0,518626075360936 
979	 0,517638435495195 
980	 0,516987705900113 
981	 0,517388781316672 
982	 0,515541577438408 
983	 0,514643182528645 
984	 0,517672111116769 
985	 0,517632270981873 
986	 0,5161313573441 
987	 0,518857596295497 
988	 0,520808093572815 
989	 0,520944650637247 
990	 0,521035991450536 
991	 0,520125750609811 
992	 0,518459563938811 
993	 0,520214361806016 
994	 0,522323721879091 
995	 0,521437849495306 
996	 0,520175054236792 
997	 0,519333815631645 
998	 0,519387335539891 
999	 0,521287138598222 
1000	 0,524052788858073 
1001	 0,523341840576758 
1002	 0,522837094368625 
1003	 0,523966074915165 
1004	 0,523129035389711 
1005	 0,522835032599761 
1006	 0,525476059156072 
1007	 0,527519002001792 
1008	 0,528141772453412 
1009	 0,526970761479651 
1010	 0,52954124376129 
1011	 0,533967727145161 
1012	 0,528318553018825 
1013	 0,526167226159332 
1014	 0,531437326157656 
1015	 0,530769041819865 
1016	 0,53032498368312 
1017	 0,534889931024261 
1018	 0,533972485684624 
1019	 0,530906434012458 
1020	 0,532726010375116 
1021	 0,53487540501419 
1022	 0,535367131349476 
1023	 0,531407993174882 
1024	 0,5300329747982 
1025	 0,532501584971508 
1026	 0,531813200959586 
1027	 0,53249808658114 
1028	 0,536545929623028 
1029	 0,53535179637754 
1030	 0,533411895696934 
1031	 0,536547393183193 
1032	 0,535122516489875 
1033	 0,531496934694136 
1034	 0,533764655717208 
1035	 0,535934415372995 
1036	 0,537452845976574 
1037	 0,543099965538266 
1038	 0,545206380442758 
1039	 0,54212018299446 
1040	 0,546693959880961 
1041	 0,550706082242515 
1042	 0,547506647125626 
1043	 0,544548492635675 
1044	 0,541596553343232 
1045	 0,537202622185454 
1046	 0,541322305654841 
1047	 0,550053443884623 
1048	 0,549039221683007 
1049	 0,542686890590116 
1050	 0,535613108643664 
1051	 0,538551889127508 
1052	 0,543205676806379 
1053	 0,543938307641994 
1054	 0,535430928137334 
1055	 0,526904811481062 
1056	 0,527148356905847 
1057	 0,5366016517437 
1058	 0,54682972084001 
1059	 0,546919913178813 
1060	 0,542714782411754 
1061	 0,538609112227536 
1062	 0,540502226442317 
1063	 0,549901060134527 
1064	 0,561264698157773 
1065	 0,555206962332517 
1066	 0,541368767188284 
1067	 0,530086567498677 
1068	 0,549643748259558 
1069	 0,556899199332044 
1070	 0,525053284576743 
1071	 0,518498094767756 
1072	 0,533987326576692 
1073	 0,554225650731351 
1074	 0,552135621882694 
1075	 0,539253600890794 
