Wavelength	GRA-VAN00552.asd
325	 0,258131143085773 
326	 0,200024107211344 
327	 0,22602333938775 
328	 0,325200573249223 
329	 0,245506010436668 
330	 0,124644313170813 
331	 0,204920776156929 
332	 0,227841766000469 
333	 0,206809503372839 
334	 0,134504446955924 
335	 6,96123314102828E-02 
336	 6,80742554882649E-02 
337	 0,108708152371866 
338	 0,140362108152784 
339	 0,121034992607196 
340	 0,131711005951434 
341	 0,154166584884551 
342	 0,140212385030697 
343	 8,74124348986731E-02 
344	 3,46634078061394E-02 
345	 3,82310409322816E-02 
346	 8,14445934660431E-02 
347	 0,133533671880118 
348	 0,079257905627163 
349	-3,46997235530315E-02 
350	-7,54103223760594E-03 
351	 4,22781077631077E-02 
352	 6,03215284249767E-02 
353	 0,07265829963566 
354	 7,02093971358539E-02 
355	 0,039304030914441 
356	 4,51198153155634E-02 
357	 7,76990899112255E-02 
358	 8,01704757453263E-02 
359	 6,40003108121812E-02 
360	 4,12852758567734E-02 
361	 3,75674153671804E-02 
362	 4,52838693296741E-02 
363	 5,24583646614958E-02 
364	 0,05491357583141 
365	 5,09692907749584E-02 
366	 0,03775495160061 
367	 4,38455806542811E-02 
368	 7,76506701680469E-02 
369	 6,78503617335673E-02 
370	 3,33637407173846E-02 
371	 1,96043384442424E-02 
372	 3,08024552778092E-02 
373	 5,29877717573852E-02 
374	 2,93926852430386E-02 
375	 8,30471227738473E-03 
376	 2,68898859944819E-02 
377	 2,61655351434095E-02 
378	 1,51141198210588E-02 
379	 3,50323594344946E-02 
380	 4,05562275718081E-02 
381	 2,80454091762723E-02 
382	 0,048499206401943 
383	 6,56670830531716E-02 
384	 4,77477597230583E-02 
385	 5,58020334209531E-02 
386	 7,33916749920502E-02 
387	 2,68762802722874E-02 
388	 4,71201681380141E-03 
389	 3,51418785049867E-02 
390	 3,66428660677349E-02 
391	 2,80409778838826E-02 
392	 3,78984734801994E-02 
393	 3,83079787534345E-02 
394	 2,87085222170531E-02 
395	 2,36925542186826E-02 
396	 2,38572673596603E-02 
397	 2,90528372710164E-02 
398	 3,58034583561926E-02 
399	 3,92988498892225E-02 
400	 3,33140057094387E-02 
401	 3,33847692279247E-02 
402	 4,03035597338033E-02 
403	 4,34960336608649E-02 
404	 3,74997915294026E-02 
405	 2,09226883420073E-02 
406	 2,15308900394491E-02 
407	 3,10763282545817E-02 
408	 2,56874004993668E-02 
409	 0,025160978982342 
410	 3,17636205953676E-02 
411	 2,88784684076241E-02 
412	 2,43483924944108E-02 
413	 2,58821653140321E-02 
414	 2,56350292157246E-02 
415	 2,30509213200953E-02 
416	 1,99108517638395E-02 
417	 0,017988412572982 
418	 1,80376390706004E-02 
419	 1,81453573151047E-02 
420	 2,04785625621019E-02 
421	 0,028025156868229 
422	 2,84298272643162E-02 
423	 2,21675040920118E-02 
424	 2,02240317636916E-02 
425	 2,18324314937606E-02 
426	 2,59540321462449E-02 
427	 2,77843204454838E-02 
428	 2,78552733732117E-02 
429	 2,90616370605536E-02 
430	 2,50548495861165E-02 
431	 0,016613014965221 
432	 1,41266238898603E-02 
433	 0,018374300760959 
434	 2,82751177686434E-02 
435	 2,47641000463977E-02 
436	 1,32891676211884E-02 
437	 1,74115848092287E-02 
438	 0,020691599342275 
439	 1,80464723923572E-02 
440	 1,94877849906525E-02 
441	 2,29742141034279E-02 
442	 0,024890919405748 
443	 0,02373248038327 
444	 2,10833096946058E-02 
445	 2,37630584442575E-02 
446	 2,57467968110753E-02 
447	 2,35782884390407E-02 
448	 0,022030030917017 
449	 2,14586396106396E-02 
450	 2,10145938505532E-02 
451	 2,33480233251442E-02 
452	 2,73323160162464E-02 
453	 2,47932678958479E-02 
454	 2,08307977683379E-02 
455	 2,05277079261834E-02 
456	 2,32020989523116E-02 
457	 2,61074986729942E-02 
458	 2,19911258061603E-02 
459	 2,03766502475278E-02 
460	 2,42780593679891E-02 
461	 2,45312238740355E-02 
462	 0,022501016646427 
463	 2,11152187200164E-02 
464	 2,02660747282637E-02 
465	 2,06181689376992E-02 
466	 2,40662414054576E-02 
467	 2,72040134540252E-02 
468	 2,77928364330826E-02 
469	 2,79446199311118E-02 
470	 0,027022332546322 
471	 2,26816399154105E-02 
472	 0,021528339414013 
473	 2,43995837465333E-02 
474	 2,37223982172431E-02 
475	 2,22218117466079E-02 
476	 2,29338076713765E-02 
477	 2,35594159634169E-02 
478	 2,40491549151753E-02 
479	 2,58490308863465E-02 
480	 2,60327827148494E-02 
481	 2,39747371841736E-02 
482	 2,61090670250178E-02 
483	 2,84268768292098E-02 
484	 2,40455357100842E-02 
485	 2,25109931622915E-02 
486	 2,48715136366409E-02 
487	 2,46758646617585E-02 
488	 2,39632775761033E-02 
489	 2,42655831869962E-02 
490	 2,40009609700254E-02 
491	 2,36772745825726E-02 
492	 2,51535956515395E-02 
493	 0,025694512692295 
494	 0,024697677996689 
495	 2,47677997090369E-02 
496	 2,46688286141174E-02 
497	 2,28473267396757E-02 
498	 2,22123087353309E-02 
499	 2,30465411135821E-02 
500	 2,42901810443877E-02 
501	 2,44250436413706E-02 
502	 2,29103417857585E-02 
503	 0,023021444407069 
504	 2,42117643803925E-02 
505	 2,47922688474351E-02 
506	 2,51145312776284E-02 
507	 2,53755561867366E-02 
508	 0,026392272054258 
509	 0,026761251074955 
510	 2,52982013980461E-02 
511	 2,41125558195243E-02 
512	 0,023520862749941 
513	 2,27182763261976E-02 
514	 2,40650419983643E-02 
515	 2,77892595909957E-02 
516	 2,87638431073779E-02 
517	 2,78383935096247E-02 
518	 2,69102409684677E-02 
519	 2,71187309869309E-02 
520	 2,80903890229918E-02 
521	 2,71053104524407E-02 
522	 2,55710115768218E-02 
523	 2,47099806898884E-02 
524	 2,55185857558393E-02 
525	 2,73088377152383E-02 
526	 2,84766262409858E-02 
527	 2,83589961880603E-02 
528	 2,69895567989519E-02 
529	 2,63191497538546E-02 
530	 2,60225751856496E-02 
531	 2,55373348770962E-02 
532	 2,53829816927977E-02 
533	 2,54583051631663E-02 
534	 2,49689826539054E-02 
535	 2,52379417759691E-02 
536	 2,67585085623093E-02 
537	 2,67578202177151E-02 
538	 2,59822004754985E-02 
539	 2,64682874531244E-02 
540	 2,72595865779525E-02 
541	 0,027897695188327 
542	 2,76970517970024E-02 
543	 2,71467569058882E-02 
544	 2,67683133089617E-02 
545	 0,026402464344452 
546	 2,62343831464128E-02 
547	 2,69079146940453E-02 
548	 0,027083964977284 
549	 2,63718346742501E-02 
550	 2,71006220947507E-02 
551	 2,82919554429611E-02 
552	 2,80596991853678E-02 
553	 2,75253901459728E-02 
554	 2,70122158589309E-02 
555	 2,63537603038566E-02 
556	 2,62682307947707E-02 
557	 2,72497229034853E-02 
558	 2,78334354210359E-02 
559	 0,027767412133353 
560	 2,71393866473781E-02 
561	 2,65709650803501E-02 
562	 2,64211964241353E-02 
563	 2,68718806967009E-02 
564	 2,73890411281469E-02 
565	 2,72738259644187E-02 
566	 2,69660499545803E-02 
567	 2,67092316782443E-02 
568	 2,69349869706685E-02 
569	 2,71351688678923E-02 
570	 2,69696474665702E-02 
571	 0,026780062899708 
572	 2,68110605221803E-02 
573	 2,74500630201022E-02 
574	 2,82887016801901E-02 
575	 2,90286478619246E-02 
576	 2,91121520431706E-02 
577	 2,90141271376898E-02 
578	 2,93074038199888E-02 
579	 2,94471761429508E-02 
580	 2,95622225787288E-02 
581	 3,04964118049939E-02 
582	 3,10431632686559E-02 
583	 3,06615035048168E-02 
584	 3,09852966628471E-02 
585	 3,17160229155993E-02 
586	 3,19655263491288E-02 
587	 3,19637272122419E-02 
588	 3,19432283034112E-02 
589	 3,27313349200961E-02 
590	 3,33231369234389E-02 
591	 3,28194202399697E-02 
592	 3,27650299117004E-02 
593	 3,31084353618329E-02 
594	 3,28025320554164E-02 
595	 3,25881929445644E-02 
596	 3,27539790241398E-02 
597	 3,28590941539853E-02 
598	 3,27291133718429E-02 
599	 3,21602202319695E-02 
600	 0,032037617780796 
601	 3,24674235670566E-02 
602	 3,28051805198073E-02 
603	 3,29170689989161E-02 
604	 3,26957784668781E-02 
605	 3,20474516881333E-02 
606	 3,13548118569528E-02 
607	 3,15713616638787E-02 
608	 3,16934675784669E-02 
609	 3,13890261987148E-02 
610	 3,10788556576925E-02 
611	 3,10424438129575E-02 
612	 3,15679844895199E-02 
613	 3,17106874798592E-02 
614	 3,13096675118782E-02 
615	 3,06607746288421E-02 
616	 3,02031520688061E-02 
617	 3,02667487985347E-02 
618	 3,10588338992289E-02 
619	 3,17524984326991E-02 
620	 3,06542597065768E-02 
621	 2,99578016644713E-02 
622	 3,02542615695018E-02 
623	 3,04639582934947E-02 
624	 3,06450882701746E-02 
625	 3,09046399219325E-02 
626	 0,030789374869801 
627	 3,06203206642468E-02 
628	 0,031769867986144 
629	 3,21092130016128E-02 
630	 0,030857579585002 
631	 3,10169991102852E-02 
632	 3,18934844904607E-02 
633	 3,17770939567951E-02 
634	 3,16623743821695E-02 
635	 3,18922513264464E-02 
636	 3,28267280122471E-02 
637	 3,33413395289547E-02 
638	 3,25926587295095E-02 
639	 3,26310108793661E-02 
640	 3,32678069565743E-02 
641	 0,032868360369713 
642	 3,33092681926169E-02 
643	 3,49095274440188E-02 
644	 3,48186565126059E-02 
645	 3,41975997290659E-02 
646	 3,48850327562859E-02 
647	 3,49641063588576E-02 
648	 3,42602461502698E-02 
649	 3,37840927273873E-02 
650	 3,36558665302897E-02 
651	 3,39001309312198E-02 
652	 3,38467853295857E-02 
653	 3,36446496781026E-02 
654	 3,38715071075453E-02 
655	 3,38619344234084E-02 
656	 3,32834488812619E-02 
657	 3,16276800159409E-02 
658	 3,03006912636253E-02 
659	 3,07151550744363E-02 
660	 3,10104991897673E-02 
661	 3,07947221652613E-02 
662	 3,01797510975458E-02 
663	 2,97370825775291E-02 
664	 2,97167041390468E-02 
665	 2,95112499743654E-02 
666	 2,91786494967841E-02 
667	 2,89435497044964E-02 
668	 2,82812398031863E-02 
669	 2,74407588017349E-02 
670	 2,79174233311366E-02 
671	 2,85975632337752E-02 
672	 2,85860414506697E-02 
673	 2,87573729571153E-02 
674	 2,91055021317691E-02 
675	 2,93512948282677E-02 
676	 2,91772576096716E-02 
677	 2,86433591440498E-02 
678	 2,88459322667566E-02 
679	 2,92592557644518E-02 
680	 2,91566715615199E-02 
681	 2,89192718622005E-02 
682	 2,88568472623495E-02 
683	 0,02968002374763 
684	 3,04535592956696E-02 
685	 3,06389468220646E-02 
686	 3,07469849168004E-02 
687	 3,10168044088557E-02 
688	 3,17402380980749E-02 
689	 3,24856839845609E-02 
690	 3,31427491603299E-02 
691	 3,37440116227735E-02 
692	 3,48834030268269E-02 
693	 0,037037621151143 
694	 3,92337188189317E-02 
695	 0,041303265041201 
696	 4,32256226581681E-02 
697	 4,59171356864629E-02 
698	 0,049644397527406 
699	 5,32623494899396E-02 
700	 5,71248901842327E-02 
701	 6,18132424416401E-02 
702	 0,066740554865961 
703	 7,15853136463504E-02 
704	 7,58374991656272E-02 
705	 0,080439575954207 
706	 8,58575255967778E-02 
707	 9,06793885020427E-02 
708	 9,51040984257423E-02 
709	 9,99144125817561E-02 
710	 0,104198956543993 
711	 0,107886866097499 
712	 0,111933773336942 
713	 0,115984448082595 
714	 0,119656719196798 
715	 0,122887081957593 
716	 0,125873787721322 
717	 0,129182663053238 
718	 0,132230411194997 
719	 0,134799539081403 
720	 0,137142907466104 
721	 0,139321673414193 
722	 0,14139086544283 
723	 0,142990016463019 
724	 0,144294686845124 
725	 0,146184203312629 
726	 0,147784175450435 
727	 0,14864985242354 
728	 0,1498566032887 
729	 0,15125361914977 
730	 0,152300885537952 
731	 0,153334547475192 
732	 0,154350729630184 
733	 0,154898028720284 
734	 0,155493278189784 
735	 0,156530181576186 
736	 0,156830240028451 
737	 0,156744016330632 
738	 0,157673770775394 
739	 0,15859172604416 
740	 0,159116003910042 
741	 0,15942835399404 
742	 0,159707676256515 
743	 0,160142042195856 
744	 0,160444642786077 
745	 0,160616426063905 
746	 0,160868976818495 
747	 0,161070266700524 
748	 0,161180591882036 
749	 0,161428979473875 
750	 0,161721363795949 
751	 0,1618711358691 
752	 0,16206174185729 
753	 0,162330584814433 
754	 0,162605095404974 
755	 0,162950338519961 
756	 0,163371592307825 
757	 0,163467437851065 
758	 0,163351152832528 
759	 0,163353476128329 
760	 0,1635691505717 
761	 0,163929990724091 
762	 0,163917008208526 
763	 0,163788671477634 
764	 0,163818082888723 
765	 0,163943905240387 
766	 0,164171569137946 
767	 0,164592219538517 
768	 0,164716140493243 
769	 0,164455245224427 
770	 0,164513298458232 
771	 0,164966758948872 
772	 0,16580027000066 
773	 0,165957860074375 
774	 0,165498026155963 
775	 0,165387771725747 
776	 0,165466552630946 
777	 0,165636233233197 
778	 0,16565877054761 
779	 0,165623313432886 
780	 0,165707281417527 
781	 0,165718913266895 
782	 0,165698056442543 
783	 0,166002239586217 
784	 0,166124934479479 
785	 0,165808907161629 
786	 0,165891634874247 
787	 0,166209732322979 
788	 0,166241480962013 
789	 0,166460892650348 
790	 0,166907742221251 
791	 0,167248876596491 
792	 0,167216617695448 
793	 0,166682791434539 
794	 0,166512237458187 
795	 0,166755207483153 
796	 0,167217302103648 
797	 0,167369161204856 
798	 0,167090904038011 
799	 0,166860606339707 
800	 0,16684542859692 
801	 0,16713575249027 
802	 0,167007576266495 
803	 0,166744594647982 
804	 0,167548517068738 
805	 0,167736971474413 
806	 0,166974998826669 
807	 0,167097535933205 
808	 0,167559104999324 
809	 0,167644585430578 
810	 0,167650417881524 
811	 0,167722610943594 
812	 0,168110571376024 
813	 0,16862650122064 
814	 0,169063265740885 
815	 0,168805675099916 
816	 0,168360283410632 
817	 0,168388908147371 
818	 0,168681161838934 
819	 0,169066362230963 
820	 0,169222522461663 
821	 0,169109832610779 
822	 0,168800686959641 
823	 0,168848365163173 
824	 0,169233631409831 
825	 0,169841507092225 
826	 0,170574772937752 
827	 0,171039139438199 
828	 0,170080911890405 
829	 0,169624130555157 
830	 0,170476299304122 
831	 0,17063343187526 
832	 0,170218722949061 
833	 0,169708827858831 
834	 0,169904346172533 
835	 0,170661185382656 
836	 0,170781193383756 
837	 0,170718274772183 
838	 0,170670908171251 
839	 0,170251006939719 
840	 0,169936172632917 
841	 0,170422470193063 
842	 0,170651530756732 
843	 0,170509490057073 
844	 0,170559022830608 
845	 0,170770105282775 
846	 0,171074009597469 
847	 0,171142778854686 
848	 0,170851113020221 
849	 0,170093306809682 
850	 0,169914295371012 
851	 0,170374894633095 
852	 0,170672715810315 
853	 0,171030646769226 
854	 0,171439575315721 
855	 0,171218394368863 
856	 0,170595066850346 
857	 0,169989452260818 
858	 0,16992508277534 
859	 0,1703485524683 
860	 0,170668288360461 
861	 0,17053825030766 
862	 0,169948998728717 
863	 0,170220448316831 
864	 0,17080222651524 
865	 0,170801686484443 
866	 0,170561676886776 
867	 0,170276027528866 
868	 0,170246115107313 
869	 0,170477596007221 
870	 0,17099171539961 
871	 0,172014351456343 
872	 0,172505389743897 
873	 0,171302061199944 
874	 0,17103310215989 
875	 0,171722683114007 
876	 0,17158669549445 
877	 0,171621914171916 
878	 0,172067326613455 
879	 0,171935361105914 
880	 0,171731113677941 
881	 0,172063450061685 
882	 0,172661039145728 
883	 0,173104107400511 
884	 0,172366039195462 
885	 0,172171070844952 
886	 0,172900421777816 
887	 0,172942474205618 
888	 0,172683370221766 
889	 0,172581155977831 
890	 0,172501403194003 
891	 0,17272250724499 
892	 0,173978325648099 
893	 0,174251607180944 
894	 0,173338765911496 
895	 0,173660083276203 
896	 0,17397955233841 
897	 0,173366907399205 
898	 0,173204759921166 
899	 0,173173846273301 
900	 0,172281423111708 
901	 0,172469492812165 
902	 0,173671790980861 
903	 0,17347529593798 
904	 0,17311507126326 
905	 0,173378337890822 
906	 0,173913502753652 
907	 0,174459025266957 
908	 0,174704298933142 
909	 0,174366764546878 
910	 0,173822368592512 
911	 0,174563700950886 
912	 0,174652755135523 
913	 0,173456397677442 
914	 0,173032186147814 
915	 0,173343977942218 
916	 0,174095041105243 
917	 0,174548140468778 
918	 0,174677564819563 
919	 0,174909307527685 
920	 0,175161837129468 
921	 0,175305957600973 
922	 0,174848139684631 
923	 0,174207192430139 
924	 0,173845775228077 
925	 0,174650342117556 
926	 0,175342738530005 
927	 0,173352481900857 
928	 0,172993886389771 
929	 0,174636615014603 
930	 0,174838567097043 
931	 0,174425500011311 
932	 0,1739482753894 
933	 0,173848213574698 
934	 0,173590589391083 
935	 0,172464564599363 
936	 0,172296194099635 
937	 0,172872747211224 
938	 0,172437741452865 
939	 0,171639238599076 
940	 0,170946919490297 
941	 0,17153369036529 
942	 0,172058721423679 
943	 0,171387008544321 
944	 0,17129639436214 
945	 0,171432306071881 
946	 0,170628796504387 
947	 0,169417751135478 
948	 0,168363042621651 
949	 0,168885360736099 
950	 0,169276605423108 
951	 0,168637659714771 
952	 0,168243149666696 
953	 0,167659475112853 
954	 0,166302809797756 
955	 0,166334275131696 
956	 0,167011886590713 
957	 0,165039606028281 
958	 0,164423990980553 
959	 0,165940096721899 
960	 0,166497173233985 
961	 0,166298577362389 
962	 0,165651669539445 
963	 0,165359554432298 
964	 0,164709621683043 
965	 0,162454775635876 
966	 0,162236934615566 
967	 0,163880128858231 
968	 0,163724974889985 
969	 0,164312492134957 
970	 0,165996282923474 
971	 0,164995178792067 
972	 0,163303217850893 
973	 0,163036119551645 
974	 0,164533556086282 
975	 0,1657253476332 
976	 0,162813669215456 
977	 0,161947570557583 
978	 0,164245226016487 
979	 0,167761453853602 
980	 0,167618460265921 
981	 0,162805498746243 
982	 0,163110274816087 
983	 0,165118618344814 
984	 0,164698806917275 
985	 0,165734136014877 
986	 0,1669208924993 
987	 0,164419098396769 
988	 0,164960747359053 
989	 0,168715978179593 
990	 0,169243225134617 
991	 0,167105072580519 
992	 0,163799882077205 
993	 0,166594307876096 
994	 0,169366901990971 
995	 0,165885734896917 
996	 0,167352445483316 
997	 0,171858377239586 
998	 0,17178962577673 
999	 0,171125223102423 
1000	 0,171059109590287 
1001	 0,172347554689569 
1002	 0,171201932860065 
1003	 0,166878995766982 
1004	 0,16679307888434 
1005	 0,169162590573925 
1006	 0,17135458165618 
1007	 0,171376128889095 
1008	 0,169901603772093 
1009	 0,168844527369408 
1010	 0,170340354817165 
1011	 0,173570091792385 
1012	 0,173781897895005 
1013	 0,173654647311697 
1014	 0,174493536988827 
1015	 0,176829007378232 
1016	 0,178566179394926 
1017	 0,177851362785129 
1018	 0,17422434807031 
1019	 0,171218847009447 
1020	 0,173893635181257 
1021	 0,176404183075198 
1022	 0,17688739859153 
1023	 0,173565858429664 
1024	 0,175670545704208 
1025	 0,183172258488265 
1026	 0,180669703278299 
1027	 0,176872365634806 
1028	 0,177953273869074 
1029	 0,182242236997485 
1030	 0,184398108006695 
1031	 0,179020505773539 
1032	 0,175852437141672 
1033	 0,176638979919202 
1034	 0,180916198879859 
1035	 0,180607156888324 
1036	 0,176509555018033 
1037	 0,180957448318685 
1038	 0,183258900490289 
1039	 0,180284361871947 
1040	 0,182358700524003 
1041	 0,185795114394623 
1042	 0,18692672116928 
1043	 0,186411815188303 
1044	 0,181870989537447 
1045	 0,171073650741014 
1046	 0,171326006780958 
1047	 0,17970254522649 
1048	 0,179841736605659 
1049	 0,184850379515971 
1050	 0,192823160893813 
1051	 0,182851914225485 
1052	 0,176964363298691 
1053	 0,184441721608961 
1054	 0,184870223506938 
1055	 0,187052554665751 
1056	 0,197289677519971 
1057	 0,19541237553051 
1058	 0,190075793064335 
1059	 0,196782073020879 
1060	 0,194181801647436 
1061	 0,185384410819303 
1062	 0,188243822118877 
1063	 0,184512565238763 
1064	 0,173176248780348 
1065	 0,170743467817544 
1066	 0,173816897878025 
1067	 0,180239904515051 
1068	 0,189972724204304 
1069	 0,189959219594885 
1070	 0,175378348341968 
1071	 0,188730709161659 
1072	 0,205241738688082 
1073	 0,190784730110129 
1074	 0,181557917658308 
1075	 0,184639327794159 
