Wavelength	GRA-BER00395.asd
325	 7,00520453637787E-02 
326	 0,329337205603893 
327	 0,364745134768407 
328	 0,167125826317871 
329	 0,10947775970582 
330	 8,99042383203155E-02 
331	 3,55083249078988E-02 
332	 5,53612016997727E-03 
333	-7,77794861127441E-05 
334	-5,82896577163672E-03 
335	 1,02359062727682E-02 
336	 6,06430743255863E-02 
337	 0,189776468200929 
338	 0,21522552849409 
339	 9,13432068977291E-03 
340	-6,93258094820955E-02 
341	-1,22836326252389E-02 
342	-6,84787789433313E-03 
343	-2,99969496885086E-03 
344	 1,31935587212951E-02 
345	 6,21600411333315E-02 
346	 0,105270096008386 
347	 0,102406146520771 
348	 3,87782130459634E-02 
349	-4,32462739215351E-02 
350	-0,010441704385828 
351	 1,91351316604426E-02 
352	 5,08006145171764E-03 
353	 2,44456723436656E-02 
354	 5,21845460050726E-02 
355	 4,83325942699785E-02 
356	 3,24293075142706E-02 
357	 1,70212311133141E-02 
358	 2,46039442235706E-02 
359	 0,052824702683182 
360	 8,59985806253598E-02 
361	 3,88369536121026E-02 
362	-1,96295023343485E-02 
363	 2,03318009916657E-02 
364	 6,51067722005937E-02 
365	 8,22659944091897E-02 
366	 5,71764777669533E-02 
367	 2,85403558724796E-02 
368	 2,18484307730196E-02 
369	 1,59870227349043E-02 
370	 6,58819672544557E-03 
371	-1,29576890264074E-02 
372	 4,41713829852031E-04 
373	 4,13279427595223E-02 
374	 4,07439816559468E-02 
375	 2,90379167559944E-02 
376	 2,86100049951024E-02 
377	 1,79528385222106E-02 
378	 1,09292668339893E-02 
379	 4,53095789345832E-02 
380	 4,61585520988499E-02 
381	 3,65056965904312E-03 
382	 5,59178050877596E-03 
383	 2,36718676061335E-02 
384	 2,68609183082023E-02 
385	 1,88761541740448E-02 
386	 6,27900508640185E-03 
387	 6,21880466629493E-03 
388	 8,64928925828015E-03 
389	 1,01620326175593E-02 
390	 1,36611233466251E-02 
391	 1,89952761685193E-02 
392	 2,55115826340225E-02 
393	 3,56062725204547E-02 
394	 4,15841670937152E-02 
395	 1,76311117282361E-02 
396	 5,84060579306598E-03 
397	 2,49505828576596E-02 
398	 2,73008105426696E-02 
399	 1,65291734699221E-02 
400	 5,18294024072666E-03 
401	 9,18637699204456E-03 
402	 2,49478924226836E-02 
403	 2,53254855269542E-02 
404	 1,82827892867951E-02 
405	 1,08131213802425E-02 
406	 1,13076924196998E-02 
407	 1,72956444057254E-02 
408	 2,25613170927406E-02 
409	 2,18934441579371E-02 
410	 1,48931388218466E-02 
411	 8,56316774684122E-03 
412	 4,06106527549119E-03 
413	 2,38471385814215E-03 
414	 9,85374930516544E-03 
415	 0,019722030573654 
416	 1,34478227269363E-02 
417	 7,78802392240637E-03 
418	 9,03322093172864E-03 
419	 8,83040274422514E-03 
420	 8,87647698558941E-03 
421	 1,21560423267581E-02 
422	 1,35546585332035E-02 
423	 1,30326713701218E-02 
424	 1,43186418905579E-02 
425	 1,66223176903928E-02 
426	 0,019037316763562 
427	 1,82631122479927E-02 
428	 0,016349267263504 
429	 1,79905046859554E-02 
430	 1,64718949281972E-02 
431	 1,20434825963434E-02 
432	 1,44526433568207E-02 
433	 1,82079716365254E-02 
434	 1,79875608810601E-02 
435	 1,30590072106784E-02 
436	 7,35966667981122E-03 
437	 1,14914963624566E-02 
438	 1,44557081844807E-02 
439	 0,012712816262179 
440	 0,013801327885986 
441	 1,56798889370441E-02 
442	 1,50829528939426E-02 
443	 1,29777881284388E-02 
444	 1,09048842661316E-02 
445	 1,31005322283653E-02 
446	 1,48315048118518E-02 
447	 1,31996689616676E-02 
448	 1,03170154353694E-02 
449	 9,00051642411305E-03 
450	 1,38142558717867E-02 
451	 1,83247381223554E-02 
452	 1,98662479044193E-02 
453	 1,71031808423659E-02 
454	 1,34042857581247E-02 
455	 1,21915155739234E-02 
456	 1,55024727314412E-02 
457	 2,01543209597451E-02 
458	 1,69644220883883E-02 
459	 1,35507992984999E-02 
460	 1,32921675229415E-02 
461	 1,54145231279175E-02 
462	 1,76866223456844E-02 
463	 1,73177609121774E-02 
464	 1,68510024426352E-02 
465	 1,63638813759562E-02 
466	 1,35271682359483E-02 
467	 1,18863908637691E-02 
468	 1,35443394344499E-02 
469	 1,41936109487941E-02 
470	 1,47722786172358E-02 
471	 1,88389848134578E-02 
472	 2,01970548272654E-02 
473	 1,72501733601798E-02 
474	 1,20756032184351E-02 
475	 1,03786615427008E-02 
476	 1,70028083871532E-02 
477	 1,80794037725251E-02 
478	 1,36774739711482E-02 
479	 1,17991095672959E-02 
480	 1,22008851434459E-02 
481	 1,43211461314175E-02 
482	 1,35241359938199E-02 
483	 0,012229939383636 
484	 1,48275484182007E-02 
485	 1,55397960678984E-02 
486	 1,35189283101359E-02 
487	 0,011434232374926 
488	 0,010907843430061 
489	 1,29243656832839E-02 
490	 1,46355607830862E-02 
491	 1,56624631975852E-02 
492	 1,65259736075594E-02 
493	 1,66866798865545E-02 
494	 1,60275883100031E-02 
495	 1,49204033582389E-02 
496	 1,37726126176007E-02 
497	 1,29989245472556E-02 
498	 1,18132120592927E-02 
499	 1,07054278203487E-02 
500	 1,16642437310097E-02 
501	 1,27489633958748E-02 
502	 1,29645372885869E-02 
503	 1,42004409290172E-02 
504	 1,51871573081695E-02 
505	 1,31844320111138E-02 
506	 1,27565735676661E-02 
507	 1,47074931762465E-02 
508	 1,60979010250173E-02 
509	 1,65945303336575E-02 
510	 1,60380444280701E-02 
511	 1,46671796648628E-02 
512	 1,31173559013667E-02 
513	 1,26144664962567E-02 
514	 1,28054625643947E-02 
515	 1,33330937011484E-02 
516	 1,29203038012554E-02 
517	 1,24258397409851E-02 
518	 1,32303785157877E-02 
519	 1,35445707586029E-02 
520	 1,31757818239246E-02 
521	 1,32242586000331E-02 
522	 1,32851602086141E-02 
523	 1,30887854784274E-02 
524	 1,30930641566596E-02 
525	 1,32991201472259E-02 
526	 1,36033549597734E-02 
527	 1,35674377030643E-02 
528	 1,33053168119375E-02 
529	 1,44857359880507E-02 
530	 1,54040374077618E-02 
531	 1,40574884974203E-02 
532	 1,31109351300719E-02 
533	 1,29200746181573E-02 
534	 1,23715319962287E-02 
535	 1,23002283491217E-02 
536	 1,30478097084441E-02 
537	 1,31962302329755E-02 
538	 1,29823496989368E-02 
539	 1,32492309269202E-02 
540	 1,31389948156018E-02 
541	 1,26853082114474E-02 
542	 1,32157664470437E-02 
543	 1,39528716690173E-02 
544	 0,014081144689991 
545	 1,39691305344594E-02 
546	 1,37812246383299E-02 
547	 1,37907588367461E-02 
548	 1,36820411807895E-02 
549	 1,33642361944743E-02 
550	 1,32963267438261E-02 
551	 1,34428673037235E-02 
552	 1,36764322244828E-02 
553	 1,37588840479048E-02 
554	 1,35646679973525E-02 
555	 1,28444492983773E-02 
556	 1,25536108925523E-02 
557	 1,34139689511373E-02 
558	 1,41421589138326E-02 
559	 1,45092638052351E-02 
560	 1,46262574646168E-02 
561	 1,45163802361122E-02 
562	 1,43264987779548E-02 
563	 1,46963301024941E-02 
564	 1,53079984292901E-02 
565	 1,56743067670851E-02 
566	 1,56361005370283E-02 
567	 0,015464594408077 
568	 1,62312738105468E-02 
569	 1,72695061376577E-02 
570	 1,80844754076241E-02 
571	 1,88291478595145E-02 
572	 1,92874290097979E-02 
573	 1,88240554372447E-02 
574	 1,92848288718377E-02 
575	 2,09882418754003E-02 
576	 2,18032465845553E-02 
577	 2,19547130234469E-02 
578	 2,18943642983049E-02 
579	 2,22763636018289E-02 
580	 0,022964017783937 
581	 2,29221182800719E-02 
582	 2,29404332054417E-02 
583	 2,34004869887431E-02 
584	 0,023590206312141 
585	 2,34569188661025E-02 
586	 2,30863350149818E-02 
587	 0,022473341110427 
588	 2,18807293256982E-02 
589	 2,23938210122068E-02 
590	 2,26407194022134E-02 
591	 2,14279684942429E-02 
592	 2,15143966240854E-02 
593	 2,25532429616176E-02 
594	 2,21285050228359E-02 
595	 2,13785207955686E-02 
596	 2,08459595687564E-02 
597	 2,05736938482157E-02 
598	 2,04531580503511E-02 
599	 2,02999777352197E-02 
600	 2,01532576981602E-02 
601	 1,99337601512895E-02 
602	 1,92840319390418E-02 
603	 1,89191885393415E-02 
604	 1,92928880737258E-02 
605	 1,86243867554184E-02 
606	 1,75202029673821E-02 
607	 1,82608702749233E-02 
608	 1,89028272058712E-02 
609	 1,86689477903611E-02 
610	 1,76445981177608E-02 
611	 0,01665464318423 
612	 1,66835634996977E-02 
613	 1,73720440652137E-02 
614	 1,81660852761147E-02 
615	 1,75807187249858E-02 
616	 1,71200434755523E-02 
617	 1,76389777678939E-02 
618	 1,75211209858693E-02 
619	 0,016993711296249 
620	 1,69396361099951E-02 
621	 1,69685891752213E-02 
622	 1,70581614765388E-02 
623	 1,76676031524504E-02 
624	 1,81532429962866E-02 
625	 1,78748497807727E-02 
626	 1,79974786275421E-02 
627	 1,85566330458481E-02 
628	 0,01894945244348 
629	 1,90526685379812E-02 
630	 1,88298609427271E-02 
631	 1,85391234014101E-02 
632	 1,87227400607254E-02 
633	 2,02343657939497E-02 
634	 2,08112463213517E-02 
635	 2,01740481711175E-02 
636	 2,01737309561594E-02 
637	 2,06811969707334E-02 
638	 2,15075980768582E-02 
639	 2,22259037005607E-02 
640	 2,27855818351611E-02 
641	 2,34157464927037E-02 
642	 0,023579030045014 
643	 2,32597972237083E-02 
644	 2,37741178263416E-02 
645	 0,024398304356206 
646	 2,40396812342805E-02 
647	 2,41865313016689E-02 
648	 2,47551648034533E-02 
649	 2,40481987191684E-02 
650	 2,35803931404537E-02 
651	 2,42393583987687E-02 
652	 2,42347060487326E-02 
653	 0,023635399093452 
654	 2,30703658071419E-02 
655	 2,30341621189052E-02 
656	 2,33881411792099E-02 
657	 2,23985696321358E-02 
658	 0,021304332712085 
659	 2,14560754133112E-02 
660	 2,17905523599784E-02 
661	 2,16690865878032E-02 
662	 1,97851502129899E-02 
663	 1,86876745548904E-02 
664	 1,94540531275466E-02 
665	 1,95538351590961E-02 
666	 1,90371609020695E-02 
667	 1,84588373338024E-02 
668	 1,80292230201794E-02 
669	 0,017830338573037 
670	 1,78186775735589E-02 
671	 1,76192120160612E-02 
672	 1,69990663637427E-02 
673	 1,68756511360063E-02 
674	 1,72319490217199E-02 
675	 1,76795330453005E-02 
676	 1,79348189250767E-02 
677	 1,78731481278764E-02 
678	 1,76442134215402E-02 
679	 1,75441928991795E-02 
680	 1,78908686185889E-02 
681	 1,78373780248679E-02 
682	 1,74360308952961E-02 
683	 1,75032384527494E-02 
684	 0,017735620151433 
685	 1,79514273677269E-02 
686	 1,81555992370913E-02 
687	 1,84348920667613E-02 
688	 1,89329431469797E-02 
689	 1,96643494877213E-02 
690	 2,05305294614541E-02 
691	 2,09483413187866E-02 
692	 0,021977128956012 
693	 2,44758883360332E-02 
694	 2,64407983412788E-02 
695	 2,80543254539719E-02 
696	 3,08018688580378E-02 
697	 3,38325054756847E-02 
698	 3,69171511740075E-02 
699	 0,040712323707251 
700	 4,50216123904441E-02 
701	 4,95215541805831E-02 
702	 5,46710813673005E-02 
703	 6,02649804635513E-02 
704	 6,53933911500722E-02 
705	 7,05792740663442E-02 
706	 7,61073519732386E-02 
707	 8,15230247139513E-02 
708	 8,69994832770098E-02 
709	 0,093018358225686 
710	 9,86399782928819E-02 
711	 0,103699803671535 
712	 0,109015514273166 
713	 0,114190360207435 
714	 0,118870830157997 
715	 0,123795077103649 
716	 0,128740245126319 
717	 0,132815973340228 
718	 0,136545451936999 
719	 0,140209658216991 
720	 0,144140026786603 
721	 0,147942544411507 
722	 0,151081487049709 
723	 0,154369015699783 
724	 0,157676987693297 
725	 0,159927649585255 
726	 0,161884958470784 
727	 0,164033991287088 
728	 0,166171316392538 
729	 0,168174409771087 
730	 0,169845388558921 
731	 0,171501383668871 
732	 0,173211833297849 
733	 0,174789704524011 
734	 0,176257744279783 
735	 0,177631285199979 
736	 0,178715159763922 
737	 0,179672087591844 
738	 0,18104931138234 
739	 0,181974133105129 
740	 0,182325570667487 
741	 0,183473062457817 
742	 0,184533154231675 
743	 0,184400036452341 
744	 0,184797507135274 
745	 0,185866997238697 
746	 0,186820589278556 
747	 0,187420206982635 
748	 0,187575022189304 
749	 0,187810527216909 
750	 0,188224446178842 
751	 0,188847014727228 
752	 0,189556508837931 
753	 0,190142156030328 
754	 0,18999085794962 
755	 0,18996170999076 
756	 0,190612998395184 
757	 0,190814531338664 
758	 0,190795994949435 
759	 0,191414870528048 
760	 0,191773526482877 
761	 0,191702289752543 
762	 0,191826759765366 
763	 0,192181191386433 
764	 0,192727507116865 
765	 0,192822477097182 
766	 0,192585715790937 
767	 0,192665021149381 
768	 0,192766213603871 
769	 0,192817284296787 
770	 0,192973095991895 
771	 0,193281074470814 
772	 0,193770221659977 
773	 0,193959479126882 
774	 0,193829849644205 
775	 0,193627247455489 
776	 0,193793067502934 
777	 0,194444728214269 
778	 0,194577776356477 
779	 0,194444184415065 
780	 0,19459012805335 
781	 0,194578537727684 
782	 0,194437691786106 
783	 0,194611082453709 
784	 0,194966152883405 
785	 0,195369971809968 
786	 0,195525290006979 
787	 0,195534046561257 
788	 0,195676924667881 
789	 0,195620015841738 
790	 0,195386110840683 
791	 0,195449189975063 
792	 0,195627612199534 
793	 0,195754653848285 
794	 0,195814974139515 
795	 0,195784524563305 
796	 0,195590527131005 
797	 0,195676199309113 
798	 0,196114317542874 
799	 0,196537574291193 
800	 0,196474433395467 
801	 0,195613169543628 
802	 0,195682911973818 
803	 0,196360504812238 
804	 0,195867561051218 
805	 0,19575893602977 
806	 0,196408509146619 
807	 0,196619599379287 
808	 0,196676217350871 
809	 0,196960931185377 
810	 0,197213182903199 
811	 0,1973767173583 
812	 0,197398568868271 
813	 0,197634146621022 
814	 0,198127594596917 
815	 0,198089949380165 
816	 0,198086907096931 
817	 0,198835243694352 
818	 0,199099466794201 
819	 0,198942830271069 
820	 0,199445035797372 
821	 0,199917597322726 
822	 0,200017370021085 
823	 0,199692744846778 
824	 0,199606118772907 
825	 0,200573339526425 
826	 0,200718810232673 
827	 0,200096898776739 
828	 0,200404281076188 
829	 0,200730788940053 
830	 0,200686865287832 
831	 0,200958638824194 
832	 0,201247164277552 
833	 0,201065471170082 
834	 0,200844560042697 
835	 0,200822546972231 
836	 0,201408563714385 
837	 0,201840016189341 
838	 0,201758996308065 
839	 0,201958633623178 
840	 0,202115623407366 
841	 0,201668489719193 
842	 0,201096526237709 
843	 0,200727286246371 
844	 0,201120254080786 
845	 0,20172671752385 
846	 0,2021722362553 
847	 0,202295792181005 
848	 0,202177887571463 
849	 0,201971585254948 
850	 0,202139888126296 
851	 0,202586747787494 
852	 0,202609213577383 
853	 0,20234059829067 
854	 0,201948596617268 
855	 0,202031907895915 
856	 0,202393493747778 
857	 0,202665302722278 
858	 0,202540311331323 
859	 0,202182714643177 
860	 0,202364420933649 
861	 0,202794087846037 
862	 0,203210318509657 
863	 0,203008161715279 
864	 0,202533603409125 
865	 0,202329423305903 
866	 0,20258923497783 
867	 0,203247887446481 
868	 0,20402414854181 
869	 0,204291184238361 
870	 0,203911003529635 
871	 0,204172565667476 
872	 0,204649260568299 
873	 0,204688082022146 
874	 0,204750638800241 
875	 0,204787110056661 
876	 0,204283386095747 
877	 0,204300011624811 
878	 0,205093887774808 
879	 0,205328603976627 
880	 0,205233367856034 
881	 0,205171492784726 
882	 0,204943366856097 
883	 0,204728957047098 
884	 0,205098555672015 
885	 0,205186736001841 
886	 0,20491211063064 
887	 0,205664214882112 
888	 0,206214487063989 
889	 0,205481769029408 
890	 0,205738289449017 
891	 0,206639041553051 
892	 0,20654207347126 
893	 0,206266495438845 
894	 0,206097605995679 
895	 0,206141558060393 
896	 0,206190524916453 
897	 0,206114907070661 
898	 0,20633510102196 
899	 0,206763526252026 
900	 0,207147792445751 
901	 0,207369570713377 
902	 0,207297121935119 
903	 0,206624055252856 
904	 0,206130447106788 
905	 0,206249459488611 
906	 0,206182472989196 
907	 0,206031569663025 
908	 0,20607789076359 
909	 0,206653044464371 
910	 0,207448209864394 
911	 0,20729479671243 
912	 0,207004153807183 
913	 0,206856938662966 
914	 0,2060032780363 
915	 0,205360458710319 
916	 0,205938179055572 
917	 0,206293426337295 
918	 0,206183562221829 
919	 0,205738399117624 
920	 0,205661606795776 
921	 0,206096098381482 
922	 0,206344944998766 
923	 0,206284758694955 
924	 0,205897863342205 
925	 0,205890247146508 
926	 0,205767061934898 
927	 0,204395974513157 
928	 0,203974357607528 
929	 0,20447802035669 
930	 0,203397159256915 
931	 0,201892713102559 
932	 0,200827503841583 
933	 0,20105441411106 
934	 0,201313727015767 
935	 0,199958609314589 
936	 0,200150388312347 
937	 0,201427579728941 
938	 0,200483514602525 
939	 0,199486549862328 
940	 0,199116530172167 
941	 0,198545234782656 
942	 0,197585649940064 
943	 0,196229902495996 
944	 0,195881665447436 
945	 0,195858556514588 
946	 0,194520438315242 
947	 0,192195607596823 
948	 0,189745691856724 
949	 0,189808486752352 
950	 0,190230377152729 
951	 0,189621088665496 
952	 0,187828669353527 
953	 0,185980043998974 
954	 0,185428088200523 
955	 0,185447852322149 
956	 0,185259922671345 
957	 0,183221090409551 
958	 0,181944364734165 
959	 0,181777500843729 
960	 0,179574574954137 
961	 0,178102589569562 
962	 0,179171515136231 
963	 0,178650790561993 
964	 0,177465698463334 
965	 0,177886766724645 
966	 0,177924871872008 
967	 0,177438774136414 
968	 0,177730740882691 
969	 0,176832733443955 
970	 0,174529246500349 
971	 0,174216081909686 
972	 0,175106872698318 
973	 0,1761144552048 
974	 0,176172205948982 
975	 0,175199427344161 
976	 0,173405118435787 
977	 0,173860133932129 
978	 0,17633094948987 
979	 0,176920452577701 
980	 0,176457469022297 
981	 0,175557358627283 
982	 0,175306578725043 
983	 0,176089947415938 
984	 0,177907230032969 
985	 0,177687993135221 
986	 0,175856988593553 
987	 0,17428922278244 
988	 0,174897387603356 
989	 0,17712455839051 
990	 0,176562944990853 
991	 0,176050075001529 
992	 0,17681216254418 
993	 0,176575023759483 
994	 0,176677238932042 
995	 0,178373670602929 
996	 0,17730750590185 
997	 0,175148290628702 
998	 0,176526663288851 
999	 0,17980269921309 
1000	 0,183085520258966 
1001	 0,181991534168521 
1002	 0,179244104634442 
1003	 0,177217447572689 
1004	 0,18021498225125 
1005	 0,183828444333871 
1006	 0,183718949347404 
1007	 0,185060542558965 
1008	 0,186941270898667 
1009	 0,186268893773124 
1010	 0,186478842550324 
1011	 0,187802825464715 
1012	 0,188024722283259 
1013	 0,18685394009971 
1014	 0,184941411474926 
1015	 0,186318451257477 
1016	 0,188305143921873 
1017	 0,188669453077725 
1018	 0,19051838560597 
1019	 0,192304455007287 
1020	 0,191329999908144 
1021	 0,190586510516335 
1022	 0,190692148105397 
1023	 0,191134202608362 
1024	 0,191796664578241 
1025	 0,192352608202006 
1026	 0,191477272228567 
1027	 0,192594767552767 
1028	 0,196923098835344 
1029	 0,196675856988942 
1030	 0,193668796203635 
1031	 0,191221340662787 
1032	 0,191991390516468 
1033	 0,194696532084085 
1034	 0,195206151448981 
1035	 0,200609932996484 
1036	 0,208849227159199 
1037	 0,207017738789652 
1038	 0,202165832106225 
1039	 0,197934251528524 
1040	 0,194964744753898 
1041	 0,193504817384629 
1042	 0,193705052571054 
1043	 0,195980261943733 
1044	 0,198975189619133 
1045	 0,200959381161187 
1046	 0,206532981236068 
1047	 0,211746308842911 
1048	 0,205313039110178 
1049	 0,204329447982196 
1050	 0,210705443347266 
1051	 0,209960429815876 
1052	 0,207839852184502 
1053	 0,207337662205419 
1054	 0,208436456126078 
1055	 0,20730190439632 
1056	 0,201854299213768 
1057	 0,204625594538319 
1058	 0,210165008645875 
1059	 0,208806166628753 
1060	 0,209051729452292 
1061	 0,209394426260495 
1062	 0,202007794949825 
1063	 0,207104266311359 
1064	 0,220103634761545 
1065	 0,201281908078452 
1066	 0,185220769616692 
1067	 0,188157073492145 
1068	 0,196147479887696 
1069	 0,212644073129632 
1070	 0,235674829583752 
1071	 0,229752306678521 
1072	 0,208826169010329 
1073	 0,195187287101799 
1074	 0,192571378159193 
1075	 0,197502264441256 
