Wavelength	GRA-VIE00979.asd
325	 0,184128146669344 
326	 0,348488207743259 
327	 0,264376531715714 
328	 1,60191425566395E-02 
329	 4,10554746511733E-02 
330	 0,149397689155842 
331	 0,15774518355387 
332	 0,197710934107543 
333	 0,259957345657961 
334	 0,166146972095313 
335	 0,170443861762691 
336	 0,277135749781105 
337	 0,263747656673573 
338	 0,203610657423916 
339	 0,147298220966277 
340	 7,20256989803317E-02 
341	 1,86253780760357E-02 
342	 0,130978749291413 
343	 0,198157841079607 
344	 0,175276805065565 
345	 0,135735636355872 
346	 9,01338177779404E-02 
347	 5,54391833066239E-02 
348	 4,31189685441757E-02 
349	 5,50440211176037E-02 
350	 9,54151488071809E-02 
351	 9,51645374188703E-02 
352	 5,03365736911971E-02 
353	 8,57108756710578E-02 
354	 0,128592124012423 
355	 9,02658387917194E-02 
356	 7,25951880817734E-02 
357	 8,06992238932373E-02 
358	 0,066593084542453 
359	 5,22868990938412E-02 
360	 4,89868796138383E-02 
361	 6,47982184888635E-02 
362	 8,32077923341128E-02 
363	 8,36472560115501E-02 
364	 6,48329728274089E-02 
365	 3,58512086934247E-02 
366	 2,80055348848884E-02 
367	 3,24687772947553E-02 
368	 4,13183103553875E-02 
369	 4,15299947432279E-02 
370	 4,08479781681985E-02 
371	 5,70521020094297E-02 
372	 5,78988997724197E-02 
373	 3,73410238646076E-02 
374	 1,33701290554455E-02 
375	-9,05528168410638E-04 
376	 2,40070569581384E-03 
377	 1,00812931103346E-02 
378	 2,29315439686995E-02 
379	 5,18583718917343E-02 
380	 5,32391388440282E-02 
381	 2,59101849143468E-02 
382	 2,27525245463615E-02 
383	 2,45164481237893E-02 
384	 1,20886332296543E-02 
385	 3,92445991645412E-02 
386	 8,13849664807406E-02 
387	 6,22600052677544E-02 
388	 4,60773081334831E-02 
389	 5,37704193516613E-02 
390	 4,60587517308321E-02 
391	 3,60097797094197E-02 
392	 4,22140692219051E-02 
393	 4,04234532951172E-02 
394	 3,23282601897217E-02 
395	 4,09038256750697E-02 
396	 4,70015076800053E-02 
397	 4,19766355594166E-02 
398	 3,41671238939469E-02 
399	 2,50585902289526E-02 
400	 1,35720520005512E-02 
401	 0,01472790291231 
402	 2,45395741939541E-02 
403	 1,22413108570861E-02 
404	 6,77109250082102E-03 
405	 2,52234933775278E-02 
406	 2,72462126312173E-02 
407	 1,93726962268661E-02 
408	 2,72377640438253E-02 
409	 2,97255863816304E-02 
410	 2,32624137206619E-02 
411	 1,83796716241637E-02 
412	 1,77009699522787E-02 
413	 2,23412968108568E-02 
414	 1,87521940584384E-02 
415	 1,10768480514107E-02 
416	 1,76487013170716E-02 
417	 1,90287573921998E-02 
418	 1,13484581271189E-02 
419	 2,08736240426429E-02 
420	 3,27016223748995E-02 
421	 2,57526781468011E-02 
422	 1,94357701864152E-02 
423	 1,76529209082553E-02 
424	 1,70582651089092E-02 
425	 1,53815745044157E-02 
426	 1,17670448226004E-02 
427	 1,14454452912287E-02 
428	 1,41451176411294E-02 
429	 1,85744349346938E-02 
430	 2,03719795366182E-02 
431	 1,84928622105174E-02 
432	 1,53952325405146E-02 
433	 1,35143958818579E-02 
434	 1,48385317351174E-02 
435	 1,86965876381773E-02 
436	 2,20834506457438E-02 
437	 1,79764106981809E-02 
438	 1,43284046904133E-02 
439	 1,46627230950991E-02 
440	 1,85703722984137E-02 
441	 2,10336525247639E-02 
442	 1,61676946420692E-02 
443	 1,24986486778664E-02 
444	 1,24755330851508E-02 
445	 1,63999315162161E-02 
446	 2,03420610264446E-02 
447	 2,15650702769437E-02 
448	 1,95008282638567E-02 
449	 1,64644695747494E-02 
450	 1,66083250845726E-02 
451	 1,85262083314097E-02 
452	 2,09416413466646E-02 
453	 2,05263908873991E-02 
454	 0,018646914884288 
455	 1,68529361773407E-02 
456	 1,66511036667244E-02 
457	 1,74310276564969E-02 
458	 1,65175100109738E-02 
459	 1,64044330305176E-02 
460	 1,76163515530004E-02 
461	 1,65615089573825E-02 
462	 1,49857405455564E-02 
463	 1,56299629926665E-02 
464	 0,016355410247519 
465	 1,66693397659284E-02 
466	 1,70480737495124E-02 
467	 1,61320730747897E-02 
468	 1,36271006225137E-02 
469	 1,57143493162988E-02 
470	 1,90401767620187E-02 
471	 1,48431374955616E-02 
472	 0,015023429334832 
473	 2,07263599369855E-02 
474	 1,81075277807415E-02 
475	 0,013900725793149 
476	 1,52453771765863E-02 
477	 1,59899100813952E-02 
478	 1,53963988902166E-02 
479	 1,46519821633128E-02 
480	 1,47680068504228E-02 
481	 1,59439459225311E-02 
482	 1,58851977503488E-02 
483	 1,49040735878724E-02 
484	 1,37955668934861E-02 
485	 1,40588842975207E-02 
486	 1,54302116895315E-02 
487	 1,50276278022826E-02 
488	 1,51697322430151E-02 
489	 0,017413007147078 
490	 1,89647072717133E-02 
491	 1,86048487065979E-02 
492	 1,42962808942149E-02 
493	 1,13376070353154E-02 
494	 1,16454177739593E-02 
495	 1,34435962284967E-02 
496	 1,48206010992024E-02 
497	 1,38843147463238E-02 
498	 1,39239339169476E-02 
499	 1,47768470370605E-02 
500	 0,01335164599608 
501	 1,26996276046412E-02 
502	 0,014272568564432 
503	 1,48416358376193E-02 
504	 1,45490376581086E-02 
505	 1,44257367786862E-02 
506	 1,41534828271447E-02 
507	 1,36260633039711E-02 
508	 1,25597501203297E-02 
509	 1,16468771798017E-02 
510	 1,15479215721455E-02 
511	 1,25451845404681E-02 
512	 1,40161590101784E-02 
513	 1,45386036734138E-02 
514	 1,39163742650785E-02 
515	 1,25301160818418E-02 
516	 1,33684796751736E-02 
517	 1,52280220659797E-02 
518	 1,61006684881844E-02 
519	 1,56724977519382E-02 
520	 1,43562215504728E-02 
521	 1,39854724970161E-02 
522	 1,41173181457854E-02 
523	 1,43873866160518E-02 
524	 1,47429893882985E-02 
525	 1,50326641189835E-02 
526	 0,01507966421197 
527	 0,014696892480707 
528	 1,38850876658651E-02 
529	 1,29235149703479E-02 
530	 0,012371516822996 
531	 1,27950965675344E-02 
532	 1,34325795424415E-02 
533	 1,38582889279144E-02 
534	 1,34397124595688E-02 
535	 1,29567376524159E-02 
536	 1,30093380931732E-02 
537	 1,45834014651356E-02 
538	 1,59828610189419E-02 
539	 1,37877054404907E-02 
540	 1,26691462462949E-02 
541	 1,38490740769775E-02 
542	 1,56059021405485E-02 
543	 1,64072543430221E-02 
544	 1,49960312635687E-02 
545	 1,47056232964682E-02 
546	 1,56328486861176E-02 
547	 0,015986343932589 
548	 1,62593870588476E-02 
549	 0,016559716861582 
550	 1,62278909933669E-02 
551	 1,57408575738223E-02 
552	 1,59136217115249E-02 
553	 1,63600365743024E-02 
554	 1,68335127218391E-02 
555	 1,68710056032017E-02 
556	 1,66291472625572E-02 
557	 1,63685714056124E-02 
558	 1,76303349786207E-02 
559	 1,95774426874704E-02 
560	 0,019444002536211 
561	 1,94875380987787E-02 
562	 2,03169753841559E-02 
563	 1,99107656871096E-02 
564	 1,91631894094616E-02 
565	 1,94461809209522E-02 
566	 2,02924934051428E-02 
567	 2,13269556198932E-02 
568	 2,18306592136322E-02 
569	 2,15965938199622E-02 
570	 2,06122061723876E-02 
571	 2,01923703889779E-02 
572	 2,03101110384909E-02 
573	 2,04531196800104E-02 
574	 2,01638526753659E-02 
575	 1,94705314503431E-02 
576	 1,97450163040661E-02 
577	 1,98163511121713E-02 
578	 0,018333821941104 
579	 1,83779033690217E-02 
580	 1,96641995451265E-02 
581	 1,90364013412515E-02 
582	 1,81820342485993E-02 
583	 1,80079775914224E-02 
584	 1,76194781326056E-02 
585	 1,73323363223361E-02 
586	 0,017926495982634 
587	 1,79778214884721E-02 
588	 1,73420450335326E-02 
589	 1,74797676636561E-02 
590	 1,78917552745346E-02 
591	 1,80326720545207E-02 
592	 1,76673074837599E-02 
593	 1,71454496138402E-02 
594	 1,76026061241574E-02 
595	 1,78146756003042E-02 
596	 1,74023340028556E-02 
597	 1,79754289000597E-02 
598	 0,018751445173941 
599	 1,83175911332532E-02 
600	 1,82677727706871E-02 
601	 1,86873955039024E-02 
602	 1,80762934060411E-02 
603	 1,75391248132454E-02 
604	 1,78826048221048E-02 
605	 1,76605914439267E-02 
606	 1,68844685926319E-02 
607	 1,61083107005222E-02 
608	 1,57657904955604E-02 
609	 1,58533899418032E-02 
610	 1,49907208935787E-02 
611	 1,42322175760605E-02 
612	 1,49910821263633E-02 
613	 1,50266620257786E-02 
614	 1,42819111409844E-02 
615	 1,45297766139244E-02 
616	 0,014845578523491 
617	 1,46125283311981E-02 
618	 0,013893083633876 
619	 1,31528374168244E-02 
620	 1,32585669085406E-02 
621	 0,013571179592162 
622	 1,37763516562065E-02 
623	 1,35039866464605E-02 
624	 1,31369579730277E-02 
625	 1,30866273974676E-02 
626	 1,29279443178904E-02 
627	 1,27938201120339E-02 
628	 1,34293951994266E-02 
629	 1,35609055747762E-02 
630	 0,01270262567869 
631	 1,24887888618869E-02 
632	 1,28705797751881E-02 
633	 1,34759926467719E-02 
634	 0,013408846957665 
635	 1,27361784650261E-02 
636	 1,30467381074153E-02 
637	 0,013380548496117 
638	 1,29359194173017E-02 
639	 1,27939498837141E-02 
640	 1,29473184360368E-02 
641	 1,28372121545476E-02 
642	 1,29120839667563E-02 
643	 1,32787522852855E-02 
644	 1,34987607147312E-02 
645	 1,35716580432123E-02 
646	 1,35548754986562E-02 
647	 1,35758981154299E-02 
648	 1,36178211577889E-02 
649	 1,34950718025479E-02 
650	 1,32780521310856E-02 
651	 1,30386403982798E-02 
652	 1,29635930372882E-02 
653	 1,29724175747282E-02 
654	 0,012849692830448 
655	 0,012664256302126 
656	 1,24317596916273E-02 
657	 1,20690997287071E-02 
658	 1,19701701733681E-02 
659	 1,24957257667775E-02 
660	 1,23366015070331E-02 
661	 1,16781278061826E-02 
662	 1,19931836708487E-02 
663	 1,18803124659475E-02 
664	 1,09079063154309E-02 
665	 1,12966535750926E-02 
666	 1,22772664833015E-02 
667	 1,22534557495495E-02 
668	 1,24835394930222E-02 
669	 1,30338184087651E-02 
670	 1,27470996412942E-02 
671	 1,26868053315322E-02 
672	 1,35934350853525E-02 
673	 0,013382865286948 
674	 1,26018380883326E-02 
675	 1,34737965437375E-02 
676	 1,41973614359972E-02 
677	 1,42091233619371E-02 
678	 1,42779610299651E-02 
679	 1,44923113184322E-02 
680	 1,48802879818248E-02 
681	 1,51746979284256E-02 
682	 0,015234987144903 
683	 1,47384073936084E-02 
684	 1,48118086750841E-02 
685	 1,58967727597896E-02 
686	 1,56885518807484E-02 
687	 1,49049767232909E-02 
688	 1,53087623053479E-02 
689	 1,64670900064122E-02 
690	 1,77815531150227E-02 
691	 1,71970257551728E-02 
692	 1,65725713013638E-02 
693	 1,75895503316634E-02 
694	 1,85305066759186E-02 
695	 1,93960994034497E-02 
696	 2,10093412893853E-02 
697	 0,022847269764476 
698	 2,47296665488038E-02 
699	 2,68534875565436E-02 
700	 2,95147175403236E-02 
701	 3,30547793331532E-02 
702	 3,62454032099379E-02 
703	 3,93732177264493E-02 
704	 4,44269951225134E-02 
705	 5,00677804039161E-02 
706	 5,55272224072777E-02 
707	 6,20213169236816E-02 
708	 6,93957914548513E-02 
709	 0,077029747362179 
710	 8,52185054022388E-02 
711	 9,40239018481176E-02 
712	 0,10332876481168 
713	 0,113116536406069 
714	 0,123393126328388 
715	 0,133909860037708 
716	 0,144877231728358 
717	 0,156988579182834 
718	 0,169558219715904 
719	 0,182211993433707 
720	 0,194576551292426 
721	 0,2069871687447 
722	 0,220002950908481 
723	 0,232788410472599 
724	 0,245184430675267 
725	 0,257537600112111 
726	 0,269875765587795 
727	 0,28211774974488 
728	 0,293640426183352 
729	 0,304553615116971 
730	 0,315226837321884 
731	 0,325385695160641 
732	 0,335024542479878 
733	 0,344464701083855 
734	 0,35339224243605 
735	 0,361535467492097 
736	 0,369303267492547 
737	 0,376672214478418 
738	 0,383414279037873 
739	 0,389521858402036 
740	 0,395053150711079 
741	 0,400324145801406 
742	 0,405440479582244 
743	 0,410463073743528 
744	 0,414364679405045 
745	 0,417448015733471 
746	 0,421363574730495 
747	 0,425079652774516 
748	 0,42803701251283 
749	 0,430417281917391 
750	 0,43253777918319 
751	 0,43483759765849 
752	 0,436926304606394 
753	 0,438763397496051 
754	 0,440620449240874 
755	 0,442198062774133 
756	 0,443312503464725 
757	 0,444379141548875 
758	 0,44541348096959 
759	 0,446269370766449 
760	 0,447269188499904 
761	 0,448382417507265 
762	 0,449010024963321 
763	 0,449264110855101 
764	 0,44933488577768 
765	 0,450028942940487 
766	 0,451078118385482 
767	 0,451360458479288 
768	 0,451550955279528 
769	 0,451906772343765 
770	 0,452345165513572 
771	 0,452715547449241 
772	 0,452852488794927 
773	 0,45302496332366 
774	 0,453223611042687 
775	 0,453211210231215 
776	 0,453188059886897 
777	 0,453275475215955 
778	 0,453513041300881 
779	 0,453769143438821 
780	 0,453854876253193 
781	 0,453717552290698 
782	 0,453476042666945 
783	 0,453503390871968 
784	 0,453977563743628 
785	 0,454858338004695 
786	 0,454876011661957 
787	 0,454250553831632 
788	 0,453667973670801 
789	 0,453683345481504 
790	 0,454250071887725 
791	 0,454280759052758 
792	 0,454097794473005 
793	 0,454007288272082 
794	 0,454204552090221 
795	 0,454410950037148 
796	 0,453918582041212 
797	 0,453641722006183 
798	 0,453839902408142 
799	 0,454141345643131 
800	 0,454275513636236 
801	 0,454031790785295 
802	 0,453853385225943 
803	 0,453868118614339 
804	 0,454206491563022 
805	 0,45425998130372 
806	 0,453985257974829 
807	 0,454516140819169 
808	 0,455247025319888 
809	 0,455456348513967 
810	 0,455570976371686 
811	 0,455645441878859 
812	 0,45555882460395 
813	 0,455664343596906 
814	 0,456041996415818 
815	 0,456160114898076 
816	 0,456150251167276 
817	 0,456231341123571 
818	 0,45664269876957 
819	 0,457247078731459 
820	 0,457486991332101 
821	 0,457596363303553 
822	 0,457704216107239 
823	 0,457903018237911 
824	 0,458155922787862 
825	 0,458397643455781 
826	 0,458825939632063 
827	 0,459187830696556 
828	 0,458485416037984 
829	 0,458143149356994 
830	 0,458823522499008 
831	 0,459481243355717 
832	 0,459833507484375 
833	 0,459677046734081 
834	 0,459733921861427 
835	 0,459954166735768 
836	 0,459452940931301 
837	 0,459220450600087 
838	 0,459682004421628 
839	 0,459674628886867 
840	 0,459626635638541 
841	 0,460310061884476 
842	 0,460535665371028 
843	 0,460310229462638 
844	 0,460767271435241 
845	 0,460933925738439 
846	 0,460427929075125 
847	 0,460590036197485 
848	 0,460848123296011 
849	 0,460198608632998 
850	 0,460535785478268 
851	 0,461686278834264 
852	 0,461495052838187 
853	 0,461161591529336 
854	 0,461298276186605 
855	 0,461387107548459 
856	 0,461356506540888 
857	 0,461181563466182 
858	 0,461012434513555 
859	 0,461045550100906 
860	 0,461838291864406 
861	 0,462145816695056 
862	 0,461531963445865 
863	 0,461793825902725 
864	 0,462481485815849 
865	 0,462760897780459 
866	 0,46293362283177 
867	 0,463182934979302 
868	 0,463953755526825 
869	 0,464429194336059 
870	 0,464288425219634 
871	 0,464226127017971 
872	 0,464317076235782 
873	 0,464556442699117 
874	 0,464652076551523 
875	 0,464544920362873 
876	 0,464168233337346 
877	 0,464393445811734 
878	 0,465374806758144 
879	 0,465680497478708 
880	 0,465515630359086 
881	 0,465281173170657 
882	 0,465840720964856 
883	 0,466800550027802 
884	 0,466579790783976 
885	 0,466654291999919 
886	 0,467310500313813 
887	 0,467167909030679 
888	 0,466869210068901 
889	 0,467063372138823 
890	 0,467100463741982 
891	 0,467170690786432 
892	 0,467967916122856 
893	 0,468409110547545 
894	 0,46829156715225 
895	 0,468510604418582 
896	 0,468591765484999 
897	 0,468182009480378 
898	 0,467598892405986 
899	 0,467619961375466 
900	 0,469537391991941 
901	 0,470414821643449 
902	 0,469810796899166 
903	 0,469696776250861 
904	 0,46947596786874 
905	 0,468879709151871 
906	 0,468719671414991 
907	 0,468658876346556 
908	 0,468086153030085 
909	 0,468475062014591 
910	 0,469419144129885 
911	 0,468426904779468 
912	 0,467914467189547 
913	 0,468792985402462 
914	 0,469076712084913 
915	 0,469195807057558 
916	 0,469751623551769 
917	 0,469465879978687 
918	 0,468551375459237 
919	 0,468188194233259 
920	 0,467685683621347 
921	 0,466953061789813 
922	 0,466570150978622 
923	 0,466268139903438 
924	 0,465842748957401 
925	 0,465825994014913 
926	 0,465874393059573 
927	 0,465251229725972 
928	 0,464519385638298 
929	 0,463798624035147 
930	 0,462783972683217 
931	 0,462349054316905 
932	 0,462791360192387 
933	 0,46233760314277 
934	 0,461723542878624 
935	 0,462097816873879 
936	 0,461817324328075 
937	 0,460597574776402 
938	 0,458511468882273 
939	 0,457576833058683 
940	 0,458104043301448 
941	 0,457078705378167 
942	 0,455689082902319 
943	 0,455084689172334 
944	 0,4542536767838 
945	 0,453128227219352 
946	 0,451887362744637 
947	 0,450783855611424 
948	 0,449524384573053 
949	 0,44671485936479 
950	 0,444167581220615 
951	 0,442895025373805 
952	 0,44195938710326 
953	 0,441065031381689 
954	 0,439951684171819 
955	 0,437996414331326 
956	 0,435697619338027 
957	 0,434577507423111 
958	 0,433916164105423 
959	 0,43331818356297 
960	 0,432313726751668 
961	 0,430571645601611 
962	 0,428168325655627 
963	 0,427565129911173 
964	 0,428253313366404 
965	 0,428866860683327 
966	 0,428893643187381 
967	 0,427978825814516 
968	 0,425380649643178 
969	 0,424582304069594 
970	 0,426418950712948 
971	 0,426237483193654 
972	 0,425690221202229 
973	 0,426411965987212 
974	 0,426158195931744 
975	 0,425654193380211 
976	 0,426824125039417 
977	 0,427124035551229 
978	 0,426458721408936 
979	 0,427078468757524 
980	 0,427574990952121 
981	 0,427270687184116 
982	 0,426506805062879 
983	 0,42601758552865 
984	 0,426476524913738 
985	 0,426971889296779 
986	 0,427784363198499 
987	 0,429805000011085 
988	 0,431304883977148 
989	 0,431851861104131 
990	 0,431789508447651 
991	 0,432624070417838 
992	 0,434736569485784 
993	 0,435240914216041 
994	 0,434793062920551 
995	 0,43436524563587 
996	 0,433444878984719 
997	 0,433810517812247 
998	 0,438973960093539 
999	 0,441799769377214 
1000	 0,441191807043216 
1001	 0,441625852748711 
1002	 0,441834044313531 
1003	 0,441662316314301 
1004	 0,443303804255814 
1005	 0,445902764058224 
1006	 0,448200739397121 
1007	 0,447551161736617 
1008	 0,446260592322302 
1009	 0,449155709685296 
1010	 0,451263762618618 
1011	 0,451859204934915 
1012	 0,453678154850831 
1013	 0,452809668691776 
1014	 0,449249727527179 
1015	 0,452094211497741 
1016	 0,455293412247364 
1017	 0,453728765776445 
1018	 0,453577912813449 
1019	 0,455481510192238 
1020	 0,458951008575894 
1021	 0,458488499548974 
1022	 0,456442652910373 
1023	 0,463849048749126 
1024	 0,466583127517059 
1025	 0,4621444336119 
1026	 0,462648394782638 
1027	 0,465378741353979 
1028	 0,467720656633625 
1029	 0,465339679655533 
1030	 0,4650478920655 
1031	 0,474167048319554 
1032	 0,474778365871415 
1033	 0,468471954783792 
1034	 0,465867286840436 
1035	 0,463833764551208 
1036	 0,463091687867414 
1037	 0,467674477639563 
1038	 0,474902413377896 
1039	 0,480856197841654 
1040	 0,475121447816688 
1041	 0,469089417405724 
1042	 0,472004820497235 
1043	 0,472216407224221 
1044	 0,472908474793807 
1045	 0,479854938046457 
1046	 0,478613833798354 
1047	 0,471983983291584 
1048	 0,474284391344906 
1049	 0,475159268913516 
1050	 0,473691920901807 
1051	 0,478468812449666 
1052	 0,483232993392678 
1053	 0,484872249982419 
1054	 0,484750061162856 
1055	 0,485435090414885 
1056	 0,488127236217307 
1057	 0,483028735908646 
1058	 0,477996101540068 
1059	 0,485132353984813 
1060	 0,484813169937506 
1061	 0,477072043017415 
1062	 0,470728699047127 
1063	 0,473969538216835 
1064	 0,48466892048145 
1065	 0,482892324993473 
1066	 0,484899370712625 
1067	 0,492168487984935 
1068	 0,472127925435904 
1069	 0,457121846306229 
1070	 0,470044360798443 
1071	 0,474922328892357 
1072	 0,475770166131883 
1073	 0,481565521647332 
1074	 0,478389844256069 
1075	 0,473228042551182 
