Wavelength	GRA-VAN00759.asd
325	 0,268283182099558 
326	 8,68845812467811E-02 
327	 0,088411378146413 
328	 0,329691878542821 
329	 0,321353178526575 
330	 0,227098760296198 
331	 0,269888953287456 
332	 0,316085931652386 
333	 0,313934832128355 
334	 7,04928504741782E-02 
335	-2,28296684008822E-03 
336	 0,193090898820643 
337	 0,234307890567077 
338	 0,198871686640298 
339	 0,140055199605717 
340	 0,140074120290832 
341	 0,17853513888113 
342	 0,188743313386914 
343	 0,198102865185366 
344	 0,201967320959747 
345	 0,162027297616143 
346	 0,146576271669674 
347	 0,225472792630585 
348	 0,201276439702293 
349	 0,109809489261099 
350	 0,147464414859066 
351	 0,188260896188866 
352	 0,184488583410997 
353	 0,185301062995785 
354	 0,185996880384397 
355	 0,177936924959106 
356	 0,182397336150133 
357	 0,196779188895073 
358	 0,206752353537816 
359	 0,206291707768066 
360	 0,19536370971477 
361	 0,199087093578732 
362	 0,201721958970819 
363	 0,178515216362257 
364	 0,174057101982195 
365	 0,191950649215881 
366	 0,201459298868478 
367	 0,20483989797023 
368	 0,203755301543826 
369	 0,197988639640332 
370	 0,188918730399345 
371	 0,17639759919386 
372	 0,182863273673062 
373	 0,204198312114808 
374	 0,202551623856174 
375	 0,194540112679922 
376	 0,193205241897553 
377	 0,181831515254354 
378	 0,17089543928141 
379	 0,189739846319859 
380	 0,209408021911282 
381	 0,219855598951765 
382	 0,217755428556877 
383	 0,212863616587517 
384	 0,213992544753318 
385	 0,217102432101401 
386	 0,216318643917387 
387	 0,196706273519435 
388	 0,186158743341013 
389	 0,194801034285906 
390	 0,198834808651083 
391	 0,200335207534558 
392	 0,203955203642146 
393	 0,201001402009861 
394	 0,193554540583355 
395	 0,192105677639373 
396	 0,19411287735869 
397	 0,198011708639922 
398	 0,202940530599864 
399	 0,205947876699526 
400	 0,203444682350578 
401	 0,199136883858017 
402	 0,194517293888786 
403	 0,189127016081525 
404	 0,183848562135591 
405	 0,180392823752805 
406	 0,18672412121932 
407	 0,197087680675146 
408	 0,200913392249704 
409	 0,198111649457386 
410	 0,190860444580526 
411	 0,188464639979719 
412	 0,191401493736643 
413	 0,198828360975896 
414	 0,197701965911618 
415	 0,191060313710424 
416	 0,19261997463204 
417	 0,194064222082181 
418	 0,192783289314727 
419	 0,194348263139374 
420	 0,196843416010057 
421	 0,197509719489119 
422	 0,197406259144161 
423	 0,196962898529341 
424	 0,197063270213449 
425	 0,196139323993508 
426	 0,193522698177587 
427	 0,191404515592941 
428	 0,191794307265185 
429	 0,198204472643992 
430	 0,199002826809041 
431	 0,193354172975788 
432	 0,194111828012246 
433	 0,197894336382398 
434	 0,200948383108216 
435	 0,199822966383844 
436	 0,195965385809101 
437	 0,194704304697375 
438	 0,194460276866578 
439	 0,194727765254701 
440	 0,195553110922486 
441	 0,196763536325933 
442	 0,198172236203593 
443	 0,197360595996355 
444	 0,195505106197606 
445	 0,198715218377963 
446	 0,200933682154625 
447	 0,198666676848197 
448	 0,196492417914503 
449	 0,195694421393751 
450	 0,197379667474848 
451	 0,199265127471307 
452	 0,200417524060661 
453	 0,200918533315527 
454	 0,200127524953803 
455	 0,197847086573681 
456	 0,201110112663994 
457	 0,206840567271785 
458	 0,203133821926067 
459	 0,201361200417804 
460	 0,205331085144176 
461	 0,206381498730924 
462	 0,20454844522738 
463	 0,200962144020933 
464	 0,198036045902521 
465	 0,197218940672873 
466	 0,2000622135411 
467	 0,204365074053799 
468	 0,207970820158238 
469	 0,206077315368468 
470	 0,201541058331712 
471	 0,201126956646171 
472	 0,201058597637551 
473	 0,200681166655435 
474	 0,202086784859916 
475	 0,204097824548412 
476	 0,205364420615564 
477	 0,204355433685023 
478	 0,202518505430767 
479	 0,205002412243803 
480	 0,205272653263678 
481	 0,20127531754998 
482	 0,201824302323043 
483	 0,204186041232078 
484	 0,203053990718241 
485	 0,201271969575565 
486	 0,199804160547692 
487	 0,199082182094128 
488	 0,19956996659229 
489	 0,201444206262183 
490	 0,202900782182187 
491	 0,203661910359407 
492	 0,204031549543031 
493	 0,20394042603755 
494	 0,203573480622604 
495	 0,203849736745983 
496	 0,204091705383871 
497	 0,20348537927756 
498	 0,203946395265397 
499	 0,205019912304387 
500	 0,204012189575957 
501	 0,20275485064528 
502	 0,202361972817661 
503	 0,202732621225647 
504	 0,203375988258807 
505	 0,203384169991126 
506	 0,204225950589612 
507	 0,206061684204384 
508	 0,207895818101435 
509	 0,208661523643476 
510	 0,207581700388976 
511	 0,207260292798448 
512	 0,207453194687652 
513	 0,205705208318487 
514	 0,205686888085153 
515	 0,20838145799844 
516	 0,209153429217354 
517	 0,208894339252731 
518	 0,209495666323207 
519	 0,210535292333234 
520	 0,211406240763997 
521	 0,210261537687246 
522	 0,208884760987853 
523	 0,208695432391173 
524	 0,209858815761611 
525	 0,211449230815565 
526	 0,211484791698454 
527	 0,211051068775983 
528	 0,210509756917216 
529	 0,209643970377423 
530	 0,20930773653675 
531	 0,210420530960911 
532	 0,2107096332908 
533	 0,2099916811667 
534	 0,209418781715446 
535	 0,209226595904727 
536	 0,209505018994541 
537	 0,209456442901148 
538	 0,209456949831932 
539	 0,210479367381735 
540	 0,210943351353406 
541	 0,210606777232109 
542	 0,21089911229536 
543	 0,211128320634863 
544	 0,21061549425721 
545	 0,21098880402132 
546	 0,211825008234925 
547	 0,21083330124059 
548	 0,210656372864936 
549	 0,212241994308334 
550	 0,212601808342255 
551	 0,212077165988828 
552	 0,211723493410996 
553	 0,211560034992607 
554	 0,211578093289741 
555	 0,211480544425773 
556	 0,211419103852467 
557	 0,211485726491156 
558	 0,211072218255167 
559	 0,210471799846009 
560	 0,210767203674088 
561	 0,210577645113363 
562	 0,209632319117754 
563	 0,20991758479341 
564	 0,210493608403999 
565	 0,209912141910285 
566	 0,209378516138494 
567	 0,209201910700051 
568	 0,209214575228195 
569	 0,209710020114481 
570	 0,210799461877372 
571	 0,211462578282662 
572	 0,211865147145232 
573	 0,212673389742897 
574	 0,214134935107101 
575	 0,216092119552001 
576	 0,217241443746748 
577	 0,217939653244685 
578	 0,218712152067984 
579	 0,220187410725003 
580	 0,221994813062899 
581	 0,22249434745176 
582	 0,222779983108255 
583	 0,223540373667759 
584	 0,224848965162166 
585	 0,226367775405613 
586	 0,227548096718293 
587	 0,22808113206996 
588	 0,228222403405835 
589	 0,229580904219685 
590	 0,231041396267679 
591	 0,231529422094582 
592	 0,23190586457164 
593	 0,232363951326778 
594	 0,23301504987841 
595	 0,23334258203164 
596	 0,233166683623867 
597	 0,233119480868295 
598	 0,233099389162103 
599	 0,232842954506173 
600	 0,232547113653096 
601	 0,232390393118446 
602	 0,232835631950971 
603	 0,233233016666442 
604	 0,232992763671743 
605	 0,231516023791768 
606	 0,22972843432969 
607	 0,230219768317812 
608	 0,230045102222164 
609	 0,228485871175753 
610	 0,228311792215076 
611	 0,228534605807788 
612	 0,22767233058825 
613	 0,227069846046668 
614	 0,226722118972301 
615	 0,225408696881901 
616	 0,224543255200294 
617	 0,224932733738499 
618	 0,225177865169742 
619	 0,224967291545009 
620	 0,224081744626561 
621	 0,223566497719539 
622	 0,223656890288519 
623	 0,223429696195746 
624	 0,223348701666631 
625	 0,22391276681967 
626	 0,224364201326613 
627	 0,224537482400484 
628	 0,224495859671275 
629	 0,224363702628988 
630	 0,224322978273643 
631	 0,225065446052075 
632	 0,225973467454863 
633	 0,225908590425479 
634	 0,226255409495355 
635	 0,227247291841565 
636	 0,228108438104687 
637	 0,228748843332678 
638	 0,229136470705925 
639	 0,229622625515383 
640	 0,230256239786324 
641	 0,23087402043946 
642	 0,232044107987096 
643	 0,233710140807894 
644	 0,234196182727806 
645	 0,234130430811057 
646	 0,234534366650807 
647	 0,234619051365262 
648	 0,23418775912784 
649	 0,23314191150843 
650	 0,232352297905719 
651	 0,232268796454763 
652	 0,231137537422832 
653	 0,229599210831626 
654	 0,229615092834608 
655	 0,228761410882241 
656	 0,226489607047517 
657	 0,224343392683977 
658	 0,222543181628562 
659	 0,22120025635726 
660	 0,219858631351313 
661	 0,218293361724931 
662	 0,216123638363781 
663	 0,21438495322437 
664	 0,213567999959268 
665	 0,213016638131753 
666	 0,212300607693376 
667	 0,210889758015575 
668	 0,209685442057553 
669	 0,209076966260411 
670	 0,209443693338324 
671	 0,209740139394344 
672	 0,209161101146107 
673	 0,208747073679817 
674	 0,208544203531401 
675	 0,208155656531741 
676	 0,208080533846757 
677	 0,208414490997097 
678	 0,20861114682754 
679	 0,208688813494244 
680	 0,208728923491014 
681	 0,208538918172912 
682	 0,208369297402883 
683	 0,209005543718238 
684	 0,21014762176284 
685	 0,211590766506485 
686	 0,213169275922699 
687	 0,214942301686712 
688	 0,217067274701833 
689	 0,219395166626575 
690	 0,222086495916282 
691	 0,225735809365012 
692	 0,230442396415214 
693	 0,236245085556464 
694	 0,242511401436971 
695	 0,249283479371261 
696	 0,257089832132748 
697	 0,265237712364792 
698	 0,273564805898374 
699	 0,282912341013121 
700	 0,293189516163318 
701	 0,304159271950147 
702	 0,314748379151539 
703	 0,324797359859586 
704	 0,335034448537897 
705	 0,345138668914934 
706	 0,35482614662534 
707	 0,363788115652026 
708	 0,372351509005392 
709	 0,381163724344299 
710	 0,389558614456825 
711	 0,397311280099191 
712	 0,404390951080716 
713	 0,411084822289683 
714	 0,417621033374299 
715	 0,423388306271864 
716	 0,428460117948189 
717	 0,433216406685299 
718	 0,438027515741386 
719	 0,442925489781518 
720	 0,446844351915131 
721	 0,450226851647275 
722	 0,453774190425524 
723	 0,457062363122838 
724	 0,460006144775977 
725	 0,462651750938375 
726	 0,464828352656986 
727	 0,466542880341761 
728	 0,468656705468988 
729	 0,470937669010037 
730	 0,472767428866672 
731	 0,474279894572341 
732	 0,475549705764125 
733	 0,476739802143974 
734	 0,477989480955423 
735	 0,479369258014351 
736	 0,480186019739881 
737	 0,480726211168764 
738	 0,48207627793209 
739	 0,48308971189905 
740	 0,483422158271671 
741	 0,483766769884671 
742	 0,484237496526228 
743	 0,484892784092909 
744	 0,485622178011086 
745	 0,486256395705112 
746	 0,486374436791508 
747	 0,486558162153386 
748	 0,487099557606391 
749	 0,487622138481901 
750	 0,488046857181853 
751	 0,488325816892392 
752	 0,488567388149815 
753	 0,488901346606669 
754	 0,489674919606185 
755	 0,490397532525996 
756	 0,490691472926909 
757	 0,49061153439742 
758	 0,490464132864615 
759	 0,490810106551066 
760	 0,491376810798161 
761	 0,49194810945972 
762	 0,491993208601316 
763	 0,491924321532194 
764	 0,492147944469367 
765	 0,492359497917132 
766	 0,492525790348682 
767	 0,492720122319495 
768	 0,492797780964498 
769	 0,492796999994917 
770	 0,493268339797574 
771	 0,493841152262101 
772	 0,494027624742172 
773	 0,493861821826662 
774	 0,493533989692731 
775	 0,493560536260443 
776	 0,493748222116554 
777	 0,493966038018184 
778	 0,494013835378499 
779	 0,494017333941542 
780	 0,494203440434139 
781	 0,494178607253289 
782	 0,49394537012524 
783	 0,493891659116615 
784	 0,493870595405155 
785	 0,493817234815509 
786	 0,493991700604732 
787	 0,494364916003698 
788	 0,494843976110716 
789	 0,495061882061904 
790	 0,495019874711658 
791	 0,495332391198428 
792	 0,495434206318678 
793	 0,494944827129891 
794	 0,494954946142905 
795	 0,495271293475572 
796	 0,49504122176351 
797	 0,495110875587018 
798	 0,495559358532905 
799	 0,495426276756755 
800	 0,495034282085277 
801	 0,494764650665097 
802	 0,494933349843211 
803	 0,495433801767651 
804	 0,495896802852515 
805	 0,495948165860681 
806	 0,495592517232485 
807	 0,495820970262689 
808	 0,496179114063509 
809	 0,496125842605555 
810	 0,496229839111735 
811	 0,496548367013458 
812	 0,496902084023448 
813	 0,497346973475147 
814	 0,497811592196297 
815	 0,497853883562929 
816	 0,497703215590269 
817	 0,497679831211802 
818	 0,497726205451349 
819	 0,497799283407461 
820	 0,497708471255827 
821	 0,497998756590892 
822	 0,49876780676391 
823	 0,498887730205034 
824	 0,498643799523253 
825	 0,498558222779807 
826	 0,498867573374844 
827	 0,499375592969809 
828	 0,499203736316414 
829	 0,499206129991751 
830	 0,499658138196015 
831	 0,49919692324586 
832	 0,498580430204257 
833	 0,499009058769817 
834	 0,499590435920429 
835	 0,499983032026108 
836	 0,499862079933337 
837	 0,499731919092119 
838	 0,499819683141668 
839	 0,499529863196867 
840	 0,49931145871078 
841	 0,499864224377925 
842	 0,499834394128526 
843	 0,499363793055694 
844	 0,500195352164636 
845	 0,500597734099693 
846	 0,499851118475492 
847	 0,500095764456276 
848	 0,500826832826432 
849	 0,501007805185734 
850	 0,500504237689276 
851	 0,499773097623016 
852	 0,500473579818635 
853	 0,501085116992103 
854	 0,500848447007214 
855	 0,5007422628397 
856	 0,500729629723231 
857	 0,500617636265866 
858	 0,500824145973194 
859	 0,501253607105937 
860	 0,501293048250609 
861	 0,501271828504298 
862	 0,501315557155147 
863	 0,501071297142824 
864	 0,500792257955067 
865	 0,50084346073469 
866	 0,501379144157938 
867	 0,502162424882428 
868	 0,502429467011929 
869	 0,502444106696044 
870	 0,502354769832865 
871	 0,502328116552672 
872	 0,50222069411015 
873	 0,501861417525065 
874	 0,502119338845301 
875	 0,502790259264601 
876	 0,502800468181135 
877	 0,502358392671421 
878	 0,501779224686099 
879	 0,502323864499378 
880	 0,503101905169755 
881	 0,503088361816643 
882	 0,503511470120842 
883	 0,504009217269114 
884	 0,502870087674059 
885	 0,502522777194394 
886	 0,503559706285076 
887	 0,504090413849599 
888	 0,503992830792455 
889	 0,503344149657125 
890	 0,503175253846126 
891	 0,503632087287384 
892	 0,504639172481205 
893	 0,504924693739909 
894	 0,504303913858919 
895	 0,504139599348132 
896	 0,504235500286226 
897	 0,504388223130937 
898	 0,504463890094065 
899	 0,504581221513387 
900	 0,505022072879457 
901	 0,505063035854413 
902	 0,504766446782593 
903	 0,505230924986751 
904	 0,505553976672947 
905	 0,505231744009929 
906	 0,505031678333214 
907	 0,505065808786644 
908	 0,505346594037305 
909	 0,505419066268897 
910	 0,505280899376358 
911	 0,505259887847407 
912	 0,505716274105813 
913	 0,506477010572917 
914	 0,505485639965511 
915	 0,504052028855622 
916	 0,503833829243857 
917	 0,504590280885545 
918	 0,505658244424154 
919	 0,505474241770228 
920	 0,505557683767013 
921	 0,506050427005353 
922	 0,505036871274616 
923	 0,503983215541273 
924	 0,50412878827727 
925	 0,504465885863547 
926	 0,50452304107398 
927	 0,503739308414376 
928	 0,503543532051514 
929	 0,503897683772214 
930	 0,502964814337499 
931	 0,502238776800651 
932	 0,502605304083376 
933	 0,50372016526059 
934	 0,504444371872677 
935	 0,503454100763778 
936	 0,502102640930662 
937	 0,501060227702114 
938	 0,50118940848183 
939	 0,501414275430255 
940	 0,501266534786541 
941	 0,500864179817084 
942	 0,50020164612323 
943	 0,499314384002614 
944	 0,498473335465677 
945	 0,49802988491504 
946	 0,49857519702255 
947	 0,497585428612801 
948	 0,495242945130363 
949	 0,495044884645759 
950	 0,495279848046122 
951	 0,494897322252577 
952	 0,493959561896332 
953	 0,492893655562601 
954	 0,492230334553062 
955	 0,492255756581594 
956	 0,492323726915766 
957	 0,490559310018344 
958	 0,489385976590208 
959	 0,489339735932196 
960	 0,488726428174968 
961	 0,48769547789271 
962	 0,486559471759191 
963	 0,486373681436705 
964	 0,487136036829116 
965	 0,48856716679828 
966	 0,488353013674457 
967	 0,486691901793558 
968	 0,486210473433882 
969	 0,485712153170362 
970	 0,484991118095985 
971	 0,485442001257427 
972	 0,486121676191086 
973	 0,486158785427597 
974	 0,486726629982169 
975	 0,487239109673683 
976	 0,48632157205475 
977	 0,486531304561913 
978	 0,488014856936654 
979	 0,488754951361804 
980	 0,488967359751362 
981	 0,488665006846757 
982	 0,487434909999583 
983	 0,48645833946082 
984	 0,486943884073001 
985	 0,488401633449215 
986	 0,490082729670444 
987	 0,490816051144461 
988	 0,490597774460955 
989	 0,489871884368422 
990	 0,490310690306216 
991	 0,490220390845523 
992	 0,489380822522476 
993	 0,492309582021053 
994	 0,494411584261401 
995	 0,491203245838828 
996	 0,49156730046677 
997	 0,494520159665784 
998	 0,494869960896027 
999	 0,495963204240942 
1000	 0,49775237196153 
1001	 0,496874532792244 
1002	 0,496715833135538 
1003	 0,498712614602388 
1004	 0,500640163103961 
1005	 0,500966533583334 
1006	 0,498667645213507 
1007	 0,496431334090802 
1008	 0,49601217524133 
1009	 0,499410266581568 
1010	 0,502423390642274 
1011	 0,50293930585353 
1012	 0,497653316871455 
1013	 0,498646662197829 
1014	 0,508305032071899 
1015	 0,50826994522692 
1016	 0,505748178377674 
1017	 0,50733106418966 
1018	 0,507716092430106 
1019	 0,506724850655037 
1020	 0,5052140359143 
1021	 0,507045483078229 
1022	 0,511386319312895 
1023	 0,5133649306967 
1024	 0,513980884337339 
1025	 0,513653527574589 
1026	 0,513329975990492 
1027	 0,513108649401757 
1028	 0,513258183920548 
1029	 0,515356649684258 
1030	 0,516116032982791 
1031	 0,512055542318069 
1032	 0,510436934243011 
1033	 0,512207341547283 
1034	 0,516393234635436 
1035	 0,515501488512234 
1036	 0,510715440447778 
1037	 0,514919770998106 
1038	 0,517058750666818 
1039	 0,514027180442328 
1040	 0,516989324991072 
1041	 0,522292872377277 
1042	 0,525495268723626 
1043	 0,520408840586351 
1044	 0,512684819490014 
1045	 0,511426424831007 
1046	 0,513228713849947 
1047	 0,51523023275286 
1048	 0,511733635794515 
1049	 0,516839489269575 
1050	 0,52950995444202 
1051	 0,531020805114929 
1052	 0,526957111566363 
1053	 0,521320924473925 
1054	 0,51764813549093 
1055	 0,51948371489882 
1056	 0,528124902528202 
1057	 0,531969706621062 
1058	 0,529436032754807 
1059	 0,521645530153205 
1060	 0,519212148686989 
1061	 0,522492637468316 
1062	 0,526696003840414 
1063	 0,525889690250884 
1064	 0,520976029848708 
1065	 0,52416299626608 
1066	 0,522707984607398 
1067	 0,514764592038853 
1068	 0,521748137962425 
1069	 0,527310263753999 
1070	 0,520834695278409 
1071	 0,52593721047198 
1072	 0,529909856834 
1073	 0,515546721100082 
1074	 0,499257542870304 
1075	 0,494251673999101 
