Wavelength	GRA-BER00138.asd
325	 0,116797783793036 
326	 0,127856270194912 
327	 8,21426996230273E-02 
328	-1,38177298152438E-02 
329	-5,45178912382434E-02 
330	-2,88983495915882E-02 
331	 7,33316554785575E-02 
332	 0,157292222551636 
333	 0,177297434181371 
334	 8,20243456342314E-02 
335	 8,04618466321367E-03 
336	 2,36054147336337E-02 
337	 0,049708950831054 
338	 7,66661851707636E-02 
339	 0,106220215497128 
340	 0,109004013167771 
341	 8,61334912670831E-02 
342	 5,25680236896555E-02 
343	 1,06814182749623E-02 
344	-1,77925866022267E-02 
345	 2,60691509033998E-03 
346	 0,057948412103584 
347	 0,124884646105885 
348	 0,105396551003053 
349	 3,64513326253722E-02 
350	 6,12409221531597E-02 
351	 9,23529835881586E-02 
352	 9,16755095899523E-02 
353	 7,32310262942755E-02 
354	 5,37996841059711E-02 
355	 0,055903277501216 
356	 0,065962403112124 
357	 7,37043356041669E-02 
358	 5,38783057373694E-02 
359	 4,88590380300079E-02 
360	 7,48623106643014E-02 
361	 0,103013369392512 
362	 0,115002926841502 
363	 8,77104241197315E-02 
364	 7,35749122476811E-02 
365	 7,61433079509909E-02 
366	 5,07726280927743E-02 
367	 4,42537318877208E-02 
368	 7,85308052290096E-02 
369	 7,23912141742548E-02 
370	 4,24370071885786E-02 
371	 3,01576681333277E-02 
372	 4,19316165587224E-02 
373	 7,09934408799475E-02 
374	 8,64777392213632E-02 
375	 7,98165174725039E-02 
376	 4,88131754560356E-02 
377	 5,78072907474275E-02 
378	 8,46832077567341E-02 
379	 6,13927994687483E-02 
380	 4,55285173722322E-02 
381	 5,30440390813603E-02 
382	 6,20181465045697E-02 
383	 7,24965314085221E-02 
384	 8,47374825585092E-02 
385	 7,25865284038153E-02 
386	 4,82414562865044E-02 
387	 0,057588816587004 
388	 6,66029774912807E-02 
389	 6,41116827762813E-02 
390	 6,43615412273418E-02 
391	 6,15721889860505E-02 
392	 4,83521939154689E-02 
393	 6,36727869103781E-02 
394	 9,25382953682373E-02 
395	 7,11939077179421E-02 
396	 5,00582044381813E-02 
397	 0,053662880288482 
398	 4,04328929588481E-02 
399	 2,57746190573663E-02 
400	 3,78091621320162E-02 
401	 0,054820827002044 
402	 6,70719078213675E-02 
403	 6,55894621384797E-02 
404	 5,82593580372846E-02 
405	 5,17807224279919E-02 
406	 5,31524883985398E-02 
407	 5,95177700630575E-02 
408	 6,49988728382406E-02 
409	 6,02345564340199E-02 
410	 4,66932911792444E-02 
411	 4,40356317907338E-02 
412	 4,74317304819821E-02 
413	 5,14211802359172E-02 
414	 6,07981412279139E-02 
415	 0,070209677962689 
416	 6,56820406030219E-02 
417	 6,06406759512821E-02 
418	 6,01160683250967E-02 
419	 5,68578549660337E-02 
420	 5,35641468468709E-02 
421	 0,05424051117132 
422	 5,41730286038696E-02 
423	 5,39180488661466E-02 
424	 5,95376201124887E-02 
425	 6,30807431643999E-02 
426	 0,060308082110791 
427	 5,80744013676718E-02 
428	 5,73619413631185E-02 
429	 5,79787510233037E-02 
430	 6,06519102918761E-02 
431	 6,39965162464996E-02 
432	 6,14579272177477E-02 
433	 5,93978274702829E-02 
434	 6,30489497820027E-02 
435	 6,03462083686981E-02 
436	 5,46158351800442E-02 
437	 6,03387676471309E-02 
438	 6,41843267540802E-02 
439	 6,17848368520858E-02 
440	 6,11425864815253E-02 
441	 6,18801517822243E-02 
442	 6,26568429257611E-02 
443	 6,13202379625884E-02 
444	 5,88034586578894E-02 
445	 0,059677523747982 
446	 6,25271304046532E-02 
447	 6,56366188866284E-02 
448	 6,23239311018054E-02 
449	 5,75716500409893E-02 
450	 6,23468873118854E-02 
451	 0,065105561550669 
452	 6,30431886130046E-02 
453	 6,04492497368079E-02 
454	 5,94435255758015E-02 
455	 6,17430229019623E-02 
456	 0,06567782558807 
457	 6,88250742773985E-02 
458	 6,63087345499608E-02 
459	 6,25841243484554E-02 
460	 6,03402207658425E-02 
461	 6,27906321634688E-02 
462	 6,63241363284618E-02 
463	 6,58184604431559E-02 
464	 0,065812637359756 
465	 6,67380949358653E-02 
466	 6,59857633540658E-02 
467	 6,56892937533127E-02 
468	 6,70463406791184E-02 
469	 6,68433553283009E-02 
470	 6,66962689051316E-02 
471	 7,11216533467493E-02 
472	 0,072352622740661 
473	 6,88773570718421E-02 
474	 6,58434786534361E-02 
475	 6,59967187729669E-02 
476	 7,12397727147039E-02 
477	 7,16193260172539E-02 
478	 6,74417617551835E-02 
479	 0,064872446284879 
480	 6,53580768528097E-02 
481	 6,90819045965374E-02 
482	 7,11784807957473E-02 
483	 7,15116399685031E-02 
484	 7,07930262745301E-02 
485	 6,95793309155062E-02 
486	 6,83987251241474E-02 
487	 6,77077494975739E-02 
488	 6,89559535306467E-02 
489	 7,27660769465822E-02 
490	 7,40417202773142E-02 
491	 7,34154531831191E-02 
492	 7,44297771143451E-02 
493	 7,49379869252279E-02 
494	 7,44044269162293E-02 
495	 7,35621013602887E-02 
496	 7,34746460476698E-02 
497	 7,51948196969331E-02 
498	 7,36055029192191E-02 
499	 7,00795888596738E-02 
500	 7,25693183487001E-02 
501	 7,47661766593242E-02 
502	 0,073550371232827 
503	 0,07472098257737 
504	 7,65507440828052E-02 
505	 7,47057868397583E-02 
506	 7,38048385340651E-02 
507	 7,50946878431224E-02 
508	 7,77292520320186E-02 
509	 7,90484909943678E-02 
510	 7,69669316480329E-02 
511	 7,63836804420134E-02 
512	 7,76228898041446E-02 
513	 7,91527708672699E-02 
514	 7,93539551669214E-02 
515	 7,80013475828416E-02 
516	 7,90754737138339E-02 
517	 8,07476963728828E-02 
518	 7,99365936994675E-02 
519	 7,97594038537585E-02 
520	 8,07081536978436E-02 
521	 8,16354250198564E-02 
522	 8,19991729411892E-02 
523	 8,15301041904656E-02 
524	 8,17048133703807E-02 
525	 8,23396080682507E-02 
526	 8,24400226933013E-02 
527	 8,25257482668144E-02 
528	 8,29155530921938E-02 
529	 8,44188719316655E-02 
530	 8,57934927320386E-02 
531	 0,085618215158044 
532	 8,52942649128185E-02 
533	 8,51893790774137E-02 
534	 8,53597348263378E-02 
535	 8,53014856450694E-02 
536	 8,48914574921616E-02 
537	 8,57518402986105E-02 
538	 8,71469497375237E-02 
539	 8,73754433097013E-02 
540	 8,73840508496791E-02 
541	 8,75446525394096E-02 
542	 8,82418224870414E-02 
543	 0,088855353281407 
544	 8,87944814830584E-02 
545	 8,89360175348159E-02 
546	 0,089449994893205 
547	 9,04038902628939E-02 
548	 9,07521455586195E-02 
549	 9,01597187328887E-02 
550	 0,090281282893122 
551	 9,08912028152227E-02 
552	 9,13335225231265E-02 
553	 9,16448066152064E-02 
554	 9,18142396526283E-02 
555	 9,18072964965028E-02 
556	 9,20760111364125E-02 
557	 0,092919521146681 
558	 9,31827878569741E-02 
559	 9,30705874334573E-02 
560	 9,37300943300842E-02 
561	 9,38936675181361E-02 
562	 9,33293670985632E-02 
563	 9,38677833916824E-02 
564	 9,47117659831196E-02 
565	 9,46043735356203E-02 
566	 9,50096798443712E-02 
567	 9,59319539626541E-02 
568	 9,60710442121336E-02 
569	 9,60694141898288E-02 
570	 9,63805808308001E-02 
571	 9,67957770227301E-02 
572	 9,71336438866024E-02 
573	 9,70691774012857E-02 
574	 9,68534297331103E-02 
575	 9,68308758666802E-02 
576	 9,82472545144354E-02 
577	 9,95942471086001E-02 
578	 9,91365428121754E-02 
579	 0,099032841768676 
580	 9,93868263795455E-02 
581	 9,86621127944163E-02 
582	 9,88986554057558E-02 
583	 0,100907357500151 
584	 0,101351826947197 
585	 0,100657059431908 
586	 0,100354755717533 
587	 0,100135794026809 
588	 0,10016040435488 
589	 0,101290928534725 
590	 0,102130732949372 
591	 0,101440068657049 
592	 0,101244218604339 
593	 0,101727478219628 
594	 0,102330731009678 
595	 0,102401688344758 
596	 0,10172960124616 
597	 0,101318713987544 
598	 0,101400504933084 
599	 0,102130572329142 
600	 0,102801631641706 
601	 0,103122733819169 
602	 0,102944162623171 
603	 0,102783522879149 
604	 0,103040180629431 
605	 0,103319500506328 
606	 0,103427930993118 
607	 0,102983942885101 
608	 0,102980328998195 
609	 0,103557760799924 
610	 0,103159208586244 
611	 0,102278343921266 
612	 0,101682939044029 
613	 0,102570643940797 
614	 0,104412806452279 
615	 0,104542191933938 
616	 0,104059499311958 
617	 0,103717096488056 
618	 0,103566685007159 
619	 0,10358529936118 
620	 0,103655040219171 
621	 0,103721173341218 
622	 0,103852856204194 
623	 0,104534148739709 
624	 0,105198071303662 
625	 0,105252375100251 
626	 0,105139209518486 
627	 0,105085715216095 
628	 0,105446158942623 
629	 0,105820158500089 
630	 0,105945183361087 
631	 0,105557228537192 
632	 0,105186067271896 
633	 0,105736277526505 
634	 0,106001861665151 
635	 0,105808791705131 
636	 0,106089368444656 
637	 0,106125097576994 
638	 0,105407747538011 
639	 0,105842120770675 
640	 0,106994176273989 
641	 0,106901197967496 
642	 0,10666635406326 
643	 0,106715230715815 
644	 0,10694733520279 
645	 0,107133434291686 
646	 0,106979546756656 
647	 0,107393503230405 
648	 0,108153725502571 
649	 0,10769655413156 
650	 0,107135162456209 
651	 0,107190054335286 
652	 0,107064928052664 
653	 0,106891678267399 
654	 0,107185857468628 
655	 0,10737249084369 
656	 0,107240146681123 
657	 0,106845289463905 
658	 0,106360641784819 
659	 0,105962097342654 
660	 0,105567813515112 
661	 0,105137568195322 
662	 0,104518579718745 
663	 0,104240462230079 
664	 0,104486060568942 
665	 0,104443612790277 
666	 0,10426058458022 
667	 0,104337001497192 
668	 0,104159850226367 
669	 0,103811571562899 
670	 0,104169323864286 
671	 0,104623736889265 
672	 0,10469133936581 
673	 0,104879255917069 
674	 0,105209912573683 
675	 0,105519041607281 
676	 0,105940321882967 
677	 0,106459857774079 
678	 0,106757322110233 
679	 0,106986041747151 
680	 0,107357404425176 
681	 0,107717901989281 
682	 0,10808337146501 
683	 0,108648246256204 
684	 0,109049535575171 
685	 0,109136648856444 
686	 0,109549694264469 
687	 0,110200862511253 
688	 0,110782793225428 
689	 0,111346208118095 
690	 0,11187957712881 
691	 0,112335518326704 
692	 0,11280271303518 
693	 0,113341808367469 
694	 0,113565052064562 
695	 0,113695940435179 
696	 0,114505438781688 
697	 0,115244224412294 
698	 0,115645338610302 
699	 0,116145110619016 
700	 0,116692561306069 
701	 0,117174303272599 
702	 0,117625041861198 
703	 0,117998685602202 
704	 0,118168197132135 
705	 0,118116078991806 
706	 0,117931429633136 
707	 0,11839787418981 
708	 0,119210885674759 
709	 0,119595600925259 
710	 0,120034683352932 
711	 0,120526745672108 
712	 0,120480694753286 
713	 0,120288250792848 
714	 0,120353881395093 
715	 0,120864334868874 
716	 0,121590957491085 
717	 0,121865242654786 
718	 0,122037275639427 
719	 0,122268293452587 
720	 0,122662060084946 
721	 0,123020834376976 
722	 0,123082306185818 
723	 0,123279632822933 
724	 0,123627390344539 
725	 0,123780964078054 
726	 0,123969452568182 
727	 0,12431416841279 
728	 0,124553870358164 
729	 0,12481196989816 
730	 0,125390817053116 
731	 0,125754671150906 
732	 0,125826322291137 
733	 0,126074580846273 
734	 0,126268890578515 
735	 0,126212744110108 
736	 0,126153742543864 
737	 0,12627606694666 
738	 0,127015220427489 
739	 0,127173230993012 
740	 0,126596042657823 
741	 0,127287572801391 
742	 0,128218009875952 
743	 0,128035945830729 
744	 0,127823056448577 
745	 0,127977148885385 
746	 0,1289829769154 
747	 0,129716843853881 
748	 0,129616184843391 
749	 0,129495798248336 
750	 0,129508583411323 
751	 0,12971377619315 
752	 0,130193867816659 
753	 0,130747436041092 
754	 0,130569025834426 
755	 0,130403231678567 
756	 0,130774394791405 
757	 0,131094433887453 
758	 0,131339645351684 
759	 0,131675414280431 
760	 0,131799251321704 
761	 0,131725145971558 
762	 0,131989153493635 
763	 0,132351437326595 
764	 0,132565601196821 
765	 0,132770552638202 
766	 0,133048182177986 
767	 0,133616951276552 
768	 0,133865746349342 
769	 0,133614622775754 
770	 0,133349196658652 
771	 0,133444446532981 
772	 0,13425210593957 
773	 0,134575969348534 
774	 0,13441385133434 
775	 0,134691771206175 
776	 0,135003969046096 
777	 0,135154419395465 
778	 0,135229082779026 
779	 0,135376885654123 
780	 0,135803677450177 
781	 0,136031358782351 
782	 0,13598794811502 
783	 0,135883957563623 
784	 0,135971233111433 
785	 0,136390613147335 
786	 0,136798983089978 
787	 0,137112642277654 
788	 0,137276420975892 
789	 0,137612294972834 
790	 0,138050143534217 
791	 0,137857955879335 
792	 0,137661139401784 
793	 0,137946312395225 
794	 0,13813792418222 
795	 0,138204584061658 
796	 0,138264144106076 
797	 0,138495124348274 
798	 0,138872684596568 
799	 0,138969889409868 
800	 0,13891069450405 
801	 0,138857719921433 
802	 0,139121446320152 
803	 0,139558645605458 
804	 0,139630915230707 
805	 0,1397718082373 
806	 0,140096228929343 
807	 0,140415547345541 
808	 0,140402801342139 
809	 0,139783545320553 
810	 0,139791660416467 
811	 0,140338972814936 
812	 0,140366655032594 
813	 0,140607618010468 
814	 0,141210879435636 
815	 0,141199401213785 
816	 0,141153099342579 
817	 0,141825517638202 
818	 0,142057847362127 
819	 0,141803886332337 
820	 0,141677878866874 
821	 0,141934010431005 
822	 0,14252878911272 
823	 0,14215830564908 
824	 0,141720565836967 
825	 0,142505115813702 
826	 0,14307998147428 
827	 0,143180400893879 
828	 0,14309078667819 
829	 0,14323216831199 
830	 0,143710864237565 
831	 0,143537900802837 
832	 0,14313983066048 
833	 0,143234594727 
834	 0,143267301174736 
835	 0,143210143352467 
836	 0,143398729130635 
837	 0,143630758326452 
838	 0,14379500960915 
839	 0,143994496142777 
840	 0,144080492379159 
841	 0,143842938565879 
842	 0,143425543333054 
843	 0,143068285075001 
844	 0,143353124310039 
845	 0,143763781461789 
846	 0,144011790401246 
847	 0,144321754326644 
848	 0,144542349824187 
849	 0,144443388966954 
850	 0,144559644911421 
851	 0,144855112057121 
852	 0,14474084502389 
853	 0,144530871077894 
854	 0,144471950255185 
855	 0,145022398252822 
856	 0,145519808342294 
857	 0,145024171166388 
858	 0,144614483920226 
859	 0,14454915893222 
860	 0,144713097360455 
861	 0,144827294843875 
862	 0,14480221908476 
863	 0,145205652446808 
864	 0,145571483566402 
865	 0,145243235555296 
866	 0,145142859514271 
867	 0,145402945022366 
868	 0,145692706117846 
869	 0,14607511802162 
870	 0,146486691475007 
871	 0,14655673091392 
872	 0,146249847220931 
873	 0,145595469128494 
874	 0,145063836224556 
875	 0,144924016372176 
876	 0,145575768929981 
877	 0,146102909815817 
878	 0,146160158152807 
879	 0,146430216737534 
880	 0,146584691007822 
881	 0,146236933653979 
882	 0,145588690556477 
883	 0,145119024287148 
884	 0,145993972471664 
885	 0,146555104337293 
886	 0,146281735183273 
887	 0,145976709242758 
888	 0,145849228028706 
889	 0,146040325004714 
890	 0,146269339375099 
891	 0,146502759498432 
892	 0,146863696923586 
893	 0,146646886901072 
894	 0,145956237158008 
895	 0,146274786849444 
896	 0,146909699461412 
897	 0,147244668467163 
898	 0,147300349716194 
899	 0,147106738760737 
900	 0,146706877831754 
901	 0,146907200821479 
902	 0,147567033934775 
903	 0,147144266703347 
904	 0,146974603538377 
905	 0,14772145905523 
906	 0,147743277467245 
907	 0,14715824610011 
908	 0,146435991195537 
909	 0,146776754841949 
910	 0,148049373570429 
911	 0,148905099349085 
912	 0,149159060831175 
913	 0,148828341946549 
914	 0,148924006270269 
915	 0,148896878284238 
916	 0,148116209604886 
917	 0,148272560690751 
918	 0,148974867634849 
919	 0,148296040836797 
920	 0,148064776709854 
921	 0,148680250461149 
922	 0,148817378812104 
923	 0,148991277769553 
924	 0,149590231584894 
925	 0,149727122428975 
926	 0,149293244803999 
927	 0,148311362760175 
928	 0,148351326170096 
929	 0,149338012995835 
930	 0,149154305244449 
931	 0,1486801508794 
932	 0,148533983306533 
933	 0,149230058437173 
934	 0,14970651881357 
935	 0,148635079820434 
936	 0,149341322006222 
937	 0,151330832443074 
938	 0,151052428790598 
939	 0,150860987419747 
940	 0,15132267010053 
941	 0,150621730243284 
942	 0,150063301301474 
943	 0,150741452711778 
944	 0,150751518210175 
945	 0,150206796211757 
946	 0,149881908675562 
947	 0,150121877581631 
948	 0,150882867311712 
949	 0,151505837222674 
950	 0,152141320067483 
951	 0,152733877275808 
952	 0,152454588894217 
953	 0,15188254759113 
954	 0,151831904165494 
955	 0,152754147553643 
956	 0,153586772521435 
957	 0,151273724305174 
958	 0,14965131615887 
959	 0,149891992227214 
960	 0,150474419287383 
961	 0,151159211538416 
962	 0,151628932937137 
963	 0,150544195491335 
964	 0,149951100898298 
965	 0,153103573278856 
966	 0,153771740355865 
967	 0,15194282728835 
968	 0,152964739526519 
969	 0,152389616112619 
970	 0,149515903540724 
971	 0,150997845144604 
972	 0,152800991589529 
973	 0,151276151834122 
974	 0,152350541689976 
975	 0,154470121987949 
976	 0,153161263014228 
977	 0,153088567826157 
978	 0,154564771770401 
979	 0,154089235225802 
980	 0,153570142866854 
981	 0,153897815849307 
982	 0,154225235556376 
983	 0,155251220573392 
984	 0,157464098358176 
985	 0,157826099580218 
986	 0,156273392888058 
987	 0,153722308832826 
988	 0,15352490903472 
989	 0,155473836426284 
990	 0,154600644260423 
991	 0,154326673914259 
992	 0,155786862573688 
993	 0,154632247493758 
994	 0,152513346005035 
995	 0,151567939658284 
996	 0,15137742578857 
997	 0,151953144693178 
998	 0,153352374459634 
999	 0,154752988736677 
1000	 0,156009679635035 
1001	 0,158271521368285 
1002	 0,157721602903677 
1003	 0,153671681666897 
1004	 0,15414629952972 
1005	 0,155733851058361 
1006	 0,154855138895879 
1007	 0,157073945103579 
1008	 0,159994629200037 
1009	 0,15787984819364 
1010	 0,156970231783358 
1011	 0,158244294365103 
1012	 0,159558316730081 
1013	 0,157886165873749 
1014	 0,153611825021474 
1015	 0,156381486986147 
1016	 0,159615854213559 
1017	 0,158076816658693 
1018	 0,161134561753375 
1019	 0,164459229396783 
1020	 0,160191697775682 
1021	 0,159940095193557 
1022	 0,163531111796096 
1023	 0,162312826172843 
1024	 0,162299299106329 
1025	 0,163868550154625 
1026	 0,159600566306186 
1027	 0,155896811712798 
1028	 0,156875292714049 
1029	 0,158385200572443 
1030	 0,160482850781529 
1031	 0,163327668260825 
1032	 0,16005723664363 
1033	 0,154478121425714 
1034	 0,15668211334412 
1035	 0,161358368310416 
1036	 0,166260159973884 
1037	 0,169872785129586 
1038	 0,169969530440854 
1039	 0,166495556232417 
1040	 0,16511678754851 
1041	 0,164620142646067 
1042	 0,16348378371083 
1043	 0,159411730891994 
1044	 0,157309512251668 
1045	 0,163675380613071 
1046	 0,165797310364716 
1047	 0,163747576015991 
1048	 0,164559174776706 
1049	 0,166718088207604 
1050	 0,168782592349913 
1051	 0,166427539111763 
1052	 0,166113050856193 
1053	 0,17044146631051 
1054	 0,174799522197055 
1055	 0,174975279462811 
1056	 0,168398441030138 
1057	 0,164753441435637 
1058	 0,162441452448779 
1059	 0,157403236212162 
1060	 0,159865151412551 
1061	 0,166354271342246 
1062	 0,164332870090296 
1063	 0,170990960606231 
1064	 0,182154521465319 
1065	 0,163868283014116 
1066	 0,151487610181907 
1067	 0,16130003072077 
1068	 0,181326552000609 
1069	 0,188469312570057 
1070	 0,170488809997391 
1071	 0,167364279072157 
1072	 0,168647753264203 
1073	 0,157061361113339 
1074	 0,148841701558326 
1075	 0,147408053700954 
