Wavelength	GRA-VIE00454.asd
325	 0,287692107781177 
326	 0,200897929773023 
327	 0,218260290890011 
328	 0,32117473712082 
329	 0,261656529823483 
330	 0,20632061233014 
331	 0,29499765956701 
332	 0,26009175562879 
333	 0,103187368613937 
334	-1,00586046068409E-03 
335	-3,65199725982094E-03 
336	 7,36531425224839E-02 
337	 0,190635872142331 
338	 0,228725360629371 
339	 0,113969211217808 
340	 0,107514139273122 
341	 0,184290121270667 
342	 0,141530825279633 
343	 0,125034339024149 
344	 0,156483714399096 
345	 0,160424450754745 
346	 0,149711464160642 
347	 0,139769384842042 
348	 0,101634954665918 
349	 4,97998684066235E-02 
350	 3,56811963054053E-02 
351	 3,57972826231324E-02 
352	 4,43801211112862E-02 
353	 9,03459544940949E-02 
354	 0,123215018214213 
355	 9,26890780182151E-02 
356	 7,64196281992188E-02 
357	 8,08031017804802E-02 
358	 7,21559183755894E-02 
359	 7,10852403624635E-02 
360	 8,45092015096756E-02 
361	 8,67253840799885E-02 
362	 8,97916143380504E-02 
363	 0,115248621229471 
364	 0,102047608499253 
365	 5,53801350932305E-02 
366	 4,47271463032854E-02 
367	 5,43749602806328E-02 
368	 6,89118173317315E-02 
369	 5,51373113728148E-02 
370	 2,90753174758099E-02 
371	 2,28315203037981E-02 
372	 3,30544001414688E-02 
373	 5,69775094357076E-02 
374	 8,73461329117327E-02 
375	 9,24402988289274E-02 
376	 5,33268384008695E-02 
377	 2,87618962695454E-02 
378	 2,62042280475078E-02 
379	 3,46294619965611E-02 
380	 4,47187271437731E-02 
381	 5,11976033625415E-02 
382	 4,86299370886867E-02 
383	 4,58447413304129E-02 
384	 5,13145649498816E-02 
385	 0,053065884589725 
386	 4,78914599001848E-02 
387	 2,86039064557717E-02 
388	 3,26368396017995E-02 
389	 6,48656249837993E-02 
390	 6,33399347932279E-02 
391	 4,59433203132843E-02 
392	 3,95416525654871E-02 
393	 2,72711913957769E-02 
394	 1,46281432062731E-02 
395	 2,92216637687385E-02 
396	 0,040995516526172 
397	 3,70755946570729E-02 
398	 3,57587425179033E-02 
399	 3,38973716651581E-02 
400	 2,27594285451789E-02 
401	 2,62942115455535E-02 
402	 4,06531139176505E-02 
403	 2,76028139423316E-02 
404	 1,97777672254143E-02 
405	 3,65527803138412E-02 
406	 3,15647648186752E-02 
407	 1,56550434463859E-02 
408	 2,50465992390188E-02 
409	 2,84646383183357E-02 
410	 2,02868804267141E-02 
411	 1,54812708887577E-02 
412	 1,86773670966173E-02 
413	 3,18931251493487E-02 
414	 2,82600885629764E-02 
415	 1,40580178750533E-02 
416	 0,019497592344013 
417	 2,16507863175028E-02 
418	 0,013767665834837 
419	 1,13949483710322E-02 
420	 1,49262094420009E-02 
421	 0,023157501719283 
422	 2,33592808392143E-02 
423	 1,72053862930626E-02 
424	 2,14082483748454E-02 
425	 2,29228408907714E-02 
426	 1,52923293664034E-02 
427	 1,50325295202607E-02 
428	 1,89189858486042E-02 
429	 1,72862222051916E-02 
430	 1,69352211850826E-02 
431	 1,87489652505601E-02 
432	 1,79278919575499E-02 
433	 1,74193497876338E-02 
434	 1,97398929639879E-02 
435	 2,08391114450022E-02 
436	 2,00404383650217E-02 
437	 1,75726550101337E-02 
438	 1,46468425995753E-02 
439	 1,26222946793915E-02 
440	 1,51173121466073E-02 
441	 1,88147269648963E-02 
442	 1,94052459116284E-02 
443	 0,018143391494238 
444	 1,67741092485224E-02 
445	 2,01383139207602E-02 
446	 2,37327532262442E-02 
447	 2,44577061117243E-02 
448	 2,12014313892216E-02 
449	 1,69856302792067E-02 
450	 1,74164448685412E-02 
451	 1,95010193042887E-02 
452	 2,13643850848903E-02 
453	 1,92504889205582E-02 
454	 1,65746225878993E-02 
455	 1,66683704763852E-02 
456	 1,81414165411932E-02 
457	 0,02013261752695 
458	 2,16315474560617E-02 
459	 2,04935856664547E-02 
460	 1,68018428416082E-02 
461	 0,017468562399465 
462	 1,94609212246142E-02 
463	 0,017850880379593 
464	 1,72509414595906E-02 
465	 1,85893756482649E-02 
466	 2,15450714700713E-02 
467	 2,20359937250888E-02 
468	 1,80540900990018E-02 
469	 1,75883810583003E-02 
470	 1,90774476951894E-02 
471	 1,66900511810795E-02 
472	 1,73135940458916E-02 
473	 2,12253614074496E-02 
474	 1,88165920945438E-02 
475	 1,62124783242746E-02 
476	 1,95626199304285E-02 
477	 1,95267111971389E-02 
478	 1,63205767209264E-02 
479	 1,56521793372441E-02 
480	 1,60848750178156E-02 
481	 1,66343124799933E-02 
482	 1,46619529262938E-02 
483	 1,26023199918257E-02 
484	 1,43947315118437E-02 
485	 0,017696550485088 
486	 2,06193732777149E-02 
487	 1,88481391611477E-02 
488	 1,70224497377611E-02 
489	 1,85508978690271E-02 
490	 2,01134976176639E-02 
491	 2,01275578795572E-02 
492	 1,57413322217721E-02 
493	 1,37260660284945E-02 
494	 1,58807874711553E-02 
495	 1,72575776710996E-02 
496	 1,71675190644629E-02 
497	 1,53568628229432E-02 
498	 1,51699656770522E-02 
499	 1,62404491702512E-02 
500	 1,45682805899496E-02 
501	 1,41383465831178E-02 
502	 1,66552835736789E-02 
503	 1,63535530155293E-02 
504	 0,014871772346242 
505	 1,63674947407323E-02 
506	 1,76688526852805E-02 
507	 1,77148802740192E-02 
508	 0,01620810992289 
509	 1,48181502557431E-02 
510	 1,50246927159172E-02 
511	 1,54717736051663E-02 
512	 1,59227139015543E-02 
513	 1,65447442177121E-02 
514	 1,69213462388941E-02 
515	 0,017048527815493 
516	 1,82625929592589E-02 
517	 0,01944447639199 
518	 1,89084153913841E-02 
519	 1,87010375432052E-02 
520	 1,88362146920522E-02 
521	 1,71914311084801E-02 
522	 1,59621428032162E-02 
523	 1,66117699886176E-02 
524	 1,65636927464624E-02 
525	 1,60410548969148E-02 
526	 1,65023084241543E-02 
527	 1,70748658853876E-02 
528	 1,73774736912476E-02 
529	 1,70958049417398E-02 
530	 1,65747270310882E-02 
531	 1,62358264638006E-02 
532	 1,65874646516803E-02 
533	 1,72648643277737E-02 
534	 1,67527770373981E-02 
535	 1,61570271660828E-02 
536	 1,61916361727472E-02 
537	 1,71305715254871E-02 
538	 1,78363164292156E-02 
539	 1,60396832384132E-02 
540	 1,55566795451327E-02 
541	 1,70731244183693E-02 
542	 1,78043942349756E-02 
543	 1,76065528067585E-02 
544	 1,65568225886816E-02 
545	 1,61463354515047E-02 
546	 1,64118214936777E-02 
547	 1,64196208003528E-02 
548	 1,65815837271617E-02 
549	 1,70040367835192E-02 
550	 0,017179828977863 
551	 1,70911616466461E-02 
552	 1,68035894819326E-02 
553	 1,65682430965941E-02 
554	 1,64103101498091E-02 
555	 1,59719208879763E-02 
556	 1,57758182998981E-02 
557	 1,62381300008545E-02 
558	 1,69245563346084E-02 
559	 1,74277892572311E-02 
560	 1,69404665657062E-02 
561	 1,66858085908691E-02 
562	 1,70577235897957E-02 
563	 1,71055538379758E-02 
564	 1,68840501960762E-02 
565	 1,65790217881011E-02 
566	 1,63879976016342E-02 
567	 1,64630606438112E-02 
568	 0,017103294037095 
569	 1,76329680676779E-02 
570	 1,76097110396668E-02 
571	 1,76658265132437E-02 
572	 1,79814327638059E-02 
573	 1,88522684582153E-02 
574	 0,018801805397587 
575	 1,77608077804055E-02 
576	 1,84218423830325E-02 
577	 1,94834212409552E-02 
578	 1,93095824733542E-02 
579	 1,98826077939436E-02 
580	 2,09497996597914E-02 
581	 2,03595609916552E-02 
582	 1,96937309985478E-02 
583	 1,98108906739205E-02 
584	 1,98092664601061E-02 
585	 1,96331718165558E-02 
586	 0,019283388314898 
587	 0,02002481250972 
588	 2,17135477835454E-02 
589	 2,20251749504162E-02 
590	 2,15631191614771E-02 
591	 2,10137050760355E-02 
592	 0,020378620829914 
593	 1,99910917744103E-02 
594	 2,07174689562859E-02 
595	 2,09774994139623E-02 
596	 2,02601103899186E-02 
597	 2,06723448906302E-02 
598	 2,14778180285483E-02 
599	 2,12606118782395E-02 
600	 2,08917246037081E-02 
601	 2,07781619496351E-02 
602	 2,16007859533597E-02 
603	 2,21190424501609E-02 
604	 2,14083349562619E-02 
605	 2,08978275957941E-02 
606	 2,05199973495892E-02 
607	 1,93798780833678E-02 
608	 1,85652623350594E-02 
609	 1,84808936943277E-02 
610	 1,87272491008671E-02 
611	 1,90771598015078E-02 
612	 1,93005613634539E-02 
613	 1,93133301137862E-02 
614	 1,91832740995471E-02 
615	 0,019209996127319 
616	 0,019354923541503 
617	 1,95291560878111E-02 
618	 1,91397390089334E-02 
619	 1,86115477922169E-02 
620	 1,89587889659801E-02 
621	 1,92124315773144E-02 
622	 1,90828048933395E-02 
623	 1,88051922300671E-02 
624	 1,86433726471277E-02 
625	 1,88517054761248E-02 
626	 1,93541301873354E-02 
627	 1,98255901838065E-02 
628	 1,93837450311829E-02 
629	 1,90775274717185E-02 
630	 1,94135275985714E-02 
631	 1,97365711754636E-02 
632	 0,019982005075805 
633	 2,01745249517294E-02 
634	 2,03941612759318E-02 
635	 2,06631523887104E-02 
636	 2,09798879968042E-02 
637	 2,11742260410563E-02 
638	 0,021133303401835 
639	 2,13644831122965E-02 
640	 2,17223955383428E-02 
641	 2,15302294163474E-02 
642	 2,16692558443237E-02 
643	 0,0223257161801 
644	 2,22532780914561E-02 
645	 2,21683985831189E-02 
646	 2,31420929113954E-02 
647	 2,31815578069788E-02 
648	 2,22959194345475E-02 
649	 2,23412942946266E-02 
650	 0,022502989184467 
651	 2,22480890912082E-02 
652	 2,19072955239218E-02 
653	 2,17087601321704E-02 
654	 2,20371719733809E-02 
655	 2,22808122505757E-02 
656	 2,21483749189532E-02 
657	 2,13912555013753E-02 
658	 2,06893853956802E-02 
659	 2,07253539565763E-02 
660	 0,020441388216264 
661	 1,97804330691631E-02 
662	 1,92292627463851E-02 
663	 1,88169047868666E-02 
664	 1,85470199055313E-02 
665	 0,018217747652867 
666	 1,78054550432499E-02 
667	 1,72957741969692E-02 
668	 1,71496432352683E-02 
669	 1,73534308977884E-02 
670	 1,72214425647858E-02 
671	 1,73333169353742E-02 
672	 0,01806379704171 
673	 1,80337673339316E-02 
674	 1,73947681156169E-02 
675	 1,70372267298054E-02 
676	 1,69684264050456E-02 
677	 1,71735253814612E-02 
678	 1,72260148571173E-02 
679	 1,74302203311406E-02 
680	 1,81746251699954E-02 
681	 1,82209272901314E-02 
682	 1,76348089933476E-02 
683	 1,75832414641123E-02 
684	 1,77221306473996E-02 
685	 1,78643520768374E-02 
686	 1,80757758897699E-02 
687	 1,84511279390422E-02 
688	 1,91257911553668E-02 
689	 0,020181850624492 
690	 2,13826754450939E-02 
691	 0,021539839153268 
692	 2,21519811286367E-02 
693	 2,44919292418885E-02 
694	 2,63091877945135E-02 
695	 2,77464464461762E-02 
696	 3,03019306447972E-02 
697	 3,31317178654132E-02 
698	 3,59690347034415E-02 
699	 3,92798194799534E-02 
700	 0,04305544185436 
701	 4,72241036786314E-02 
702	 5,15958629691956E-02 
703	 5,59915431663394E-02 
704	 6,00313621708953E-02 
705	 6,43898390208271E-02 
706	 6,94068918973945E-02 
707	 7,41244254010574E-02 
708	 7,85132998805206E-02 
709	 8,27809942163196E-02 
710	 8,70090795707243E-02 
711	 9,11892783761584E-02 
712	 9,50946210995389E-02 
713	 9,88499328926881E-02 
714	 0,102558223211345 
715	 0,105597872655444 
716	 0,108246688993951 
717	 0,111509657325254 
718	 0,114764331188316 
719	 0,117686541528784 
720	 0,120019743278074 
721	 0,121877543994753 
722	 0,123455207974206 
723	 0,125484057067793 
724	 0,127863992027764 
725	 0,129605317038458 
726	 0,131107681947352 
727	 0,132601156965732 
728	 0,133889877164172 
729	 0,135000987892785 
730	 0,136008381109448 
731	 0,137003594184304 
732	 0,137959346576268 
733	 0,138556059310313 
734	 0,1392310166278 
735	 0,140336267238341 
736	 0,141231788167383 
737	 0,141888102813352 
738	 0,142557457714896 
739	 0,14310348973505 
740	 0,143497151152316 
741	 0,143807661573689 
742	 0,144176184262865 
743	 0,144751070759722 
744	 0,145407888886476 
745	 0,146064566488945 
746	 0,14657850088933 
747	 0,147123709512469 
748	 0,147731868651879 
749	 0,147929734901773 
750	 0,147993177892469 
751	 0,148422686810115 
752	 0,148811757069682 
753	 0,149150038999218 
754	 0,149848839015478 
755	 0,150419968500959 
756	 0,150543857971762 
757	 0,150848763875044 
758	 0,151144527051938 
759	 0,15076518179378 
760	 0,150983733085009 
761	 0,1519445340584 
762	 0,152195759596041 
763	 0,152213190285183 
764	 0,152513521154564 
765	 0,152996790076273 
766	 0,153395224138189 
767	 0,15301139188822 
768	 0,152769543500586 
769	 0,153050741050629 
770	 0,153620834978383 
771	 0,154178890204865 
772	 0,154402141171214 
773	 0,154525791837144 
774	 0,15461985786133 
775	 0,154690985606247 
776	 0,154912728244395 
777	 0,155299066004037 
778	 0,155242159880589 
779	 0,155102719576438 
780	 0,155502333381314 
781	 0,155800438678118 
782	 0,155899923691923 
783	 0,156063691935144 
784	 0,156406822286408 
785	 0,156930207686697 
786	 0,156989378292733 
787	 0,156743326637079 
788	 0,156626402166607 
789	 0,15669145929654 
790	 0,156941571512054 
791	 0,15723943878873 
792	 0,157454661959641 
793	 0,157513415435615 
794	 0,157814804559248 
795	 0,158152804305175 
796	 0,157931260220199 
797	 0,157809314441611 
798	 0,157961587958803 
799	 0,158051852526511 
800	 0,158099372555293 
801	 0,158155887211584 
802	 0,158513084796161 
803	 0,159032847858131 
804	 0,159242575893798 
805	 0,159370897778258 
806	 0,159512172270267 
807	 0,159718070728519 
808	 0,159999509499022 
809	 0,160356326878408 
810	 0,160747737964131 
811	 0,161056745966601 
812	 0,160971237151966 
813	 0,161045797019853 
814	 0,16142616780253 
815	 0,161383825491239 
816	 0,161300282774971 
817	 0,161689252560622 
818	 0,162274023909895 
819	 0,16271602049975 
820	 0,162132534968254 
821	 0,162055249262135 
822	 0,16297524673557 
823	 0,162782674812875 
824	 0,162493619394011 
825	 0,163639988014124 
826	 0,164155486220115 
827	 0,1638067842295 
828	 0,163449517699672 
829	 0,163399071431086 
830	 0,163809164508702 
831	 0,164248863732342 
832	 0,164557022819135 
833	 0,16459931286603 
834	 0,164610511370032 
835	 0,164678299142231 
836	 0,164871233889296 
837	 0,164967030155706 
838	 0,164899467925799 
839	 0,165128052866237 
840	 0,165453331187235 
841	 0,165529924106699 
842	 0,165338385437274 
843	 0,165135551015206 
844	 0,165872728076573 
845	 0,166076379190427 
846	 0,165199465479053 
847	 0,165633881148862 
848	 0,166349567550756 
849	 0,165550167379212 
850	 0,165133950553848 
851	 0,165378133646702 
852	 0,165606035262158 
853	 0,165529678161621 
854	 0,165068027339283 
855	 0,164938105184904 
856	 0,165093972317227 
857	 0,165346969911846 
858	 0,165335326627096 
859	 0,165169003536443 
860	 0,165580978468798 
861	 0,165798425656065 
862	 0,165507795436611 
863	 0,165420148115796 
864	 0,165727890864142 
865	 0,166555044622888 
866	 0,167198213986196 
867	 0,16751992700292 
868	 0,167735708633802 
869	 0,167918560801395 
870	 0,168057066300099 
871	 0,167761979325312 
872	 0,167464436699772 
873	 0,167703509671216 
874	 0,167911950263523 
875	 0,16812587215887 
876	 0,168882279895495 
877	 0,16931444611889 
878	 0,169202144722286 
879	 0,169642291323193 
880	 0,170115264761871 
881	 0,170024127934906 
882	 0,170556370029884 
883	 0,171366474158314 
884	 0,17086731540514 
885	 0,170673869274873 
886	 0,171237857908802 
887	 0,171579561159089 
888	 0,172004658078818 
889	 0,172766150554408 
890	 0,172721445969865 
891	 0,17234106176433 
892	 0,173149078323841 
893	 0,173455214828578 
894	 0,173057586239628 
895	 0,173686537775281 
896	 0,174109332607577 
897	 0,173445116106769 
898	 0,173215040849614 
899	 0,173584775682172 
900	 0,174404287355444 
901	 0,17509135175554 
902	 0,17550433201277 
903	 0,175954457138604 
904	 0,176408105512917 
905	 0,176733900060855 
906	 0,17615341703092 
907	 0,175248346961074 
908	 0,174956893489583 
909	 0,175307764322266 
910	 0,175989372605135 
911	 0,17594861563747 
912	 0,176114332685893 
913	 0,176752676285589 
914	 0,176719231408577 
915	 0,176487214595119 
916	 0,176662121867746 
917	 0,176541974462166 
918	 0,176257095295161 
919	 0,176536962988992 
920	 0,176357359503201 
921	 0,175600087170911 
922	 0,175488672214999 
923	 0,175572028760003 
924	 0,175432191725731 
925	 0,17529141886763 
926	 0,175069519653053 
927	 0,174605498008887 
928	 0,173508826254046 
929	 0,172473456997285 
930	 0,174389969198978 
931	 0,176001275463056 
932	 0,175510261595293 
933	 0,175203426858762 
934	 0,174704427322219 
935	 0,173279332402524 
936	 0,172575433480015 
937	 0,172537820779278 
938	 0,171708563366833 
939	 0,172044153667132 
940	 0,173358032879609 
941	 0,170745244856028 
942	 0,16842731234833 
943	 0,170022897870318 
944	 0,170254766478468 
945	 0,169158087529049 
946	 0,168486763380858 
947	 0,16731989506129 
948	 0,165634096540186 
949	 0,163865511033547 
950	 0,163596527551185 
951	 0,165070143663157 
952	 0,163663325553329 
953	 0,161244219149506 
954	 0,160627924921081 
955	 0,159892609924865 
956	 0,159103554054785 
957	 0,159408291472435 
958	 0,159544262648631 
959	 0,158977585092839 
960	 0,15753803055657 
961	 0,156317417869895 
962	 0,156036818403615 
963	 0,15515840480641 
964	 0,15443809139968 
965	 0,155303196427557 
966	 0,156003961258046 
967	 0,155791705122084 
968	 0,153595292125549 
969	 0,153107995246913 
970	 0,155180277400216 
971	 0,154777851292305 
972	 0,154023069381735 
973	 0,155052914921875 
974	 0,156230348642131 
975	 0,156741182326761 
976	 0,155617530424392 
977	 0,15539612793427 
978	 0,156039589405372 
979	 0,154425014138767 
980	 0,154558853793368 
981	 0,157572144277973 
982	 0,157905555347189 
983	 0,156367919514549 
984	 0,154531557442286 
985	 0,1552872223034 
986	 0,157763703123156 
987	 0,15915116580676 
988	 0,159186988591619 
989	 0,158390761414142 
990	 0,159167779811194 
991	 0,160245988551789 
992	 0,160880459690442 
993	 0,160887395373087 
994	 0,160975701567989 
995	 0,16187853127993 
996	 0,163293740084434 
997	 0,164199632837014 
998	 0,162659769090072 
999	 0,164509189955494 
1000	 0,168555210962631 
1001	 0,164455947368725 
1002	 0,160390779923424 
1003	 0,160677776130816 
1004	 0,163200210500163 
1005	 0,166669708538513 
1006	 0,169565859928951 
1007	 0,168400358616204 
1008	 0,165641329266555 
1009	 0,166610480464017 
1010	 0,169445707733818 
1011	 0,17260019545798 
1012	 0,173027968178192 
1013	 0,171852153131476 
1014	 0,170328972421407 
1015	 0,17156631792083 
1016	 0,175235357152537 
1017	 0,180044536892582 
1018	 0,180417804261565 
1019	 0,177961162145495 
1020	 0,176433753080645 
1021	 0,176803220777594 
1022	 0,178443483279815 
1023	 0,178520075797811 
1024	 0,178905292906894 
1025	 0,180060854657694 
1026	 0,181028214669118 
1027	 0,183434348367929 
1028	 0,186940784594891 
1029	 0,181398447811848 
1030	 0,176933688478181 
1031	 0,185495621394943 
1032	 0,188021658086479 
1033	 0,184602304474782 
1034	 0,182991202926845 
1035	 0,18506769371074 
1036	 0,19004232021143 
1037	 0,192878249230841 
1038	 0,192801654697269 
1039	 0,19023086062447 
1040	 0,189681203990077 
1041	 0,190793664068253 
1042	 0,192723924455894 
1043	 0,19249419177642 
1044	 0,192563179049127 
1045	 0,196524427099074 
1046	 0,19672242262465 
1047	 0,194617778672406 
1048	 0,197931764936783 
1049	 0,198475228958403 
1050	 0,19632169986162 
1051	 0,202089009290552 
1052	 0,205575915640375 
1053	 0,203173099078248 
1054	 0,2057590343889 
1055	 0,20511552917426 
1056	 0,195721581109088 
1057	 0,198505799328404 
1058	 0,202585023640302 
1059	 0,190032499127491 
1060	 0,19882465441119 
1061	 0,219140247335747 
1062	 0,212706574446931 
1063	 0,208621652088547 
1064	 0,212956425023951 
1065	 0,215070205783099 
1066	 0,21686467486819 
1067	 0,217121174409813 
1068	 0,205240384580369 
1069	 0,198507474608696 
1070	 0,207638290598639 
1071	 0,205028668300266 
1072	 0,197838992690898 
1073	 0,198531749336581 
1074	 0,210693984039631 
1075	 0,225830757238986 
