Wavelength	GRA-BER00701.asd
325	 0,207001145506429 
326	 0,102591261709843 
327	 5,29648696461255E-02 
328	 0,112571907226503 
329	 0,13880892253493 
330	 0,186362148796393 
331	 0,280097144565976 
332	 0,121557178448815 
333	-0,117043030564105 
334	-5,67535917944161E-02 
335	 1,44407237729727E-02 
336	 2,64011442846207E-02 
337	-1,35394525980496E-02 
338	-4,55007261172281E-02 
339	-1,41195917725524E-02 
340	-3,77440508060369E-03 
341	-2,74655489934591E-04 
342	 7,66064871253291E-02 
343	 0,057891876356952 
344	-6,09720237440915E-02 
345	-5,61331282905627E-03 
346	 8,31353648817882E-02 
347	 5,13336418219107E-02 
348	 0,042782129908747 
349	 5,65986527112794E-02 
350	 2,87478432969571E-02 
351	 0,052038480772139 
352	 0,128653830811153 
353	 0,12336155640448 
354	 7,02559258089318E-02 
355	 8,51910751217572E-03 
356	 9,55796945172775E-03 
357	 0,064431647543326 
358	 6,72596225136103E-02 
359	 5,80538411317705E-02 
360	 5,40726298949625E-02 
361	 6,12569981587233E-02 
362	 6,57452442207658E-02 
363	 4,69784787274218E-02 
364	 4,28512564635738E-02 
365	 5,27629981735056E-02 
366	 3,96184749610787E-02 
367	 3,80313845941699E-02 
368	 6,49825989788077E-02 
369	 6,91022486638069E-02 
370	 6,00014933392677E-02 
371	 6,25032229168171E-02 
372	 6,71211619804876E-02 
373	 0,06861052700733 
374	 5,53033568618999E-02 
375	 4,57639434416246E-02 
376	 5,20878106929377E-02 
377	 3,89302058276862E-02 
378	 0,018982967236757 
379	 3,16627643186986E-02 
380	 3,64517939951963E-02 
381	 2,93654882353935E-02 
382	 5,16287921651733E-02 
383	 7,48880294990557E-02 
384	 7,29022918661486E-02 
385	 6,74585957030612E-02 
386	 6,16142133502829E-02 
387	 4,79535295238914E-02 
388	 4,58471462075565E-02 
389	 5,79120947980463E-02 
390	 5,10726973926582E-02 
391	 3,90426992019318E-02 
392	 4,11020511496977E-02 
393	 3,83090520142598E-02 
394	 3,29153073434098E-02 
395	 4,51675064328611E-02 
396	 5,61527964558679E-02 
397	 5,56424401876283E-02 
398	 0,042619803791981 
399	 3,16828660940551E-02 
400	 4,32973345999264E-02 
401	 0,05030546655156 
402	 4,97442074565129E-02 
403	 6,02359718877161E-02 
404	 6,22636149357842E-02 
405	 4,47903149104919E-02 
406	 3,70313735491962E-02 
407	 4,06319848763121E-02 
408	 5,02293639977434E-02 
409	 5,84853525452833E-02 
410	 6,23447748634274E-02 
411	 6,58605082008592E-02 
412	 6,29051672599215E-02 
413	 4,86252841053456E-02 
414	 4,64267996662898E-02 
415	 5,47923390975354E-02 
416	 5,83331917463544E-02 
417	 6,04553075539808E-02 
418	 6,17714824020793E-02 
419	 6,08336482923703E-02 
420	 5,74935468020757E-02 
421	 0,051670317041969 
422	 5,15313776779483E-02 
423	 5,62261729814106E-02 
424	 5,64194944103757E-02 
425	 5,66415062781501E-02 
426	 5,93517564928156E-02 
427	 0,061537881644104 
428	 6,25601896338804E-02 
429	 0,062177549965541 
430	 5,99471095875773E-02 
431	 5,68287698803993E-02 
432	 5,70007522076836E-02 
433	 5,76595820147316E-02 
434	 0,056591369398574 
435	 6,18884664810862E-02 
436	 6,91192038122853E-02 
437	 6,34752664345094E-02 
438	 5,90944915082845E-02 
439	 6,09164024426258E-02 
440	 6,18370517044194E-02 
441	 6,17995309588003E-02 
442	 0,061550461652494 
443	 6,13747986070077E-02 
444	 6,10483342292859E-02 
445	 5,89808243459197E-02 
446	 5,91320006982787E-02 
447	 6,32068687405791E-02 
448	 6,28147477356521E-02 
449	 6,12120353051945E-02 
450	 6,69533656211078E-02 
451	 6,91608098779863E-02 
452	 6,58119324213562E-02 
453	 6,38397425838604E-02 
454	 6,45202467767728E-02 
455	 6,82775392582537E-02 
456	 6,75409621206641E-02 
457	 6,42585862689289E-02 
458	 6,78545036278017E-02 
459	 7,04913310768848E-02 
460	 6,96269573078932E-02 
461	 7,19424994350109E-02 
462	 7,33243440281795E-02 
463	 6,75541632086452E-02 
464	 0,065905371911337 
465	 6,87321920758168E-02 
466	 6,60696894244275E-02 
467	 6,46554952738618E-02 
468	 6,84494563729609E-02 
469	 7,06420211374218E-02 
470	 7,06469567556365E-02 
471	 6,91947926078748E-02 
472	 6,85692645832588E-02 
473	 0,069549210607369 
474	 7,13877623966431E-02 
475	 7,22546650808956E-02 
476	 7,06202442575753E-02 
477	 7,14792761528234E-02 
478	 7,38985581650952E-02 
479	 0,072262296121321 
480	 7,11867142152645E-02 
481	 7,25550055955673E-02 
482	 7,34675871028709E-02 
483	 7,38189647873068E-02 
484	 7,39670056667318E-02 
485	 7,29577405401025E-02 
486	 7,16912030399038E-02 
487	 7,42963604351184E-02 
488	 0,077389808677585 
489	 7,81616886677186E-02 
490	 7,53762766815633E-02 
491	 7,16383421949502E-02 
492	 0,073113724516905 
493	 0,075907751443263 
494	 7,81249799096093E-02 
495	 7,73716832360713E-02 
496	 7,59512964847122E-02 
497	 7,66556194661373E-02 
498	 7,80985265153314E-02 
499	 7,90756807059396E-02 
500	 7,63749961415776E-02 
501	 7,58415255483264E-02 
502	 8,00591341124587E-02 
503	 8,11852475679817E-02 
504	 8,01068699301984E-02 
505	 8,01637721777174E-02 
506	 8,04767104082541E-02 
507	 8,09578262024776E-02 
508	 8,18065742934657E-02 
509	 8,28742804672636E-02 
510	 8,39843785436303E-02 
511	 8,44921724971848E-02 
512	 8,43895129565926E-02 
513	 8,40834305801839E-02 
514	 8,31748615470834E-02 
515	 8,19520418918344E-02 
516	 8,29613842864922E-02 
517	 8,49067370106766E-02 
518	 8,57114645148737E-02 
519	 8,58951258245785E-02 
520	 8,57626445693468E-02 
521	 8,59883391611762E-02 
522	 8,65078495405175E-02 
523	 8,72297721464015E-02 
524	 8,78090869051893E-02 
525	 8,82367884354621E-02 
526	 0,088674652482049 
527	 8,89450203679158E-02 
528	 8,90299809025374E-02 
529	 8,90250956340117E-02 
530	 0,089471525482077 
531	 9,09354063614917E-02 
532	 9,14417086738176E-02 
533	 9,10425898861468E-02 
534	 9,14544019936799E-02 
535	 9,18338284332455E-02 
536	 9,17826483249579E-02 
537	 9,21932005391419E-02 
538	 0,092989218917648 
539	 9,39669551155539E-02 
540	 0,09355671034473 
541	 9,21628873403295E-02 
542	 9,41834310379297E-02 
543	 9,61953759611732E-02 
544	 9,48575455889547E-02 
545	 9,53042310960068E-02 
546	 9,72126030044971E-02 
547	 9,66767322830085E-02 
548	 0,09620856932362 
549	 9,69025477581824E-02 
550	 0,097487551007451 
551	 9,78176631248998E-02 
552	 9,78623305636106E-02 
553	 9,84929582544107E-02 
554	 9,95473876426407E-02 
555	 0,099254716693245 
556	 0,099099109670536 
557	 0,100217104509538 
558	 0,100276144197087 
559	 9,96587595930183E-02 
560	 0,10025646750971 
561	 0,10156117890039 
562	 0,103094612266858 
563	 0,103204588884599 
564	 0,102754979265251 
565	 0,103074582809836 
566	 0,103811972579057 
567	 0,104475353321304 
568	 0,103491626638289 
569	 0,102905828164087 
570	 0,104025275460496 
571	 0,104645209953601 
572	 0,104661390889971 
573	 0,104560382285175 
574	 0,104938026875887 
575	 0,10581522018629 
576	 0,105858214658984 
577	 0,105820248138276 
578	 0,10662473894457 
579	 0,107019917596397 
580	 0,106908985738751 
581	 0,1068449201362 
582	 0,107143606916857 
583	 0,107888096007239 
584	 0,108033368913976 
585	 0,107964981985077 
586	 0,108603775452007 
587	 0,109394260872026 
588	 0,109986983138761 
589	 0,10977232470608 
590	 0,109109243429119 
591	 0,108423067979252 
592	 0,108615123550248 
593	 0,109408882945339 
594	 0,109510520737123 
595	 0,109683126601297 
596	 0,110216227090412 
597	 0,110741342523939 
598	 0,11104132678698 
599	 0,110848078973895 
600	 0,11084750847843 
601	 0,111161338161497 
602	 0,111418240672011 
603	 0,111567436660652 
604	 0,111568372244016 
605	 0,111383036158295 
606	 0,111178780022247 
607	 0,11138240705881 
608	 0,11145267647475 
609	 0,111257191766692 
610	 0,111248403934949 
611	 0,111554594727296 
612	 0,112273354712376 
613	 0,112586670559783 
614	 0,112541260452039 
615	 0,113159965435641 
616	 0,113346638631155 
617	 0,112519973131685 
618	 0,112009203528778 
619	 0,112198667352205 
620	 0,11350237730813 
621	 0,114301734988047 
622	 0,114118276024838 
623	 0,113733578358015 
624	 0,113464263506935 
625	 0,113588224446846 
626	 0,114053448159036 
627	 0,114748800426846 
628	 0,115528903097168 
629	 0,115824525853915 
630	 0,115418066895009 
631	 0,115174130447519 
632	 0,115124014470509 
633	 0,115094008840591 
634	 0,115569847660965 
635	 0,116384100228899 
636	 0,116369453732282 
637	 0,116038119859376 
638	 0,115890518162945 
639	 0,116081100415875 
640	 0,116625308733406 
641	 0,117636598555965 
642	 0,117742284904556 
643	 0,116724958543125 
644	 0,117131290539113 
645	 0,117966741283814 
646	 0,117645498955781 
647	 0,11731530499867 
648	 0,117323970274326 
649	 0,117908654478453 
650	 0,118260347680293 
651	 0,117859657888057 
652	 0,117290420145456 
653	 0,116914704964142 
654	 0,117272691181241 
655	 0,117563294527199 
656	 0,117563197332635 
657	 0,117694503676574 
658	 0,117860811464893 
659	 0,117929155124826 
660	 0,117576440877898 
661	 0,117021174573478 
662	 0,117076301724277 
663	 0,117160380198017 
664	 0,117011591862867 
665	 0,116994330725374 
666	 0,117006629730719 
667	 0,116828395064246 
668	 0,116679727182586 
669	 0,116675634169851 
670	 0,117029173784583 
671	 0,117238747281177 
672	 0,116936636476884 
673	 0,116723611177327 
674	 0,116819816751457 
675	 0,117521633606815 
676	 0,118077292827145 
677	 0,118200003413277 
678	 0,118078553423224 
679	 0,118211163404086 
680	 0,119145686460005 
681	 0,120089045377537 
682	 0,120721376863702 
683	 0,120651823398083 
684	 0,120985884606177 
685	 0,122202956253698 
686	 0,122385294528667 
687	 0,122098805679631 
688	 0,122811997448135 
689	 0,123369685501061 
690	 0,123590285825428 
691	 0,124228713949231 
692	 0,124931330167623 
693	 0,125369862358819 
694	 0,125831840540729 
695	 0,126423966457456 
696	 0,127328939939926 
697	 0,128032216988889 
698	 0,12838060852768 
699	 0,128984559282244 
700	 0,129482967085064 
701	 0,129348219456956 
702	 0,129598110129883 
703	 0,130345623223936 
704	 0,13101147446026 
705	 0,131798313391096 
706	 0,132734044921525 
707	 0,132955719487405 
708	 0,1329680941407 
709	 0,133935004829804 
710	 0,134883774756384 
711	 0,135444558020119 
712	 0,135448762894551 
713	 0,135421093044672 
714	 0,13583872774754 
715	 0,136210047230988 
716	 0,136574716836873 
717	 0,137327170754548 
718	 0,137893511504938 
719	 0,138049642503574 
720	 0,138041919263515 
721	 0,138223626271272 
722	 0,138998617976421 
723	 0,139357371239847 
724	 0,139249688794193 
725	 0,139323899813176 
726	 0,139848403551861 
727	 0,14086005437295 
728	 0,141193640690595 
729	 0,140991806081853 
730	 0,140772825477657 
731	 0,140999418512713 
732	 0,141741209838279 
733	 0,142526865633619 
734	 0,143020814399733 
735	 0,142991667661348 
736	 0,143152430241572 
737	 0,143494735767615 
738	 0,143630088014721 
739	 0,143788620926768 
740	 0,144025630585732 
741	 0,144132022543659 
742	 0,144345493802287 
743	 0,144943610061098 
744	 0,14539255491203 
745	 0,14554039686356 
746	 0,145315195409727 
747	 0,145211367429525 
748	 0,145519937286083 
749	 0,146145711145177 
750	 0,146748637828923 
751	 0,146844883570136 
752	 0,146839312362134 
753	 0,146947749717309 
754	 0,147535412516997 
755	 0,147955981451285 
756	 0,147810679187537 
757	 0,148092378057968 
758	 0,148664277059422 
759	 0,148950702433782 
760	 0,149062312467534 
761	 0,149079848449972 
762	 0,149254529991853 
763	 0,149521760735772 
764	 0,1498124990581 
765	 0,150323019438076 
766	 0,150787349575143 
767	 0,150324989994556 
768	 0,150476809881287 
769	 0,151567722924432 
770	 0,151536913009879 
771	 0,151270010761622 
772	 0,151979634589069 
773	 0,152170915967092 
774	 0,15191265694544 
775	 0,152489036764369 
776	 0,152954652091584 
777	 0,152887139474862 
778	 0,152976085529201 
779	 0,153155579308833 
780	 0,153205829941624 
781	 0,153700926590264 
782	 0,154433018433133 
783	 0,154084299386888 
784	 0,153907647648512 
785	 0,154633318333799 
786	 0,154929166821345 
787	 0,154970962650766 
788	 0,155435733252731 
789	 0,155489436988835 
790	 0,155166043214398 
791	 0,155669853502938 
792	 0,156179063138716 
793	 0,156057465716061 
794	 0,15607880125431 
795	 0,156347973332271 
796	 0,156822250961058 
797	 0,157238246936283 
798	 0,157465067594609 
799	 0,157456565124199 
800	 0,157388360509388 
801	 0,157445750784677 
802	 0,15782761978551 
803	 0,15832193548794 
804	 0,158320360076022 
805	 0,158163088927462 
806	 0,158051356915875 
807	 0,158333367211162 
808	 0,158715035150718 
809	 0,158862029626638 
810	 0,159048929744447 
811	 0,159295636864172 
812	 0,159519203329828 
813	 0,159690923753677 
814	 0,159792454513799 
815	 0,159794211084119 
816	 0,159892343415239 
817	 0,16030204945781 
818	 0,160465062367669 
819	 0,160362686180466 
820	 0,160305822053322 
821	 0,160459687986724 
822	 0,160878748705818 
823	 0,161269628464426 
824	 0,161589799398472 
825	 0,161829145641293 
826	 0,161741217274795 
827	 0,161540672714589 
828	 0,16206226668335 
829	 0,162661452605259 
830	 0,16289389602413 
831	 0,162217425421053 
832	 0,161605707133273 
833	 0,162425416580106 
834	 0,162753386960805 
835	 0,162401840647244 
836	 0,16239308538274 
837	 0,162560733415159 
838	 0,162817376057882 
839	 0,163109926396384 
840	 0,163306852583495 
841	 0,163249202912391 
842	 0,163214267887547 
843	 0,163235360728916 
844	 0,163123428855194 
845	 0,16314551059535 
846	 0,163423316745365 
847	 0,163694153179966 
848	 0,163918781191819 
849	 0,164095227798746 
850	 0,163835256735952 
851	 0,163302330380086 
852	 0,163247445590006 
853	 0,163669953745595 
854	 0,164418622469403 
855	 0,164455243898938 
856	 0,164228290213984 
857	 0,164513912312072 
858	 0,164312175359 
859	 0,163816620575695 
860	 0,164447818342084 
861	 0,164838747686007 
862	 0,16444007529075 
863	 0,164726027489603 
864	 0,165136437940033 
865	 0,1647739252193 
866	 0,164709851774356 
867	 0,164975910288253 
868	 0,164811612359878 
869	 0,1649480397223 
870	 0,165613957014243 
871	 0,166045646884567 
872	 0,166022395001272 
873	 0,16540715115676 
874	 0,164945516689961 
875	 0,164754928735261 
876	 0,164406479392162 
877	 0,165119619529712 
878	 0,166866142521526 
879	 0,166542222439134 
880	 0,165403660030772 
881	 0,165085760733234 
882	 0,165344007419867 
883	 0,165838770102157 
884	 0,165707840134159 
885	 0,165678525756397 
886	 0,166026083747048 
887	 0,166819107317657 
888	 0,167241995943165 
889	 0,166652581430838 
890	 0,166957477637839 
891	 0,167647184962726 
892	 0,166770642249055 
893	 0,166410242513577 
894	 0,167020798328716 
895	 0,167458989492306 
896	 0,16745011159731 
897	 0,166871726321316 
898	 0,166330149636544 
899	 0,166364127493015 
900	 0,167768165018237 
901	 0,167910806235796 
902	 0,166734085250926 
903	 0,167079069039391 
904	 0,167903052341852 
905	 0,168446606813457 
906	 0,168369621151 
907	 0,167889743368748 
908	 0,167406731486811 
909	 0,167372014089738 
910	 0,167639944597491 
911	 0,167180188018641 
912	 0,167501047905454 
913	 0,168952037201758 
914	 0,16915580217723 
915	 0,168735233198269 
916	 0,168639273690785 
917	 0,169117717170602 
918	 0,169773741646397 
919	 0,169428579130627 
920	 0,169040602432207 
921	 0,16898682330187 
922	 0,169492520036616 
923	 0,169232282467779 
924	 0,167427919278334 
925	 0,167778682441959 
926	 0,169332721705199 
927	 0,169285409422676 
928	 0,169459789060815 
929	 0,169973566725108 
930	 0,169438248995861 
931	 0,169167429237429 
932	 0,169746401553046 
933	 0,16946313267259 
934	 0,168858895482881 
935	 0,168849881742462 
936	 0,168938453594338 
937	 0,169162295029295 
938	 0,170012804147524 
939	 0,170264782470337 
940	 0,169731997430279 
941	 0,170332391908059 
942	 0,170242482040259 
943	 0,168141592158435 
944	 0,168495414143671 
945	 0,170552357592891 
946	 0,17158662651901 
947	 0,171293239767596 
948	 0,170226361663367 
949	 0,171110024680863 
950	 0,171712303932133 
951	 0,170975982747343 
952	 0,171034619741654 
953	 0,171214708890979 
954	 0,170500121962434 
955	 0,169856202517664 
956	 0,16995778659353 
957	 0,172144336799393 
958	 0,173021833636211 
959	 0,171934068322419 
960	 0,17200872760574 
961	 0,172444862124188 
962	 0,1726018533348 
963	 0,173174624703931 
964	 0,173514323884148 
965	 0,172554971137546 
966	 0,171853090804734 
967	 0,171779033743864 
968	 0,172256546435649 
969	 0,172187630185961 
970	 0,171132635514901 
971	 0,169477419282703 
972	 0,168984942995792 
973	 0,170967822964282 
974	 0,17216204023111 
975	 0,172554538239258 
976	 0,173250749025001 
977	 0,172296997930574 
978	 0,170380837244457 
979	 0,171450783330675 
980	 0,172968703809711 
981	 0,173539965894177 
982	 0,173020193971587 
983	 0,172434454432988 
984	 0,172782519616848 
985	 0,172794797988412 
986	 0,172549455948702 
987	 0,172600322951291 
988	 0,1732565696186 
989	 0,174140150991747 
990	 0,173507068206063 
991	 0,173072156354687 
992	 0,173898979572274 
993	 0,176734970420759 
994	 0,177773614901126 
995	 0,173626874756269 
996	 0,171401935303424 
997	 0,171942098130523 
998	 0,174108219798748 
999	 0,174739132636949 
1000	 0,174076727939654 
1001	 0,17755266625397 
1002	 0,177206147301208 
1003	 0,171084418334883 
1004	 0,172245770079596 
1005	 0,176374689493221 
1006	 0,178091713911326 
1007	 0,177320350352662 
1008	 0,175320258333757 
1009	 0,174521147657161 
1010	 0,174355375378526 
1011	 0,174931281180836 
1012	 0,176932728200856 
1013	 0,178451870210028 
1014	 0,178375170568793 
1015	 0,175448372044524 
1016	 0,174832746928304 
1017	 0,179886053535112 
1018	 0,180442795547668 
1019	 0,178271447583585 
1020	 0,178200707103505 
1021	 0,175782057600485 
1022	 0,172368627947283 
1023	 0,173626829309186 
1024	 0,179224766024459 
1025	 0,186068977513962 
1026	 0,181417745324612 
1027	 0,176990198318244 
1028	 0,179510252913368 
1029	 0,176079105386644 
1030	 0,172696612372401 
1031	 0,177249729017067 
1032	 0,17948060811401 
1033	 0,178410190077342 
1034	 0,176007438879655 
1035	 0,177980468650614 
1036	 0,182871749182493 
1037	 0,180080308100309 
1038	 0,174002380194627 
1039	 0,169009220154147 
1040	 0,176041779543285 
1041	 0,18145679229727 
1042	 0,175157728901979 
1043	 0,17498050957225 
1044	 0,178836852219325 
1045	 0,180394238034842 
1046	 0,180240767586021 
1047	 0,179938282883335 
1048	 0,183721448149689 
1049	 0,178016446734347 
1050	 0,166307411682837 
1051	 0,179914813204693 
1052	 0,18537951546942 
1053	 0,171316470410609 
1054	 0,176471928595865 
1055	 0,184673056513729 
1056	 0,180617722961206 
1057	 0,177908205541222 
1058	 0,174174555442485 
1059	 0,164564122026747 
1060	 0,168061008402038 
1061	 0,180608332982264 
1062	 0,183712142885821 
1063	 0,180461967370436 
1064	 0,174391704089895 
1065	 0,17554139569142 
1066	 0,179643432813528 
1067	 0,182960528286687 
1068	 0,178281825824834 
1069	 0,175558749411834 
1070	 0,181089843855007 
1071	 0,178344513488692 
1072	 0,174912593560054 
1073	 0,180916880953019 
1074	 0,178188727549102 
1075	 0,165736560364746 
