Wavelength	GRA-VIE-00019.asd
325	 0,146327825678421 
326	 6,50938474466246E-02 
327	 4,48559950489914E-02 
328	 0,073358713005035 
329	 6,79594791574952E-02 
330	 8,13890232934494E-02 
331	 0,152819257040904 
332	 0,12236838116341 
333	 3,23762268641842E-02 
334	 3,62247720337622E-02 
335	 0,124179951386461 
336	 0,261172977291634 
337	 0,219090813161712 
338	 9,48740846579746E-02 
339	 2,20121808928498E-02 
340	 5,19206820576684E-02 
341	 0,126934214676871 
342	 0,164169339772287 
343	 0,130686750063824 
344	 3,39799362642178E-02 
345	 2,95926497842084E-02 
346	 4,81318956726475E-02 
347	 2,20898236442199E-02 
348	 4,71755971078149E-02 
349	 0,103707994766739 
350	 0,096456080115491 
351	 7,03810849721304E-02 
352	 3,97040050197979E-02 
353	 1,45878562924575E-02 
354	 1,58214244613083E-02 
355	 5,77697968768992E-02 
356	 6,42481415313143E-02 
357	 4,33852249667863E-02 
358	 5,20197766622106E-02 
359	 6,15715122104927E-02 
360	 0,055144883050908 
361	 1,72274868070136E-02 
362	-5,47743406786623E-03 
363	 0,053350863147483 
364	 5,82386337807835E-02 
365	 4,98759933308536E-03 
366	 7,85015487330021E-03 
367	 3,14647805021924E-02 
368	 5,04657710377004E-02 
369	 5,71965205982871E-02 
370	 5,53014191685846E-02 
371	 5,22563963151294E-02 
372	 4,91859793278453E-02 
373	 4,57732945241403E-02 
374	 3,62931301919961E-02 
375	 2,82409707975707E-02 
376	 2,94325255984306E-02 
377	 6,09812029380077E-02 
378	 9,45727732813454E-02 
379	 7,34925393186723E-02 
380	 5,71267820222537E-02 
381	 6,32991828361918E-02 
382	 7,77865562919115E-02 
383	 8,54749433272215E-02 
384	 7,22972825884138E-02 
385	 4,59085380603604E-02 
386	 2,30966948906884E-02 
387	 4,56872625895497E-02 
388	 0,064057543767133 
389	 0,061016711159891 
390	 5,80314486121876E-02 
391	 5,47983463198087E-02 
392	 4,90021552024235E-02 
393	 0,047628896167084 
394	 5,23043251819613E-02 
395	 6,70589049551144E-02 
396	 6,62481636684452E-02 
397	 4,10492690399237E-02 
398	 3,16627357591632E-02 
399	 3,70468205227954E-02 
400	 4,94620293477926E-02 
401	 5,49619135344527E-02 
402	 5,19522090148339E-02 
403	 5,11121797418994E-02 
404	 5,16858989371753E-02 
405	 5,31275612005431E-02 
406	 0,057459077495434 
407	 6,10744702921721E-02 
408	 5,55483909884537E-02 
409	 5,69188977128214E-02 
410	 6,58320188484712E-02 
411	 6,10566901790426E-02 
412	 0,057215776799294 
413	 6,72068000529435E-02 
414	 0,06466233019858 
415	 5,36786735861338E-02 
416	 5,69126960502546E-02 
417	 6,24955776558681E-02 
418	 6,46712922559242E-02 
419	 5,95477433362591E-02 
420	 5,35972530855904E-02 
421	 5,50838925237999E-02 
422	 5,78032439682355E-02 
423	 5,98116467023082E-02 
424	 6,05481098427288E-02 
425	 5,75684962375236E-02 
426	 5,09079727160908E-02 
427	 5,39914802578504E-02 
428	 6,19184670855528E-02 
429	 0,062892285470633 
430	 6,35071391273343E-02 
431	 6,41798459889217E-02 
432	 5,81131920490267E-02 
433	 0,05527598226755 
434	 6,37052447930337E-02 
435	 6,47597217948526E-02 
436	 5,99215208004339E-02 
437	 0,06168587197367 
438	 6,30441985346745E-02 
439	 6,25078643331046E-02 
440	 6,84354962691755E-02 
441	 7,23228827467587E-02 
442	 0,06297667949694 
443	 6,02807222537499E-02 
444	 6,52385738839844E-02 
445	 6,34907582282887E-02 
446	 6,17572733657928E-02 
447	 6,38679166325603E-02 
448	 6,53551699482342E-02 
449	 6,61509615369672E-02 
450	 6,75440946558056E-02 
451	 6,62514371417345E-02 
452	 6,25449429627348E-02 
453	 6,16719335854233E-02 
454	 0,063374923829343 
455	 6,69784022470143E-02 
456	 6,94235790374052E-02 
457	 7,03317452907615E-02 
458	 7,12459935066369E-02 
459	 6,90817111540994E-02 
460	 6,41436478990773E-02 
461	 6,60643120525664E-02 
462	 7,04027820066149E-02 
463	 7,00788900774577E-02 
464	 6,93122254013103E-02 
465	 6,93256476825754E-02 
466	 7,10001482370284E-02 
467	 7,16753244910987E-02 
468	 0,069940641666661 
469	 7,00293857328534E-02 
470	 0,071424495698715 
471	 0,071955651532421 
472	 7,16703181872919E-02 
473	 0,071008629387119 
474	 7,24778460690719E-02 
475	 7,33089663867302E-02 
476	 0,070878963655419 
477	 7,03931168532453E-02 
478	 7,23035917244089E-02 
479	 7,51283099909639E-02 
480	 7,61536947331414E-02 
481	 7,46168997187002E-02 
482	 7,55375725576436E-02 
483	 7,79943270147424E-02 
484	 7,99761128651994E-02 
485	 0,078175328376019 
486	 7,37761848198578E-02 
487	 7,47916736531288E-02 
488	 7,70333691583603E-02 
489	 7,74295967227124E-02 
490	 0,080000938152309 
491	 8,27592042227662E-02 
492	 7,97540388582102E-02 
493	 7,74939361299115E-02 
494	 7,80213093985143E-02 
495	 7,85854976972025E-02 
496	 0,079032217543944 
497	 7,94126394474575E-02 
498	 7,89871735859348E-02 
499	 7,83102258235025E-02 
500	 7,92617098788898E-02 
501	 8,16398139883119E-02 
502	 8,47461646274165E-02 
503	 8,45150425122037E-02 
504	 0,082396738568112 
505	 8,17819083242291E-02 
506	 8,15947171903709E-02 
507	 8,17168572022555E-02 
508	 8,26026440460252E-02 
509	 8,34209417043377E-02 
510	 0,083485135969753 
511	 8,41785882042946E-02 
512	 8,52397819325661E-02 
513	 8,53428024396386E-02 
514	 8,52804632871789E-02 
515	 8,54194262741966E-02 
516	 0,085783548343925 
517	 8,61349564464258E-02 
518	 8,61308729729674E-02 
519	 8,62369265129949E-02 
520	 8,66712976331688E-02 
521	 8,77901418457789E-02 
522	 8,86699672486706E-02 
523	 0,088699063166696 
524	 0,088963306813204 
525	 8,93809272287029E-02 
526	 8,92321906952451E-02 
527	 8,97638065067589E-02 
528	 9,10409426431029E-02 
529	 9,09787035216251E-02 
530	 9,04943336103188E-02 
531	 9,08032685772258E-02 
532	 9,17711546036378E-02 
533	 9,29414112385115E-02 
534	 9,30544022336138E-02 
535	 9,27489748071506E-02 
536	 9,25203140880651E-02 
537	 9,30543806816483E-02 
538	 9,39438790214246E-02 
539	 9,42988747236506E-02 
540	 9,42796379553536E-02 
541	 9,42473771650171E-02 
542	 9,57304411982892E-02 
543	 9,70385423045825E-02 
544	 9,65564924277231E-02 
545	 9,66568994282469E-02 
546	 9,74188142560524E-02 
547	 9,75900286082274E-02 
548	 9,80048913798026E-02 
549	 9,88978279575392E-02 
550	 9,90637931591827E-02 
551	 9,88319538679833E-02 
552	 9,89058503901921E-02 
553	 9,91864400197292E-02 
554	 9,95565039553372E-02 
555	 9,95163302119472E-02 
556	 9,97114287846257E-02 
557	 0,100628693384566 
558	 0,101287003144056 
559	 0,10165202854475 
560	 0,102155648589885 
561	 0,102425871514163 
562	 0,102481074783281 
563	 0,103321616187072 
564	 0,104284181238683 
565	 0,104395963524871 
566	 0,104361256271977 
567	 0,10439953819803 
568	 0,104636730332485 
569	 0,104736003201324 
570	 0,104517270090134 
571	 0,104557187665295 
572	 0,105083327072536 
573	 0,106503525127465 
574	 0,107248762451074 
575	 0,106877862289514 
576	 0,10645282058807 
577	 0,106503248060607 
578	 0,107480780471541 
579	 0,107411274130614 
580	 0,10653850441399 
581	 0,107118298409678 
582	 0,107868993035205 
583	 0,108135134774083 
584	 0,108883040116399 
585	 0,109692443341721 
586	 0,109636498773427 
587	 0,109510792157455 
588	 0,109656036319142 
589	 0,11045081614291 
590	 0,110930681633177 
591	 0,110275956512712 
592	 0,11037665049104 
593	 0,111132439744058 
594	 0,111246879623516 
595	 0,111066539083949 
596	 0,110790559250416 
597	 0,110847669768703 
598	 0,110871392761648 
599	 0,110204180774646 
600	 0,110471931284326 
601	 0,111569705820133 
602	 0,111154476932782 
603	 0,111006352095117 
604	 0,112377170814672 
605	 0,112290907052934 
606	 0,11126016406951 
607	 0,111817098986561 
608	 0,112173743041456 
609	 0,111904901917156 
610	 0,112461156543814 
611	 0,113187380164875 
612	 0,11314770924266 
613	 0,113030454205582 
614	 0,113063305943089 
615	 0,11343363310809 
616	 0,113736706592496 
617	 0,113719312770455 
618	 0,113608694326429 
619	 0,113621775090741 
620	 0,114177426729027 
621	 0,114122785198289 
622	 0,113466351239257 
623	 0,114204559303886 
624	 0,115370851841382 
625	 0,115848810444842 
626	 0,115651051690708 
627	 0,115174086563131 
628	 0,115635494817276 
629	 0,115911521944943 
630	 0,115522434743881 
631	 0,115386563911355 
632	 0,115636929247481 
633	 0,11630818774608 
634	 0,116946823918535 
635	 0,117300312174322 
636	 0,117167975727205 
637	 0,116605969470748 
638	 0,115771778795203 
639	 0,115904359705034 
640	 0,116727562079075 
641	 0,116992198767987 
642	 0,11701631429681 
643	 0,11688520561383 
644	 0,116473010482369 
645	 0,116438710606583 
646	 0,117619834999469 
647	 0,118199087681024 
648	 0,117976822355585 
649	 0,118036045970604 
650	 0,118242552720269 
651	 0,118492082717335 
652	 0,118692365103042 
653	 0,118616079843619 
654	 0,117766526975532 
655	 0,117448751565612 
656	 0,117918908304673 
657	 0,117998683039887 
658	 0,117806253050028 
659	 0,117547018103914 
660	 0,11738143261627 
661	 0,11728557427202 
662	 0,116997133868126 
663	 0,116940009869574 
664	 0,11725629797978 
665	 0,117329928417317 
666	 0,11721895220844 
667	 0,117140384459847 
668	 0,116908719818927 
669	 0,116646247805811 
670	 0,116955141981116 
671	 0,117434273182677 
672	 0,117727827581481 
673	 0,117758528022001 
674	 0,117734813722965 
675	 0,11817752896552 
676	 0,118748570179041 
677	 0,119302660114378 
678	 0,119821587046267 
679	 0,120151010099338 
680	 0,120128128263758 
681	 0,120792436738466 
682	 0,121877984491458 
683	 0,121684609398055 
684	 0,121567733046434 
685	 0,122255818344935 
686	 0,122647594770616 
687	 0,12294280239434 
688	 0,123763539755998 
689	 0,124510075990755 
690	 0,124920190293459 
691	 0,12471693765901 
692	 0,12463969301991 
693	 0,12531249818999 
694	 0,125701589716118 
695	 0,125854491882059 
696	 0,126416523546136 
697	 0,127016925320124 
698	 0,127481651437412 
699	 0,127749469454907 
700	 0,127930665691189 
701	 0,128173078437919 
702	 0,128540324113113 
703	 0,12897625178952 
704	 0,129252764750844 
705	 0,129372728912844 
706	 0,129395209036441 
707	 0,129738093272234 
708	 0,130394331536673 
709	 0,131301711211064 
710	 0,131575327140538 
711	 0,131208732660634 
712	 0,131612642831092 
713	 0,132155840443869 
714	 0,13222408242017 
715	 0,132499066331522 
716	 0,132918908415299 
717	 0,132969382569031 
718	 0,133144310036679 
719	 0,133580989022451 
720	 0,13378779403687 
721	 0,13388262744784 
722	 0,134072829718725 
723	 0,13427875889011 
724	 0,134577117203569 
725	 0,135306944276951 
726	 0,135848056450534 
727	 0,135869914688385 
728	 0,136131229677597 
729	 0,136467458615115 
730	 0,136358264281352 
731	 0,13663161441413 
732	 0,137338188661001 
733	 0,137550411273796 
734	 0,137600723381292 
735	 0,137816311164902 
736	 0,138217885217999 
737	 0,138614522866154 
738	 0,138435732063904 
739	 0,138648438202328 
740	 0,139473011904272 
741	 0,139925485496487 
742	 0,140015370739041 
743	 0,13986479839163 
744	 0,139874010143783 
745	 0,140173428654418 
746	 0,140835345645377 
747	 0,141316777220662 
748	 0,141342456360883 
749	 0,141290923650866 
750	 0,14137090543446 
751	 0,141821946463836 
752	 0,142175953282476 
753	 0,142350391985668 
754	 0,142557806346927 
755	 0,142928233999944 
756	 0,143527000724918 
757	 0,144077247194178 
758	 0,144441558664034 
759	 0,144468837026343 
760	 0,144251747979592 
761	 0,143996110700312 
762	 0,144375651050807 
763	 0,14493106690875 
764	 0,145199356816536 
765	 0,145431622701312 
766	 0,145637490826406 
767	 0,145714702225761 
768	 0,14589957698954 
769	 0,146245811646647 
770	 0,146452893904075 
771	 0,146583063841699 
772	 0,146741951214484 
773	 0,146999762781478 
774	 0,147346766009787 
775	 0,147712281230159 
776	 0,147995070747846 
777	 0,148133654108502 
778	 0,148121803231992 
779	 0,148161643088818 
780	 0,148540165393236 
781	 0,148794989662505 
782	 0,14887102901629 
783	 0,149019828170907 
784	 0,149375974637727 
785	 0,149938396933485 
786	 0,149896470560644 
787	 0,149616699913848 
788	 0,149946413731607 
789	 0,150404756629598 
790	 0,150777543316115 
791	 0,150773981945978 
792	 0,150859636346218 
793	 0,151359572461757 
794	 0,15146506312852 
795	 0,151426695256123 
796	 0,152131934917354 
797	 0,152345118225627 
798	 0,151889530729495 
799	 0,152037306520028 
800	 0,152363907064255 
801	 0,152427892343904 
802	 0,152592936396834 
803	 0,152891263802246 
804	 0,153315384500389 
805	 0,153368538316972 
806	 0,153037917845129 
807	 0,153337020459516 
808	 0,153976083928819 
809	 0,154528207604386 
810	 0,154248710200081 
811	 0,153574996000477 
812	 0,154191159709786 
813	 0,154713298469837 
814	 0,15471889521587 
815	 0,155481462042348 
816	 0,156088162637845 
817	 0,155390266250672 
818	 0,155014781794441 
819	 0,155167183914407 
820	 0,155228666123236 
821	 0,155399066098244 
822	 0,155737230210707 
823	 0,156098812990567 
824	 0,156441708504964 
825	 0,156734321177424 
826	 0,156768324466237 
827	 0,156637321578772 
828	 0,1567548920454 
829	 0,157058778387381 
830	 0,157442091540956 
831	 0,15739164665842 
832	 0,157280535539393 
833	 0,157684012277752 
834	 0,15788344329242 
835	 0,157849071622356 
836	 0,158133405521669 
837	 0,158227509379595 
838	 0,157906516857019 
839	 0,157596811195354 
840	 0,157561066264673 
841	 0,158074531181326 
842	 0,158445479876898 
843	 0,158524838221356 
844	 0,158432088938615 
845	 0,158718760110714 
846	 0,159516432753229 
847	 0,159479236866179 
848	 0,158889250156034 
849	 0,158363369051123 
850	 0,15855982483461 
851	 0,159332862233563 
852	 0,159635915029032 
853	 0,159436425028584 
854	 0,158854968466542 
855	 0,158918448793146 
856	 0,159338768291109 
857	 0,159549346531201 
858	 0,159286391248674 
859	 0,158855165561435 
860	 0,159463440375958 
861	 0,160203154166431 
862	 0,16052669569823 
863	 0,160251400817427 
864	 0,159886810622415 
865	 0,16010862996524 
866	 0,160038663708291 
867	 0,159768317840349 
868	 0,160275145105537 
869	 0,160410848773786 
870	 0,159870579884458 
871	 0,160438666807601 
872	 0,161163724382834 
873	 0,160755314686527 
874	 0,160404176689383 
875	 0,160459360144085 
876	 0,161243298480437 
877	 0,161371733774629 
878	 0,160539625700641 
879	 0,160726370477709 
880	 0,16140928342023 
881	 0,161818222484858 
882	 0,161372386665914 
883	 0,160541085572923 
884	 0,16087270697359 
885	 0,161307761436258 
886	 0,161564647385124 
887	 0,162340200850509 
888	 0,162638159713 
889	 0,161634878301029 
890	 0,161355981017292 
891	 0,161828556425379 
892	 0,16225802868457 
893	 0,16263877781727 
894	 0,162836719391476 
895	 0,16249047650678 
896	 0,162278449042849 
897	 0,16265385641686 
898	 0,162474292088625 
899	 0,162145820706726 
900	 0,16271708102811 
901	 0,162841497621563 
902	 0,162445668864068 
903	 0,162841694590957 
904	 0,162941930610833 
905	 0,162249213778624 
906	 0,16239057740427 
907	 0,163056015127041 
908	 0,163515514582476 
909	 0,163807879823608 
910	 0,163828290645653 
911	 0,16324244791196 
912	 0,163080890659246 
913	 0,163671917403817 
914	 0,163665819580702 
915	 0,163504045770848 
916	 0,163793484061052 
917	 0,164249627690332 
918	 0,164603138825951 
919	 0,164319303033045 
920	 0,164097262539346 
921	 0,16412205069851 
922	 0,163883863068618 
923	 0,163981343722636 
924	 0,164768276448533 
925	 0,164468822080855 
926	 0,163742739470096 
927	 0,164275541764354 
928	 0,164938665645933 
929	 0,165307167335891 
930	 0,165156190872677 
931	 0,164476171216002 
932	 0,163523406890457 
933	 0,163797175366384 
934	 0,164830596053036 
935	 0,165770404412466 
936	 0,165931953195822 
937	 0,165524559806546 
938	 0,165683676077866 
939	 0,165899042901125 
940	 0,165929939346297 
941	 0,165465224818274 
942	 0,165102022268858 
943	 0,165346276841559 
944	 0,165465159947655 
945	 0,165722634634895 
946	 0,166907424353168 
947	 0,166394741430453 
948	 0,164611624160437 
949	 0,165970709034282 
950	 0,167576793145823 
951	 0,167803998723863 
952	 0,16788261500619 
953	 0,167774765322431 
954	 0,167303627973681 
955	 0,165923407349295 
956	 0,164474033338722 
957	 0,165229934374005 
958	 0,166744738765144 
959	 0,168028833074984 
960	 0,167139985886632 
961	 0,16642833617432 
962	 0,167565397651532 
963	 0,168224031680758 
964	 0,168257465152473 
965	 0,167956986496838 
966	 0,168637173778386 
967	 0,169554769234561 
968	 0,166931533482035 
969	 0,166674210536548 
970	 0,170066653861866 
971	 0,169218349270965 
972	 0,167729617457665 
973	 0,169140580048168 
974	 0,17001762265327 
975	 0,169870263629764 
976	 0,168790825400238 
977	 0,168726070203148 
978	 0,169802017062359 
979	 0,170516783212967 
980	 0,169968963616012 
981	 0,167985799889073 
982	 0,166448211273763 
983	 0,166087693882991 
984	 0,167278272604915 
985	 0,167833597988915 
986	 0,167925164374626 
987	 0,16870102789527 
988	 0,170814239719277 
989	 0,173212228925235 
990	 0,171478909494921 
991	 0,169318420557491 
992	 0,168961655684413 
993	 0,170772669870549 
994	 0,171911048223937 
995	 0,169740488553118 
996	 0,168828859875299 
997	 0,169463368706724 
998	 0,170489531083115 
999	 0,170518105297638 
1000	 0,169449789671749 
1001	 0,168404221598198 
1002	 0,169372820736894 
1003	 0,172593575435256 
1004	 0,173259318994274 
1005	 0,17288593272778 
1006	 0,173330386419094 
1007	 0,174298644152843 
1008	 0,174589605848155 
1009	 0,172129595271869 
1010	 0,171682674879871 
1011	 0,173161147215796 
1012	 0,171616837423688 
1013	 0,170639159753072 
1014	 0,171622046024583 
1015	 0,173032987376989 
1016	 0,174901577478721 
1017	 0,177007187431383 
1018	 0,177726408197529 
1019	 0,17575057743182 
1020	 0,169787212320515 
1021	 0,167969180273721 
1022	 0,17040169069906 
1023	 0,171001090921292 
1024	 0,173522061687955 
1025	 0,177156174749591 
1026	 0,173644858551856 
1027	 0,170624402760529 
1028	 0,172793826583787 
1029	 0,173879945764753 
1030	 0,174412154386709 
1031	 0,175781053422842 
1032	 0,178576483540022 
1033	 0,180109829351004 
1034	 0,17487741262595 
1035	 0,176102231662769 
1036	 0,182765540292604 
1037	 0,178299286907192 
1038	 0,169724574007711 
1039	 0,163684291167652 
1040	 0,175432920078318 
1041	 0,18547243411231 
1042	 0,178871065074029 
1043	 0,17547385472869 
1044	 0,175269603177625 
1045	 0,174539088573015 
1046	 0,177311402035023 
1047	 0,180744621046714 
1048	 0,176581389175808 
1049	 0,168560647479449 
1050	 0,16319403645337 
1051	 0,178788347452596 
1052	 0,18952601456015 
1053	 0,18360400748182 
1054	 0,177353547460897 
1055	 0,170638048957016 
1056	 0,164121443871281 
1057	 0,171528458348693 
1058	 0,181784412395866 
1059	 0,17806020705894 
1060	 0,177957953696774 
1061	 0,18284468507025 
1062	 0,187495499035701 
1063	 0,189899356277744 
1064	 0,188564058488468 
1065	 0,181993204727343 
1066	 0,176164718593889 
1067	 0,175433582175294 
1068	 0,187942869301584 
1069	 0,186031261766225 
1070	 0,154352381109432 
1071	 0,144562797033257 
1072	 0,153596603155677 
1073	 0,167514157393248 
1074	 0,176517403928889 
1075	 0,182764414538459 
