Wavelength	GRA-VIE00337.asd
325	 0,228527045704228 
326	 0,210556217609401 
327	 0,220839012279321 
328	 0,249314148281264 
329	 0,261394500405642 
330	 0,216821653978122 
331	 0,119215676570719 
332	 9,85733195441168E-02 
333	 0,124804670599553 
334	 9,84022700682397E-02 
335	 0,157692580256537 
336	 0,263632866936879 
337	 0,243760335705411 
338	 0,174492251299762 
339	 0,109248730979263 
340	 7,03806947103518E-02 
341	 6,76219224573021E-02 
342	 0,122020822099631 
343	 0,158107245198336 
344	 0,159169999084221 
345	 0,156271750966117 
346	 0,140458084277003 
347	 0,1032753024491 
348	 7,65184807923578E-02 
349	 6,79859947049332E-02 
350	 0,083795359523997 
351	 8,02784510356186E-02 
352	 5,15982172886605E-02 
353	 6,49971065110176E-02 
354	 8,86254444141966E-02 
355	 8,14317784629374E-02 
356	 0,080628977941665 
357	 8,40087601479433E-02 
358	 6,46695998546027E-02 
359	 0,038960528336661 
360	 1,90334874614423E-02 
361	 3,95591466125973E-02 
362	 7,54945304556838E-02 
363	 9,11244240141168E-02 
364	 0,08113337850516 
365	 5,36495395774629E-02 
366	 4,35137867445809E-02 
367	 0,038992469995793 
368	 3,36557517582968E-02 
369	 3,74441623669925E-02 
370	 4,90977003297065E-02 
371	 6,70244459528303E-02 
372	 6,71030223582236E-02 
373	 4,82312324089215E-02 
374	 4,17178024067836E-02 
375	 3,81414949135255E-02 
376	 2,89219900919712E-02 
377	 1,60895710376575E-02 
378	 5,48314529015205E-03 
379	 5,33082741462418E-03 
380	 2,62023888000335E-02 
381	 5,88762701733413E-02 
382	 5,12554101641964E-02 
383	 3,03514546300276E-02 
384	 2,59728414452408E-02 
385	 3,13248827663795E-02 
386	 3,88172885506761E-02 
387	 3,32932475705948E-02 
388	 3,08488113787425E-02 
389	 3,58576386908804E-02 
390	 3,40688344194818E-02 
391	 3,04916265485441E-02 
392	 3,22186145145948E-02 
393	 3,72205221474124E-02 
394	 4,13689959113706E-02 
395	 3,22122272620577E-02 
396	 2,90285667877253E-02 
397	 3,83907200823027E-02 
398	 3,82062315339871E-02 
399	 2,73683090758724E-02 
400	 6,90638063301024E-03 
401	 1,18807533132493E-03 
402	 0,012168728581209 
403	 1,94504871875465E-02 
404	 2,65592347390545E-02 
405	 3,42638210568952E-02 
406	 2,41063759651232E-02 
407	 9,86845492666678E-03 
408	 2,61848555637388E-02 
409	 2,87949642986943E-02 
410	 1,19594278175114E-02 
411	 1,00011871206541E-02 
412	 1,52897113579039E-02 
413	 1,87230731513134E-02 
414	 1,73976773261125E-02 
415	 0,0137039682278 
416	 1,59785592579469E-02 
417	 1,71827092648904E-02 
418	 1,52187686272607E-02 
419	 1,48828208368332E-02 
420	 1,60465321195424E-02 
421	 1,80388925764611E-02 
422	 1,74312880682767E-02 
423	 1,52271753096873E-02 
424	 1,78118559459588E-02 
425	 1,86935634462141E-02 
426	 1,45394468542617E-02 
427	 1,25481805498162E-02 
428	 1,29426692853707E-02 
429	 1,45112746198229E-02 
430	 1,38659987627603E-02 
431	 1,08318347682676E-02 
432	 9,36573409369314E-03 
433	 1,02035192108199E-02 
434	 1,35973841787683E-02 
435	 0,016221395332572 
436	 1,69762530075645E-02 
437	 0,014522852359979 
438	 1,43165491133185E-02 
439	 1,78365403770765E-02 
440	 1,86051844793429E-02 
441	 1,81996146615508E-02 
442	 1,93334318057058E-02 
443	 1,76628613435385E-02 
444	 1,42460879962232E-02 
445	 1,59138662700403E-02 
446	 1,83709077680856E-02 
447	 1,87630905395859E-02 
448	 0,016657224233498 
449	 1,44904806620148E-02 
450	 0,017006530880484 
451	 1,81852929033824E-02 
452	 0,016684928428822 
453	 1,55818897928713E-02 
454	 1,53910217759759E-02 
455	 1,63413005939111E-02 
456	 1,59382468326489E-02 
457	 1,47305333459526E-02 
458	 1,56075890442301E-02 
459	 1,62442847028045E-02 
460	 1,56387699469833E-02 
461	 1,41154002077535E-02 
462	 1,27611101332257E-02 
463	 1,29324236589848E-02 
464	 1,36787470715246E-02 
465	 1,46864017985286E-02 
466	 1,62450526489979E-02 
467	 1,56834555990676E-02 
468	 0,012092484558745 
469	 1,44575562198502E-02 
470	 1,88331220589376E-02 
471	 1,46386306579597E-02 
472	 1,32162321433673E-02 
473	 1,67654172812909E-02 
474	 1,74140621539041E-02 
475	 1,64662679345342E-02 
476	 1,57071086945404E-02 
477	 1,66091521877426E-02 
478	 0,018143955937207 
479	 1,64179217945615E-02 
480	 1,50905610377976E-02 
481	 1,54575932001943E-02 
482	 1,35441271661793E-02 
483	 1,14686661280192E-02 
484	 1,29615538317522E-02 
485	 1,39856270212001E-02 
486	 1,36699515577192E-02 
487	 1,29240742652558E-02 
488	 0,013241642350713 
489	 1,54498901373322E-02 
490	 1,61642555894754E-02 
491	 1,48820280489838E-02 
492	 1,12413780834644E-02 
493	 0,010207965821112 
494	 1,28050990381958E-02 
495	 1,35426263853931E-02 
496	 1,28097421863027E-02 
497	 1,15795860202975E-02 
498	 1,22108157182197E-02 
499	 1,40924587400243E-02 
500	 1,34990607472689E-02 
501	 0,013026860972376 
502	 1,39504120702681E-02 
503	 1,41168382281813E-02 
504	 1,33781291380655E-02 
505	 1,17759898127361E-02 
506	 1,19471330344073E-02 
507	 0,013775571240579 
508	 1,27619089238071E-02 
509	 1,19128631624073E-02 
510	 1,39103353432823E-02 
511	 1,43582661109282E-02 
512	 1,33999095491425E-02 
513	 1,36412224144799E-02 
514	 1,37036718578752E-02 
515	 0,01314054142713 
516	 1,27465816245425E-02 
517	 1,28317748284495E-02 
518	 1,37147275699809E-02 
519	 1,41558349753648E-02 
520	 1,38661596054686E-02 
521	 1,31025257116718E-02 
522	 1,26720631535238E-02 
523	 1,30699868014468E-02 
524	 1,28362796622941E-02 
525	 1,24694965425835E-02 
526	 1,38797438085635E-02 
527	 1,40375637346809E-02 
528	 1,23325060476916E-02 
529	 1,15617520754652E-02 
530	 1,15366853314036E-02 
531	 1,17678398120943E-02 
532	 1,18477727545491E-02 
533	 1,17324013492311E-02 
534	 1,16598091401055E-02 
535	 1,18178164232521E-02 
536	 1,23456144066329E-02 
537	 1,36107726315027E-02 
538	 1,43392991882382E-02 
539	 1,19674913847018E-02 
540	 1,13214285109713E-02 
541	 1,31417971731919E-02 
542	 1,31308522843585E-02 
543	 1,23901889894524E-02 
544	 1,22001135966934E-02 
545	 1,20835655421355E-02 
546	 1,20931862075307E-02 
547	 1,25892628235652E-02 
548	 1,29594714008067E-02 
549	 1,29251464078745E-02 
550	 0,012947542555742 
551	 1,29135775547156E-02 
552	 1,25284123316057E-02 
553	 1,29016178128502E-02 
554	 1,36761670304278E-02 
555	 0,012052385889129 
556	 1,05378024299141E-02 
557	 1,12095417718893E-02 
558	 1,22983898996901E-02 
559	 1,30819671336571E-02 
560	 1,26207934513669E-02 
561	 1,22277805322568E-02 
562	 1,23851059215292E-02 
563	 1,23974756447359E-02 
564	 1,22632280733773E-02 
565	 1,20531806896499E-02 
566	 1,22209519879766E-02 
567	 1,28498907598448E-02 
568	 1,39416401904083E-02 
569	 1,42828017769579E-02 
570	 1,31997175418781E-02 
571	 1,29483632840289E-02 
572	 1,35343194946886E-02 
573	 1,42691726117581E-02 
574	 1,41164220797839E-02 
575	 1,30704161931009E-02 
576	 1,35562154539928E-02 
577	 1,41587520357167E-02 
578	 1,31676353291142E-02 
579	 1,39693288308189E-02 
580	 0,016063754948245 
581	 1,55088065377093E-02 
582	 1,46150467588181E-02 
583	 1,47035340855699E-02 
584	 1,52460190347656E-02 
585	 1,55504382144313E-02 
586	 1,44520892937557E-02 
587	 1,39435602700123E-02 
588	 1,45175825973636E-02 
589	 1,54044516450208E-02 
590	 0,015820032565052 
591	 1,51354548215637E-02 
592	 1,48930230631526E-02 
593	 1,50580866618872E-02 
594	 1,45189995596327E-02 
595	 1,44271768460078E-02 
596	 1,51853449592858E-02 
597	 0,015742861353385 
598	 1,57728642013504E-02 
599	 1,49446221376627E-02 
600	 1,50512268160451E-02 
601	 1,61578808354948E-02 
602	 1,64310051143776E-02 
603	 0,016114877333779 
604	 1,54843619079847E-02 
605	 1,51209796296668E-02 
606	 1,49280413464087E-02 
607	 1,43247862723252E-02 
608	 1,38552918776715E-02 
609	 1,36960566713277E-02 
610	 1,34854477066632E-02 
611	 1,35858999633524E-02 
612	 1,44632106691764E-02 
613	 0,014312701775026 
614	 1,33448018711928E-02 
615	 1,38796682198371E-02 
616	 1,43637312879981E-02 
617	 1,38686300982094E-02 
618	 1,34799089558542E-02 
619	 1,34862071834636E-02 
620	 1,41790317768618E-02 
621	 1,46542730761775E-02 
622	 1,45613725914144E-02 
623	 1,39296449796561E-02 
624	 1,34045342388806E-02 
625	 1,36314570207323E-02 
626	 1,40624326764549E-02 
627	 1,45070440277168E-02 
628	 1,49238780890855E-02 
629	 1,47673448318371E-02 
630	 1,39414202281715E-02 
631	 1,39016077478362E-02 
632	 1,44996468951183E-02 
633	 0,015242391165923 
634	 1,51256979833984E-02 
635	 1,43671206341068E-02 
636	 1,52810189612543E-02 
637	 1,63516784465886E-02 
638	 1,62606246149513E-02 
639	 1,59753666954838E-02 
640	 1,58274368797178E-02 
641	 1,62598712371327E-02 
642	 1,63538415040935E-02 
643	 1,59136771196197E-02 
644	 1,62271815393274E-02 
645	 1,68352936893433E-02 
646	 1,69942880144318E-02 
647	 1,69098065739105E-02 
648	 1,66932358582758E-02 
649	 1,65318033758287E-02 
650	 1,66275122288545E-02 
651	 1,70115763486348E-02 
652	 1,65874879135942E-02 
653	 1,58907198101628E-02 
654	 1,63590556952486E-02 
655	 1,67090395328742E-02 
656	 1,65387333253621E-02 
657	 1,61760083901706E-02 
658	 1,56742762400729E-02 
659	 1,50927753447208E-02 
660	 1,49254660360193E-02 
661	 1,49473060907745E-02 
662	 1,41462681036464E-02 
663	 1,34921401455942E-02 
664	 1,34713191373528E-02 
665	 1,37517599401239E-02 
666	 1,39843886187995E-02 
667	 0,013709222441016 
668	 1,33666708540069E-02 
669	 1,31177085940516E-02 
670	 1,29475829820951E-02 
671	 1,31751510638032E-02 
672	 1,39526538576359E-02 
673	 1,40257382092419E-02 
674	 1,35110462171116E-02 
675	 0,01317867600103 
676	 1,31551600415387E-02 
677	 1,34653035306231E-02 
678	 1,37343479885078E-02 
679	 1,38178104625687E-02 
680	 1,35972814110017E-02 
681	 1,35372455142227E-02 
682	 1,36454561858422E-02 
683	 1,34797888732932E-02 
684	 1,36141306577312E-02 
685	 1,42609010947881E-02 
686	 1,41912722430762E-02 
687	 1,38921024382626E-02 
688	 1,44948606078917E-02 
689	 1,53900854358773E-02 
690	 1,62107200752278E-02 
691	 1,61594318899709E-02 
692	 0,016324626460873 
693	 1,76702568341752E-02 
694	 1,91199624692447E-02 
695	 2,06533530838248E-02 
696	 2,28282207106201E-02 
697	 2,48735185704875E-02 
698	 2,66471906553152E-02 
699	 0,029315290336663 
700	 3,26440277511516E-02 
701	 3,61808532143232E-02 
702	 3,98741977152972E-02 
703	 4,36963602904019E-02 
704	 4,77005217661734E-02 
705	 5,18983667691362E-02 
706	 5,62964061923208E-02 
707	 6,09752713328571E-02 
708	 6,56596755399901E-02 
709	 6,98312344742334E-02 
710	 0,073951844057707 
711	 7,81317770575025E-02 
712	 0,082175866646214 
713	 8,60599178656771E-02 
714	 8,97772117234308E-02 
715	 9,32511913251416E-02 
716	 9,65899214696393E-02 
717	 0,100160560896667 
718	 0,10338241396073 
719	 0,106022497514213 
720	 0,108309513015204 
721	 0,110376829434005 
722	 0,112371683806486 
723	 0,114597561089235 
724	 0,116948717213732 
725	 0,118878279038842 
726	 0,12040992991589 
727	 0,121602225941811 
728	 0,122809127607524 
729	 0,124134263842744 
730	 0,125684267707374 
731	 0,126747904475051 
732	 0,127284362739136 
733	 0,128152630294884 
734	 0,129129231617243 
735	 0,129989731157357 
736	 0,130833294323989 
737	 0,131568077993419 
738	 0,131907652698592 
739	 0,132362873207985 
740	 0,13305359517535 
741	 0,133402985431516 
742	 0,133701322966517 
743	 0,134324750808601 
744	 0,134739406941909 
745	 0,134934244324198 
746	 0,135217894390214 
747	 0,135710820484134 
748	 0,13640406347823 
749	 0,136671524838603 
750	 0,136835215737635 
751	 0,137524726367558 
752	 0,13771957956416 
753	 0,13738963131177 
754	 0,137487912913816 
755	 0,137830319607564 
756	 0,138253862368455 
757	 0,138672100091794 
758	 0,138870073733012 
759	 0,138394739063147 
760	 0,13849514956781 
761	 0,139345134736988 
762	 0,139614704723515 
763	 0,13961616802765 
764	 0,139712728091938 
765	 0,139885490310804 
766	 0,140098335975332 
767	 0,140264121151824 
768	 0,14025179562334 
769	 0,140119343521503 
770	 0,140526672982471 
771	 0,14103278823688 
772	 0,141064748400342 
773	 0,141044010605062 
774	 0,141144025470023 
775	 0,141606789841743 
776	 0,141985144230082 
777	 0,142037778960778 
778	 0,141916022054366 
779	 0,141800284828966 
780	 0,141920756531661 
781	 0,14198900631488 
782	 0,142005117695231 
783	 0,142247419150774 
784	 0,142554474773423 
785	 0,142784675796842 
786	 0,142741834320257 
787	 0,142572548646288 
788	 0,142576299599517 
789	 0,1426947268233 
790	 0,142881549899357 
791	 0,143007417833577 
792	 0,143039654605157 
793	 0,14299605313443 
794	 0,143369426910565 
795	 0,143816758976103 
796	 0,14339176054823 
797	 0,14330998767019 
798	 0,143784093994705 
799	 0,14368703560589 
800	 0,143582313728636 
801	 0,144000503711625 
802	 0,144000495009972 
803	 0,14384956547665 
804	 0,144797025099374 
805	 0,14510504014612 
806	 0,14439052634378 
807	 0,144333325673867 
808	 0,14469930364643 
809	 0,145099450609063 
810	 0,145547093076876 
811	 0,145857129685286 
812	 0,145544188248044 
813	 0,14538102803886 
814	 0,145678738210787 
815	 0,146052818009091 
816	 0,146316551470277 
817	 0,146299211978056 
818	 0,146319907048227 
819	 0,146482509292906 
820	 0,146868508453077 
821	 0,147153411957049 
822	 0,147187034499896 
823	 0,14715773790255 
824	 0,147170150381658 
825	 0,147329266249346 
826	 0,147692546364222 
827	 0,148110703336374 
828	 0,148150159075027 
829	 0,14783238191841 
830	 0,147382510126465 
831	 0,148206844127611 
832	 0,149215840043044 
833	 0,148754194639053 
834	 0,148596021890151 
835	 0,148888557796486 
836	 0,148587877040117 
837	 0,148367529997817 
838	 0,148567073862189 
839	 0,14881092761686 
840	 0,149082633646575 
841	 0,149420211903312 
842	 0,149398331670548 
843	 0,149242583008383 
844	 0,150171105521221 
845	 0,150522005785965 
846	 0,149631455010036 
847	 0,149827877532321 
848	 0,150360939609307 
849	 0,149816292630531 
850	 0,150083363432262 
851	 0,151034258089335 
852	 0,150739798132931 
853	 0,150103919465142 
854	 0,149699847339142 
855	 0,149786496559932 
856	 0,150230168052551 
857	 0,150784187037239 
858	 0,150786326032255 
859	 0,150308703374276 
860	 0,150101348787938 
861	 0,150384044939214 
862	 0,151115034435009 
863	 0,15105135425779 
864	 0,150971697526688 
865	 0,152027992373692 
866	 0,152495100458648 
867	 0,152255486989024 
868	 0,152234910113206 
869	 0,152413812556791 
870	 0,152706678124746 
871	 0,152421446657021 
872	 0,152246370763893 
873	 0,153025700133892 
874	 0,152910283722013 
875	 0,152125387838071 
876	 0,152469232926114 
877	 0,153128081176582 
878	 0,153682862507732 
879	 0,153785559879815 
880	 0,153698822059015 
881	 0,153766553824439 
882	 0,154427675312222 
883	 0,155124027508003 
884	 0,154094015565019 
885	 0,153383242974852 
886	 0,153620815267112 
887	 0,153670072017095 
888	 0,154125037883456 
889	 0,155443840975256 
890	 0,155672970823046 
891	 0,155002402692336 
892	 0,154594778129622 
893	 0,154695671949998 
894	 0,155384265437614 
895	 0,15649488978987 
896	 0,156800371587768 
897	 0,155563036491293 
898	 0,155183167257985 
899	 0,155659766266928 
900	 0,15627976713643 
901	 0,156492474213403 
902	 0,15628883425744 
903	 0,156422386955183 
904	 0,156755048383909 
905	 0,157136960805383 
906	 0,157120500199812 
907	 0,157051683202271 
908	 0,157491976237349 
909	 0,157918363642732 
910	 0,158064520478583 
911	 0,157463483794623 
912	 0,157362325107632 
913	 0,158038469003538 
914	 0,157185533070299 
915	 0,156262712865531 
916	 0,157008443411795 
917	 0,157308634376264 
918	 0,157005947254439 
919	 0,156821706806415 
920	 0,156539945853025 
921	 0,156325622269055 
922	 0,157262826932087 
923	 0,157606496232753 
924	 0,156082886096341 
925	 0,155403516554499 
926	 0,155397581921885 
927	 0,154926551076243 
928	 0,154501995035508 
929	 0,154444846996369 
930	 0,155614919583155 
931	 0,15594467727633 
932	 0,154432988256291 
933	 0,153269329601379 
934	 0,152706658101809 
935	 0,152712451742735 
936	 0,153317867396438 
937	 0,153699196067083 
938	 0,151387367557727 
939	 0,150861610541163 
940	 0,152775106147093 
941	 0,150778230382438 
942	 0,148604046396726 
943	 0,149627257698123 
944	 0,150069170837532 
945	 0,149460539818561 
946	 0,148155005822485 
947	 0,146168624728722 
948	 0,144059759347236 
949	 0,14339953442364 
950	 0,143713083929467 
951	 0,144326536196368 
952	 0,143138789186005 
953	 0,141088161726738 
954	 0,139615764081316 
955	 0,138168132290857 
956	 0,137209163727254 
957	 0,138224878575328 
958	 0,138338431272503 
959	 0,136787072243346 
960	 0,135198701467768 
961	 0,134444732540985 
962	 0,134847963022862 
963	 0,133398620698963 
964	 0,131864729641869 
965	 0,133514754606934 
966	 0,134653055962754 
967	 0,134241064450689 
968	 0,131806483949397 
969	 0,131390216018236 
970	 0,134052595437483 
971	 0,13497720160941 
972	 0,134856817866316 
973	 0,134579352739163 
974	 0,133332216401525 
975	 0,132523708342734 
976	 0,134850082475518 
977	 0,134252749646477 
978	 0,130898881445046 
979	 0,131375919019861 
980	 0,132820454593839 
981	 0,133805085771392 
982	 0,134978089727823 
983	 0,13513231663109 
984	 0,133286056634595 
985	 0,132575155124751 
986	 0,133489833664514 
987	 0,135807120984142 
988	 0,135818675918378 
989	 0,133987439541117 
990	 0,136418329140346 
991	 0,138392654999222 
992	 0,137723249978897 
993	 0,137276945574655 
994	 0,137741937019502 
995	 0,139460764243933 
996	 0,141073341030163 
997	 0,141617457877329 
998	 0,13979840322685 
999	 0,139833744262198 
1000	 0,141637653389786 
1001	 0,14003793049377 
1002	 0,138902051424349 
1003	 0,140234266088078 
1004	 0,143172923053699 
1005	 0,146155645004377 
1006	 0,147477480948096 
1007	 0,144980591570525 
1008	 0,141373288498966 
1009	 0,141842270145259 
1010	 0,144898684974428 
1011	 0,149324091811135 
1012	 0,15333470198451 
1013	 0,152989190005852 
1014	 0,148111389616437 
1015	 0,147289621202043 
1016	 0,149890626105225 
1017	 0,154272393827457 
1018	 0,156317451276251 
1019	 0,155063073013757 
1020	 0,150359062166386 
1021	 0,147615861096137 
1022	 0,148375439783816 
1023	 0,152724572012595 
1024	 0,155121983353037 
1025	 0,154397566579782 
1026	 0,155273211772245 
1027	 0,159565004050833 
1028	 0,16648591448699 
1029	 0,16295965079893 
1030	 0,158038946044474 
1031	 0,163212271382873 
1032	 0,16327219095121 
1033	 0,16029806690623 
1034	 0,164395991580715 
1035	 0,165562555297163 
1036	 0,163214067032454 
1037	 0,164777777552323 
1038	 0,169157562820703 
1039	 0,172973358826256 
1040	 0,162195973943184 
1041	 0,152516712080756 
1042	 0,157604049550193 
1043	 0,170558685062996 
1044	 0,179126961725331 
1045	 0,170337331568691 
1046	 0,166723351413396 
1047	 0,169946637920415 
1048	 0,171178147273767 
1049	 0,167679035287521 
1050	 0,16182064405632 
1051	 0,166573877328691 
1052	 0,175564556966813 
1053	 0,183789175608028 
1054	 0,184185424390009 
1055	 0,18034557123811 
1056	 0,176425341521312 
1057	 0,174245798315101 
1058	 0,173302492755422 
1059	 0,172283678594031 
1060	 0,17179530019757 
1061	 0,169539378096769 
1062	 0,159642010564465 
1063	 0,160798495489512 
1064	 0,174558468874231 
1065	 0,183154354701163 
1066	 0,188298202845966 
1067	 0,189111537937739 
1068	 0,176749362176618 
1069	 0,170506148629489 
1070	 0,183097705333638 
1071	 0,191184261280606 
1072	 0,190153989424327 
1073	 0,179788076751001 
1074	 0,187621875975427 
1075	 0,203492868124371 
