Wavelength	GRA-BER00254.asd
325	 5,50691930749872E-02 
326	 0,224658079896792 
327	 0,253435692807422 
328	 0,121925532515961 
329	 5,58416130400962E-02 
330	 1,49106634038416E-02 
331	-1,24385449527669E-02 
332	 0,117114339361597 
333	 0,243531188669519 
334	 4,61437376081644E-02 
335	-0,088936843505381 
336	-6,62647452131753E-03 
337	 7,19246139888075E-02 
338	 0,108415082963838 
339	 9,61119791624325E-02 
340	 0,129852984648434 
341	 0,171222161382963 
342	 0,113376290056542 
343	 5,03474557871335E-02 
344	 3,51712246996474E-02 
345	 9,19151805446558E-02 
346	 0,147115761810754 
347	 0,132227551550589 
348	 0,101112954417662 
349	 6,95683170081465E-02 
350	 5,94313205225902E-02 
351	 6,14351696214583E-02 
352	 6,49701452351162E-02 
353	 3,51063141643371E-02 
354	 1,88187238160371E-02 
355	 7,52648270555931E-02 
356	 0,106711998469269 
357	 9,98801566380797E-02 
358	 5,96456319266989E-02 
359	 4,49186835030449E-02 
360	 0,075350330942426 
361	 0,083339556375593 
362	 0,069748884408855 
363	 4,41795385813072E-02 
364	 4,94153697815025E-02 
365	 7,62495769166803E-02 
366	 0,053955089940054 
367	 3,76315397274208E-02 
368	 5,89548392152313E-02 
369	 6,86767930155846E-02 
370	 0,06486209403299 
371	 5,38653441015603E-02 
372	 0,051630008215283 
373	 6,16513771881864E-02 
374	 7,31508356745482E-02 
375	 7,91409975851175E-02 
376	 7,43707690779113E-02 
377	 5,83801219179361E-02 
378	 4,72162091516537E-02 
379	 7,49779514669318E-02 
380	 0,067457295225225 
381	 1,98366389602638E-02 
382	 4,10070541420235E-02 
383	 7,80213721176972E-02 
384	 7,80821108024034E-02 
385	 6,46091476267035E-02 
386	 4,95097803658773E-02 
387	 5,51580633143745E-02 
388	 5,70492662122672E-02 
389	 4,87073893191491E-02 
390	 4,98960404594386E-02 
391	 5,64214406834705E-02 
392	 0,060998763355609 
393	 7,00515921843475E-02 
394	 7,90349789059468E-02 
395	 7,40257026574871E-02 
396	 6,08636965601548E-02 
397	 4,53743653616019E-02 
398	 3,91822891145769E-02 
399	 4,00212309171661E-02 
400	 4,17309141058472E-02 
401	 5,53240080943057E-02 
402	 7,28576384138627E-02 
403	 5,93810780064343E-02 
404	 4,79825080252226E-02 
405	 5,96109530262055E-02 
406	 6,11491961611434E-02 
407	 0,055854354084721 
408	 6,00314185778565E-02 
409	 5,97218095564218E-02 
410	 5,28196277840626E-02 
411	 4,86103465695302E-02 
412	 4,65015105493274E-02 
413	 4,57430967224818E-02 
414	 5,20769035585046E-02 
415	 6,07276382550486E-02 
416	 5,83645699096634E-02 
417	 5,57379249712942E-02 
418	 5,65384403302718E-02 
419	 0,053991582690335 
420	 5,08053039862679E-02 
421	 5,09534600884841E-02 
422	 5,12513093695025E-02 
423	 5,21719974161624E-02 
424	 5,82956045328213E-02 
425	 6,19217092489711E-02 
426	 5,89637867124963E-02 
427	 5,61273955601169E-02 
428	 5,49036834749665E-02 
429	 5,60939841207546E-02 
430	 5,82386306261808E-02 
431	 6,03788654657985E-02 
432	 6,12377135177455E-02 
433	 6,08377428022675E-02 
434	 5,92906612221361E-02 
435	 5,60889591444785E-02 
436	 5,33472256203643E-02 
437	 5,68721842912511E-02 
438	 5,83742988245076E-02 
439	 5,57556828636316E-02 
440	 5,82973239225022E-02 
441	 6,20391070949326E-02 
442	 0,061158818451875 
443	 6,19294992834286E-02 
444	 6,41759829808088E-02 
445	 6,21227450521052E-02 
446	 6,07373534730367E-02 
447	 6,26271677551608E-02 
448	 6,14131390873931E-02 
449	 5,93268832739463E-02 
450	 6,20217655261341E-02 
451	 6,50032064616151E-02 
452	 6,63348381903123E-02 
453	 6,40236691375811E-02 
454	 6,17241392298088E-02 
455	 6,29636469387154E-02 
456	 6,73510979282941E-02 
457	 7,15272433854157E-02 
458	 6,71709303465383E-02 
459	 6,26273213335906E-02 
460	 6,18679222869247E-02 
461	 0,065119504119233 
462	 6,82890776417728E-02 
463	 6,60488204555552E-02 
464	 6,52429057441031E-02 
465	 6,72014134387753E-02 
466	 7,05830323803481E-02 
467	 7,19291962675154E-02 
468	 0,069233135604728 
469	 6,65837454676354E-02 
470	 6,57616380545384E-02 
471	 0,06909323628934 
472	 0,070855552666436 
473	 6,96710542805344E-02 
474	 6,91405760997633E-02 
475	 6,88254157114846E-02 
476	 6,81632162618989E-02 
477	 6,87210200372097E-02 
478	 6,97939453634276E-02 
479	 0,068362393310688 
480	 6,82823853094365E-02 
481	 7,06355595544401E-02 
482	 6,94363400851748E-02 
483	 6,75672251944646E-02 
484	 7,02334714084055E-02 
485	 0,070825861290687 
486	 6,88554131529685E-02 
487	 6,95012492993971E-02 
488	 7,03480309912811E-02 
489	 6,96723047926754E-02 
490	 7,00525624902283E-02 
491	 7,13960270327775E-02 
492	 7,25614209476188E-02 
493	 7,41323551573111E-02 
494	 7,56846552470967E-02 
495	 7,43676424961395E-02 
496	 7,26882078457183E-02 
497	 7,36392688118031E-02 
498	 7,21153778945438E-02 
499	 6,95185078888006E-02 
500	 7,39855830584999E-02 
501	 7,70294866060175E-02 
502	 7,44809345744495E-02 
503	 7,43713297868199E-02 
504	 7,59619893088751E-02 
505	 7,61669437688305E-02 
506	 7,62567375256993E-02 
507	 7,67080250649414E-02 
508	 7,82743752795996E-02 
509	 7,93905922105295E-02 
510	 7,87353634401289E-02 
511	 7,85688220012217E-02 
512	 7,89552955955628E-02 
513	 7,88265495915545E-02 
514	 7,88092978618632E-02 
515	 7,91108160290147E-02 
516	 7,91514492390525E-02 
517	 7,95863121696453E-02 
518	 8,14576587668664E-02 
519	 8,12676476572716E-02 
520	 7,92741286824768E-02 
521	 7,97853428598416E-02 
522	 8,09978309655137E-02 
523	 8,15034586631985E-02 
524	 8,13149112445754E-02 
525	 8,11597543424514E-02 
526	 8,29329545407879E-02 
527	 8,34573014616119E-02 
528	 8,22488636478675E-02 
529	 8,32079366692902E-02 
530	 8,45570876012387E-02 
531	 8,39985935291139E-02 
532	 8,42169846213146E-02 
533	 8,53257203671315E-02 
534	 8,57024522368248E-02 
535	 8,61988614570229E-02 
536	 8,71262748103557E-02 
537	 8,67528947732872E-02 
538	 0,085963353457929 
539	 8,67768514379869E-02 
540	 8,75805611792819E-02 
541	 8,78693542702669E-02 
542	 0,087638670562937 
543	 8,79132368117063E-02 
544	 8,95924362232021E-02 
545	 9,04200563732668E-02 
546	 9,04838419167311E-02 
547	 9,16061157607557E-02 
548	 9,18003111076128E-02 
549	 9,04665843490016E-02 
550	 9,05048232049711E-02 
551	 9,14294421404117E-02 
552	 0,091985690623091 
553	 9,18315685735812E-02 
554	 9,12439501460172E-02 
555	 0,091836140691134 
556	 9,28628228874742E-02 
557	 9,36204878501844E-02 
558	 9,38207903461905E-02 
559	 9,37494496241763E-02 
560	 9,43408828119363E-02 
561	 9,46226180615073E-02 
562	 9,43759704564169E-02 
563	 9,47380361526387E-02 
564	 9,53498964319037E-02 
565	 9,56076494617768E-02 
566	 9,59657787097892E-02 
567	 9,64496866362579E-02 
568	 9,68453455112388E-02 
569	 9,68921114343243E-02 
570	 9,64756207563229E-02 
571	 9,63088972795179E-02 
572	 9,64820654028685E-02 
573	 9,68958191934638E-02 
574	 9,74402064920838E-02 
575	 9,80447138597654E-02 
576	 9,87381869921575E-02 
577	 9,92921452460986E-02 
578	 9,94545640177332E-02 
579	 0,099042133644493 
580	 9,84152585570712E-02 
581	 9,86975653026448E-02 
582	 9,92519345922841E-02 
583	 9,97073532894066E-02 
584	 0,100249912561082 
585	 0,1006875724971 
586	 0,100684494425997 
587	 0,100427913833106 
588	 0,100252442388773 
589	 0,101340748522571 
590	 0,102151852136137 
591	 0,101321931947108 
592	 0,101492759226886 
593	 0,102444624211696 
594	 0,102074258330177 
595	 0,101801025982825 
596	 0,102134969384633 
597	 0,10183706959595 
598	 0,101505336725196 
599	 0,102222931523693 
600	 0,102614218393489 
601	 0,102456920219229 
602	 0,102422423548335 
603	 0,102790247943831 
604	 0,103651491169676 
605	 0,103433606659465 
606	 0,102672854063022 
607	 0,103416113730201 
608	 0,103870428365767 
609	 0,103486968388494 
610	 0,103223719892378 
611	 0,103041080073018 
612	 0,102789512742618 
613	 0,103329787816175 
614	 0,104378312703907 
615	 0,104372275718227 
616	 0,104071831903985 
617	 0,103968075669946 
618	 0,10381325865149 
619	 0,103688206963263 
620	 0,103801529944247 
621	 0,103792129446072 
622	 0,103693484357506 
623	 0,104237128264288 
624	 0,105029766220634 
625	 0,105608997051265 
626	 0,105689713686558 
627	 0,105360022597784 
628	 0,105000480102166 
629	 0,105024570577344 
630	 0,105571522069428 
631	 0,105801607604465 
632	 0,105796155416994 
633	 0,105868560477321 
634	 0,105876463673617 
635	 0,105836019145487 
636	 0,10592888267858 
637	 0,106035555231511 
638	 0,106068616810072 
639	 0,10630860743804 
640	 0,106716817177812 
641	 0,107118073074077 
642	 0,107314466097605 
643	 0,107248976567397 
644	 0,107233528350556 
645	 0,107148000017672 
646	 0,106790169123199 
647	 0,107266249701481 
648	 0,108197846320374 
649	 0,107207274356483 
650	 0,106523357143596 
651	 0,107490315920179 
652	 0,107778455534489 
653	 0,107373804976551 
654	 0,106894618994388 
655	 0,107043996100851 
656	 0,107738589492435 
657	 0,107179589408779 
658	 0,106270317040073 
659	 0,106046577850336 
660	 0,106024123004631 
661	 0,105843990709231 
662	 0,104659061767453 
663	 0,103876205389341 
664	 0,104113395361973 
665	 0,104077381896298 
666	 0,103990578682225 
667	 0,104472678522413 
668	 0,104351923136246 
669	 0,103745509761805 
670	 0,104504726579296 
671	 0,105346199925693 
672	 0,105225051841595 
673	 0,10481640015365 
674	 0,104553198963879 
675	 0,105182735109305 
676	 0,105832994268436 
677	 0,106179849211983 
678	 0,10641492310209 
679	 0,106808460931248 
680	 0,107651750649356 
681	 0,108173218144209 
682	 0,108340750727993 
683	 0,10870090912339 
684	 0,109029490064115 
685	 0,109244412541156 
686	 0,109730367864875 
687	 0,110389681380481 
688	 0,110959247380472 
689	 0,111639301961168 
690	 0,112302374035034 
691	 0,112111598190744 
692	 0,112204755143042 
693	 0,11352700386678 
694	 0,114164269205931 
695	 0,114172086001497 
696	 0,114642168813343 
697	 0,11527067513854 
698	 0,115896024969147 
699	 0,116193088019034 
700	 0,116332921809483 
701	 0,116574607754431 
702	 0,117161953418421 
703	 0,117900743529648 
704	 0,117930127088413 
705	 0,11790657960666 
706	 0,118232090938598 
707	 0,118468960535739 
708	 0,118706553926389 
709	 0,119233883874888 
710	 0,119637817642681 
711	 0,11980704885395 
712	 0,119923753135953 
713	 0,119950464489633 
714	 0,119887022199014 
715	 0,120398834824374 
716	 0,121266074696352 
717	 0,121629215482134 
718	 0,12176362068806 
719	 0,121848153226348 
720	 0,122350656151409 
721	 0,122847029767812 
722	 0,12274498176536 
723	 0,123120452887943 
724	 0,123878862885087 
725	 0,123774482517942 
726	 0,123703090174462 
727	 0,124160792207155 
728	 0,124331420980524 
729	 0,124378483965483 
730	 0,12480565107684 
731	 0,124997111124172 
732	 0,124953558669321 
733	 0,125518640022399 
734	 0,126114978649098 
735	 0,126231212809635 
736	 0,126316554414805 
737	 0,126425218003548 
738	 0,126478103485192 
739	 0,126494467336291 
740	 0,126596386055887 
741	 0,12742078610433 
742	 0,128171484294741 
743	 0,127903942621012 
744	 0,127783299289846 
745	 0,128014242458556 
746	 0,128309578928616 
747	 0,128700019733514 
748	 0,129160889436221 
749	 0,129525647834581 
750	 0,129728525279653 
751	 0,129695995719439 
752	 0,129974236713958 
753	 0,13046831352125 
754	 0,130161563408007 
755	 0,129925890863088 
756	 0,13035893880224 
757	 0,130625052654946 
758	 0,130769191377526 
759	 0,131157911413389 
760	 0,13150557951422 
761	 0,131759207112166 
762	 0,132138453207279 
763	 0,132491756458724 
764	 0,132674081895563 
765	 0,132805677877255 
766	 0,132992884613171 
767	 0,133490838218186 
768	 0,13373168976104 
769	 0,133574210591376 
770	 0,13363007093886 
771	 0,133918375335026 
772	 0,134386248734755 
773	 0,134736801808161 
774	 0,134834420599367 
775	 0,134457326800112 
776	 0,134451187106109 
777	 0,1351435096795 
778	 0,13537728582234 
779	 0,135396833622245 
780	 0,135759712600605 
781	 0,135989485752134 
782	 0,136031955850945 
783	 0,136074509584015 
784	 0,136420481174023 
785	 0,13719861759508 
786	 0,13772789019206 
787	 0,137952170662824 
788	 0,137972939696368 
789	 0,137919863674359 
790	 0,137863159520336 
791	 0,137791322224297 
792	 0,137862112399898 
793	 0,138168111264066 
794	 0,138309317870353 
795	 0,138324638797703 
796	 0,138420100895829 
797	 0,138797340029058 
798	 0,139368191674579 
799	 0,139398628892238 
800	 0,139143157937112 
801	 0,138920721595018 
802	 0,139215748028256 
803	 0,139870123049489 
804	 0,140272503280146 
805	 0,140433691356848 
806	 0,140374362247542 
807	 0,140366929686388 
808	 0,140348862471774 
809	 0,140243398537609 
810	 0,140306613616866 
811	 0,140633407095429 
812	 0,141410521886071 
813	 0,14179695015829 
814	 0,141507779940899 
815	 0,141274344127941 
816	 0,141399459869698 
817	 0,142122550029034 
818	 0,142311885131699 
819	 0,142040240502502 
820	 0,142399054207797 
821	 0,142664202184096 
822	 0,142550921660313 
823	 0,142463105275315 
824	 0,142672199155696 
825	 0,143449802693266 
826	 0,143828098928138 
827	 0,143734984726758 
828	 0,143745340748171 
829	 0,143935908122412 
830	 0,144268236381097 
831	 0,144076174527339 
832	 0,143755913367987 
833	 0,143935759151553 
834	 0,143956516086821 
835	 0,143830405765613 
836	 0,14411304158885 
837	 0,144517842640306 
838	 0,144842034425298 
839	 0,144922494586224 
840	 0,144786207483245 
841	 0,144509715511122 
842	 0,14420658496913 
843	 0,143965998808727 
844	 0,143807543071352 
845	 0,144229517854147 
846	 0,145292466614792 
847	 0,145430483123819 
848	 0,145161271154504 
849	 0,145472716435651 
850	 0,145414858425771 
851	 0,145130953499632 
852	 0,145871195099513 
853	 0,14637928342511 
854	 0,146077870952212 
855	 0,146154035718848 
856	 0,146233105720173 
857	 0,145641809211804 
858	 0,14546979333517 
859	 0,145822697568268 
860	 0,14614126296001 
861	 0,146264423095659 
862	 0,146184923343675 
863	 0,146663579571604 
864	 0,146997632009304 
865	 0,146210607218204 
866	 0,146024809137902 
867	 0,146526684881704 
868	 0,14664558082667 
869	 0,146701798597238 
870	 0,146869572746365 
871	 0,147443230995569 
872	 0,147791859304414 
873	 0,147168554282803 
874	 0,146579085606933 
875	 0,14632005731095 
876	 0,146467899253615 
877	 0,146838223281197 
878	 0,147290297933579 
879	 0,147659402158034 
880	 0,147868038151236 
881	 0,147845155506532 
882	 0,14727971688608 
883	 0,146534663552977 
884	 0,146675170329083 
885	 0,146844124796259 
886	 0,146832792850965 
887	 0,147201616556838 
888	 0,147743313371299 
889	 0,148211272702259 
890	 0,148413858248443 
891	 0,148446670660432 
892	 0,148643855958448 
893	 0,148483388318129 
894	 0,148082251426498 
895	 0,14869507014827 
896	 0,149266533427681 
897	 0,14902292161078 
898	 0,149255086205468 
899	 0,149522819367253 
900	 0,148675978760886 
901	 0,148491400203882 
902	 0,149086004041082 
903	 0,148739082127113 
904	 0,148821018572406 
905	 0,149915297614073 
906	 0,149636196203447 
907	 0,148877440117384 
908	 0,149308439200059 
909	 0,148879482678049 
910	 0,147942049655748 
911	 0,149196250020325 
912	 0,15016552546824 
913	 0,149770508651201 
914	 0,149167426765234 
915	 0,148968094617315 
916	 0,14968719120127 
917	 0,150368229607887 
918	 0,150721236950634 
919	 0,150584264667815 
920	 0,150398338072633 
921	 0,150455039255127 
922	 0,15114277181177 
923	 0,152081042206998 
924	 0,152792247069053 
925	 0,151966770451084 
926	 0,150737235716218 
927	 0,151493825402186 
928	 0,151819783653543 
929	 0,151315027321313 
930	 0,151113060600896 
931	 0,151230561143255 
932	 0,151680574268175 
933	 0,152562876244359 
934	 0,1527835366519 
935	 0,151082704776244 
936	 0,1510693435015 
937	 0,152587551027273 
938	 0,152766521944292 
939	 0,152817977702565 
940	 0,15311670768126 
941	 0,153531839245385 
942	 0,153497017631533 
943	 0,152642929745926 
944	 0,152450723955924 
945	 0,152675026277591 
946	 0,152338618725802 
947	 0,152625524434369 
948	 0,153605461242424 
949	 0,154408486640665 
950	 0,154603120686427 
951	 0,153941072220606 
952	 0,152361405489492 
953	 0,151880107433316 
954	 0,154647132579066 
955	 0,155797379281672 
956	 0,154936849478046 
957	 0,153720906664865 
958	 0,15401057638578 
959	 0,155801657691348 
960	 0,155345378175895 
961	 0,154660954884525 
962	 0,155258448400221 
963	 0,155317038555791 
964	 0,155214117759733 
965	 0,15586872026402 
966	 0,155887155385963 
967	 0,155364341114161 
968	 0,155858162092043 
969	 0,155350587874862 
970	 0,153614191391789 
971	 0,154206021618571 
972	 0,155354116900567 
973	 0,155319245864563 
974	 0,155695885277935 
975	 0,156458780774799 
976	 0,157185188860097 
977	 0,156611501075033 
978	 0,155128375354152 
979	 0,155378217993707 
980	 0,155313735745804 
981	 0,154554792497112 
982	 0,157243379278068 
983	 0,159555478739464 
984	 0,15762016666464 
985	 0,156670360918417 
986	 0,157159677265814 
987	 0,158165793455465 
988	 0,157008527327869 
989	 0,154399805325609 
990	 0,155984963194115 
991	 0,157622058249072 
992	 0,157603447955544 
993	 0,160246894235387 
994	 0,161267562926782 
995	 0,156623582973067 
996	 0,156340562959389 
997	 0,159161558933956 
998	 0,158960599040564 
999	 0,159128215440882 
1000	 0,160133795073335 
1001	 0,160895666906388 
1002	 0,159672719234697 
1003	 0,156569914610549 
1004	 0,157536424059234 
1005	 0,159596805976673 
1006	 0,159568972675277 
1007	 0,160718389461466 
1008	 0,162378363361339 
1009	 0,162469707990921 
1010	 0,1632882617404 
1011	 0,164966222772662 
1012	 0,166329594119188 
1013	 0,164436944529453 
1014	 0,159797307665005 
1015	 0,162261957598167 
1016	 0,164880015038249 
1017	 0,162082975593426 
1018	 0,163140131357267 
1019	 0,165045830325647 
1020	 0,161698912316295 
1021	 0,162042860052847 
1022	 0,16563037193952 
1023	 0,165377098530945 
1024	 0,16394202818094 
1025	 0,161946670329172 
1026	 0,157705963633746 
1027	 0,158098836240953 
1028	 0,165594254552096 
1029	 0,163783771274805 
1030	 0,160584311263325 
1031	 0,16631058665738 
1032	 0,165810976999246 
1033	 0,161019330361757 
1034	 0,161765027774383 
1035	 0,162007709315439 
1036	 0,161850030341546 
1037	 0,167353704344694 
1038	 0,171562493313666 
1039	 0,171183920377798 
1040	 0,167534088724565 
1041	 0,164832202405357 
1042	 0,166007222589399 
1043	 0,164908374151739 
1044	 0,164029205355517 
1045	 0,167750200430312 
1046	 0,174510159929532 
1047	 0,178731522791508 
1048	 0,168548400236501 
1049	 0,16573862128262 
1050	 0,173157925782669 
1051	 0,172635574845428 
1052	 0,174305364850281 
1053	 0,180786832475345 
1054	 0,179597704624077 
1055	 0,171796912744567 
1056	 0,16079040583762 
1057	 0,160882505650943 
1058	 0,166420811536666 
1059	 0,166662502377374 
1060	 0,173039880409417 
1061	 0,17828232076487 
1062	 0,161204780859938 
1063	 0,16095910930849 
1064	 0,178281547916483 
1065	 0,169182737058817 
1066	 0,158676001206982 
1067	 0,160504441537632 
1068	 0,179565109911543 
1069	 0,191762583717644 
1070	 0,182057049182108 
1071	 0,179044030535305 
1072	 0,181277372637107 
1073	 0,182191527126449 
1074	 0,173220038276186 
1075	 0,160042332432734 
