Wavelength	GRA-VAN00436.asd
325	 0,440121993568161 
326	 0,15335473761492 
327	 0,069718040863417 
328	 0,363472636306637 
329	 0,263443795068732 
330	 0,100540810383559 
331	 0,294155421860502 
332	 0,3085272530247 
333	 0,224409890726618 
334	 0,105569750872193 
335	 9,40446764263701E-02 
336	 0,190980726012419 
337	 0,116784164508071 
338	 1,00673741070901E-02 
339	-1,11956628881222E-02 
340	 0,108389751877589 
341	 0,227459465009082 
342	 0,168518982281545 
343	 0,099779869550172 
344	 8,85750608335304E-02 
345	 4,13895596812725E-02 
346	 2,35962304003269E-02 
347	 0,107933448718193 
348	 8,39437375121514E-02 
349	-1,76803055510384E-02 
350	-1,83186116808257E-02 
351	 4,27189953791586E-02 
352	 0,113275529223805 
353	 9,48141723239838E-02 
354	 4,56643933854106E-02 
355	 3,79532675284668E-02 
356	 3,94363920739596E-02 
357	 5,05996706371025E-02 
358	 9,68934243722664E-02 
359	 0,128337773820922 
360	 0,116367973166338 
361	 9,23837305120744E-02 
362	 6,87265890891248E-02 
363	 5,81353365388665E-02 
364	 5,07027377433037E-02 
365	 4,76251580986982E-02 
366	 6,19440380862642E-02 
367	 7,65554337578968E-02 
368	 7,98137661831581E-02 
369	 0,069022715730596 
370	 4,95635367033103E-02 
371	 0,028149115240249 
372	 2,95480196229943E-02 
373	 4,88491517388442E-02 
374	 3,46596847634388E-02 
375	 2,19437095938034E-02 
376	 3,72712103873521E-02 
377	 3,82951876716013E-02 
378	 3,17701179813073E-02 
379	 4,77774463915079E-02 
380	 5,15652838086329E-02 
381	 4,12285583628484E-02 
382	 6,19543640333164E-02 
383	 7,17220314797414E-02 
384	 0,034892301498835 
385	 4,13357650795027E-02 
386	 0,071548528387944 
387	 3,26218494629119E-02 
388	 8,10245988878648E-03 
389	 2,81805970650458E-02 
390	 4,04217425560277E-02 
391	 0,044248835371505 
392	 4,41408176748921E-02 
393	 3,31862908841131E-02 
394	 1,83102136433598E-02 
395	 0,020861609680269 
396	 3,04266215925349E-02 
397	 0,040114623408458 
398	 4,42795719615264E-02 
399	 4,03478123945881E-02 
400	 2,45055143885907E-02 
401	 2,84405523355215E-02 
402	 0,047291624232656 
403	 3,53418591952168E-02 
404	 1,50681543128498E-02 
405	 5,01256619095125E-03 
406	 1,59682718793357E-02 
407	 3,41088459385268E-02 
408	 3,29304468081825E-02 
409	 2,84591696395846E-02 
410	 0,025123400333171 
411	 1,93993311479066E-02 
412	 0,017231712974365 
413	 2,35377922235998E-02 
414	 2,59713301747552E-02 
415	 2,31137353413317E-02 
416	 1,61671114046948E-02 
417	 1,45400974159447E-02 
418	 2,10907464224465E-02 
419	 2,55783979788287E-02 
420	 2,87182214291206E-02 
421	 3,29681543427156E-02 
422	 2,99524161616384E-02 
423	 0,021524335179192 
424	 1,90277634343219E-02 
425	 2,06782681229622E-02 
426	 2,46422081413971E-02 
427	 2,52679166600793E-02 
428	 2,38856953180662E-02 
429	 0,024669763545022 
430	 2,31612674896054E-02 
431	 0,019288953840034 
432	 1,78992455155731E-02 
433	 1,93738994134325E-02 
434	 2,32698553933949E-02 
435	 2,15842238215643E-02 
436	 1,59293951786794E-02 
437	 1,36113108914402E-02 
438	 1,55527292693049E-02 
439	 2,09702088526074E-02 
440	 2,19642295519738E-02 
441	 2,10443740541782E-02 
442	 2,23154982232261E-02 
443	 2,29466450945073E-02 
444	 2,26105563528114E-02 
445	 2,22089891237544E-02 
446	 2,19797646031034E-02 
447	 2,21036706702946E-02 
448	 0,022546472330151 
449	 2,31043364226205E-02 
450	 2,34803314156432E-02 
451	 2,32558154152266E-02 
452	 0,022689722811176 
453	 2,37139455187233E-02 
454	 2,40271625199634E-02 
455	 2,17650595720597E-02 
456	 2,37922286276071E-02 
457	 2,75695542585742E-02 
458	 2,28691100635794E-02 
459	 1,86222559756601E-02 
460	 1,87489157001402E-02 
461	 2,10120858124623E-02 
462	 2,32203326021871E-02 
463	 2,28423879699493E-02 
464	 2,15943954840208E-02 
465	 2,05863776402045E-02 
466	 2,19305552062279E-02 
467	 2,30173649544863E-02 
468	 2,23993014454393E-02 
469	 0,024091932932257 
470	 2,57031499674219E-02 
471	 2,09641120159582E-02 
472	 2,00932580415303E-02 
473	 2,48262633397914E-02 
474	 0,02649907119748 
475	 2,59821198863427E-02 
476	 2,46856670630681E-02 
477	 2,42574719987381E-02 
478	 2,46650702131765E-02 
479	 2,46422351739415E-02 
480	 2,43633923712828E-02 
481	 2,39454733795039E-02 
482	 2,37722748224076E-02 
483	 2,38733275992309E-02 
484	 2,42476534076492E-02 
485	 2,38749885436715E-02 
486	 2,30696815481358E-02 
487	 2,43187421372295E-02 
488	 2,47648706136952E-02 
489	 2,25243734603659E-02 
490	 2,19496338847781E-02 
491	 2,28347508199595E-02 
492	 2,29770950550288E-02 
493	 2,34627349745842E-02 
494	 2,44315246906595E-02 
495	 2,52287188191403E-02 
496	 2,49307714407651E-02 
497	 2,26429504079096E-02 
498	 2,14388855545006E-02 
499	 2,20042229154267E-02 
500	 2,42284114591081E-02 
501	 2,52513248956538E-02 
502	 2,37250071700392E-02 
503	 2,32659801239759E-02 
504	 2,36235190115897E-02 
505	 2,34422288853989E-02 
506	 2,37696432041771E-02 
507	 2,46604589539612E-02 
508	 2,51961011238845E-02 
509	 2,53243389771301E-02 
510	 2,50488583568468E-02 
511	 2,44846279945098E-02 
512	 2,38722700336266E-02 
513	 0,023432600694098 
514	 2,42761900481886E-02 
515	 2,64248404250824E-02 
516	 2,67925512734574E-02 
517	 2,62604664248271E-02 
518	 2,64911079939604E-02 
519	 2,67226629120858E-02 
520	 2,67798742466928E-02 
521	 2,66756824408941E-02 
522	 2,63103693826637E-02 
523	 2,57177644754607E-02 
524	 2,58959723862429E-02 
525	 2,67646243366465E-02 
526	 2,81292076254548E-02 
527	 2,77782242386294E-02 
528	 2,54623703322925E-02 
529	 2,44352374942715E-02 
530	 2,46170875590408E-02 
531	 2,55686521668812E-02 
532	 2,62708023545546E-02 
533	 2,62857039469574E-02 
534	 2,51103359610585E-02 
535	 2,45111637265271E-02 
536	 2,54623422584841E-02 
537	 2,65790034596103E-02 
538	 2,72913977510841E-02 
539	 2,68921269863261E-02 
540	 2,70545621413033E-02 
541	 0,027878508019547 
542	 2,71984698764514E-02 
543	 2,61913926036038E-02 
544	 2,60811751223613E-02 
545	 2,58319682995053E-02 
546	 2,56278441962661E-02 
547	 2,65818513358905E-02 
548	 2,73860923970058E-02 
549	 2,74458642278381E-02 
550	 2,76144506353048E-02 
551	 2,77557224799974E-02 
552	 2,75286812280114E-02 
553	 2,69656316564476E-02 
554	 2,62613589528921E-02 
555	 2,59890606059285E-02 
556	 2,61311264961913E-02 
557	 2,66211361443235E-02 
558	 2,70376771922775E-02 
559	 2,72674864714062E-02 
560	 2,73268303379648E-02 
561	 2,71081718875753E-02 
562	 0,026732482910519 
563	 2,71443492926434E-02 
564	 2,76785982345479E-02 
565	 2,73728909761885E-02 
566	 2,66077571611448E-02 
567	 2,58487294202863E-02 
568	 2,62527323649479E-02 
569	 2,70085810463298E-02 
570	 2,74948194519174E-02 
571	 2,76097325161688E-02 
572	 2,75813044281943E-02 
573	 2,79495813552299E-02 
574	 2,84297991870078E-02 
575	 2,89167111711476E-02 
576	 2,94225386738734E-02 
577	 2,97717275265393E-02 
578	 2,97838119691642E-02 
579	 3,00343559349194E-02 
580	 3,05090423455081E-02 
581	 3,07984700335182E-02 
582	 0,030582735040534 
583	 2,98973670599758E-02 
584	 3,05209073601731E-02 
585	 0,031870765655225 
586	 3,26153891400053E-02 
587	 3,21886246980863E-02 
588	 3,10930089402277E-02 
589	 3,25170437640234E-02 
590	 3,41466698079209E-02 
591	 3,37603292801193E-02 
592	 3,31906589116079E-02 
593	 3,29017623864303E-02 
594	 3,31282724184471E-02 
595	 3,33564281149643E-02 
596	 3,33843544522643E-02 
597	 3,37526716832949E-02 
598	 3,39877235016186E-02 
599	 3,32955870285241E-02 
600	 3,31448066470305E-02 
601	 3,35900455042491E-02 
602	 0,032999564371666 
603	 3,27418974163828E-02 
604	 3,37383529412759E-02 
605	 3,32868787702031E-02 
606	 3,20043015086478E-02 
607	 3,25694374634329E-02 
608	 3,30700230186328E-02 
609	 3,28142952287861E-02 
610	 3,20847243998175E-02 
611	 3,15262474783849E-02 
612	 0,03188481510964 
613	 3,24266701051217E-02 
614	 3,26337724232393E-02 
615	 3,14098008008441E-02 
616	 3,05762334404233E-02 
617	 3,12094600094642E-02 
618	 3,16203106511199E-02 
619	 3,16772287097693E-02 
620	 3,16483346034673E-02 
621	 3,15258465051564E-02 
622	 3,13999983896744E-02 
623	 3,15876890061756E-02 
624	 3,18726365668299E-02 
625	 3,20148468274548E-02 
626	 3,21675772833012E-02 
627	 3,22114439280081E-02 
628	 3,16937183093004E-02 
629	 0,031277407879678 
630	 3,13203179714079E-02 
631	 3,15769779053368E-02 
632	 3,19734810067682E-02 
633	 3,24624233217991E-02 
634	 3,26736302265375E-02 
635	 3,26684312117067E-02 
636	 3,32380057344509E-02 
637	 3,37490770548866E-02 
638	 3,36899273146627E-02 
639	 3,38669845655178E-02 
640	 3,43154424977277E-02 
641	 3,47444798359899E-02 
642	 0,035203206183979 
643	 3,55994464404868E-02 
644	 3,53654939956264E-02 
645	 3,51465506169414E-02 
646	 3,58316825568203E-02 
647	 0,035984130463789 
648	 3,54190114711265E-02 
649	 3,47537679105498E-02 
650	 3,45649167772589E-02 
651	 3,50996584586962E-02 
652	 3,47232904772837E-02 
653	 3,39188976809945E-02 
654	 3,42593092564089E-02 
655	 0,03407227786535 
656	 3,30287846157869E-02 
657	 3,23264147243532E-02 
658	 0,032010205068916 
659	 3,20251962016097E-02 
660	 3,18435709478083E-02 
661	 3,13403559119209E-02 
662	 3,05129078123344E-02 
663	 2,98704936881242E-02 
664	 2,97008036584471E-02 
665	 2,99766811792871E-02 
666	 3,00709824776343E-02 
667	 2,90147266247277E-02 
668	 2,84291830019536E-02 
669	 2,86284680074241E-02 
670	 2,88699410228157E-02 
671	 2,88565151218277E-02 
672	 2,84180542903369E-02 
673	 2,83722428333104E-02 
674	 2,86547126601709E-02 
675	 2,87557409622774E-02 
676	 2,88312242339745E-02 
677	 2,89300983287583E-02 
678	 2,90340749574228E-02 
679	 0,029383156395117 
680	 3,02390647860247E-02 
681	 0,029852688917751 
682	 2,86059513514079E-02 
683	 2,89886141250606E-02 
684	 2,99651129683564E-02 
685	 3,08159522568366E-02 
686	 3,08839334301926E-02 
687	 3,08530885637384E-02 
688	 3,21540369484037E-02 
689	 0,032951877569553 
690	 3,30556290194189E-02 
691	 3,41007293063461E-02 
692	 3,57539228871405E-02 
693	 3,76457126624252E-02 
694	 3,96570082487535E-02 
695	 4,18041416215148E-02 
696	 4,42169673197718E-02 
697	 0,046909136702995 
698	 4,99212616685392E-02 
699	 5,33626217340378E-02 
700	 5,71786837961435E-02 
701	 6,12810648828125E-02 
702	 6,53992903967863E-02 
703	 6,93927751148308E-02 
704	 7,30892461210713E-02 
705	 7,70597094637328E-02 
706	 8,15630406676478E-02 
707	 0,085531351145669 
708	 8,92766199191951E-02 
709	 9,37462900335918E-02 
710	 9,72837907373755E-02 
711	 9,96955429581843E-02 
712	 0,102570835487713 
713	 0,105608755323789 
714	 0,108456422439572 
715	 0,111131382552719 
716	 0,113700656361776 
717	 0,116431996090005 
718	 0,118683717139943 
719	 0,120240077393766 
720	 0,121530304168434 
721	 0,122977084858678 
722	 0,125047653268114 
723	 0,12621677566494 
724	 0,126682696647877 
725	 0,128428500940547 
726	 0,130122490971266 
727	 0,131010434787981 
728	 0,132130879034441 
729	 0,133314689808797 
730	 0,134042465831637 
731	 0,134414934952418 
732	 0,134600292599933 
733	 0,135115585894386 
734	 0,135845660145173 
735	 0,136636826556953 
736	 0,137087559348963 
737	 0,137311999450823 
738	 0,13779220898643 
739	 0,13828709720251 
740	 0,138707211618647 
741	 0,139022209926581 
742	 0,139393962498967 
743	 0,139999523005339 
744	 0,140268417681627 
745	 0,14017670760854 
746	 0,139980675859236 
747	 0,140249887288885 
748	 0,141153316689952 
749	 0,141433874009426 
750	 0,141383449786384 
751	 0,141699690168908 
752	 0,14181443728926 
753	 0,141746287125256 
754	 0,14211752947736 
755	 0,142523394425898 
756	 0,142660473081118 
757	 0,142650325343418 
758	 0,142653303616268 
759	 0,142943948156592 
760	 0,14333677430895 
761	 0,143678134156301 
762	 0,143604988726792 
763	 0,143439383729481 
764	 0,143507472051321 
765	 0,143770439064792 
766	 0,144078374093106 
767	 0,14404268528204 
768	 0,144067253491635 
769	 0,144340963289097 
770	 0,144936067410998 
771	 0,145497257071573 
772	 0,145608859884153 
773	 0,145447565732181 
774	 0,145209247039953 
775	 0,145334365922992 
776	 0,1454438865909 
777	 0,145381057689767 
778	 0,145491748821153 
779	 0,145753805340984 
780	 0,14608542572132 
781	 0,146167795303846 
782	 0,146007449089676 
783	 0,145963616738207 
784	 0,146011205968997 
785	 0,146142151251794 
786	 0,146400334380446 
787	 0,146697469864704 
788	 0,146880093291104 
789	 0,146975770958434 
790	 0,14707882005764 
791	 0,147605739056341 
792	 0,147859121623187 
793	 0,14736106545334 
794	 0,147278600660978 
795	 0,14761709095754 
796	 0,14798766653496 
797	 0,148025533522351 
798	 0,147742918625641 
799	 0,147952726004193 
800	 0,148283612840277 
801	 0,148350960068874 
802	 0,14829281635146 
803	 0,148293544610792 
804	 0,148852462527094 
805	 0,148901981929033 
806	 0,148278559523664 
807	 0,148439726570836 
808	 0,148897446378582 
809	 0,149023422725848 
810	 0,149055061980299 
811	 0,149157337481167 
812	 0,149670125550813 
813	 0,150261520668222 
814	 0,150696865749704 
815	 0,150617958749369 
816	 0,150311958777209 
817	 0,150168514664124 
818	 0,15041089456602 
819	 0,150893199090314 
820	 0,1510349084645 
821	 0,150992477742446 
822	 0,15089079752145 
823	 0,151068454569832 
824	 0,151338586265556 
825	 0,151417926746835 
826	 0,151675831207777 
827	 0,15198457480345 
828	 0,151617072736529 
829	 0,151575728983692 
830	 0,152221610440577 
831	 0,152155611065871 
832	 0,151821324697509 
833	 0,152018478010356 
834	 0,152784983314486 
835	 0,15370554155174 
836	 0,15344329863788 
837	 0,152975852982273 
838	 0,152850786412678 
839	 0,152792394077736 
840	 0,152840110666937 
841	 0,153069624150429 
842	 0,153468082405039 
843	 0,153847848206204 
844	 0,153665276463168 
845	 0,153388571175699 
846	 0,153346531676429 
847	 0,153820954941968 
848	 0,154329810728385 
849	 0,154168465778215 
850	 0,154016732353757 
851	 0,154038236430274 
852	 0,154132544106369 
853	 0,154408847978291 
854	 0,154787323097717 
855	 0,154366576898823 
856	 0,153737852327001 
857	 0,153832536091512 
858	 0,153932035121605 
859	 0,153969684387417 
860	 0,154366271605043 
861	 0,154390612507323 
862	 0,153860626457998 
863	 0,154335575204988 
864	 0,154899169553421 
865	 0,15418963444663 
866	 0,153719234608677 
867	 0,153895607157343 
868	 0,154871041695853 
869	 0,155374171982567 
870	 0,154988747018128 
871	 0,155484662668626 
872	 0,156036432466139 
873	 0,155507929911374 
874	 0,155470838215498 
875	 0,155888843123527 
876	 0,155609960516516 
877	 0,155370422318268 
878	 0,155502445735748 
879	 0,156054799733858 
880	 0,156474410434617 
881	 0,156202752928125 
882	 0,156161747858552 
883	 0,156228734811896 
884	 0,155350154718927 
885	 0,155719714016638 
886	 0,157543220178287 
887	 0,157502912332841 
888	 0,156858450847667 
889	 0,156970355757747 
890	 0,157302037130439 
891	 0,157555936248014 
892	 0,157230222644443 
893	 0,157045470317148 
894	 0,157249251074176 
895	 0,157752731655858 
896	 0,158191764042024 
897	 0,158287751270121 
898	 0,158311010325028 
899	 0,158220307087021 
900	 0,157831178845705 
901	 0,158156743570338 
902	 0,158980601569156 
903	 0,158333879995256 
904	 0,157712285001256 
905	 0,158035634147844 
906	 0,158587640481595 
907	 0,158925185083342 
908	 0,158565313842378 
909	 0,158328596178048 
910	 0,15854556283805 
911	 0,15963313189396 
912	 0,160120641821406 
913	 0,159481413222006 
914	 0,159355215730118 
915	 0,159212695733837 
916	 0,158388546959101 
917	 0,158473810419053 
918	 0,159316115872442 
919	 0,159775549108697 
920	 0,159867568602914 
921	 0,159569714892371 
922	 0,159024132254537 
923	 0,158505747028011 
924	 0,158289269675494 
925	 0,158837091677071 
926	 0,159360030231251 
927	 0,158304954124965 
928	 0,158347381918079 
929	 0,159467146071894 
930	 0,158542827838011 
931	 0,157878564603713 
932	 0,158697844073195 
933	 0,159537264682914 
934	 0,159629516092776 
935	 0,15829297582471 
936	 0,157407648210098 
937	 0,157231246611576 
938	 0,157054730614918 
939	 0,157192124824215 
940	 0,157682333127708 
941	 0,15834158487972 
942	 0,15860819096052 
943	 0,158012844871792 
944	 0,156736529165802 
945	 0,155739137489063 
946	 0,156711972513845 
947	 0,156196420830389 
948	 0,154224087766567 
949	 0,154847191263266 
950	 0,15542356633136 
951	 0,154765317032336 
952	 0,155926011654743 
953	 0,156637777781261 
954	 0,154079914544849 
955	 0,154252432800327 
956	 0,156175712624501 
957	 0,153814501139446 
958	 0,152560172983677 
959	 0,153536558587352 
960	 0,153038911908071 
961	 0,152167356712568 
962	 0,151911683754441 
963	 0,152460364357778 
964	 0,153147033962966 
965	 0,152935922987252 
966	 0,152077493595151 
967	 0,151017408026502 
968	 0,150726593097552 
969	 0,151405978310449 
970	 0,152735898263223 
971	 0,152611877515765 
972	 0,151945603961972 
973	 0,151717371841871 
974	 0,15168307184434 
975	 0,151729341646559 
976	 0,151667748742356 
977	 0,151920058431929 
978	 0,152617320627332 
979	 0,15394689948567 
980	 0,154410555312093 
981	 0,153441518023866 
982	 0,152551921536674 
983	 0,151975710151236 
984	 0,151823122058671 
985	 0,151939060070608 
986	 0,152508831458317 
987	 0,153975053112793 
988	 0,154796255305271 
989	 0,155029363762832 
990	 0,156971250027399 
991	 0,157459048987075 
992	 0,155263829861303 
993	 0,153646784471064 
994	 0,152837071877557 
995	 0,152911937851042 
996	 0,156217349600428 
997	 0,16039492887945 
998	 0,160289179316982 
999	 0,15951138270316 
1000	 0,159065343253319 
1001	 0,158489085538228 
1002	 0,158883605381243 
1003	 0,160311785193115 
1004	 0,159514300784628 
1005	 0,159138638107678 
1006	 0,161605366345712 
1007	 0,161699866343862 
1008	 0,160558405720951 
1009	 0,16177420880987 
1010	 0,161847158981403 
1011	 0,160442017381596 
1012	 0,159152388727267 
1013	 0,160285241353177 
1014	 0,163700255203326 
1015	 0,162462898569542 
1016	 0,161569513258974 
1017	 0,164860650695977 
1018	 0,165141380818084 
1019	 0,162606179057094 
1020	 0,159350490729255 
1021	 0,161427408753173 
1022	 0,166286661554229 
1023	 0,161834432775236 
1024	 0,162182854096155 
1025	 0,16921697676564 
1026	 0,168304794704907 
1027	 0,167855546748831 
1028	 0,17245457148758 
1029	 0,171860867161868 
1030	 0,170180676413487 
1031	 0,173004430749992 
1032	 0,173353916486142 
1033	 0,172227973458749 
1034	 0,174478135675466 
1035	 0,170820835188232 
1036	 0,163480594596814 
1037	 0,170035641561247 
1038	 0,172639427463841 
1039	 0,16583231368773 
1040	 0,16622513901744 
1041	 0,170102628031605 
1042	 0,172857285570063 
1043	 0,169627481260132 
1044	 0,163388658374959 
1045	 0,159816468317679 
1046	 0,166624241393604 
1047	 0,177300644720662 
1048	 0,172165931044025 
1049	 0,174523881397568 
1050	 0,184335101794341 
1051	 0,173445855434422 
1052	 0,168963627236023 
1053	 0,181168759311857 
1054	 0,181221756577043 
1055	 0,181534139983554 
1056	 0,191384706025057 
1057	 0,183779388367121 
1058	 0,172209670840588 
1059	 0,180551025318572 
1060	 0,187367003989856 
1061	 0,188522684287756 
1062	 0,184889182446825 
1063	 0,180842178194872 
1064	 0,176580481605557 
1065	 0,166164357096842 
1066	 0,163102347287378 
1067	 0,171982424411297 
1068	 0,184145469630051 
1069	 0,178978478061787 
1070	 0,149036202543024 
1071	 0,159787701511502 
1072	 0,183882601923301 
1073	 0,178642292349142 
1074	 0,166644286402245 
1075	 0,164850452848728 
