Wavelength	GRA-VAN00123.asd
325	 0,72473540380173 
326	 0,525066020885611 
327	 0,465786047816902 
328	 0,644710240431984 
329	 0,620756524826215 
330	 0,490552458607205 
331	 0,476129446562341 
332	 0,427276484979835 
333	 0,360175189550251 
334	 0,350778831507051 
335	 0,372474634374266 
336	 0,386958486485614 
337	 0,313104476011397 
338	 0,244891596316193 
339	 0,263323804829965 
340	 0,271338187682016 
341	 0,271434589154333 
342	 0,329100357915597 
343	 0,322435858290659 
344	 0,251730169229458 
345	 0,278629674283647 
346	 0,327926185602771 
347	 0,309380408665276 
348	 0,241162386980843 
349	 0,160428888916686 
350	 0,196368602218733 
351	 0,23966575443125 
352	 0,243327286646252 
353	 0,242381784114079 
354	 0,231315260067351 
355	 0,20206116487045 
356	 0,20783006514446 
357	 0,239635399175852 
358	 0,252300331495583 
359	 0,240727326844032 
360	 0,213473628272851 
361	 0,240544086636427 
362	 0,271059050412089 
363	 0,227479800705157 
364	 0,20811599224334 
365	 0,227857395113683 
366	 0,245406913390308 
367	 0,250652925368397 
368	 0,239755181484875 
369	 0,230970200258018 
370	 0,223668029256996 
371	 0,210645093605017 
372	 0,209660535290655 
373	 0,220748953468955 
374	 0,222155027295153 
375	 0,221485518571603 
376	 0,223146417132519 
377	 0,205013601745933 
378	 0,183942554846233 
379	 0,207849043216344 
380	 0,220603401430357 
381	 0,212055031502451 
382	 0,220994279488962 
383	 0,229124578413464 
384	 0,219670001841974 
385	 0,222069309175603 
386	 0,230445443529601 
387	 0,215777611720185 
388	 0,205818070222717 
389	 0,210033916518352 
390	 0,205642224493879 
391	 0,199836875271914 
392	 0,202664751110111 
393	 0,20360841111822 
394	 0,204307032823487 
395	 0,219868656225818 
396	 0,218909980459435 
397	 0,192634178815679 
398	 0,199574370472974 
399	 0,21700771305666 
400	 0,202577021660976 
401	 0,192288491881304 
402	 0,192797372275209 
403	 0,191122530834791 
404	 0,188834576019029 
405	 0,187567150950242 
406	 0,189854576334305 
407	 0,195753379960545 
408	 0,20721836929494 
409	 0,207695910458505 
410	 0,195388635095647 
411	 0,185962119710539 
412	 0,18609261931771 
413	 0,199703833195307 
414	 0,201855249058155 
415	 0,192875274029426 
416	 0,184193998255779 
417	 0,181490651919285 
418	 0,186357530385369 
419	 0,189286393008075 
420	 0,191282427038452 
421	 0,194885835372137 
422	 0,199087610579895 
423	 0,201114514589415 
424	 0,192160267171093 
425	 0,186584494060311 
426	 0,192083405779399 
427	 0,195499734318565 
428	 0,19533777046011 
429	 0,192336600725259 
430	 0,190172387731944 
431	 0,189409600301498 
432	 0,185887276670383 
433	 0,184906394609583 
434	 0,190437392939325 
435	 0,190562832921509 
436	 0,186257482443165 
437	 0,185699826118201 
438	 0,185992612194033 
439	 0,186019316045148 
440	 0,185257051867233 
441	 0,184752671663452 
442	 0,185877106116216 
443	 0,187221471116365 
444	 0,18827985800425 
445	 0,1887435370623 
446	 0,188857848008803 
447	 0,18879520874445 
448	 0,188467925637068 
449	 0,188312915628532 
450	 0,188969488378021 
451	 0,191313436622116 
452	 0,19437467799101 
453	 0,193121765547696 
454	 0,190416600580541 
455	 0,189263633602725 
456	 0,191517845144379 
457	 0,194810895350022 
458	 0,1918528885658 
459	 0,18986230902884 
460	 0,191260297068812 
461	 0,18991656365013 
462	 0,188020612426176 
463	 0,189161949107829 
464	 0,189299230214047 
465	 0,188260529740045 
466	 0,188905845850951 
467	 0,190632429750724 
468	 0,192874272560089 
469	 0,194761719340329 
470	 0,19509151768512 
471	 0,191613155585717 
472	 0,18998836340337 
473	 0,191475501050372 
474	 0,191690459730722 
475	 0,191898993880047 
476	 0,193433424707234 
477	 0,1926019337688 
478	 0,190762116981779 
479	 0,193986370533739 
480	 0,195182176464323 
481	 0,191912643631796 
482	 0,192448148315026 
483	 0,194625542240672 
484	 0,193986747377402 
485	 0,19394255452989 
486	 0,194858626937768 
487	 0,194854337402765 
488	 0,19435104049382 
489	 0,193684382487291 
490	 0,192500234983549 
491	 0,191574040971863 
492	 0,192825542713254 
493	 0,193299203479225 
494	 0,192431506497505 
495	 0,193666026841801 
496	 0,194293012103722 
497	 0,191125292576338 
498	 0,191051080708664 
499	 0,19380478046716 
500	 0,193608052147131 
501	 0,192991602906317 
502	 0,193261181127828 
503	 0,192751538696553 
504	 0,192722357408137 
505	 0,195919515043252 
506	 0,196487925393048 
507	 0,194113223323298 
508	 0,195785188287696 
509	 0,197600298755981 
510	 0,19598643663656 
511	 0,195939011824084 
512	 0,19695720125946 
513	 0,19476305397788 
514	 0,194962432390629 
515	 0,199034014015871 
516	 0,199943022792875 
517	 0,199058715348592 
518	 0,19928873824302 
519	 0,199176092522529 
520	 0,198879572145042 
521	 0,200224848886915 
522	 0,200721663012894 
523	 0,198854903950347 
524	 0,198988610146235 
525	 0,200657086444337 
526	 0,201518237835368 
527	 0,200888788615681 
528	 0,198929910094926 
529	 0,198273634856819 
530	 0,198595933575452 
531	 0,199249035327738 
532	 0,199704173595029 
533	 0,199604041627723 
534	 0,198312042273191 
535	 0,197510770173887 
536	 0,198059604380793 
537	 0,197963741222806 
538	 0,197577170842659 
539	 0,197995376244487 
540	 0,199121835867546 
541	 0,200460402407164 
542	 0,200034012900213 
543	 0,1990727009904 
544	 0,198878451939638 
545	 0,19909374234887 
546	 0,199484422222968 
547	 0,199513254281491 
548	 0,199756879278235 
549	 0,200351831162892 
550	 0,20023928766157 
551	 0,199789078138294 
552	 0,199729152679334 
553	 0,200157690149389 
554	 0,200692050931517 
555	 0,199609839497125 
556	 0,198696087578665 
557	 0,199331611000245 
558	 0,198973072660937 
559	 0,197921053528629 
560	 0,198117717031605 
561	 0,198138756319212 
562	 0,19755937784899 
563	 0,197400444041738 
564	 0,197321740256606 
565	 0,196759841876334 
566	 0,196555470319972 
567	 0,196798835340822 
568	 0,19691379677409 
569	 0,197375303944527 
570	 0,198443809581251 
571	 0,19914032409124 
572	 0,199857863316358 
573	 0,201880607458099 
574	 0,203554036132157 
575	 0,204490387440324 
576	 0,206083175032891 
577	 0,207924890109787 
578	 0,20943289304754 
579	 0,210240710695888 
580	 0,210654051004414 
581	 0,211847016858788 
582	 0,213240821972121 
583	 0,214552002040661 
584	 0,216260388433174 
585	 0,21802072641119 
586	 0,219176049598892 
587	 0,220114727771522 
588	 0,221038415466679 
589	 0,222295559389327 
590	 0,223388375222597 
591	 0,223883896362442 
592	 0,224711206392639 
593	 0,225786290808415 
594	 0,226406366195744 
595	 0,226713880867059 
596	 0,2268129172398 
597	 0,227044995655268 
598	 0,227268338308675 
599	 0,227214630885417 
600	 0,22698634386093 
601	 0,226616482271025 
602	 0,226087727780694 
603	 0,225675443703509 
604	 0,225514391508541 
605	 0,224480016539055 
606	 0,223036548700156 
607	 0,222801727963336 
608	 0,22252387217452 
609	 0,221757417002172 
610	 0,220773978331918 
611	 0,2199086833042 
612	 0,219537667351029 
613	 0,218751543121316 
614	 0,217663764037169 
615	 0,217430759208925 
616	 0,217205533340328 
617	 0,216553416721596 
618	 0,216823372240177 
619	 0,217328813155462 
620	 0,216297047624035 
621	 0,21582428710089 
622	 0,216311350949248 
623	 0,216037907400935 
624	 0,215783527270768 
625	 0,21640037564379 
626	 0,216534899040876 
627	 0,216276676326279 
628	 0,21682008724259 
629	 0,217099202783186 
630	 0,216695956247262 
631	 0,216730272011416 
632	 0,217234052392992 
633	 0,218028147500791 
634	 0,218863305085161 
635	 0,219731468721428 
636	 0,221152483170562 
637	 0,222123170011314 
638	 0,221921881843905 
639	 0,222728729619082 
640	 0,224338711664571 
641	 0,225214368251943 
642	 0,225937860097695 
643	 0,226666331343854 
644	 0,227186500784116 
645	 0,227548032914193 
646	 0,22783767338872 
647	 0,227842596768815 
648	 0,227428345994215 
649	 0,226302297733905 
650	 0,225195900152972 
651	 0,224562124167025 
652	 0,223619046114694 
653	 0,222478025926315 
654	 0,221692559348943 
655	 0,22027484580728 
656	 0,218085222457739 
657	 0,216167694921812 
658	 0,214419501914393 
659	 0,212656227512187 
660	 0,210553838615246 
661	 0,208243486686774 
662	 0,206238682914084 
663	 0,204680495436491 
664	 0,203567775082557 
665	 0,202235259734665 
666	 0,200879307922207 
667	 0,199937877409753 
668	 0,199117075653133 
669	 0,198412272823385 
670	 0,198121978194286 
671	 0,197973673945272 
672	 0,197738643111278 
673	 0,197483858153994 
674	 0,197310969088367 
675	 0,197523207857656 
676	 0,197364791595533 
677	 0,196751237181384 
678	 0,196912241375081 
679	 0,19741685581341 
680	 0,197633189959264 
681	 0,197568232711963 
682	 0,197595842829693 
683	 0,198890042571101 
684	 0,200361945793819 
685	 0,201389911740957 
686	 0,20245572919809 
687	 0,204048284716977 
688	 0,206897954206432 
689	 0,21000212766113 
690	 0,213150635251482 
691	 0,216676056303427 
692	 0,221345920881943 
693	 0,227755091036848 
694	 0,234220730401231 
695	 0,240835432187606 
696	 0,24868015963092 
697	 0,257367817873935 
698	 0,266747646048174 
699	 0,276864153662961 
700	 0,287379120371247 
701	 0,297859010972986 
702	 0,308672552421914 
703	 0,319754268621084 
704	 0,330749525446292 
705	 0,34161761914056 
706	 0,352246543950535 
707	 0,362348508443038 
708	 0,372017362753328 
709	 0,38144758767966 
710	 0,39060830664339 
711	 0,399397798862115 
712	 0,407350706779517 
713	 0,414830395603177 
714	 0,422167288751505 
715	 0,428973276011877 
716	 0,435227368960655 
717	 0,440972383948647 
718	 0,446653625343996 
719	 0,452311312605894 
720	 0,456826213453049 
721	 0,460658865854066 
722	 0,464540900479097 
723	 0,468110468365328 
724	 0,471391192929114 
725	 0,474670613996063 
726	 0,477584958139508 
727	 0,479948445070927 
728	 0,482160038751839 
729	 0,484281396282625 
730	 0,48631095048774 
731	 0,488202887673758 
732	 0,489882136213215 
733	 0,491114068629307 
734	 0,492169470502796 
735	 0,493300708002634 
736	 0,494460628775703 
737	 0,495642062641837 
738	 0,49684766310398 
739	 0,497983733651267 
740	 0,498942754412544 
741	 0,499471898162899 
742	 0,499737859664847 
743	 0,499966951084198 
744	 0,500647803878524 
745	 0,501570194576179 
746	 0,501646710581964 
747	 0,501965063110886 
748	 0,502987266844099 
749	 0,503559375973425 
750	 0,503836373399229 
751	 0,504282527304292 
752	 0,504441905331585 
753	 0,504395060486968 
754	 0,504831047485731 
755	 0,505493595086446 
756	 0,506116295628657 
757	 0,506076469606807 
758	 0,505835548039874 
759	 0,50655204338168 
760	 0,507107206974184 
761	 0,507165933663612 
762	 0,506975629664489 
763	 0,506978603495518 
764	 0,507528266271185 
765	 0,507623191855499 
766	 0,507416445726564 
767	 0,50788014722988 
768	 0,5080594511107 
769	 0,507750838165867 
770	 0,508085928618382 
771	 0,508573489277804 
772	 0,508539911606217 
773	 0,508711680857162 
774	 0,509069089351371 
775	 0,509046282262201 
776	 0,509031675608121 
777	 0,509190506754454 
778	 0,509160853927042 
779	 0,509139947544804 
780	 0,509473927009314 
781	 0,509495237159313 
782	 0,509207104467153 
783	 0,509318857036896 
784	 0,509341052206278 
785	 0,509035079348784 
786	 0,509226938042638 
787	 0,509748318480097 
788	 0,510122564500268 
789	 0,510095204759115 
790	 0,509803611387548 
791	 0,510278622543349 
792	 0,510577435545689 
793	 0,510024527865052 
794	 0,51004172608833 
795	 0,510453167659765 
796	 0,51035244825482 
797	 0,510362488836442 
798	 0,510587694006576 
799	 0,510579579670581 
800	 0,510420820393678 
801	 0,510235092298826 
802	 0,510387605681673 
803	 0,510674713063004 
804	 0,510313993810986 
805	 0,510366384845423 
806	 0,511072497483376 
807	 0,511504746478879 
808	 0,511490952090021 
809	 0,510985353700819 
810	 0,511290667201832 
811	 0,51216600840576 
812	 0,512106692406882 
813	 0,512126993748386 
814	 0,512520107664567 
815	 0,512399928993981 
816	 0,512218116830184 
817	 0,512573577594766 
818	 0,512617755251958 
819	 0,512466837862572 
820	 0,513068803620888 
821	 0,513569821559766 
822	 0,513599509741549 
823	 0,51367987994097 
824	 0,513700737087526 
825	 0,513468339897115 
826	 0,513686684691115 
827	 0,514200451472983 
828	 0,513991828438945 
829	 0,513615755931188 
830	 0,513387634311949 
831	 0,513353739568267 
832	 0,51332471493423 
833	 0,513031533490943 
834	 0,513560252129999 
835	 0,514588158993686 
836	 0,514176413283859 
837	 0,51378866825177 
838	 0,514124820569314 
839	 0,514156078431799 
840	 0,513811008608427 
841	 0,513150732095234 
842	 0,513433258500205 
843	 0,514484164189544 
844	 0,5147184257107 
845	 0,514253243869225 
846	 0,513301676760948 
847	 0,512885005714897 
848	 0,513035480545793 
849	 0,51358865168595 
850	 0,514094033021257 
851	 0,514242609629356 
852	 0,513478519718561 
853	 0,513185644215315 
854	 0,513959725985178 
855	 0,514282805771468 
856	 0,51388471265844 
857	 0,512670855744056 
858	 0,512495664562766 
859	 0,513324901296703 
860	 0,513414665509031 
861	 0,513367300188325 
862	 0,513434696753275 
863	 0,513354692791798 
864	 0,513007734394548 
865	 0,512292047186821 
866	 0,51249735678931 
867	 0,513402145350558 
868	 0,513317372236227 
869	 0,513315185184874 
870	 0,513767571776637 
871	 0,513796878074969 
872	 0,513449627873169 
873	 0,512911745030247 
874	 0,513225666968968 
875	 0,514061760350475 
876	 0,513777885222921 
877	 0,51341792891862 
878	 0,513410643475799 
879	 0,513503182090413 
880	 0,513780773318045 
881	 0,514294974565689 
882	 0,514102744337062 
883	 0,513285650179416 
884	 0,512364569365652 
885	 0,512625737317423 
886	 0,514141657002235 
887	 0,514529032138151 
888	 0,5141816831709 
889	 0,513666948481555 
890	 0,513436961969223 
891	 0,513669556523565 
892	 0,514560869819007 
893	 0,514855559906012 
894	 0,514321645355978 
895	 0,514028592187135 
896	 0,51412673434159 
897	 0,514567402896578 
898	 0,513852592565241 
899	 0,512997427458084 
900	 0,514235962976887 
901	 0,514639170772869 
902	 0,513793717147272 
903	 0,513482841671397 
904	 0,513622490257205 
905	 0,514048454831746 
906	 0,51388958662849 
907	 0,51353170725061 
908	 0,513678520147604 
909	 0,513596958544726 
910	 0,513296579728054 
911	 0,513338508876384 
912	 0,513572973890414 
913	 0,513784752177382 
914	 0,513137842883398 
915	 0,512462829093644 
916	 0,512747119489156 
917	 0,513735423143313 
918	 0,514589133796975 
919	 0,513334760247483 
920	 0,512460441103673 
921	 0,512638365544814 
922	 0,512514746035976 
923	 0,512041556827551 
924	 0,511261812055361 
925	 0,510545521445807 
926	 0,510018899659232 
927	 0,509769446305073 
928	 0,509372969090373 
929	 0,508761739477028 
930	 0,508101312333079 
931	 0,507970965650571 
932	 0,508567639228372 
933	 0,508877791392814 
934	 0,508473773609298 
935	 0,507039467562142 
936	 0,50600153146899 
937	 0,505433389738619 
938	 0,504585645784181 
939	 0,503012413781558 
940	 0,501088966973233 
941	 0,50166969368169 
942	 0,502518115335019 
943	 0,501555510130274 
944	 0,500101586407227 
945	 0,498892297790078 
946	 0,498906808861823 
947	 0,497874396973826 
948	 0,495798873277043 
949	 0,495298537802638 
950	 0,494750943732616 
951	 0,493278921364768 
952	 0,491779357914117 
953	 0,490025505984971 
954	 0,487736870176319 
955	 0,487486494498846 
956	 0,488144348048039 
957	 0,485199760489372 
958	 0,483729528912778 
959	 0,484685191547393 
960	 0,484007643684355 
961	 0,482588090242057 
962	 0,481327545298804 
963	 0,480777301324929 
964	 0,480954756273875 
965	 0,48169796335103 
966	 0,481566541141167 
967	 0,480561777906709 
968	 0,479880248372517 
969	 0,479848000785573 
970	 0,480359338932311 
971	 0,479901346395303 
972	 0,478947333521169 
973	 0,47816221270272 
974	 0,478998855170748 
975	 0,479951737752641 
976	 0,477893369173075 
977	 0,477501697621757 
978	 0,478940897132821 
979	 0,477861212192233 
980	 0,477942179834772 
981	 0,480162152549306 
982	 0,478950206366696 
983	 0,477518801581186 
984	 0,479402924579515 
985	 0,481617863989365 
986	 0,48266260377382 
987	 0,480679367403715 
988	 0,480154699415495 
989	 0,482053507372829 
990	 0,484737720868316 
991	 0,485869662349518 
992	 0,484744182061438 
993	 0,485715174714121 
994	 0,486264725748646 
995	 0,48386146753638 
996	 0,484677117805171 
997	 0,487847695490209 
998	 0,489489943545529 
999	 0,490356372286816 
1000	 0,490194666735711 
1001	 0,487464516639681 
1002	 0,486888482352851 
1003	 0,490114815788188 
1004	 0,491344138929209 
1005	 0,491544111165455 
1006	 0,49202548448923 
1007	 0,490947068735302 
1008	 0,49002445205066 
1009	 0,492634160798712 
1010	 0,495245643766849 
1011	 0,496592644681032 
1012	 0,495960132829669 
1013	 0,496321687016343 
1014	 0,498503051519057 
1015	 0,498956954505435 
1016	 0,499311916184869 
1017	 0,500864684156809 
1018	 0,501220240045903 
1019	 0,500094974223223 
1020	 0,497751173544517 
1021	 0,498737919977835 
1022	 0,502279216906376 
1023	 0,502631120494313 
1024	 0,505576346125809 
1025	 0,510891929121286 
1026	 0,509345688095942 
1027	 0,507244717225759 
1028	 0,508561621052344 
1029	 0,508376449068919 
1030	 0,508403695795809 
1031	 0,510810130557886 
1032	 0,509763859203732 
1033	 0,50789560038996 
1034	 0,512864320908951 
1035	 0,512658439197509 
1036	 0,507753928547774 
1037	 0,512736061594338 
1038	 0,515455590017896 
1039	 0,511967736675182 
1040	 0,511439217676168 
1041	 0,515457154542815 
1042	 0,523164931401055 
1043	 0,520638561095129 
1044	 0,513026981085062 
1045	 0,510541875397888 
1046	 0,513719748743184 
1047	 0,519299618071004 
1048	 0,518461390920202 
1049	 0,524970766218907 
1050	 0,536315818924515 
1051	 0,52889815718125 
1052	 0,518864683306039 
1053	 0,515424845196646 
1054	 0,514384203717888 
1055	 0,517383320171222 
1056	 0,524180803687466 
1057	 0,520241890701852 
1058	 0,515957743114114 
1059	 0,52780465420404 
1060	 0,526437921139863 
1061	 0,517691918538159 
1062	 0,529201918653615 
1063	 0,537260317941756 
1064	 0,534691634564769 
1065	 0,519859122619377 
1066	 0,515518167232608 
1067	 0,527183217659228 
1068	 0,522232102089544 
1069	 0,518053473770992 
1070	 0,526806143461847 
1071	 0,529257484712921 
1072	 0,529003588117581 
1073	 0,532592281649025 
1074	 0,52952310494762 
1075	 0,525955219543881 
