Wavelength	GRA-VAN00103.asd
325	 9,92103634140081E-02 
326	 0,109939841549875 
327	 0,167285100677419 
328	 0,220105948740259 
329	 3,92081264004947E-02 
330	-0,110146434811548 
331	 0,138621997643557 
332	 0,209860020332242 
333	 0,179419629592948 
334	 5,62625915188443E-02 
335	 0,055381918805788 
336	 0,191454808813502 
337	 0,159262731089873 
338	 7,86387921364898E-02 
339	 4,48555938886151E-02 
340	 0,107081115773177 
341	 0,184477804837173 
342	 0,165730009379535 
343	 0,138397206058967 
344	 0,131524073511634 
345	 9,16547927575637E-02 
346	 0,065976309921631 
347	 0,11181130982948 
348	 0,103081190950951 
349	 4,91767050690283E-02 
350	 3,27869187845558E-02 
351	 4,44947927215861E-02 
352	 0,070543203301824 
353	 0,091069898148435 
354	 8,65481484736167E-02 
355	 3,43504738283909E-02 
356	 5,74120864463908E-02 
357	 0,123289671774461 
358	 7,93023371718214E-02 
359	 4,77590573435304E-02 
360	 8,31860585865037E-02 
361	 9,47219030569786E-02 
362	 8,83128738970305E-02 
363	 8,11020849816299E-02 
364	 7,47908551885237E-02 
365	 7,46331859140267E-02 
366	 9,53348025697674E-02 
367	 0,108567957313132 
368	 9,75250050745256E-02 
369	 7,06390676243718E-02 
370	 0,041704551071673 
371	 3,02846618329331E-02 
372	 3,80493397720537E-02 
373	 5,35227933597821E-02 
374	 3,15150577143916E-02 
375	 2,84444376677238E-02 
376	 8,11687688993166E-02 
377	 8,19624783157302E-02 
378	 4,81626477935205E-02 
379	 5,32485081096404E-02 
380	 6,32064933032973E-02 
381	 7,05859149851439E-02 
382	 8,64586189046238E-02 
383	 0,094713017793515 
384	 8,28246383939507E-02 
385	 8,74870049429908E-02 
386	 9,79519380330872E-02 
387	 6,68698167274564E-02 
388	 5,08818123001779E-02 
389	 0,068957654723127 
390	 7,36110508669016E-02 
391	 6,90116577174628E-02 
392	 6,44862245557282E-02 
393	 6,03572890398585E-02 
394	 5,81797920566056E-02 
395	 6,05309904197112E-02 
396	 6,48069894447188E-02 
397	 6,86786870474478E-02 
398	 6,80840771323156E-02 
399	 6,15241260197625E-02 
400	 4,58228963393048E-02 
401	 5,31402515836753E-02 
402	 7,67626508173265E-02 
403	 6,61222490981867E-02 
404	 4,57391523454901E-02 
405	 3,54780363984599E-02 
406	 4,45407249575263E-02 
407	 6,01202018922585E-02 
408	 5,69638019052711E-02 
409	 5,46410171586922E-02 
410	 5,68636626560408E-02 
411	 5,24275406423399E-02 
412	 0,04904790646759 
413	 5,39076651972978E-02 
414	 5,94441261903639E-02 
415	 6,13659104397164E-02 
416	 5,15649117944323E-02 
417	 4,61616203821868E-02 
418	 5,10309645802427E-02 
419	 5,59553913427431E-02 
420	 5,82696911570169E-02 
421	 5,61835393974211E-02 
422	 5,81714108588676E-02 
423	 6,20501409274657E-02 
424	 5,32114732604715E-02 
425	 0,046423359388977 
426	 5,01735771042556E-02 
427	 5,57877421043845E-02 
428	 0,060295556530833 
429	 6,14668571613712E-02 
430	 5,79280984685919E-02 
431	 5,13551133582522E-02 
432	 4,95799150150708E-02 
433	 5,33172659581506E-02 
434	 6,16601068166385E-02 
435	 0,056933699239773 
436	 4,51676108057919E-02 
437	 5,07031538460192E-02 
438	 5,52245942850334E-02 
439	 5,25265300838169E-02 
440	 5,11954543567846E-02 
441	 5,21105743284756E-02 
442	 5,53987369190329E-02 
443	 5,72254425131932E-02 
444	 5,71194899321602E-02 
445	 5,73339727379142E-02 
446	 0,056529191576875 
447	 5,43723481374077E-02 
448	 5,49684314010273E-02 
449	 0,05723123160296 
450	 5,80922489377468E-02 
451	 5,87923793399472E-02 
452	 5,96459920764783E-02 
453	 6,11312373817697E-02 
454	 6,06762574009029E-02 
455	 5,64745135710366E-02 
456	 5,96102724033717E-02 
457	 6,64637747297137E-02 
458	 6,15255095314334E-02 
459	 5,86983966031484E-02 
460	 6,27032154330541E-02 
461	 6,28786209999681E-02 
462	 6,15302740347279E-02 
463	 6,30142806644227E-02 
464	 6,13665159602626E-02 
465	 5,76754637048973E-02 
466	 6,05175566590426E-02 
467	 6,45802465500526E-02 
468	 6,61619339499374E-02 
469	 6,58855556613523E-02 
470	 6,44143520252562E-02 
471	 0,062749614840178 
472	 6,19792321075144E-02 
473	 6,23870871850198E-02 
474	 6,28725086300397E-02 
475	 6,32352651529029E-02 
476	 6,34121097293048E-02 
477	 6,56048321133124E-02 
478	 6,82154042746205E-02 
479	 6,58515124364355E-02 
480	 0,063164417690465 
481	 6,26798180686699E-02 
482	 6,48657135305596E-02 
483	 6,74084292037909E-02 
484	 6,69511366552729E-02 
485	 6,64800245402149E-02 
486	 0,066817793272286 
487	 6,81219243202262E-02 
488	 6,80742515836434E-02 
489	 6,53621256746668E-02 
490	 6,57118348734286E-02 
491	 0,068169743268602 
492	 6,86229304116077E-02 
493	 0,067994676481827 
494	 6,67929914635679E-02 
495	 6,67097423302173E-02 
496	 6,64887911514796E-02 
497	 6,46207821223715E-02 
498	 6,52977250015041E-02 
499	 6,79197941680219E-02 
500	 6,76270349607352E-02 
501	 6,75963606332226E-02 
502	 6,93293939906122E-02 
503	 0,069772312760444 
504	 6,94173340693537E-02 
505	 6,97274985420305E-02 
506	 7,05707326714123E-02 
507	 7,17171049038694E-02 
508	 7,23859919195927E-02 
509	 7,22683393120216E-02 
510	 0,071221748408411 
511	 7,09261532555808E-02 
512	 7,11988227784925E-02 
513	 7,04357899195445E-02 
514	 7,05382832711842E-02 
515	 7,20955353896405E-02 
516	 7,33066188452375E-02 
517	 7,40883082246001E-02 
518	 7,46450088269273E-02 
519	 0,074492756956598 
520	 7,38740456593651E-02 
521	 7,40342562633214E-02 
522	 7,40236929580434E-02 
523	 7,33262425427217E-02 
524	 7,43161815609763E-02 
525	 7,61999046879194E-02 
526	 7,65406814041462E-02 
527	 7,61345795632564E-02 
528	 7,54718837185897E-02 
529	 7,58453719992181E-02 
530	 7,64411394954489E-02 
531	 7,62277594382133E-02 
532	 7,66693179163673E-02 
533	 7,73837450971538E-02 
534	 7,58589732473676E-02 
535	 7,56313818649893E-02 
536	 0,078298238073188 
537	 7,84877309035746E-02 
538	 0,077360917830218 
539	 7,83986264022121E-02 
540	 7,95481015484742E-02 
541	 8,00251988035482E-02 
542	 7,91002663741389E-02 
543	 7,83877397406907E-02 
544	 7,94104428839156E-02 
545	 7,98910455919865E-02 
546	 7,97880483699569E-02 
547	 8,03844647914243E-02 
548	 8,08480395916573E-02 
549	 8,08950747082205E-02 
550	 8,14584945031059E-02 
551	 8,22386514280138E-02 
552	 8,26463425410658E-02 
553	 8,25717207484415E-02 
554	 8,21685644785216E-02 
555	 8,21027431153719E-02 
556	 8,25387422330468E-02 
557	 8,35099621058363E-02 
558	 8,38119034382099E-02 
559	 8,37169423366966E-02 
560	 8,46070367510526E-02 
561	 8,49620611760183E-02 
562	 8,44286776408612E-02 
563	 0,084860517965093 
564	 8,54005527707708E-02 
565	 8,47169760598122E-02 
566	 8,45364552419747E-02 
567	 8,50396752797012E-02 
568	 8,51923861957413E-02 
569	 8,53566109926439E-02 
570	 8,57507914475576E-02 
571	 8,58713582809509E-02 
572	 8,60228228344208E-02 
573	 8,71059379626828E-02 
574	 8,77355201508057E-02 
575	 8,76192538339264E-02 
576	 8,81165322889105E-02 
577	 8,86813928830065E-02 
578	 8,86172510735262E-02 
579	 8,90644944608448E-02 
580	 9,00044625593373E-02 
581	 9,06623559266814E-02 
582	 0,09072026727515 
583	 9,01437354235405E-02 
584	 9,02516436253824E-02 
585	 9,09210167076579E-02 
586	 9,16421771569998E-02 
587	 9,19469791327041E-02 
588	 9,18332379774549E-02 
589	 9,21527795721241E-02 
590	 9,24865180496556E-02 
591	 9,24523121668897E-02 
592	 9,29545979753505E-02 
593	 9,38211455978548E-02 
594	 9,41951149198907E-02 
595	 9,40711529594486E-02 
596	 0,093601598754242 
597	 9,40371878823862E-02 
598	 0,094485744426159 
599	 9,33990442884517E-02 
600	 9,28554458786265E-02 
601	 9,33477671328292E-02 
602	 9,43740914436531E-02 
603	 9,50169920543644E-02 
604	 9,45984084008439E-02 
605	 9,40154172894303E-02 
606	 9,36277184023245E-02 
607	 9,39319415170931E-02 
608	 9,39506720520421E-02 
609	 9,34070412942896E-02 
610	 9,30885976822504E-02 
611	 9,30069210165628E-02 
612	 0,093085416349084 
613	 9,33388848913884E-02 
614	 9,35496582301092E-02 
615	 9,30233816249614E-02 
616	 9,25841996867562E-02 
617	 0,092781105860257 
618	 9,34529879777743E-02 
619	 0,094053440782282 
620	 9,35649642582426E-02 
621	 9,32290455975856E-02 
622	 9,33558384513538E-02 
623	 9,31859208201375E-02 
624	 9,31566373752186E-02 
625	 9,37223550799193E-02 
626	 9,39188150977093E-02 
627	 9,38500103701988E-02 
628	 9,45650453122321E-02 
629	 9,48289237339022E-02 
630	 0,094126597755273 
631	 0,093622554768762 
632	 9,36112647414875E-02 
633	 9,43252341946661E-02 
634	 9,48366510691076E-02 
635	 9,49913962652567E-02 
636	 9,55128926512775E-02 
637	 9,60352727561591E-02 
638	 9,62508314942682E-02 
639	 9,65257680755236E-02 
640	 9,68714826015905E-02 
641	 9,71374395361783E-02 
642	 9,74439636147662E-02 
643	 9,78014859722777E-02 
644	 9,79757739235818E-02 
645	 9,81469149898459E-02 
646	 9,85764282838634E-02 
647	 9,85407946669071E-02 
648	 9,79882283680744E-02 
649	 9,73507660777896E-02 
650	 9,70152927485285E-02 
651	 9,71613582990773E-02 
652	 9,67382341215814E-02 
653	 9,62160980288601E-02 
654	 9,70136672802357E-02 
655	 9,68992582427574E-02 
656	 9,54176865017072E-02 
657	 9,42784571789776E-02 
658	 9,36443508417929E-02 
659	 0,093535530821582 
660	 9,30530352364042E-02 
661	 9,22294110096678E-02 
662	 9,18511699167743E-02 
663	 9,12691210497847E-02 
664	 0,09028707633546 
665	 8,99669763268102E-02 
666	 8,97892815371777E-02 
667	 8,87420596800695E-02 
668	 8,80390043490097E-02 
669	 8,79863124195997E-02 
670	 8,83100013875827E-02 
671	 8,86726474532985E-02 
672	 8,87879839886832E-02 
673	 0,08864236268201 
674	 8,84274708876018E-02 
675	 8,86081338886626E-02 
676	 8,87347340250642E-02 
677	 8,87583666958957E-02 
678	 8,93117004521518E-02 
679	 9,01562749733113E-02 
680	 9,09438561491738E-02 
681	 9,11116809370342E-02 
682	 0,090987145853011 
683	 9,20634580764131E-02 
684	 0,093227701563194 
685	 9,38476334670237E-02 
686	 0,094440324226746 
687	 9,53111911524367E-02 
688	 9,69418453843768E-02 
689	 9,78651461322996E-02 
690	 9,80622742259091E-02 
691	 9,95023311877706E-02 
692	 0,101464130251176 
693	 0,103235837087962 
694	 0,105084535537729 
695	 0,107071692628965 
696	 0,109283424433851 
697	 0,111557991322515 
698	 0,113824231793002 
699	 0,116040582344653 
700	 0,118590725995021 
701	 0,12195102807439 
702	 0,125098825198301 
703	 0,127733549392997 
704	 0,129853234833113 
705	 0,132085761045892 
706	 0,134729839670045 
707	 0,136624951776948 
708	 0,138151345040299 
709	 0,14028357924397 
710	 0,142610942805488 
711	 0,144808059656033 
712	 0,146000557907994 
713	 0,147050846581208 
714	 0,148756665974723 
715	 0,150252859146877 
716	 0,151478758878184 
717	 0,152730097022571 
718	 0,153792990713369 
719	 0,154633094747167 
720	 0,155545014267254 
721	 0,156484012476352 
722	 0,157358465772648 
723	 0,157931368847136 
724	 0,158361348937814 
725	 0,159405689654708 
726	 0,160241214999341 
727	 0,160437597886286 
728	 0,160936023970483 
729	 0,161665919079305 
730	 0,16227511168201 
731	 0,162756614388272 
732	 0,163114033345174 
733	 0,163432033222572 
734	 0,163771167818077 
735	 0,164179456994212 
736	 0,164585296236768 
737	 0,165026585191651 
738	 0,165645734804845 
739	 0,166247664630507 
740	 0,166689653579883 
741	 0,166709867396377 
742	 0,16663388252881 
743	 0,166853357077068 
744	 0,166918401428423 
745	 0,166885032317645 
746	 0,167177423622799 
747	 0,167746883070503 
748	 0,168452314278187 
749	 0,1685188027758 
750	 0,168329763904777 
751	 0,168614241513555 
752	 0,16889689102445 
753	 0,169155123725249 
754	 0,16981753007977 
755	 0,170314094821246 
756	 0,170257400486676 
757	 0,17016117012402 
758	 0,170218955962153 
759	 0,170630159363585 
760	 0,171146426328779 
761	 0,171567786095716 
762	 0,171458015388106 
763	 0,171311661065606 
764	 0,171597213907402 
765	 0,171827994851839 
766	 0,171984402524234 
767	 0,172273962292927 
768	 0,172506173441098 
769	 0,172618564199936 
770	 0,172680552818292 
771	 0,172903546338587 
772	 0,173509066146626 
773	 0,173899340772304 
774	 0,174013072452643 
775	 0,174139107424187 
776	 0,174226455171628 
777	 0,17427386870914 
778	 0,17436211828756 
779	 0,17455024876952 
780	 0,174913204281234 
781	 0,17499852256017 
782	 0,174805280082113 
783	 0,174761593886866 
784	 0,174942555690046 
785	 0,175370937645708 
786	 0,175782257986764 
787	 0,17609944875292 
788	 0,176279297666923 
789	 0,176310824753375 
790	 0,176321510132939 
791	 0,176816193059144 
792	 0,177299320350554 
793	 0,177372843898564 
794	 0,177321591441506 
795	 0,177341201015406 
796	 0,177774253041595 
797	 0,177941978808978 
798	 0,17772090796556 
799	 0,17772905242748 
800	 0,17784396844235 
801	 0,177924706367885 
802	 0,178038298557891 
803	 0,178214023980797 
804	 0,178536235408932 
805	 0,178706907383185 
806	 0,17865971807119 
807	 0,178730290046651 
808	 0,178834829633376 
809	 0,178865145603977 
810	 0,17897739232939 
811	 0,17920379100178 
812	 0,17952599089334 
813	 0,179984663312878 
814	 0,18045909514942 
815	 0,180213204846749 
816	 0,179822990709979 
817	 0,180037272779896 
818	 0,180515853746154 
819	 0,180953665316051 
820	 0,180679980409376 
821	 0,180418964480074 
822	 0,18055404922548 
823	 0,181049537323092 
824	 0,181551421929863 
825	 0,181621722249263 
826	 0,181726915141151 
827	 0,181890998008141 
828	 0,181802105459984 
829	 0,181823206124788 
830	 0,182052819359116 
831	 0,18178539015324 
832	 0,181376372463691 
833	 0,181400885759934 
834	 0,18179277023721 
835	 0,182343145221347 
836	 0,182436502277238 
837	 0,182515479387106 
838	 0,18276103793466 
839	 0,18270179143393 
840	 0,182400313957629 
841	 0,182014122237538 
842	 0,182356705633685 
843	 0,183242383902082 
844	 0,183382848985206 
845	 0,183203990192502 
846	 0,183004327046594 
847	 0,183217902525313 
848	 0,183386289392227 
849	 0,182802915345025 
850	 0,182525178667225 
851	 0,182741554020082 
852	 0,183129929556366 
853	 0,183451847711928 
854	 0,183502196789131 
855	 0,183020461056117 
856	 0,182431714549047 
857	 0,182340287031255 
858	 0,182619764552074 
859	 0,183156665630816 
860	 0,183792422049399 
861	 0,183908964265108 
862	 0,183318421959825 
863	 0,183183736713903 
864	 0,183220334162668 
865	 0,182900372300873 
866	 0,183117947370799 
867	 0,183706837634984 
868	 0,183497219874396 
869	 0,183450090586881 
870	 0,183891822983063 
871	 0,183894428335745 
872	 0,183606296914602 
873	 0,183321780312255 
874	 0,18341072039982 
875	 0,183704562940201 
876	 0,183417058788236 
877	 0,183266708514961 
878	 0,183549961785842 
879	 0,184126287127497 
880	 0,184460843331846 
881	 0,18405738142516 
882	 0,18427764290273 
883	 0,184895871718149 
884	 0,184484038164002 
885	 0,184599571625841 
886	 0,18540069678198 
887	 0,184644555466225 
888	 0,183890554165518 
889	 0,18461492008535 
890	 0,184947122738256 
891	 0,184852646511428 
892	 0,185044673553496 
893	 0,184883938322741 
894	 0,184474452261909 
895	 0,185200169408157 
896	 0,185682644023753 
897	 0,184938342252775 
898	 0,184683190212224 
899	 0,184910778174169 
900	 0,185124015039408 
901	 0,185259158303537 
902	 0,185236182981149 
903	 0,184930491586783 
904	 0,184708425147474 
905	 0,184814409135964 
906	 0,18513827342797 
907	 0,185542504449804 
908	 0,185856843325616 
909	 0,185741386220144 
910	 0,185526122583635 
911	 0,186593181141825 
912	 0,187234826587864 
913	 0,186714450767664 
914	 0,185993462044525 
915	 0,185401654054181 
916	 0,185211815841308 
917	 0,185370596467313 
918	 0,185786181694361 
919	 0,18635128655356 
920	 0,186475679745075 
921	 0,186116965982834 
922	 0,186256252708005 
923	 0,186413980683729 
924	 0,186229690210821 
925	 0,186623784474332 
926	 0,187228970228605 
927	 0,187122723356429 
928	 0,187568375903877 
929	 0,188360508101098 
930	 0,187474274475466 
931	 0,186314911754653 
932	 0,185806472515703 
933	 0,186041548697956 
934	 0,186381800494436 
935	 0,186018033791501 
936	 0,186096116177088 
937	 0,186584940610163 
938	 0,186790149925244 
939	 0,18625343199625 
940	 0,185170025199571 
941	 0,185505672736962 
942	 0,18625974680501 
943	 0,186429503021218 
944	 0,186225403909673 
945	 0,186119623458807 
946	 0,186981230499194 
947	 0,186818936152427 
948	 0,185721952162998 
949	 0,186337754038683 
950	 0,18651874424598 
951	 0,185435617418263 
952	 0,186398990451711 
953	 0,187267690955879 
954	 0,185259274453286 
955	 0,184858231457138 
956	 0,185888907253124 
957	 0,185358430618657 
958	 0,184880465283657 
959	 0,184975588384547 
960	 0,18567701599832 
961	 0,185755775825727 
962	 0,184633517173607 
963	 0,185903228611304 
964	 0,187637753529985 
965	 0,186224473517182 
966	 0,185118218320133 
967	 0,18501695533827 
968	 0,18522188030954 
969	 0,185557694834029 
970	 0,185894630741834 
971	 0,186491618529684 
972	 0,185838158099527 
973	 0,183198756214399 
974	 0,18600837555043 
975	 0,190805338674544 
976	 0,189322393231317 
977	 0,186488496869272 
978	 0,184867458542373 
979	 0,188610355523246 
980	 0,190953433237804 
981	 0,188783446853159 
982	 0,185466281093894 
983	 0,184148840581415 
984	 0,187278983129583 
985	 0,188437430385903 
986	 0,187439106826493 
987	 0,18630564544128 
988	 0,186800265948609 
989	 0,188957494907158 
990	 0,19068412456991 
991	 0,191364036059547 
992	 0,190838093422636 
993	 0,190555596366009 
994	 0,190340947646925 
995	 0,189967338742355 
996	 0,190779084596598 
997	 0,192114790676393 
998	 0,192293350382581 
999	 0,19164429401036 
1000	 0,190486031094971 
1001	 0,189501566886562 
1002	 0,18922667768411 
1003	 0,189898550134909 
1004	 0,191203257342659 
1005	 0,191480379384094 
1006	 0,189645053591882 
1007	 0,191869122194914 
1008	 0,194160541589089 
1009	 0,187671472483201 
1010	 0,187042170045174 
1011	 0,192798780219011 
1012	 0,193337530535487 
1013	 0,191485518698805 
1014	 0,189168592694901 
1015	 0,190506575040271 
1016	 0,192881720533694 
1017	 0,193731549441269 
1018	 0,192842872516612 
1019	 0,191077967533513 
1020	 0,189886665541847 
1021	 0,190119093830585 
1022	 0,191459768555433 
1023	 0,191962039382894 
1024	 0,195566948060044 
1025	 0,200941769413152 
1026	 0,196759044324616 
1027	 0,193021218517876 
1028	 0,195721617503099 
1029	 0,195410808673077 
1030	 0,193469593873176 
1031	 0,192800004061914 
1032	 0,195321659580762 
1033	 0,199181653023096 
1034	 0,200109688278961 
1035	 0,19426175968921 
1036	 0,186292778454439 
1037	 0,196387894172061 
1038	 0,203751850059442 
1039	 0,20033190712369 
1040	 0,197092180587845 
1041	 0,198536084251361 
1042	 0,205702098168101 
1043	 0,199022418492563 
1044	 0,188723393305454 
1045	 0,192264564609797 
1046	 0,19425624687789 
1047	 0,193640299392055 
1048	 0,195187582367331 
1049	 0,201562154645054 
1050	 0,209496326683827 
1051	 0,204591974233011 
1052	 0,199727069730417 
1053	 0,201645782981815 
1054	 0,2042943606732 
1055	 0,212243037627575 
1056	 0,225352891230137 
1057	 0,207653562304292 
1058	 0,187687001151121 
1059	 0,211034287967587 
1060	 0,213272989667724 
1061	 0,198869786714569 
1062	 0,210012705327348 
1063	 0,211932985673712 
1064	 0,199551124061997 
1065	 0,191191451104397 
1066	 0,191544536311465 
1067	 0,201108314201494 
1068	 0,210001301133715 
1069	 0,212897797326238 
1070	 0,207953946508245 
1071	 0,21216533869815 
1072	 0,21451584326198 
1073	 0,200921033137439 
1074	 0,191869124308178 
1075	 0,196143108353215 
