Wavelength	GRA-VIE00449.asd
325	 0,218592371209526 
326	 0,301527034891777 
327	 0,249662462646933 
328	 0,111692699203456 
329	 0,120591481020504 
330	 0,162994206233488 
331	 0,14363453777995 
332	 0,128858550747743 
333	 0,125015906302968 
334	 0,144618911235461 
335	 0,231417570217088 
336	 0,316405442129536 
337	 0,234370033975046 
338	 0,148994165097809 
339	 0,168176763694712 
340	 0,157473636719191 
341	 0,117777372554279 
342	 0,112439338006554 
343	 0,151952471127748 
344	 0,210856994588183 
345	 0,208813544847023 
346	 0,170161885717853 
347	 0,125556909852808 
348	 7,01567657520558E-02 
349	 3,23892030767785E-02 
350	 0,087613834054668 
351	 0,113978818337907 
352	 8,63482526276795E-02 
353	 8,84276930059228E-02 
354	 0,114552603879616 
355	 0,148275813074551 
356	 0,178741208547733 
357	 0,189760419216747 
358	 0,143945188259171 
359	 0,10714114575334 
360	 0,1069511571922 
361	 0,10292404100444 
362	 0,102831094955912 
363	 0,122656090099957 
364	 0,135759255881024 
365	 0,13359614943846 
366	 0,107609291813508 
367	 0,099003510010331 
368	 0,127510956388504 
369	 0,127860643219636 
370	 0,109150731823911 
371	 0,100655249864221 
372	 9,06601749907738E-02 
373	 0,0785459422844 
374	 7,16327999494381E-02 
375	 7,10077671620747E-02 
376	 7,62493905185152E-02 
377	 7,61658483482228E-02 
378	 7,88570773215418E-02 
379	 0,108775013724908 
380	 0,116178034804432 
381	 9,61270046164999E-02 
382	 9,19340945603554E-02 
383	 9,74616838498089E-02 
384	 0,104713017184341 
385	 0,124347413736166 
386	 0,139878834659369 
387	 0,107873560031607 
388	 9,23381858122716E-02 
389	 0,113819578730177 
390	 0,12768807533995 
391	 0,126033765636029 
392	 0,10440677945815 
393	 8,91161749345149E-02 
394	 8,62254884927667E-02 
395	 9,28492905199629E-02 
396	 0,103830006996968 
397	 0,114736000842662 
398	 0,113412796111587 
399	 0,100516309476908 
400	 7,73866507418807E-02 
401	 7,63249879299563E-02 
402	 9,53382829548612E-02 
403	 9,21200102565799E-02 
404	 9,09874657873976E-02 
405	 0,106146780253409 
406	 0,100826140853441 
407	 0,086046191899029 
408	 0,095737704693721 
409	 0,095677574438348 
410	 8,22994123274394E-02 
411	 8,51162465071258E-02 
412	 9,32613070773413E-02 
413	 9,51478562765389E-02 
414	 9,01955953913311E-02 
415	 8,28773985766752E-02 
416	 8,58672490153266E-02 
417	 8,51705653352538E-02 
418	 7,78123406777836E-02 
419	 8,15742565021738E-02 
420	 8,78450757549955E-02 
421	 0,084073580180174 
422	 0,082598397988723 
423	 0,084653232162781 
424	 0,085067751852998 
425	 8,32775844698229E-02 
426	 7,94306343380417E-02 
427	 0,077818067220236 
428	 7,87960309263788E-02 
429	 8,21219577617447E-02 
430	 8,31242782489104E-02 
431	 8,10455802940233E-02 
432	 7,98463289302704E-02 
433	 7,94511753537805E-02 
434	 7,97313804818311E-02 
435	 8,24041878547509E-02 
436	 8,56975669776149E-02 
437	 0,085042101617062 
438	 8,18913867208283E-02 
439	 7,83490666339543E-02 
440	 8,31090037328184E-02 
441	 8,86449526709836E-02 
442	 8,50185166143566E-02 
443	 8,14855354478822E-02 
444	 8,09494562941384E-02 
445	 8,47621328140156E-02 
446	 8,98268315481546E-02 
447	 9,32981491770383E-02 
448	 8,88227007031798E-02 
449	 8,20641341079277E-02 
450	 0,0850904317854 
451	 0,086820511437561 
452	 8,49661116909224E-02 
453	 8,53170572536827E-02 
454	 8,70128670141007E-02 
455	 8,88815330838792E-02 
456	 8,86748712761313E-02 
457	 8,70346266925259E-02 
458	 8,68267169523346E-02 
459	 8,69113993927684E-02 
460	 8,70883468620788E-02 
461	 8,89631136739893E-02 
462	 9,05150180814548E-02 
463	 8,89501020426222E-02 
464	 8,73865488221262E-02 
465	 8,69629655501077E-02 
466	 0,088707151371438 
467	 8,98754326255359E-02 
468	 8,88053843578813E-02 
469	 8,82152050310074E-02 
470	 8,78776887501111E-02 
471	 0,086255159504567 
472	 8,66931761342728E-02 
473	 8,91613362960273E-02 
474	 8,80344656108227E-02 
475	 8,65520024554196E-02 
476	 8,80082407225671E-02 
477	 8,71818929995151E-02 
478	 8,51214526537424E-02 
479	 8,78873315213085E-02 
480	 8,94849447821038E-02 
481	 8,74619033942495E-02 
482	 8,57637660312544E-02 
483	 8,49925146299902E-02 
484	 0,085363075328505 
485	 8,62288896873877E-02 
486	 8,69505032385719E-02 
487	 8,60030547628811E-02 
488	 8,55470661726432E-02 
489	 8,69374914722074E-02 
490	 8,58304450368424E-02 
491	 8,37753222288271E-02 
492	 8,61567787661344E-02 
493	 8,70232063224506E-02 
494	 8,50732177577919E-02 
495	 8,55177055823338E-02 
496	 8,60528318718619E-02 
497	 8,37530892380376E-02 
498	 8,33534663694809E-02 
499	 8,46375165184061E-02 
500	 8,34026372570203E-02 
501	 8,27297419091427E-02 
502	 0,084160673566041 
503	 0,085301183060458 
504	 8,56617749757601E-02 
505	 8,49245876382464E-02 
506	 8,48739171883506E-02 
507	 8,58059702432298E-02 
508	 8,64352061846481E-02 
509	 8,62904632620623E-02 
510	 8,51793720207753E-02 
511	 8,62425789551468E-02 
512	 8,88775351075711E-02 
513	 9,02071936901961E-02 
514	 9,03391546488522E-02 
515	 8,95951949114762E-02 
516	 9,02128953037384E-02 
517	 0,091228772021659 
518	 9,10031488750316E-02 
519	 9,06735371595965E-02 
520	 9,04899503782309E-02 
521	 9,00873360766805E-02 
522	 0,090466762296629 
523	 9,20459165841062E-02 
524	 9,10289530489007E-02 
525	 8,89119171494591E-02 
526	 0,090500334491863 
527	 9,17229371197146E-02 
528	 9,13072693957534E-02 
529	 9,04752950104231E-02 
530	 8,95599648762693E-02 
531	 8,88352655543733E-02 
532	 8,90707285147553E-02 
533	 8,98877780309053E-02 
534	 8,95894644822629E-02 
535	 8,90740322408826E-02 
536	 8,89605580523204E-02 
537	 8,98474546667486E-02 
538	 9,07107861731761E-02 
539	 8,94749780006858E-02 
540	 8,89034003607927E-02 
541	 8,96588103184384E-02 
542	 9,04315286390506E-02 
543	 9,08625276572424E-02 
544	 9,06840427934375E-02 
545	 9,02682191826891E-02 
546	 8,98681083829153E-02 
547	 8,98726248805744E-02 
548	 8,99610839256038E-02 
549	 8,99995008365014E-02 
550	 9,02324142891393E-02 
551	 9,04992507007039E-02 
552	 9,05112065828055E-02 
553	 9,07681739548939E-02 
554	 9,11207736126195E-02 
555	 0,090454681665428 
556	 8,95188078657349E-02 
557	 8,90133464897276E-02 
558	 8,93384299680512E-02 
559	 9,00047469500013E-02 
560	 0,089568437049699 
561	 8,94110372076155E-02 
562	 8,98804290824006E-02 
563	 0,089566791276497 
564	 8,89477996738638E-02 
565	 8,88051233797303E-02 
566	 8,88428539562479E-02 
567	 8,90086738188702E-02 
568	 8,93095596061563E-02 
569	 8,97601017683255E-02 
570	 9,03334446736385E-02 
571	 9,06545509365881E-02 
572	 9,09772719005617E-02 
573	 9,20280319379469E-02 
574	 0,092771429537964 
575	 9,31109363909081E-02 
576	 9,46605803257986E-02 
577	 9,61523408165249E-02 
578	 9,61122649595085E-02 
579	 9,72151185117037E-02 
580	 9,92327199882701E-02 
581	 9,94328926154216E-02 
582	 9,98510491953072E-02 
583	 0,101469500877961 
584	 0,102332851644119 
585	 0,102699008788652 
586	 0,103453703789229 
587	 0,104333100203761 
588	 0,105282888977967 
589	 0,106359257718562 
590	 0,107264155442485 
591	 0,107722167219693 
592	 0,107914182662647 
593	 0,107945163828776 
594	 0,107908598716395 
595	 0,10806023760798 
596	 0,10850272919365 
597	 0,1090199067365 
598	 0,109261361829513 
599	 0,108744965159398 
600	 0,108624547867457 
601	 0,108969517139156 
602	 0,108661601108504 
603	 0,108218740334067 
604	 0,108027304383696 
605	 0,107434851830923 
606	 0,106555088788762 
607	 0,105862134432125 
608	 0,105442219604377 
609	 0,10518920152677 
610	 0,104120411790619 
611	 0,103089472820058 
612	 0,103227268767381 
613	 0,102988921188854 
614	 0,102251660897663 
615	 0,101911931340849 
616	 0,101831580108294 
617	 0,101859544148832 
618	 0,101443307966877 
619	 0,100826827780165 
620	 0,100578123404527 
621	 0,10101250835821 
622	 0,101924573027396 
623	 0,101794760539587 
624	 0,101335810419348 
625	 0,101374682351563 
626	 0,101612791296062 
627	 0,101912822465696 
628	 0,102029708438136 
629	 0,102157949473806 
630	 0,102371602423331 
631	 0,1023685489567 
632	 0,102535833863078 
633	 0,103553524868542 
634	 0,104368654141012 
635	 0,104817368963278 
636	 0,105638092510827 
637	 0,106512106723422 
638	 0,107166536026252 
639	 0,107906497793075 
640	 0,108762144749052 
641	 0,10970909401772 
642	 0,110512494915364 
643	 0,111047553465916 
644	 0,111301103810375 
645	 0,111505565365673 
646	 0,111954074694344 
647	 0,112317202223204 
648	 0,112420707556846 
649	 0,112021929023319 
650	 0,111430282071351 
651	 0,110853321104487 
652	 0,110116690771539 
653	 0,109269222674565 
654	 0,108446704801114 
655	 0,107558060032368 
656	 0,106482693624369 
657	 0,104794515783716 
658	 0,103045645879447 
659	 0,101813497978012 
660	 0,100404623992147 
661	 9,87936531044534E-02 
662	 9,73151279091161E-02 
663	 9,59195449552091E-02 
664	 9,45751777493584E-02 
665	 9,31035031628915E-02 
666	 9,18354465657355E-02 
667	 9,12962743397351E-02 
668	 9,08873376333754E-02 
669	 9,04804192270531E-02 
670	 9,03293923942221E-02 
671	 9,03448638635409E-02 
672	 9,04035781018326E-02 
673	 9,00080322086943E-02 
674	 0,089360138727667 
675	 8,90925412212425E-02 
676	 8,92311916818103E-02 
677	 0,089567779774983 
678	 8,86660368935382E-02 
679	 8,80359088509839E-02 
680	 0,089554902884423 
681	 9,03794505124333E-02 
682	 9,02297706840745E-02 
683	 9,04552109073214E-02 
684	 9,10587878201316E-02 
685	 9,21120437251167E-02 
686	 9,38330501271558E-02 
687	 9,59982847915975E-02 
688	 9,81171541836904E-02 
689	 0,101056322784297 
690	 0,104859614004077 
691	 0,108353222920427 
692	 0,112616273527729 
693	 0,118607270204256 
694	 0,125195764545473 
695	 0,132456443459304 
696	 0,141137209388115 
697	 0,150760185263861 
698	 0,161097036738479 
699	 0,17214543280503 
700	 0,183960722137882 
701	 0,196601055983007 
702	 0,209718568501367 
703	 0,223197737001629 
704	 0,237238942131124 
705	 0,250991361234814 
706	 0,263900179500137 
707	 0,276527118680076 
708	 0,288866439956815 
709	 0,30069130777673 
710	 0,312435609729637 
711	 0,324023788903921 
712	 0,334561632855478 
713	 0,34416990960967 
714	 0,353049550891394 
715	 0,361334870805601 
716	 0,369272959386694 
717	 0,377412102303879 
718	 0,384919169247379 
719	 0,391429784416817 
720	 0,397013066175074 
721	 0,402183747281389 
722	 0,40760184977429 
723	 0,412783040552518 
724	 0,417502400421592 
725	 0,421490130632563 
726	 0,425107041468962 
727	 0,428530291407645 
728	 0,431199279065061 
729	 0,43349317937898 
730	 0,436178929696543 
731	 0,43881106121616 
732	 0,441179407182165 
733	 0,442969644862289 
734	 0,444608556745521 
735	 0,44645045476053 
736	 0,447960312009545 
737	 0,449164679856099 
738	 0,450319059488225 
739	 0,451559450675488 
740	 0,452937158446325 
741	 0,454361992107105 
742	 0,455529381592524 
743	 0,456118656421931 
744	 0,456832638197531 
745	 0,457748484297517 
746	 0,458475582451315 
747	 0,459461494136735 
748	 0,460808281288743 
749	 0,461485238571861 
750	 0,461821809874185 
751	 0,462513504954764 
752	 0,463179630082519 
753	 0,46370740547999 
754	 0,464002500594161 
755	 0,46440513409892 
756	 0,465129047107014 
757	 0,465675284630938 
758	 0,466068042323349 
759	 0,466505064982078 
760	 0,467110741980498 
761	 0,467815186684276 
762	 0,468114406791488 
763	 0,468157977623641 
764	 0,468139592851395 
765	 0,468395947899139 
766	 0,468862011413168 
767	 0,469200881780089 
768	 0,46935699397561 
769	 0,469390759789968 
770	 0,469822448226599 
771	 0,470461952252715 
772	 0,471025894633293 
773	 0,471321827681905 
774	 0,471404072448322 
775	 0,471647729827109 
776	 0,471685608091684 
777	 0,471436582414811 
778	 0,471671599730592 
779	 0,472152134291209 
780	 0,472402829611001 
781	 0,472590851555755 
782	 0,472753358024633 
783	 0,472836632754168 
784	 0,473261954719328 
785	 0,474148401983729 
786	 0,474053792468762 
787	 0,473417802095585 
788	 0,473361626300279 
789	 0,473655088851122 
790	 0,474151608893671 
791	 0,474438441852198 
792	 0,474641260728576 
793	 0,474847810942828 
794	 0,474770109177832 
795	 0,474591399335467 
796	 0,474788583302551 
797	 0,474975486994101 
798	 0,475042838279368 
799	 0,475110083891906 
800	 0,475235904905411 
801	 0,475452224779977 
802	 0,475425819690847 
803	 0,475370123369954 
804	 0,476044025734795 
805	 0,476428383721143 
806	 0,476269887371217 
807	 0,476417695075628 
808	 0,476785068468444 
809	 0,477216518654484 
810	 0,477880667136631 
811	 0,478534595561341 
812	 0,47844744054526 
813	 0,47836843868625 
814	 0,478576726359439 
815	 0,478572488589661 
816	 0,47868723661222 
817	 0,479329438548303 
818	 0,479531790605166 
819	 0,479431080137202 
820	 0,480144408148234 
821	 0,480828714901226 
822	 0,481052182861864 
823	 0,480834731574578 
824	 0,480668798352646 
825	 0,481166111050755 
826	 0,481623250433892 
827	 0,481751236027338 
828	 0,481228452791307 
829	 0,480657414020783 
830	 0,480516474873021 
831	 0,481554094061825 
832	 0,482633953027097 
833	 0,482147178143727 
834	 0,482231741927217 
835	 0,48295022045581 
836	 0,48269317521532 
837	 0,48234266156435 
838	 0,482404323887354 
839	 0,482811857447454 
840	 0,483337764122827 
841	 0,483674712484262 
842	 0,483689963477833 
843	 0,483487318780894 
844	 0,483565350957168 
845	 0,483510699352566 
846	 0,483207164925523 
847	 0,483515822923517 
848	 0,483906485746049 
849	 0,483515134017771 
850	 0,483671679881742 
851	 0,484385914257551 
852	 0,484581243343617 
853	 0,48461451521041 
854	 0,484640871208423 
855	 0,484323940574006 
856	 0,484223210679361 
857	 0,485108325577457 
858	 0,485624100309202 
859	 0,485514973215644 
860	 0,48512369515715 
861	 0,484886126381605 
862	 0,485007114009301 
863	 0,48489477161869 
864	 0,485125018742754 
865	 0,486477534637777 
866	 0,487190934561826 
867	 0,487121847361878 
868	 0,487270931276692 
869	 0,487301753400691 
870	 0,487167843243497 
871	 0,487422850670119 
872	 0,487763001505127 
873	 0,487756598311242 
874	 0,487141109484346 
875	 0,486389235872444 
876	 0,486971050369193 
877	 0,487636192036664 
878	 0,487931365289316 
879	 0,488691352163141 
880	 0,489065490838102 
881	 0,488193439976999 
882	 0,488187398010471 
883	 0,488915794843805 
884	 0,488892989164138 
885	 0,4885255806483 
886	 0,488164403574013 
887	 0,488967777718308 
888	 0,489771735639831 
889	 0,489500824441033 
890	 0,489695654035202 
891	 0,490259600861336 
892	 0,490380315630609 
893	 0,490409473399102 
894	 0,490498247351299 
895	 0,490871209393682 
896	 0,49105648674494 
897	 0,490766701714945 
898	 0,491000069740684 
899	 0,49150565766583 
900	 0,491563312150466 
901	 0,491515586446071 
902	 0,491573212100303 
903	 0,492164450718577 
904	 0,492746148522774 
905	 0,492903313768028 
906	 0,492327504039674 
907	 0,491737965638818 
908	 0,492174775153095 
909	 0,492166195918341 
910	 0,49169714711246 
911	 0,491856572800293 
912	 0,492328254337514 
913	 0,492827800040666 
914	 0,492580260268236 
915	 0,492314860695553 
916	 0,492848248268898 
917	 0,492596846741557 
918	 0,491896614502069 
919	 0,492514049045039 
920	 0,492339122628087 
921	 0,491047964874085 
922	 0,49068729930324 
923	 0,49104371521583 
924	 0,491734618230339 
925	 0,491667134419951 
926	 0,491002162668753 
927	 0,490431771450714 
928	 0,489231401229633 
929	 0,487877246239741 
930	 0,488749599599037 
931	 0,489310973690364 
932	 0,48829984127064 
933	 0,488254477169627 
934	 0,4885754005267 
935	 0,488155928114032 
936	 0,487257530625928 
937	 0,4861371873585 
938	 0,485278427797923 
939	 0,484876025204483 
940	 0,484788119596039 
941	 0,483661626831847 
942	 0,48316669097171 
943	 0,484524292163153 
944	 0,483986977845727 
945	 0,481893629405809 
946	 0,480071993720256 
947	 0,478691293908699 
948	 0,477580915601316 
949	 0,475622813885084 
950	 0,473693839087723 
951	 0,472315383393539 
952	 0,471232686391123 
953	 0,470399307914684 
954	 0,469759656635113 
955	 0,468703189264267 
956	 0,467286389256323 
957	 0,465909459461145 
958	 0,465403254440204 
959	 0,465529856332195 
960	 0,463666281016036 
961	 0,46211000934832 
962	 0,4623703825965 
963	 0,460897844673428 
964	 0,459431226484715 
965	 0,461272417210915 
966	 0,46220574020434 
967	 0,461403470812781 
968	 0,459613102564493 
969	 0,458892345928009 
970	 0,460041790843432 
971	 0,461785075740098 
972	 0,462338918989293 
973	 0,460418783360904 
974	 0,459334388888112 
975	 0,459382636597353 
976	 0,459995759778609 
977	 0,460427552902086 
978	 0,460645493238771 
979	 0,461533104313304 
980	 0,462270946727506 
981	 0,462484946656068 
982	 0,462649670112169 
983	 0,462619862308584 
984	 0,462299386106506 
985	 0,462659065340336 
986	 0,463728831041373 
987	 0,465198520164446 
988	 0,466233431790207 
989	 0,46681012869866 
990	 0,467934678307176 
991	 0,46899324128051 
992	 0,469603765601934 
993	 0,469526755225312 
994	 0,469531618604855 
995	 0,470399648711723 
996	 0,471593984287596 
997	 0,472598636901151 
998	 0,47261265535064 
999	 0,47348410138517 
1000	 0,475214367392912 
1001	 0,475992430239432 
1002	 0,475827333961476 
1003	 0,475211862418082 
1004	 0,476869250360487 
1005	 0,479180842056301 
1006	 0,480226807650971 
1007	 0,478769468796979 
1008	 0,477721908926771 
1009	 0,482443932811514 
1010	 0,486743616242882 
1011	 0,488499172837754 
1012	 0,487313557478215 
1013	 0,484785164444336 
1014	 0,48254848198043 
1015	 0,483782907899112 
1016	 0,486426729406538 
1017	 0,488356840331571 
1018	 0,489501630742857 
1019	 0,490055817360531 
1020	 0,490396960535813 
1021	 0,489209884894412 
1022	 0,488374377822896 
1023	 0,494278761270157 
1024	 0,496064436082184 
1025	 0,492178423258038 
1026	 0,494079160824374 
1027	 0,496757117560123 
1028	 0,496701521906583 
1029	 0,494704091635957 
1030	 0,49468383011705 
1031	 0,500337558266032 
1032	 0,499679175848479 
1033	 0,494951329397566 
1034	 0,495555811925736 
1035	 0,49744516265912 
1036	 0,499484403889269 
1037	 0,501497203109894 
1038	 0,502728851700783 
1039	 0,502800468654629 
1040	 0,501925564680961 
1041	 0,502322627706618 
1042	 0,505431066657262 
1043	 0,507473039282743 
1044	 0,50732198641438 
1045	 0,504553507227045 
1046	 0,50298366673986 
1047	 0,504830650110806 
1048	 0,512967075854461 
1049	 0,515330594254524 
1050	 0,511064380888928 
1051	 0,514081103330515 
1052	 0,51428943829334 
1053	 0,508991322377391 
1054	 0,512263821134407 
1055	 0,515333840901496 
1056	 0,511116315784908 
1057	 0,514027382216832 
1058	 0,518786902794098 
1059	 0,515405247495973 
1060	 0,510407557412494 
1061	 0,504863984527674 
1062	 0,497168420185364 
1063	 0,494513120733477 
1064	 0,499190608860355 
1065	 0,510104027709831 
1066	 0,517165372186632 
1067	 0,516734447569984 
1068	 0,515343812840078 
1069	 0,515617199388132 
1070	 0,517916270330334 
1071	 0,510628630167399 
1072	 0,502044228389728 
1073	 0,503370424651648 
1074	 0,514902012554834 
1075	 0,52805644126994 
