Wavelength	GRA-VIE00346.asd
325	 0,155833225048138 
326	 0,178224510157138 
327	 0,209481120304072 
328	 0,200437866369852 
329	 0,302276128616132 
330	 0,384712758842477 
331	 0,295022404232988 
332	 0,179991231400815 
333	 5,21548586756794E-02 
334	 0,126494893934661 
335	 0,217518248175182 
336	 0,241706628318943 
337	 0,260938214364017 
338	 0,261446943533607 
339	 0,232943093364657 
340	 0,228686354960574 
341	 0,240643983862728 
342	 0,221451186970288 
343	 0,214724817743722 
344	 0,217862702943139 
345	 0,163542711958494 
346	 0,1106961667029 
347	 0,13275542260504 
348	 0,158112711536174 
349	 0,164271419171902 
350	 0,135447710515684 
351	 0,106290665466743 
352	 8,98756553966338E-02 
353	 0,119030363181943 
354	 0,159290361487787 
355	 0,17215512709396 
356	 0,162311320657798 
357	 0,137161817929191 
358	 0,115354809721423 
359	 0,090451850714176 
360	 6,40460783529021E-02 
361	 7,62241156330475E-02 
362	 0,1089085571377 
363	 0,133561791599595 
364	 0,138990778866535 
365	 0,127355435412762 
366	 0,115955945221516 
367	 0,122646578252012 
368	 0,150906776215189 
369	 0,133700892156448 
370	 9,99580869134298E-02 
371	 0,111984660004647 
372	 0,11458541564153 
373	 0,100244938153598 
374	 0,10736430123188 
375	 0,115690371433296 
376	 0,10854865244109 
377	 8,41256439265167E-02 
378	 6,37315516145196E-02 
379	 9,15978552486936E-02 
380	 0,119817802413905 
381	 0,131103667764622 
382	 0,115790215800023 
383	 9,73411761473256E-02 
384	 9,97371179282327E-02 
385	 0,111460064132486 
386	 0,119744701177116 
387	 9,83645701928275E-02 
388	 0,091917632378828 
389	 0,113801757969444 
390	 0,129808936331886 
391	 0,133838690396208 
392	 0,122193865261247 
393	 0,107069160806183 
394	 9,43106663423561E-02 
395	 0,090788632688903 
396	 9,48617578216106E-02 
397	 0,103337565391953 
398	 0,102889553335101 
399	 9,44878350257307E-02 
400	 8,09129955441224E-02 
401	 8,30434592834224E-02 
402	 9,84316359994174E-02 
403	 9,72141805488925E-02 
404	 9,24804700359654E-02 
405	 9,32852732847914E-02 
406	 9,08008375621556E-02 
407	 8,82569469323041E-02 
408	 9,50075444758052E-02 
409	 9,80231335848052E-02 
410	 9,42487386103224E-02 
411	 8,70794092400601E-02 
412	 8,47994914415114E-02 
413	 9,35178923628538E-02 
414	 8,84146187077141E-02 
415	 7,54241416390039E-02 
416	 8,30672713938347E-02 
417	 8,51231281101107E-02 
418	 7,50682049949855E-02 
419	 7,94181521926514E-02 
420	 8,88656384059403E-02 
421	 8,91450373452218E-02 
422	 0,084437151944965 
423	 7,87303974889269E-02 
424	 8,13957674511444E-02 
425	 8,38622257281344E-02 
426	 8,13943573202832E-02 
427	 8,08897797481149E-02 
428	 8,23300432114073E-02 
429	 8,43329006503246E-02 
430	 8,43504592062765E-02 
431	 8,20880520495516E-02 
432	 7,99797655717964E-02 
433	 7,94269049343329E-02 
434	 8,14205857632577E-02 
435	 8,40747655493507E-02 
436	 8,54571690539187E-02 
437	 8,14927938307534E-02 
438	 7,92980515214465E-02 
439	 0,081455193331592 
440	 8,36035188180501E-02 
441	 8,49485070196462E-02 
442	 8,51278019062293E-02 
443	 8,41748016259108E-02 
444	 8,32557637038056E-02 
445	 8,61691777387418E-02 
446	 8,83105296353925E-02 
447	 8,70963389840789E-02 
448	 8,63461129508038E-02 
449	 8,61964498261614E-02 
450	 0,085833711092214 
451	 8,57758500639043E-02 
452	 8,61251851927844E-02 
453	 8,68071127071825E-02 
454	 8,68729677762326E-02 
455	 8,56191480294517E-02 
456	 8,62605142096823E-02 
457	 8,79520972516358E-02 
458	 8,67879197642726E-02 
459	 8,55149467772324E-02 
460	 8,52972384500334E-02 
461	 8,57514506331642E-02 
462	 8,58462043083039E-02 
463	 8,42655609177223E-02 
464	 8,41844950181999E-02 
465	 8,58479040221029E-02 
466	 8,74481511250365E-02 
467	 8,73896837204638E-02 
468	 8,50861086096563E-02 
469	 8,55625996359383E-02 
470	 8,72163741749595E-02 
471	 8,51951584150123E-02 
472	 8,49495146765413E-02 
473	 0,087347058366321 
474	 8,78048009430758E-02 
475	 8,74487804557791E-02 
476	 8,76124058774172E-02 
477	 8,74603997442588E-02 
478	 8,69211881600988E-02 
479	 8,62202712540194E-02 
480	 8,52396860453368E-02 
481	 0,084022596942969 
482	 0,082959422410212 
483	 8,22903451985983E-02 
484	 8,22417990084177E-02 
485	 8,38017876392382E-02 
486	 8,59322800938084E-02 
487	 0,083729801906254 
488	 8,23342312905743E-02 
489	 8,53489585489236E-02 
490	 8,75919822796164E-02 
491	 8,73108615569148E-02 
492	 8,19922596561711E-02 
493	 7,91765848870258E-02 
494	 0,080962544545476 
495	 8,17894337696408E-02 
496	 8,17176471989024E-02 
497	 0,08133339288491 
498	 8,20716014991687E-02 
499	 8,33236503587506E-02 
500	 8,20345286651901E-02 
501	 0,081285974547877 
502	 8,25867336439111E-02 
503	 8,28914232249013E-02 
504	 8,25727713972136E-02 
505	 8,29518035694443E-02 
506	 8,36391347871217E-02 
507	 0,084261212308196 
508	 8,36615886388981E-02 
509	 8,30297780218331E-02 
510	 8,34737327193338E-02 
511	 8,44933953051573E-02 
512	 8,55475880477911E-02 
513	 8,56541598387251E-02 
514	 8,51136058749902E-02 
515	 8,44205448674244E-02 
516	 8,57710763217927E-02 
517	 8,75057000465329E-02 
518	 8,70772668293094E-02 
519	 8,70002405842378E-02 
520	 8,73727845187597E-02 
521	 8,60268523839635E-02 
522	 8,49942905137594E-02 
523	 8,56269108899368E-02 
524	 8,54106974802274E-02 
525	 8,48796518667615E-02 
526	 8,62870454787747E-02 
527	 0,087173527805307 
528	 8,66825690230931E-02 
529	 8,52474033189605E-02 
530	 8,38792820764473E-02 
531	 8,36478284685106E-02 
532	 8,42073809321426E-02 
533	 8,50907410109687E-02 
534	 8,52798987927899E-02 
535	 8,49325022155502E-02 
536	 8,43595599042659E-02 
537	 8,54851617367106E-02 
538	 8,68614559450141E-02 
539	 8,53282481753804E-02 
540	 8,43239637649961E-02 
541	 8,46894061417418E-02 
542	 8,48873163634069E-02 
543	 8,48697161545561E-02 
544	 0,08468843884926 
545	 8,49428305932695E-02 
546	 8,55582920307752E-02 
547	 8,60932704914154E-02 
548	 8,60309238705917E-02 
549	 8,52782353443182E-02 
550	 8,52413809637976E-02 
551	 8,55392030635701E-02 
552	 8,53076427198173E-02 
553	 0,085291239327317 
554	 8,54610174530604E-02 
555	 8,48960208232689E-02 
556	 8,42133217658346E-02 
557	 8,39778727457453E-02 
558	 8,43834824839945E-02 
559	 8,50412003149285E-02 
560	 8,48836762641887E-02 
561	 8,49233378123209E-02 
562	 8,54028668326269E-02 
563	 8,53258732402302E-02 
564	 8,47200478225348E-02 
565	 8,37331799841427E-02 
566	 8,37276151441491E-02 
567	 8,46558717524342E-02 
568	 8,50035526047308E-02 
569	 8,50070407899009E-02 
570	 8,49270306748207E-02 
571	 8,56342560244419E-02 
572	 8,68355056809981E-02 
573	 0,087717043841583 
574	 8,76354515097309E-02 
575	 8,68888204478688E-02 
576	 8,85607803568988E-02 
577	 9,03181608017411E-02 
578	 8,94039850338555E-02 
579	 9,01953850523546E-02 
580	 9,26300529948853E-02 
581	 9,34895178364296E-02 
582	 9,33019614111851E-02 
583	 9,25969851026534E-02 
584	 9,33603341948894E-02 
585	 9,47314919562622E-02 
586	 9,47028942893181E-02 
587	 9,45850374731546E-02 
588	 9,49635524217147E-02 
589	 9,66676022024909E-02 
590	 9,81354301073655E-02 
591	 9,79349579537247E-02 
592	 9,76523559394867E-02 
593	 9,76905602885631E-02 
594	 9,82551263548924E-02 
595	 9,85637920337349E-02 
596	 0,098305308237768 
597	 0,098260954777002 
598	 9,81308140459319E-02 
599	 9,73172607538079E-02 
600	 0,097036252633453 
601	 9,75382030386991E-02 
602	 0,098488048621998 
603	 9,86790986169004E-02 
604	 9,73264910169975E-02 
605	 9,69569411788954E-02 
606	 9,72692419825073E-02 
607	 9,63225156538907E-02 
608	 9,57309911946504E-02 
609	 9,58388807416992E-02 
610	 9,49261183519569E-02 
611	 9,40578052402455E-02 
612	 9,46886267076843E-02 
613	 9,47007402305983E-02 
614	 9,39769155473689E-02 
615	 9,39597958338968E-02 
616	 9,40607645829311E-02 
617	 9,39115048050665E-02 
618	 9,37916225146997E-02 
619	 9,35701011430724E-02 
620	 9,28374298391019E-02 
621	 9,27590335413213E-02 
622	 9,34540822421455E-02 
623	 9,34765346223421E-02 
624	 9,31672594288896E-02 
625	 9,29886659620018E-02 
626	 9,34398648952921E-02 
627	 9,42059129329298E-02 
628	 9,40724807184988E-02 
629	 9,37092418357124E-02 
630	 9,35311898435522E-02 
631	 9,38269187027881E-02 
632	 9,44516144073671E-02 
633	 9,51240486042515E-02 
634	 9,54937871043519E-02 
635	 0,095603841309597 
636	 9,61330421910985E-02 
637	 0,096817158460673 
638	 9,74274390248495E-02 
639	 9,83302600473257E-02 
640	 9,92216887320748E-02 
641	 0,099188545934216 
642	 9,91334717585202E-02 
643	 9,94612259359209E-02 
644	 0,100116814145821 
645	 0,100870110619957 
646	 0,101434101209331 
647	 0,101272935990872 
648	 0,100632458838204 
649	 0,10087025616501 
650	 0,101060382846968 
651	 0,100584816717282 
652	 0,09985219120626 
653	 9,90714972438044E-02 
654	 9,85270679728731E-02 
655	 9,79439507348622E-02 
656	 9,71993471954439E-02 
657	 0,096206570823476 
658	 9,50744752832641E-02 
659	 9,39342624906643E-02 
660	 9,29905396780358E-02 
661	 9,21695421143891E-02 
662	 9,10739051956697E-02 
663	 9,01194852506409E-02 
664	 0,089488712723139 
665	 8,88770081788219E-02 
666	 8,81839536883954E-02 
667	 8,72905105976992E-02 
668	 8,68483013207829E-02 
669	 8,68637024457182E-02 
670	 8,65240087680691E-02 
671	 8,63283562379151E-02 
672	 8,66232655803783E-02 
673	 8,63980222765764E-02 
674	 8,58891430963523E-02 
675	 8,61101797260046E-02 
676	 8,63063003639893E-02 
677	 8,61701643335439E-02 
678	 8,55697812911983E-02 
679	 8,51676290157425E-02 
680	 8,57380174029272E-02 
681	 8,61157576821698E-02 
682	 0,086125776827889 
683	 8,60783196639169E-02 
684	 8,65134323779739E-02 
685	 0,087669334464242 
686	 8,84639179024442E-02 
687	 0,08942234305914 
688	 9,17293174425645E-02 
689	 9,42015880725657E-02 
690	 9,65488730720742E-02 
691	 9,91245660304957E-02 
692	 0,10228852925044 
693	 0,106362856075759 
694	 0,111321686133584 
695	 0,117180677139003 
696	 0,124003897557115 
697	 0,131490664101124 
698	 0,139555395494063 
699	 0,148613052613912 
700	 0,158541285623736 
701	 0,169121220307475 
702	 0,179955772191407 
703	 0,191019022374054 
704	 0,202786419691625 
705	 0,214563083778856 
706	 0,225906929613117 
707	 0,237415287319388 
708	 0,248677478169804 
709	 0,258779107816806 
710	 0,268508969548751 
711	 0,278052774539107 
712	 0,287028602295558 
713	 0,295499219154553 
714	 0,303561089304099 
715	 0,311148648477054 
716	 0,318305977104596 
717	 0,325212245663729 
718	 0,33152347836838 
719	 0,33715931078157 
720	 0,34248909628104 
721	 0,347455839384043 
722	 0,351970373710782 
723	 0,356285519466691 
724	 0,360367730528345 
725	 0,36391295129625 
726	 0,367119069405458 
727	 0,370110066097616 
728	 0,372842642576331 
729	 0,37530228211555 
730	 0,37744908126501 
731	 0,379484876885547 
732	 0,381432429794402 
733	 0,383028415337501 
734	 0,38458101741223 
735	 0,386315208639277 
736	 0,387405058824927 
737	 0,388168307813632 
738	 0,389757566252961 
739	 0,391313714534699 
740	 0,392472612598095 
741	 0,393118076486982 
742	 0,393805740103787 
743	 0,395163656549576 
744	 0,396094590285168 
745	 0,396571389047634 
746	 0,397296089340916 
747	 0,398138609303553 
748	 0,399023507870663 
749	 0,399844793078023 
750	 0,400604944539677 
751	 0,401338644218343 
752	 0,401947326849633 
753	 0,402428159023973 
754	 0,402878034059685 
755	 0,403254191514307 
756	 0,40356753862144 
757	 0,404263376611496 
758	 0,404980718945025 
759	 0,404777407867339 
760	 0,405213186911523 
761	 0,406440516180853 
762	 0,406631329408766 
763	 0,406438366160078 
764	 0,406572293217926 
765	 0,406947888882299 
766	 0,407428791420886 
767	 0,407629724574104 
768	 0,408026023794718 
769	 0,408720505315978 
770	 0,409175357581148 
771	 0,409457146772707 
772	 0,409704149723234 
773	 0,409991037583396 
774	 0,410399382420611 
775	 0,411165926696242 
776	 0,411581492811285 
777	 0,411354633158367 
778	 0,411275687304684 
779	 0,41149362706138 
780	 0,412076732440106 
781	 0,412470676400331 
782	 0,412640706091112 
783	 0,413077814333038 
784	 0,413609754211914 
785	 0,414065033567669 
786	 0,414081517975496 
787	 0,413786866434104 
788	 0,413450599135024 
789	 0,413737778839812 
790	 0,414614310759042 
791	 0,414968545852725 
792	 0,41518944881402 
793	 0,415589913662242 
794	 0,415839350499268 
795	 0,415931734720514 
796	 0,415902377808215 
797	 0,416316751900965 
798	 0,417151237514716 
799	 0,417303753989217 
800	 0,417216479176674 
801	 0,417353193350157 
802	 0,417450859820356 
803	 0,417559889710198 
804	 0,417894863261067 
805	 0,418284223795655 
806	 0,418659070943312 
807	 0,419039877066816 
808	 0,419394812696488 
809	 0,419691848723661 
810	 0,419966613170724 
811	 0,420234992355504 
812	 0,42053257324725 
813	 0,420702975171424 
814	 0,420748754038746 
815	 0,421075256159002 
816	 0,421567461787117 
817	 0,422037486376721 
818	 0,422305144546637 
819	 0,422475578083266 
820	 0,423054053316784 
821	 0,423406691559363 
822	 0,423312808400027 
823	 0,423497929684025 
824	 0,423673710893094 
825	 0,423393134624532 
826	 0,423922840155722 
827	 0,424920221259541 
828	 0,42432010843389 
829	 0,423747745071192 
830	 0,424007094493182 
831	 0,424305943737093 
832	 0,424620695606889 
833	 0,425026991655652 
834	 0,425254660586774 
835	 0,425210638417325 
836	 0,424763978341722 
837	 0,424726229821984 
838	 0,425407824653496 
839	 0,425546421114028 
840	 0,425410716861842 
841	 0,425581013948207 
842	 0,425849232845969 
843	 0,426189520707437 
844	 0,426725518931914 
845	 0,426894396224458 
846	 0,426558515932163 
847	 0,427170046110121 
848	 0,427855174170836 
849	 0,427181868215755 
850	 0,427222380481032 
851	 0,428138318603514 
852	 0,428741178637747 
853	 0,42886272794392 
854	 0,428489189425237 
855	 0,428377229762558 
856	 0,428521562099113 
857	 0,428773964089625 
858	 0,429032530084363 
859	 0,429317735199437 
860	 0,429917004028956 
861	 0,429996748347614 
862	 0,42937593931971 
863	 0,429876977662922 
864	 0,430912470423019 
865	 0,431460850822564 
866	 0,431923034342517 
867	 0,432275629085913 
868	 0,43230426418889 
869	 0,431976629730647 
870	 0,431456037814307 
871	 0,431738215808712 
872	 0,432176812603543 
873	 0,431906374015478 
874	 0,431779387402462 
875	 0,432116747914936 
876	 0,433402341720284 
877	 0,434046408877064 
878	 0,433554281100322 
879	 0,433622664170689 
880	 0,433575428190325 
881	 0,43264661805964 
882	 0,432880721325959 
883	 0,433945099934083 
884	 0,433887354407707 
885	 0,433706767995652 
886	 0,433734303140106 
887	 0,433869784955202 
888	 0,434115480175095 
889	 0,43443098615327 
890	 0,434271148399182 
891	 0,433971207324001 
892	 0,434526905659507 
893	 0,434641111752131 
894	 0,434128388985876 
895	 0,434138779559977 
896	 0,434369257987752 
897	 0,434562717033209 
898	 0,434834590959228 
899	 0,435347324102379 
900	 0,436395349594247 
901	 0,436966006652221 
902	 0,436830469087638 
903	 0,436337202090472 
904	 0,436167405831826 
905	 0,436647806853827 
906	 0,436710184695653 
907	 0,436528780962799 
908	 0,436543269906272 
909	 0,436710217520754 
910	 0,437002494981208 
911	 0,43743439489422 
912	 0,437334904287173 
913	 0,436624582177765 
914	 0,436847383014668 
915	 0,437532027853498 
916	 0,437965359572461 
917	 0,437756758241893 
918	 0,437034479918893 
919	 0,436335880262059 
920	 0,435758833277998 
921	 0,435399526857237 
922	 0,435231165990286 
923	 0,435362831193116 
924	 0,435807825710439 
925	 0,435976085513333 
926	 0,435507021345826 
927	 0,433946874999532 
928	 0,432960438701581 
929	 0,432912141135552 
930	 0,433161273265049 
931	 0,432953171673514 
932	 0,431969313162211 
933	 0,431492007130184 
934	 0,431130338169043 
935	 0,430220087722618 
936	 0,429690478529696 
937	 0,429353976439889 
938	 0,427958909039397 
939	 0,427434392492898 
940	 0,427906751283409 
941	 0,425829850768977 
942	 0,424325011111916 
943	 0,425955932347329 
944	 0,42601995349638 
945	 0,424214598622379 
946	 0,421489512411144 
947	 0,41934202837813 
948	 0,418196278950403 
949	 0,417550953284724 
950	 0,416565520633982 
951	 0,414724710349057 
952	 0,412228582442693 
953	 0,409994367185698 
954	 0,409029905779614 
955	 0,407582013451291 
956	 0,405578624291132 
957	 0,403832200479919 
958	 0,40198456678914 
959	 0,400486934056115 
960	 0,401889659302603 
961	 0,402612878338045 
962	 0,400213221778805 
963	 0,398803149314061 
964	 0,398559177574178 
965	 0,398800606794492 
966	 0,399055937531601 
967	 0,398992544910371 
968	 0,398153873685254 
969	 0,397515293859411 
970	 0,397431468764812 
971	 0,396964134714718 
972	 0,397389426167497 
973	 0,3995938258082 
974	 0,400023618227937 
975	 0,399072801411015 
976	 0,398604702148539 
977	 0,397087144470899 
978	 0,395473914072729 
979	 0,398230834271252 
980	 0,400654179410575 
981	 0,400604804787638 
982	 0,400862607528928 
983	 0,401037658279644 
984	 0,40067535547175 
985	 0,401665246631061 
986	 0,403215439108647 
987	 0,403109227103736 
988	 0,403311505317025 
989	 0,404613668087327 
990	 0,407973495853264 
991	 0,409787684888775 
992	 0,408404670268772 
993	 0,40633146919254 
994	 0,406097026230472 
995	 0,409578112358257 
996	 0,410292095220079 
997	 0,409811335667846 
998	 0,413627570601541 
999	 0,416447514756271 
1000	 0,416958326963218 
1001	 0,416500412339953 
1002	 0,415261578711454 
1003	 0,414170874414121 
1004	 0,416874292719976 
1005	 0,42065480080489 
1006	 0,422431644072526 
1007	 0,421609860660724 
1008	 0,419745065032981 
1009	 0,419733680854691 
1010	 0,421381532477175 
1011	 0,423946904277202 
1012	 0,425304910186975 
1013	 0,425551988860895 
1014	 0,425237271049599 
1015	 0,427084056190909 
1016	 0,429308766239991 
1017	 0,43030863051034 
1018	 0,431878695186639 
1019	 0,432777078284547 
1020	 0,430915161908082 
1021	 0,430487826483084 
1022	 0,432796923073231 
1023	 0,439098194276416 
1024	 0,439346767348632 
1025	 0,433831193243025 
1026	 0,441245687270566 
1027	 0,447997503680123 
1028	 0,4454180817566 
1029	 0,441981002121664 
1030	 0,440706749549831 
1031	 0,443868987680043 
1032	 0,448055679050391 
1033	 0,450191533198471 
1034	 0,445619907221502 
1035	 0,443565684105697 
1036	 0,445646560622633 
1037	 0,447090297703078 
1038	 0,451155385264354 
1039	 0,456289581432528 
1040	 0,447602322426476 
1041	 0,443004558071734 
1042	 0,455097261404519 
1043	 0,452050571871869 
1044	 0,444218516009905 
1045	 0,450238643587365 
1046	 0,452976177373955 
1047	 0,453317600908428 
1048	 0,462781694946608 
1049	 0,463929638692071 
1050	 0,456132481688613 
1051	 0,458699902625172 
1052	 0,466573237754674 
1053	 0,474354557866427 
1054	 0,467433619918637 
1055	 0,45908747971737 
1056	 0,461085946336273 
1057	 0,462433634623197 
1058	 0,459805432681566 
1059	 0,451390424082991 
1060	 0,451512896531512 
1061	 0,457992479307903 
1062	 0,45886242464924 
1063	 0,462286683137058 
1064	 0,467756499906397 
1065	 0,465567665685559 
1066	 0,460903679346902 
1067	 0,457584730042594 
1068	 0,462128136647757 
1069	 0,46774964953411 
1070	 0,469238101885652 
1071	 0,473277330865059 
1072	 0,474640338714614 
1073	 0,467522154769767 
1074	 0,468810658295286 
1075	 0,476834155419748 
