Wavelength	GRA-VIE00278.asd
325	-0,179258266098071 
326	-5,24138791120472E-02 
327	 0,03213163636829 
328	 5,3936506924712E-05 
329	 0,117852769701337 
330	 0,189369809377138 
331	 3,07431854220925E-02 
332	-2,18921294480188E-02 
333	-1,67970559341963E-04 
334	-2,29839115266315E-02 
335	 1,53402782699076E-02 
336	 9,04380029031391E-02 
337	 7,62169576102234E-02 
338	 7,05502636926952E-02 
339	 0,132966265836344 
340	 0,102927756041326 
341	 1,33643379543882E-02 
342	 4,32742959060932E-02 
343	 0,084827462428529 
344	 0,100382446699489 
345	 8,46563614236608E-02 
346	 6,00953104585363E-02 
347	 5,30462825583081E-02 
348	 4,42941271550081E-02 
349	 0,028787030219479 
350	 6,81079519256306E-03 
351	-1,84600994444986E-02 
352	-4,02921683859573E-02 
353	 5,05045349648895E-03 
354	 6,56282846594858E-02 
355	 8,26402011906622E-02 
356	 7,75483311565165E-02 
357	 5,84713409510451E-02 
358	 3,15393430870667E-02 
359	 2,51027491936722E-02 
360	 4,59859991749734E-02 
361	 3,39162184661218E-02 
362	 1,88978062890462E-02 
363	 4,96827583154937E-02 
364	 5,80734867438062E-02 
365	 3,42996588963341E-02 
366	-1,23899391557859E-03 
367	-5,0467887580929E-03 
368	 4,02019314379473E-02 
369	 3,96530032113646E-02 
370	 1,36911214841809E-02 
371	 1,64661534413246E-02 
372	 2,66484192397589E-02 
373	 3,50246142609507E-02 
374	 2,43074389177492E-02 
375	 1,70646899133426E-02 
376	 2,88010243010969E-02 
377	 2,62702512915684E-02 
378	 1,69678042706456E-02 
379	 3,04682166504153E-02 
380	 3,69654027228727E-02 
381	 2,96817571949994E-02 
382	 1,75224529937522E-02 
383	 6,27111092792894E-03 
384	 2,45335988176877E-03 
385	 1,93347349173261E-02 
386	 4,14140918825995E-02 
387	 2,90689937202822E-02 
388	 0,021792713810346 
389	 0,032612964182215 
390	 3,94970520631771E-02 
391	 4,00767302533118E-02 
392	 3,36803495237317E-02 
393	 2,69806034767713E-02 
394	 2,36859631444224E-02 
395	 3,04753831864421E-02 
396	 3,30958147302835E-02 
397	 2,55991822905987E-02 
398	 1,94856359249936E-02 
399	 1,34782238276188E-02 
400	 1,94588635215214E-03 
401	 5,36382051176985E-03 
402	 2,09157976169012E-02 
403	 1,90418782775563E-02 
404	 1,60986280641703E-02 
405	 2,26803753059372E-02 
406	 2,32645424282803E-02 
407	 2,08532173919956E-02 
408	 2,67939210441787E-02 
409	 2,51669247287412E-02 
410	 1,43563325810321E-02 
411	 7,59970291544657E-03 
412	 6,87579279171073E-03 
413	 1,24729268001615E-02 
414	 0,011646079298832 
415	 6,66791286469906E-03 
416	 1,04866906867728E-02 
417	 1,21157827409059E-02 
418	 8,95561493234456E-03 
419	 1,32271213281593E-02 
420	 1,76521411819717E-02 
421	 1,19648410903505E-02 
422	 9,07485982504907E-03 
423	 1,04452739454766E-02 
424	 1,05118449904598E-02 
425	 8,63216759438392E-03 
426	 5,4361769176584E-03 
427	 1,06959200775208E-02 
428	 1,77702509219352E-02 
429	 1,29059054730181E-02 
430	 9,78900572441189E-03 
431	 1,15819208577867E-02 
432	 1,31254512975035E-02 
433	 1,30855140827152E-02 
434	 1,08073182761763E-02 
435	 1,23963105299905E-02 
436	 1,57083167911733E-02 
437	 1,23710479689386E-02 
438	 9,34494177465844E-03 
439	 9,70902902426593E-03 
440	 1,34078029157058E-02 
441	 1,70335673215405E-02 
442	 1,66187089891131E-02 
443	 1,46137380813388E-02 
444	 1,27346468703466E-02 
445	 1,44342030915234E-02 
446	 1,63452926481652E-02 
447	 1,62431231939251E-02 
448	 1,41063195454506E-02 
449	 1,17975611751394E-02 
450	 1,27185327700844E-02 
451	 1,35984709709376E-02 
452	 1,35714001537841E-02 
453	 1,37609320596664E-02 
454	 1,39450866694048E-02 
455	 0,013945456740066 
456	 1,51011513354279E-02 
457	 0,016433276901854 
458	 1,46863673389075E-02 
459	 1,29958357834607E-02 
460	 1,28082284754463E-02 
461	 1,39632856553546E-02 
462	 1,48955512340089E-02 
463	 1,35940589863176E-02 
464	 1,19981321497149E-02 
465	 1,16316008126835E-02 
466	 1,65446441316893E-02 
467	 1,81207508938061E-02 
468	 1,18399965732578E-02 
469	 1,18625862133946E-02 
470	 1,55486618213729E-02 
471	 1,34299462608355E-02 
472	 1,25312508395032E-02 
473	 1,40113251638079E-02 
474	 1,23054401772676E-02 
475	 1,15935894837136E-02 
476	 1,58553762083499E-02 
477	 1,60009385692269E-02 
478	 1,24989831723916E-02 
479	 1,16929112024325E-02 
480	 1,22217159786727E-02 
481	 1,30893593833223E-02 
482	 1,11420417309764E-02 
483	 9,04076554945843E-03 
484	 1,12156554680272E-02 
485	 1,32221523535753E-02 
486	 1,36437557594189E-02 
487	 1,17293052424043E-02 
488	 1,14095831163064E-02 
489	 1,50282914042747E-02 
490	 1,40464603979974E-02 
491	 1,01513669429986E-02 
492	 1,02421725842394E-02 
493	 0,010784493180113 
494	 1,07870566867926E-02 
495	 1,11927766859865E-02 
496	 1,15661405125255E-02 
497	 1,13917203457962E-02 
498	 1,24193865844382E-02 
499	 1,37420244042834E-02 
500	 1,12421907569669E-02 
501	 9,50088111808777E-03 
502	 1,09331212786263E-02 
503	 1,22249264533142E-02 
504	 1,29510563954317E-02 
505	 1,32680486627683E-02 
506	 1,30549257379641E-02 
507	 0,012364013575031 
508	 0,011435930391017 
509	 1,06296465433744E-02 
510	 1,02800921524189E-02 
511	 1,06331576540004E-02 
512	 1,14534515527034E-02 
513	 1,21045706828361E-02 
514	 1,26710413048918E-02 
515	 1,31209304526775E-02 
516	 0,013291192225978 
517	 1,31153913223766E-02 
518	 1,24813927802463E-02 
519	 1,29578740289764E-02 
520	 1,42659405431305E-02 
521	 1,39184184174565E-02 
522	 1,30766345173833E-02 
523	 1,26141669288957E-02 
524	 1,19326664387126E-02 
525	 1,14595170429118E-02 
526	 1,24050904585779E-02 
527	 1,29338311564711E-02 
528	 1,25559910960604E-02 
529	 1,25466899959315E-02 
530	 1,25423527265115E-02 
531	 1,20349692802119E-02 
532	 1,21605792176619E-02 
533	 1,26591612845009E-02 
534	 1,18177248264404E-02 
535	 1,12027509842482E-02 
536	 1,17488404017175E-02 
537	 0,013193457704486 
538	 1,41294597468111E-02 
539	 1,19622475073033E-02 
540	 1,10430682837069E-02 
541	 1,23198577920487E-02 
542	 1,31641666855575E-02 
543	 1,34211582846307E-02 
544	 1,30776119771347E-02 
545	 1,20648487119618E-02 
546	 1,11112292840928E-02 
547	 1,22970026122607E-02 
548	 1,27028596110405E-02 
549	 1,12966174427049E-02 
550	 0,011750931031727 
551	 1,30236593657903E-02 
552	 1,28564655684797E-02 
553	 1,29788185129538E-02 
554	 1,33876460174256E-02 
555	 0,012182215493115 
556	 0,010829156751521 
557	 1,06270333355232E-02 
558	 1,15641813290901E-02 
559	 1,28260498802357E-02 
560	 1,24892024403964E-02 
561	 1,18612522555933E-02 
562	 1,15748100851825E-02 
563	 1,20775933955101E-02 
564	 1,26384011342049E-02 
565	 1,22488672228179E-02 
566	 1,21084917272775E-02 
567	 1,23704949021261E-02 
568	 1,24448002006177E-02 
569	 1,24038796711061E-02 
570	 1,23402497196171E-02 
571	 1,26677990677628E-02 
572	 1,31634969321554E-02 
573	 1,32883586573147E-02 
574	 0,012754874010847 
575	 1,18552135650285E-02 
576	 1,27542650918635E-02 
577	 1,37956214052851E-02 
578	 1,30161275956428E-02 
579	 1,34069124467973E-02 
580	 1,48329328332069E-02 
581	 1,47424927644495E-02 
582	 1,43639986861014E-02 
583	 1,43782049185603E-02 
584	 1,44135054871842E-02 
585	 1,43433718975517E-02 
586	 0,013979004374692 
587	 1,39380706515034E-02 
588	 1,42672479464154E-02 
589	 1,42089743691505E-02 
590	 1,42107477122256E-02 
591	 1,46794190407154E-02 
592	 1,47762141235179E-02 
593	 1,45130388751902E-02 
594	 1,43428935183167E-02 
595	 1,43796309065777E-02 
596	 1,46590008566043E-02 
597	 1,49275809281426E-02 
598	 1,49839811395705E-02 
599	 1,45741567247724E-02 
600	 1,43987900414945E-02 
601	 1,46111965018318E-02 
602	 1,49392225024911E-02 
603	 1,51744334602806E-02 
604	 1,51313949195753E-02 
605	 1,46080932072436E-02 
606	 1,40057646435197E-02 
607	 1,44379150524562E-02 
608	 1,44603680083347E-02 
609	 1,36615410226903E-02 
610	 1,29808681201103E-02 
611	 1,29636026737425E-02 
612	 1,41451638979223E-02 
613	 1,45273626544998E-02 
614	 1,39237090857969E-02 
615	 1,34765328850039E-02 
616	 1,35525364087838E-02 
617	 1,42439301076451E-02 
618	 1,39455718686457E-02 
619	 1,32151403771259E-02 
620	 1,36368141629666E-02 
621	 1,40329468053103E-02 
622	 1,39889617499287E-02 
623	 1,34659353339644E-02 
624	 1,28758395150199E-02 
625	 1,26720549931527E-02 
626	 1,34248802242706E-02 
627	 1,46246665484506E-02 
628	 1,45334762043239E-02 
629	 1,41134819887708E-02 
630	 1,38884316889555E-02 
631	 1,38744208875534E-02 
632	 1,39388283415326E-02 
633	 1,38327154880556E-02 
634	 1,39164421311372E-02 
635	 1,42118852950589E-02 
636	 1,43273812405996E-02 
637	 1,45807854315209E-02 
638	 1,52011639580826E-02 
639	 1,54703897751793E-02 
640	 1,53513848250521E-02 
641	 1,50218710101637E-02 
642	 1,50545666976454E-02 
643	 1,56075000139488E-02 
644	 1,59508205531267E-02 
645	 1,60130826575098E-02 
646	 1,57986555091995E-02 
647	 1,60458535777385E-02 
648	 1,66245327131098E-02 
649	 1,63580189937545E-02 
650	 1,61044106399391E-02 
651	 1,63648351878095E-02 
652	 1,60881225574681E-02 
653	 1,55595971622529E-02 
654	 1,56668165397788E-02 
655	 1,57572923157553E-02 
656	 1,56122780599735E-02 
657	 1,52906202397802E-02 
658	 1,48985536318322E-02 
659	 0,014554022135807 
660	 1,44959487587078E-02 
661	 1,45037348884163E-02 
662	 1,37955223102842E-02 
663	 0,013069222037092 
664	 1,26660862955373E-02 
665	 1,21820074089213E-02 
666	 1,18933656747025E-02 
667	 1,23007537769938E-02 
668	 1,24966632132246E-02 
669	 1,22816622679786E-02 
670	 1,19641345463773E-02 
671	 0,01200505128318 
672	 1,26787808043643E-02 
673	 1,27150464199495E-02 
674	 1,23121530658501E-02 
675	 1,25349944396242E-02 
676	 1,26192970733322E-02 
677	 1,23600604952236E-02 
678	 1,21488771559233E-02 
679	 1,21597240884155E-02 
680	 1,25479650796486E-02 
681	 1,26697824979518E-02 
682	 0,012489233601573 
683	 0,012391499787265 
684	 1,25346583566124E-02 
685	 1,29702917623764E-02 
686	 1,32412798843537E-02 
687	 1,33776443759959E-02 
688	 1,35006189596216E-02 
689	 1,42251795924886E-02 
690	 1,54523667026375E-02 
691	 1,58070305423471E-02 
692	 1,62396005283704E-02 
693	 1,76157244418443E-02 
694	 1,90467618430268E-02 
695	 2,04763450232484E-02 
696	 2,21349630208386E-02 
697	 2,42407775875736E-02 
698	 2,68942868946107E-02 
699	 2,99989305042421E-02 
700	 3,33203800325732E-02 
701	 0,036574052990925 
702	 4,03805933517454E-02 
703	 4,47200978104117E-02 
704	 4,90415907954403E-02 
705	 5,33339214384671E-02 
706	 5,76095641731345E-02 
707	 6,21849000310702E-02 
708	 6,68437866273329E-02 
709	 7,10774813060513E-02 
710	 7,54476990263561E-02 
711	 8,00007601014628E-02 
712	 0,084168130842701 
713	 8,80262980385378E-02 
714	 9,16796938776617E-02 
715	 9,49751176595477E-02 
716	 9,81747306211309E-02 
717	 0,102077101001635 
718	 0,105536084650072 
719	 0,108128650888001 
720	 0,11053429242318 
721	 0,112773298599653 
722	 0,114797894578183 
723	 0,117279065210061 
724	 0,119971348565456 
725	 0,121484892028323 
726	 0,122998535087533 
727	 0,125118623773827 
728	 0,126378676826944 
729	 0,127275927846498 
730	 0,129079792924751 
731	 0,130349351785542 
732	 0,130876207564304 
733	 0,131702727672338 
734	 0,132758506436655 
735	 0,133911381849295 
736	 0,134730211374752 
737	 0,135198344532354 
738	 0,135397874768122 
739	 0,136069562792653 
740	 0,137308683547779 
741	 0,137798695185688 
742	 0,138016356547643 
743	 0,138629884330589 
744	 0,139009534352358 
745	 0,13924640205062 
746	 0,140027611388437 
747	 0,140823870734211 
748	 0,141336838151394 
749	 0,141681741277302 
750	 0,141886040314244 
751	 0,141967959576025 
752	 0,142137426090503 
753	 0,142464515105592 
754	 0,14295157955735 
755	 0,143311822203713 
756	 0,143382510541179 
757	 0,143763343651751 
758	 0,14424664451854 
759	 0,14418302216306 
760	 0,144427945424598 
761	 0,145060738892547 
762	 0,145084188545811 
763	 0,144914324968762 
764	 0,144989449623906 
765	 0,145149097395002 
766	 0,145348500881991 
767	 0,145506474165631 
768	 0,145815782298797 
769	 0,146276893235901 
770	 0,14642623833277 
771	 0,146543268818307 
772	 0,146991280087366 
773	 0,147249472361274 
774	 0,147290365971072 
775	 0,147394586984054 
776	 0,147577394421328 
777	 0,147817073380858 
778	 0,147857947710158 
779	 0,147795849214721 
780	 0,147806021155795 
781	 0,148137656746892 
782	 0,14858873869611 
783	 0,148142842890733 
784	 0,147898832198199 
785	 0,148497867327545 
786	 0,148795882706218 
787	 0,148760251548234 
788	 0,148612103446204 
789	 0,148736106829337 
790	 0,149147086923855 
791	 0,149323302818162 
792	 0,149363634079223 
793	 0,149388310345641 
794	 0,149717472220496 
795	 0,15011126742097 
796	 0,14991951695101 
797	 0,14989718006862 
798	 0,150189397532589 
799	 0,150121634096143 
800	 0,15023329830481 
801	 0,150980091308054 
802	 0,151058019711019 
803	 0,150671257286057 
804	 0,150965178241252 
805	 0,151377136490603 
806	 0,151688383089915 
807	 0,151846524755585 
808	 0,15177550622447 
809	 0,151441699146442 
810	 0,151571481865259 
811	 0,152129391328485 
812	 0,152620269817196 
813	 0,152787719486643 
814	 0,152549053592685 
815	 0,15222263437838 
816	 0,152288890411122 
817	 0,153232019691902 
818	 0,153871969703133 
819	 0,153986630538967 
820	 0,153817694516241 
821	 0,153731326272446 
822	 0,153900877487023 
823	 0,154020571863613 
824	 0,154096492862561 
825	 0,15417497429832 
826	 0,154163093292216 
827	 0,154149426624137 
828	 0,154524601141222 
829	 0,154605441305667 
830	 0,154201297724058 
831	 0,15463692389525 
832	 0,155286132531164 
833	 0,155119511115372 
834	 0,155273623861286 
835	 0,155670736744922 
836	 0,155047960526477 
837	 0,154847451255017 
838	 0,155660548636665 
839	 0,15566034471528 
840	 0,155420486910167 
841	 0,156025568009608 
842	 0,156006875536171 
843	 0,15541631115389 
844	 0,155679584275758 
845	 0,155916839193165 
846	 0,155740514027353 
847	 0,156044347655395 
848	 0,156391240834855 
849	 0,156048136655652 
850	 0,15614937850036 
851	 0,156625809270232 
852	 0,156244455219346 
853	 0,156009480605535 
854	 0,156372432609677 
855	 0,156380689373354 
856	 0,156308526211678 
857	 0,156662312225619 
858	 0,156956489020156 
859	 0,157103375371254 
860	 0,157267993913113 
861	 0,157197791668878 
862	 0,156865356516414 
863	 0,156909411797354 
864	 0,157279662922992 
865	 0,157804614374971 
866	 0,158317344024633 
867	 0,158661799264541 
868	 0,158565800389972 
869	 0,158494154421369 
870	 0,158631162565545 
871	 0,158555579881206 
872	 0,158424298063096 
873	 0,158463219259607 
874	 0,158454776494488 
875	 0,158372020967413 
876	 0,158210405268033 
877	 0,158371893268415 
878	 0,158961075818761 
879	 0,159504387239937 
880	 0,159847053841615 
881	 0,159878694010573 
882	 0,159721436443424 
883	 0,159568280669181 
884	 0,159815460556133 
885	 0,160122596218363 
886	 0,160258470653172 
887	 0,159778080387139 
888	 0,159232502145026 
889	 0,159203588986807 
890	 0,160012880022925 
891	 0,160990253270744 
892	 0,160548952068049 
893	 0,160245925828715 
894	 0,160619326889105 
895	 0,161783583611801 
896	 0,161973764328124 
897	 0,160140201400806 
898	 0,160036908915635 
899	 0,161116994618769 
900	 0,161324680851316 
901	 0,161290081179034 
902	 0,161350795129121 
903	 0,162313563562806 
904	 0,163029898062467 
905	 0,162792197536631 
906	 0,162137639340844 
907	 0,161630629187354 
908	 0,161939343038153 
909	 0,16218776967192 
910	 0,162205529229702 
911	 0,162157688325302 
912	 0,162472842495304 
913	 0,163077999245535 
914	 0,162137751409677 
915	 0,161396812219779 
916	 0,162790177646574 
917	 0,162771585872313 
918	 0,161514449765352 
919	 0,16125118334375 
920	 0,161377690941086 
921	 0,161714864798412 
922	 0,162256404207644 
923	 0,162235480444247 
924	 0,161131128640044 
925	 0,160229995759363 
926	 0,159744809539339 
927	 0,159650513473197 
928	 0,159015385633463 
929	 0,158109611922995 
930	 0,158917582343931 
931	 0,160212420239785 
932	 0,160904244029411 
933	 0,159098615255315 
934	 0,156999680904459 
935	 0,157592259868388 
936	 0,157645547286755 
937	 0,156846121246595 
938	 0,156358484183237 
939	 0,156240034554206 
940	 0,156279003222713 
941	 0,155047555761947 
942	 0,153991688548482 
943	 0,154374786477712 
944	 0,154865903749697 
945	 0,154826299770493 
946	 0,153558047309012 
947	 0,151901206407465 
948	 0,150434024562833 
949	 0,150321557479908 
950	 0,14929921865407 
951	 0,146533048555156 
952	 0,145699879997789 
953	 0,145476802505536 
954	 0,143907398179089 
955	 0,143782878416831 
956	 0,144673684576429 
957	 0,144037846950651 
958	 0,143463714333055 
959	 0,143174899611668 
960	 0,141725068377605 
961	 0,140591345720804 
962	 0,140701156078719 
963	 0,139375619976922 
964	 0,138372941594679 
965	 0,140827830834338 
966	 0,14234396153362 
967	 0,141649038064774 
968	 0,138097154460957 
969	 0,137207802052355 
970	 0,140414950716394 
971	 0,140995366835128 
972	 0,140120144728958 
973	 0,139342649002703 
974	 0,138910932929763 
975	 0,13904878885064 
976	 0,139978468294976 
977	 0,140117706679335 
978	 0,139402542440143 
979	 0,139249532440771 
980	 0,139582697616327 
981	 0,140331723251593 
982	 0,141518892871245 
983	 0,141156148832555 
984	 0,137770269288802 
985	 0,138369639077041 
986	 0,141140508047193 
987	 0,139927848278059 
988	 0,139720657404459 
989	 0,141177848345456 
990	 0,141449208844933 
991	 0,141989435469217 
992	 0,14338556740015 
993	 0,144646367664919 
994	 0,144683256801636 
995	 0,142813061416165 
996	 0,143290770317139 
997	 0,145104708430676 
998	 0,14455897619108 
999	 0,147181323535535 
1000	 0,151904443584695 
1001	 0,149985943182563 
1002	 0,145685686784509 
1003	 0,142547199131229 
1004	 0,146704776141777 
1005	 0,150797915004977 
1006	 0,147731096424158 
1007	 0,145790568402696 
1008	 0,146235148653255 
1009	 0,14861335062494 
1010	 0,152073621062937 
1011	 0,15481140951093 
1012	 0,152303899859937 
1013	 0,151303370826885 
1014	 0,15378262476932 
1015	 0,152828879474342 
1016	 0,151716366948921 
1017	 0,153369354300914 
1018	 0,155599910726755 
1019	 0,156441415496031 
1020	 0,153599510836592 
1021	 0,15369859483161 
1022	 0,156970648480136 
1023	 0,159629557590135 
1024	 0,159584889130687 
1025	 0,15742058861388 
1026	 0,159574931373401 
1027	 0,163758935186761 
1028	 0,167400924339365 
1029	 0,165696936834873 
1030	 0,161751679148864 
1031	 0,160012362428 
1032	 0,159993757343954 
1033	 0,160364868357321 
1034	 0,158394354662617 
1035	 0,158604818413544 
1036	 0,161314007537416 
1037	 0,1630032829645 
1038	 0,165165303099532 
1039	 0,167945154802246 
1040	 0,169952281998263 
1041	 0,168979383547421 
1042	 0,164330765425084 
1043	 0,165814554534908 
1044	 0,168724672354331 
1045	 0,165422211569524 
1046	 0,165660076203627 
1047	 0,16878986346581 
1048	 0,168669555006864 
1049	 0,162421269465492 
1050	 0,154940257533212 
1051	 0,169224156729982 
1052	 0,178819123486134 
1053	 0,172326495348137 
1054	 0,165996326217943 
1055	 0,163290764211621 
1056	 0,166142216118237 
1057	 0,171612491862942 
1058	 0,172782975577206 
1059	 0,16196970183047 
1060	 0,166593595142679 
1061	 0,177605543237384 
1062	 0,161479666107193 
1063	 0,161808085530834 
1064	 0,183270160446652 
1065	 0,192744214271775 
1066	 0,18769045864278 
1067	 0,171425887922007 
1068	 0,169275133057398 
1069	 0,170600255211058 
1070	 0,167140402156341 
1071	 0,171804112080581 
1072	 0,171223805378732 
1073	 0,151225723410749 
1074	 0,161097803966934 
1075	 0,187204573612018 
