Wavelength	GRA-VIE00202.asd
325	 0,351632546985931 
326	 0,52524734639581 
327	 0,576926522437436 
328	 0,422080134939334 
329	 0,308071009972235 
330	 0,274728569341981 
331	 0,385167222390623 
332	 0,414347777747477 
333	 0,374533627196979 
334	 0,318241014754385 
335	 0,359353223253726 
336	 0,455680739739954 
337	 0,423862073888503 
338	 0,363822671337913 
339	 0,344176787012923 
340	 0,345595914881649 
341	 0,351868791980192 
342	 0,326295850788779 
343	 0,302555800151153 
344	 0,296137811637369 
345	 0,341044473386425 
346	 0,359597879406871 
347	 0,26857730320607 
348	 0,247574202218773 
349	 0,290387612990146 
350	 0,291732665258889 
351	 0,258440587265083 
352	 0,200762185462421 
353	 0,203939542177019 
354	 0,239263776376488 
355	 0,263156249555988 
356	 0,278424582712079 
357	 0,279121867949371 
358	 0,247066812063934 
359	 0,234357855936108 
360	 0,258687715107223 
361	 0,25509518289395 
362	 0,233247643138195 
363	 0,215983227954884 
364	 0,210963289203933 
365	 0,215835838804924 
366	 0,211577970901801 
367	 0,214354329844332 
368	 0,230057529361278 
369	 0,219449060383122 
370	 0,202297577073104 
371	 0,220239672995633 
372	 0,226773934370771 
373	 0,214741962183939 
374	 0,214839914082523 
375	 0,218624143743217 
376	 0,218545172348337 
377	 0,211848805217918 
378	 0,205297097000426 
379	 0,213497460083484 
380	 0,227106649334049 
381	 0,237834791621625 
382	 0,221968663683043 
383	 0,201108906382787 
384	 0,198457799736577 
385	 0,207075500752121 
386	 0,217673220470049 
387	 0,212443336983795 
388	 0,212223635711477 
389	 0,222472108889384 
390	 0,226282393540415 
391	 0,222312626358572 
392	 0,210838144192005 
393	 0,201639515255866 
394	 0,198723027207339 
395	 0,207372788331556 
396	 0,211420363675741 
397	 0,20478885640845 
398	 0,20529492574949 
399	 0,205703362813197 
400	 0,191419449676145 
401	 0,194696485167653 
402	 0,210669683236627 
403	 0,189005814819104 
404	 0,173596310645442 
405	 0,192000824629653 
406	 0,196366168803131 
407	 0,190458795352591 
408	 0,196450555889839 
409	 0,19798515833136 
410	 0,193359472106427 
411	 0,19553520878104 
412	 0,198863213585777 
413	 0,197604101161302 
414	 0,193701230315062 
415	 0,189375612241316 
416	 0,19029800332709 
417	 0,186263538414204 
418	 0,176248175136296 
419	 0,179334766504773 
420	 0,188648627387731 
421	 0,19373977839212 
422	 0,190940180005643 
423	 0,183428401110598 
424	 0,184378622822934 
425	 0,186270718626911 
426	 0,184607199792385 
427	 0,181834240910668 
428	 0,180297234072312 
429	 0,183584982866027 
430	 0,1855403808634 
431	 0,185006008697044 
432	 0,186424971093389 
433	 0,186869781370496 
434	 0,184038020371568 
435	 0,18544512763497 
436	 0,189032185196402 
437	 0,186104328452475 
438	 0,183266257755282 
439	 0,183286037988699 
440	 0,185435522097259 
441	 0,187509207445113 
442	 0,186988154480847 
443	 0,186001721584398 
444	 0,185932437977365 
445	 0,189374491804739 
446	 0,193154385909167 
447	 0,19500003434434 
448	 0,193332387481425 
449	 0,191147905062531 
450	 0,194467853758571 
451	 0,196118957632448 
452	 0,194857714641596 
453	 0,196073098055178 
454	 0,1971249622848 
455	 0,195511795700487 
456	 0,194239832666625 
457	 0,194150988240686 
458	 0,195688544634684 
459	 0,197997815886426 
460	 0,200235070683654 
461	 0,20042459233893 
462	 0,199472248200985 
463	 0,198847118634911 
464	 0,199022646414532 
465	 0,199785811219756 
466	 0,199838657030035 
467	 0,199335342378157 
468	 0,198616129358625 
469	 0,20011629565125 
470	 0,201583753871885 
471	 0,197582620439401 
472	 0,196317954985146 
473	 0,199849404347274 
474	 0,204449182285632 
475	 0,206479339022707 
476	 0,202950937905727 
477	 0,201554248283299 
478	 0,202432310872039 
479	 0,201032858065861 
480	 0,200296114060001 
481	 0,201250147243535 
482	 0,201226510803044 
483	 0,200848990981766 
484	 0,201496497345866 
485	 0,201297116421128 
486	 0,200210452877039 
487	 0,19930143073689 
488	 0,201435887391564 
489	 0,207871001348946 
490	 0,208575671914234 
491	 0,204591776279747 
492	 0,201447850359663 
493	 0,201600888264886 
494	 0,205215927802752 
495	 0,20662382039549 
496	 0,205877308755456 
497	 0,203647481434495 
498	 0,203345290509737 
499	 0,204604210949372 
500	 0,203061362850087 
501	 0,203651901946663 
502	 0,208276797688484 
503	 0,208265253367215 
504	 0,20614757826565 
505	 0,208405197430764 
506	 0,209078948853681 
507	 0,20741429030166 
508	 0,207682486387396 
509	 0,209355480625053 
510	 0,211675292038278 
511	 0,213285383195771 
512	 0,214046070583981 
513	 0,214495564626046 
514	 0,214722639694123 
515	 0,214811536914769 
516	 0,214577899927756 
517	 0,214800988723 
518	 0,216572999742928 
519	 0,217493510058226 
520	 0,217184199482957 
521	 0,216584869178476 
522	 0,216986901211732 
523	 0,219081504308896 
524	 0,219826380051622 
525	 0,219524871058448 
526	 0,220086600812721 
527	 0,220249846762504 
528	 0,219754500285141 
529	 0,219399574008358 
530	 0,219207647355385 
531	 0,219125643888999 
532	 0,219380866013217 
533	 0,219807584273716 
534	 0,21973374107152 
535	 0,219770319409428 
536	 0,220287600933861 
537	 0,221285323375898 
538	 0,221994555290888 
539	 0,220970804373693 
540	 0,220477963518975 
541	 0,221237748518116 
542	 0,222887899692715 
543	 0,224230487926242 
544	 0,224165400453969 
545	 0,223830268177145 
546	 0,22371077424031 
547	 0,22441838728914 
548	 0,225058129101286 
549	 0,225228093565782 
550	 0,225475617357948 
551	 0,22595123607554 
552	 0,226822687470226 
553	 0,227248561399474 
554	 0,226960185969269 
555	 0,225945357992515 
556	 0,225228720998584 
557	 0,225624709435867 
558	 0,226282825360921 
559	 0,226673769420615 
560	 0,225877095233902 
561	 0,225330359940397 
562	 0,225534721301585 
563	 0,225508473995164 
564	 0,225367423048827 
565	 0,225371654966215 
566	 0,225814143280771 
567	 0,226573261707797 
568	 0,226877926114744 
569	 0,227421486923812 
570	 0,22864707694768 
571	 0,229768591912714 
572	 0,230981255580966 
573	 0,233083342465188 
574	 0,234658416643458 
575	 0,235455573443639 
576	 0,237171606775141 
577	 0,23872174660812 
578	 0,238828981184963 
579	 0,239937122434838 
580	 0,242080573954679 
581	 0,243575721537353 
582	 0,244780494966526 
583	 0,245927318769744 
584	 0,247390339047651 
585	 0,249027859690478 
586	 0,250490717449266 
587	 0,252048646395901 
588	 0,253589746328678 
589	 0,25433822364609 
590	 0,254932503721569 
591	 0,25595181866865 
592	 0,256317763605845 
593	 0,25620308348194 
594	 0,256509887553738 
595	 0,25739980549092 
596	 0,258733739308428 
597	 0,258939993912947 
598	 0,258540364887218 
599	 0,258545014522481 
600	 0,25915354724347 
601	 0,260104305483185 
602	 0,260230466866951 
603	 0,259525473020988 
604	 0,258159754517376 
605	 0,257977421682863 
606	 0,258372435727538 
607	 0,256956467537437 
608	 0,255829260340917 
609	 0,25562499842154 
610	 0,255065610023406 
611	 0,254572681452991 
612	 0,254779657342244 
613	 0,254346156163471 
614	 0,253458597533721 
615	 0,253942117762287 
616	 0,254279417068049 
617	 0,253555797827719 
618	 0,252904550674491 
619	 0,252446125127228 
620	 0,251995168177044 
621	 0,252228516857307 
622	 0,253100493934664 
623	 0,253331893407737 
624	 0,2532263060947 
625	 0,25318961750368 
626	 0,25338406130541 
627	 0,253780611409397 
628	 0,254181954963295 
629	 0,254412503585925 
630	 0,254403219246301 
631	 0,254363736487376 
632	 0,254623877610437 
633	 0,255640035231839 
634	 0,256901306255391 
635	 0,258085004162031 
636	 0,258600471685979 
637	 0,259269722541337 
638	 0,260732880488404 
639	 0,261628285337421 
640	 0,262147372057761 
641	 0,263460442230676 
642	 0,264610739310235 
643	 0,265235670353501 
644	 0,265710414340068 
645	 0,266009342492407 
646	 0,266058554545446 
647	 0,266036007435218 
648	 0,265893442258992 
649	 0,265272486325946 
650	 0,26463334112718 
651	 0,264176220831883 
652	 0,262728817379278 
653	 0,260748766177298 
654	 0,259492170760899 
655	 0,258126523179862 
656	 0,256407542989482 
657	 0,254515117379362 
658	 0,252455607340752 
659	 0,250227776117223 
660	 0,247618648674196 
661	 0,244817905297239 
662	 0,242395740461853 
663	 0,240135135983561 
664	 0,237986381822571 
665	 0,236239398331788 
666	 0,234882590697266 
667	 0,233868042977994 
668	 0,23254196500074 
669	 0,230964393844556 
670	 0,230124187327933 
671	 0,229865393560875 
672	 0,229966668155121 
673	 0,229603002586831 
674	 0,229035522861646 
675	 0,229285525195475 
676	 0,229663415840338 
677	 0,229875679119639 
678	 0,229714423470016 
679	 0,229802704805869 
680	 0,23087714763615 
681	 0,231977740682523 
682	 0,233007157814585 
683	 0,234367071645456 
684	 0,236182161997743 
685	 0,238514837140089 
686	 0,24109432922675 
687	 0,244090298246149 
688	 0,247806438380848 
689	 0,252428195584464 
690	 0,257725017427588 
691	 0,26239897803791 
692	 0,267642469651392 
693	 0,274514103530974 
694	 0,281826020489814 
695	 0,289366074019298 
696	 0,297235301159642 
697	 0,305624753181468 
698	 0,31446850397139 
699	 0,323039995320478 
700	 0,331500251294035 
701	 0,340143255361704 
702	 0,348353617844441 
703	 0,356108341855282 
704	 0,363958908524311 
705	 0,371377612657616 
706	 0,378074115065662 
707	 0,38471072212913 
708	 0,391127262131488 
709	 0,396841744920863 
710	 0,402039907264303 
711	 0,406822530523818 
712	 0,41135608008586 
713	 0,415502173774211 
714	 0,419159430030223 
715	 0,422670116201819 
716	 0,426107043629915 
717	 0,429447483153083 
718	 0,432676174012083 
719	 0,43566647769652 
720	 0,437710624930726 
721	 0,43947513203279 
722	 0,441885668445613 
723	 0,444282146489447 
724	 0,446379575193858 
725	 0,447833007298619 
726	 0,449113198333506 
727	 0,450505491449988 
728	 0,451703311985752 
729	 0,452800004374784 
730	 0,454027707184841 
731	 0,455117632359138 
732	 0,456031407592374 
733	 0,457016641987693 
734	 0,457789374327235 
735	 0,45815729728171 
736	 0,459050668596872 
737	 0,460258367084522 
738	 0,460808850836429 
739	 0,461390121744945 
740	 0,462193795412497 
741	 0,462819971331378 
742	 0,463333053471503 
743	 0,463844508504888 
744	 0,464482694376087 
745	 0,465161812846254 
746	 0,46551684257663 
747	 0,465820012761729 
748	 0,466263587056742 
749	 0,467096517810269 
750	 0,467938652414764 
751	 0,468156748647471 
752	 0,468661025464935 
753	 0,469539036341322 
754	 0,470123174958246 
755	 0,470562193760099 
756	 0,470978287875023 
757	 0,471397107524553 
758	 0,471831807737778 
759	 0,472278880382516 
760	 0,472816606403298 
761	 0,473385325692749 
762	 0,473612723645799 
763	 0,473770644164082 
764	 0,47411923597879 
765	 0,474332539669444 
766	 0,474459475094134 
767	 0,474739142285884 
768	 0,475226787871265 
769	 0,475891037760549 
770	 0,476401794300269 
771	 0,476787069214288 
772	 0,477117447807391 
773	 0,477217913818321 
774	 0,477223694860854 
775	 0,477652684927439 
776	 0,477998466901882 
777	 0,47805258295007 
778	 0,478330871751808 
779	 0,478736993209229 
780	 0,479047173275691 
781	 0,47935561058395 
782	 0,479613453060922 
783	 0,479501663125769 
784	 0,4797887803938 
785	 0,480810509036292 
786	 0,480838285487414 
787	 0,480332740553321 
788	 0,48053775364603 
789	 0,480984318459874 
790	 0,481445082415799 
791	 0,481511376316245 
792	 0,481525489992117 
793	 0,481764359323993 
794	 0,482038859754708 
795	 0,482202291730893 
796	 0,481976436570956 
797	 0,481974000837245 
798	 0,482339604750104 
799	 0,482639885222382 
800	 0,48285213210868 
801	 0,482987437385931 
802	 0,483255927481894 
803	 0,483574750885231 
804	 0,483586193344719 
805	 0,483766596206572 
806	 0,484293809580344 
807	 0,485102023467852 
808	 0,48573314461566 
809	 0,485730967845498 
810	 0,485600294360651 
811	 0,485678753826665 
812	 0,486628216191295 
813	 0,487186572744809 
814	 0,486935916386516 
815	 0,486978762370117 
816	 0,487327115064672 
817	 0,48786352196794 
818	 0,488202686072812 
819	 0,488372178059498 
820	 0,488787073851043 
821	 0,489146836171175 
822	 0,489300023279972 
823	 0,48920106646439 
824	 0,489296752688975 
825	 0,490136340049653 
826	 0,490559496880261 
827	 0,490459964071782 
828	 0,490453690970065 
829	 0,490545680927091 
830	 0,490727441884788 
831	 0,490713312943356 
832	 0,490840186380954 
833	 0,491590844754438 
834	 0,492308469869766 
835	 0,492583437187477 
836	 0,491610757794553 
837	 0,491211371847798 
838	 0,492177451375141 
839	 0,492318673455241 
840	 0,492179512176377 
841	 0,492868241829005 
842	 0,492694727839599 
843	 0,491870402474481 
844	 0,492550315478015 
845	 0,493050761647449 
846	 0,492591082482179 
847	 0,492720824437879 
848	 0,49292985190185 
849	 0,492277260014568 
850	 0,492347954104127 
851	 0,493171026126454 
852	 0,493570023565979 
853	 0,493433733697165 
854	 0,492841094580239 
855	 0,492925598091347 
856	 0,493277316972456 
857	 0,493156782178408 
858	 0,493010001853072 
859	 0,49300228772552 
860	 0,493387488612883 
861	 0,493430910352579 
862	 0,49290327278632 
863	 0,493029332775177 
864	 0,493439304561529 
865	 0,493489137315988 
866	 0,493958744251162 
867	 0,494791191425261 
868	 0,495367270341686 
869	 0,495572034647938 
870	 0,49537360052172 
871	 0,49497582241852 
872	 0,494992599073133 
873	 0,496051197547275 
874	 0,495967610709892 
875	 0,49524853129131 
876	 0,496808563253463 
877	 0,498366216584353 
878	 0,498957268442043 
879	 0,499206695683576 
880	 0,499056547808259 
881	 0,498503491377997 
882	 0,499317855665255 
883	 0,500872709814867 
884	 0,500528196625057 
885	 0,500238512003811 
886	 0,500703873263289 
887	 0,501760445122923 
888	 0,502531389226408 
889	 0,50228694752238 
890	 0,502490221491837 
891	 0,503115573629722 
892	 0,503512626022889 
893	 0,503765898370041 
894	 0,503910626302199 
895	 0,504112053004262 
896	 0,504167395629338 
897	 0,503977964213757 
898	 0,504091842182664 
899	 0,504694226354811 
900	 0,505984707378728 
901	 0,506417043423091 
902	 0,505925894015189 
903	 0,506199259246261 
904	 0,506355523573272 
905	 0,505960003152565 
906	 0,506060907865637 
907	 0,506460368994084 
908	 0,506693546732004 
909	 0,507292151611742 
910	 0,507972247652022 
911	 0,50745841817623 
912	 0,507171936361977 
913	 0,507707503258067 
914	 0,508146505350485 
915	 0,508569454126437 
916	 0,509096209568531 
917	 0,508644382094811 
918	 0,507685703315926 
919	 0,508011618796169 
920	 0,507709240433204 
921	 0,506687077301565 
922	 0,507770347749035 
923	 0,508882763124012 
924	 0,508301307145528 
925	 0,507779496301712 
926	 0,507724945933281 
927	 0,50842687755084 
928	 0,507441487356214 
929	 0,505352838880923 
930	 0,507130911971261 
931	 0,50825000476645 
932	 0,506446572225632 
933	 0,506008310500949 
934	 0,506099572254675 
935	 0,505110507533826 
936	 0,505292587570338 
937	 0,50614775155347 
938	 0,504727880281866 
939	 0,504379977227635 
940	 0,505709595368923 
941	 0,504930540043554 
942	 0,503534942938453 
943	 0,502971296437739 
944	 0,50191124317515 
945	 0,500754131201858 
946	 0,500596389584996 
947	 0,500423890357141 
948	 0,499634875796044 
949	 0,497158984997359 
950	 0,495210593499291 
951	 0,49499374108941 
952	 0,495233617839187 
953	 0,495077263485775 
954	 0,493711407116864 
955	 0,492050913607268 
956	 0,49044813452798 
957	 0,488967621057726 
958	 0,489254981997217 
959	 0,490853306150825 
960	 0,488903980765108 
961	 0,48702833179277 
962	 0,487849611998548 
963	 0,487848114932756 
964	 0,48743393823732 
965	 0,487949861897008 
966	 0,488893379290341 
967	 0,489465462010067 
968	 0,487544773044488 
969	 0,486176423206806 
970	 0,486588632393326 
971	 0,487259171534331 
972	 0,488177674667433 
973	 0,489241538770563 
974	 0,488954639664244 
975	 0,487942053983759 
976	 0,487755423816017 
977	 0,487869033913942 
978	 0,488100920476796 
979	 0,488195109386461 
980	 0,488435852310225 
981	 0,488892365468084 
982	 0,489150509316865 
983	 0,489223448778844 
984	 0,489203224590117 
985	 0,489456995466274 
986	 0,490282653897636 
987	 0,492101259757284 
988	 0,493387817158742 
989	 0,493936069798324 
990	 0,49487930018941 
991	 0,49568594615538 
992	 0,495972724452701 
993	 0,495062918556571 
994	 0,494696101220722 
995	 0,49646222893165 
996	 0,496704023469188 
997	 0,49642842200347 
998	 0,498877174265582 
999	 0,501377034020948 
1000	 0,502843736642257 
1001	 0,502490278281151 
1002	 0,502538844725787 
1003	 0,503944714886622 
1004	 0,504731379043388 
1005	 0,505942376700927 
1006	 0,508241169871983 
1007	 0,505702347664542 
1008	 0,501946829608359 
1009	 0,504931620604346 
1010	 0,508089491106365 
1011	 0,509950203390489 
1012	 0,512423790300605 
1013	 0,511772642428491 
1014	 0,508156760507754 
1015	 0,511056495325196 
1016	 0,515150978283217 
1017	 0,515365120619801 
1018	 0,513334163994403 
1019	 0,511612624906804 
1020	 0,513587920390986 
1021	 0,513307643230678 
1022	 0,512666733864194 
1023	 0,521933803674597 
1024	 0,523316756155575 
1025	 0,515391899989538 
1026	 0,52155488424396 
1027	 0,527929167676204 
1028	 0,525557395637616 
1029	 0,522198460875809 
1030	 0,5219135758489 
1031	 0,527666999873691 
1032	 0,526470732164926 
1033	 0,520772037808453 
1034	 0,520834560856862 
1035	 0,52334052040996 
1036	 0,527340542861742 
1037	 0,532863658989472 
1038	 0,535296166957095 
1039	 0,533303109764674 
1040	 0,533431400806366 
1041	 0,532213836452657 
1042	 0,527474890492977 
1043	 0,527651749473958 
1044	 0,531227172844402 
1045	 0,53457088444023 
1046	 0,534809579516396 
1047	 0,533775361307032 
1048	 0,53779398975583 
1049	 0,540788106482624 
1050	 0,540113359512718 
1051	 0,532255373119551 
1052	 0,534297220883884 
1053	 0,54915461477312 
1054	 0,541722927581841 
1055	 0,535253881690684 
1056	 0,549319329574284 
1057	 0,555021508902705 
1058	 0,551878406493624 
1059	 0,545582869858639 
1060	 0,546837464441816 
1061	 0,549559194218985 
1062	 0,533922969276594 
1063	 0,533465547633433 
1064	 0,54948364148928 
1065	 0,544915750386963 
1066	 0,54684097737967 
1067	 0,561978904954894 
1068	 0,560530525332434 
1069	 0,552420361369273 
1070	 0,547717281045299 
1071	 0,54925085235508 
1072	 0,5544314799226 
1073	 0,559413850739562 
1074	 0,5607111571547 
1075	 0,561084667773961 
