Wavelength	GRA-VIE00905.asd
325	 0,229596115908473 
326	 0,265582130088962 
327	 0,245858368686772 
328	 0,203146950013116 
329	 0,322679150016881 
330	 0,395915919917386 
331	 0,234482516862459 
332	 0,226510957602355 
333	 0,311707547986135 
334	 0,163576733918144 
335	 0,182746320837172 
336	 0,355673201629005 
337	 0,282258023396723 
338	 0,195137269814355 
339	 0,246657115916282 
340	 0,196208140647133 
341	 8,14489184802511E-02 
342	 0,140167572275914 
343	 0,188097270093366 
344	 0,176662465712803 
345	 0,139532847962081 
346	 0,106487051940756 
347	 0,112003394895354 
348	 7,01333845686223E-02 
349	 9,45044099446994E-03 
350	 5,12059683777712E-02 
351	 7,50542742861835E-02 
352	 0,056080992157175 
353	 7,93985940077688E-02 
354	 0,115816583501654 
355	 0,127043520268254 
356	 0,131962361043858 
357	 0,125701506560186 
358	 7,97905370611577E-02 
359	 0,053863308247581 
360	 7,14195999236543E-02 
361	 0,084339901887619 
362	 9,03752154890034E-02 
363	 9,66937165679262E-02 
364	 8,69134177699017E-02 
365	 6,59648649741813E-02 
366	 6,12452850139948E-02 
367	 7,53830260039086E-02 
368	 0,102071855882651 
369	 0,081707180352129 
370	 4,63122568761072E-02 
371	 0,062361545333275 
372	 6,05081921208021E-02 
373	 3,30107639815651E-02 
374	 3,65243607364301E-02 
375	 4,43921867972603E-02 
376	 3,57998258092611E-02 
377	 2,91747708987013E-02 
378	 3,40694103934912E-02 
379	 0,064816495937298 
380	 8,23203610806988E-02 
381	 7,80337907441086E-02 
382	 6,98357720509608E-02 
383	 5,44420041961803E-02 
384	 3,06983032086917E-02 
385	 4,50111055618346E-02 
386	 0,078586021006555 
387	 7,21585316827703E-02 
388	 5,31442285295471E-02 
389	 3,73568506892422E-02 
390	 4,56589405603541E-02 
391	 6,00843600329285E-02 
392	 0,057662379010383 
393	 4,98245160418341E-02 
394	 4,18948423039948E-02 
395	 4,15752268540797E-02 
396	 4,96107936560824E-02 
397	 6,27026441077319E-02 
398	 5,43008779502236E-02 
399	 3,41967360806138E-02 
400	 1,88391749735863E-02 
401	 2,39002453202971E-02 
402	 4,26054147259689E-02 
403	 3,39738870783636E-02 
404	 2,52344254098429E-02 
405	 3,40702855261049E-02 
406	 3,54311077270216E-02 
407	 3,11160564191477E-02 
408	 3,21260233617062E-02 
409	 3,14201178798847E-02 
410	 0,02817886219155 
411	 2,62129937965336E-02 
412	 3,00106633231485E-02 
413	 4,22642378158963E-02 
414	 4,03579471619405E-02 
415	 2,86984959471087E-02 
416	 3,02277317669393E-02 
417	 2,96358907861622E-02 
418	 2,28295590482481E-02 
419	 2,25074485509626E-02 
420	 2,55393358838793E-02 
421	 2,67412658712916E-02 
422	 2,34615143990842E-02 
423	 1,82896278853659E-02 
424	 2,19529181364162E-02 
425	 0,02396271851748 
426	 1,88563563563564E-02 
427	 1,74679240284339E-02 
428	 2,02503987524533E-02 
429	 2,56753002550937E-02 
430	 2,94054714680861E-02 
431	 2,95951006033866E-02 
432	 0,026225094190688 
433	 2,21206866179953E-02 
434	 2,00508136795896E-02 
435	 0,024689896283398 
436	 3,08325139968138E-02 
437	 2,30396561323026E-02 
438	 1,72672865880459E-02 
439	 0,01979092749096 
440	 2,53946804746112E-02 
441	 2,96817109906661E-02 
442	 2,81653427301003E-02 
443	 2,32203763161878E-02 
444	 1,83755922468912E-02 
445	 2,27631722621593E-02 
446	 2,75563943423214E-02 
447	 2,72834028838618E-02 
448	 2,49300182189094E-02 
449	 2,31743177019448E-02 
450	 2,63888015723593E-02 
451	 2,76712425836842E-02 
452	 2,53497988620574E-02 
453	 2,24575042479269E-02 
454	 2,08517987115646E-02 
455	 2,20611129859861E-02 
456	 2,44904469713994E-02 
457	 2,61616662979296E-02 
458	 2,25585706100664E-02 
459	 2,12132030865605E-02 
460	 2,43989562985643E-02 
461	 2,41225214223547E-02 
462	 2,21610042388387E-02 
463	 2,19165173984767E-02 
464	 2,10093897120201E-02 
465	 1,99866061642435E-02 
466	 2,30283107131914E-02 
467	 2,41062332478107E-02 
468	 1,99469970438771E-02 
469	 1,93416870484355E-02 
470	 2,11339773779562E-02 
471	 2,03285933396338E-02 
472	 2,06745384171586E-02 
473	 2,23929806143511E-02 
474	 2,08363100827625E-02 
475	 1,98388282100795E-02 
476	 2,30994115993102E-02 
477	 2,35643853100143E-02 
478	 2,13324015375223E-02 
479	 2,06667617286082E-02 
480	 2,05906453619234E-02 
481	 2,05493833544753E-02 
482	 1,93208859917856E-02 
483	 1,80516285617167E-02 
484	 1,85818584595621E-02 
485	 2,04912414660438E-02 
486	 2,23870356063396E-02 
487	 1,92691038045834E-02 
488	 0,01793958141697 
489	 2,28684095813806E-02 
490	 2,35914894316572E-02 
491	 0,020811818497165 
492	 0,019972807770309 
493	 1,94812822715122E-02 
494	 1,91687723617222E-02 
495	 2,01801711955682E-02 
496	 2,08124202785191E-02 
497	 0,019162486777595 
498	 1,90449286618188E-02 
499	 1,99772925794561E-02 
500	 1,73774573932201E-02 
501	 1,62349329438039E-02 
502	 1,88188423912368E-02 
503	 1,88249235268918E-02 
504	 1,75959079046311E-02 
505	 1,89822680090564E-02 
506	 1,95646549446197E-02 
507	 1,86901606210766E-02 
508	 0,018007669902528 
509	 1,78350504929347E-02 
510	 0,018312859657239 
511	 1,78307936297106E-02 
512	 1,69037344608486E-02 
513	 1,78317335479354E-02 
514	 1,79701056234795E-02 
515	 1,66922347672431E-02 
516	 1,77718798360882E-02 
517	 1,97600577003756E-02 
518	 2,02098792778824E-02 
519	 2,01800872225043E-02 
520	 1,97902818685595E-02 
521	 1,82935349392357E-02 
522	 1,80257445925031E-02 
523	 2,02941422293287E-02 
524	 0,019871045084365 
525	 1,79675925826475E-02 
526	 1,93418009800638E-02 
527	 2,01163509647947E-02 
528	 1,93670357072138E-02 
529	 1,96667085939934E-02 
530	 1,98196059669066E-02 
531	 1,83044831896004E-02 
532	 1,82721197383495E-02 
533	 1,95882667524371E-02 
534	 1,94947518976352E-02 
535	 1,91605048054585E-02 
536	 1,93348445772918E-02 
537	 2,04039043885582E-02 
538	 2,14331283133897E-02 
539	 2,06402938397782E-02 
540	 1,97307604520686E-02 
541	 1,95558231361773E-02 
542	 2,13135169031484E-02 
543	 0,022708504593522 
544	 2,15759879004619E-02 
545	 2,09983150181977E-02 
546	 2,14587454891318E-02 
547	 2,25189593605639E-02 
548	 2,30752330924228E-02 
549	 2,27177520252351E-02 
550	 2,30515304083753E-02 
551	 2,36971974828319E-02 
552	 2,37713612792898E-02 
553	 0,023993648077031 
554	 2,43727518288158E-02 
555	 2,40557412087585E-02 
556	 2,40257483650022E-02 
557	 2,50722304327005E-02 
558	 2,63311577605133E-02 
559	 2,73448706130472E-02 
560	 2,74622512726051E-02 
561	 0,02744673874695 
562	 2,76913725686035E-02 
563	 2,84205517674392E-02 
564	 2,92096437358991E-02 
565	 0,029482865524392 
566	 2,94983249068498E-02 
567	 2,94378283791057E-02 
568	 0,02970930277608 
569	 2,99133582890611E-02 
570	 2,97617735631297E-02 
571	 2,93441232769173E-02 
572	 2,88979344705108E-02 
573	 2,89628004624512E-02 
574	 2,84698362160393E-02 
575	 2,74126156281661E-02 
576	 0,02798923095228 
577	 2,84035710814846E-02 
578	 0,026567118486303 
579	 2,66256797307735E-02 
580	 2,83542360810382E-02 
581	 2,80904000386647E-02 
582	 2,71351174492779E-02 
583	 2,62589898332962E-02 
584	 2,55099593844468E-02 
585	 2,50741064135231E-02 
586	 2,52058801024437E-02 
587	 2,53526287575873E-02 
588	 2,53949330951095E-02 
589	 0,025690212469297 
590	 2,61919721710765E-02 
591	 2,67679234311767E-02 
592	 2,60211175180612E-02 
593	 2,46220292926956E-02 
594	 2,51275321119318E-02 
595	 2,56622823333308E-02 
596	 2,54784242121917E-02 
597	 2,58024072921032E-02 
598	 2,61227350856702E-02 
599	 2,54937331283574E-02 
600	 2,52026264433731E-02 
601	 2,55548621469197E-02 
602	 2,63074019505371E-02 
603	 2,65672525836124E-02 
604	 2,56890329819893E-02 
605	 2,48180136983609E-02 
606	 2,40493241452425E-02 
607	 2,29883581066666E-02 
608	 2,22466997095149E-02 
609	 2,19414031621385E-02 
610	 2,11751362931003E-02 
611	 2,05520415630657E-02 
612	 2,08908601166338E-02 
613	 2,09007251628694E-02 
614	 2,03913505395878E-02 
615	 1,98019886934107E-02 
616	 1,96815190829751E-02 
617	 2,02173370158612E-02 
618	 1,95955194106635E-02 
619	 1,85625936739938E-02 
620	 1,91406635611697E-02 
621	 1,95538440420814E-02 
622	 1,93102364824507E-02 
623	 1,90190541301866E-02 
624	 1,88318499573074E-02 
625	 1,88605910885119E-02 
626	 1,87577438793749E-02 
627	 1,85160691428079E-02 
628	 1,83688377109901E-02 
629	 0,018109664669263 
630	 1,77326980243013E-02 
631	 1,79696407407851E-02 
632	 1,83921014962264E-02 
633	 1,81662620881013E-02 
634	 1,81682323023884E-02 
635	 1,84521028159132E-02 
636	 1,81325931645064E-02 
637	 1,78721028238876E-02 
638	 1,82369178514996E-02 
639	 1,88223194939051E-02 
640	 1,92303062414975E-02 
641	 1,85498935545091E-02 
642	 1,85083655663338E-02 
643	 0,019506038919132 
644	 1,92763180121835E-02 
645	 1,85896048143868E-02 
646	 1,87106418159443E-02 
647	 1,88334851663722E-02 
648	 1,88279988836857E-02 
649	 1,89715359619551E-02 
650	 1,88710401104971E-02 
651	 1,83390205348272E-02 
652	 1,82697221970092E-02 
653	 1,83635050159045E-02 
654	 1,77384165337096E-02 
655	 1,69789755150792E-02 
656	 0,016406242771625 
657	 1,65308304299989E-02 
658	 1,67350302161049E-02 
659	 1,63682052208139E-02 
660	 1,61579435481969E-02 
661	 1,61403218546477E-02 
662	 1,59481206463557E-02 
663	 1,58219900817485E-02 
664	 1,58854982546066E-02 
665	 1,61129907733641E-02 
666	 0,016331616798081 
667	 1,62691139490254E-02 
668	 1,65343840216441E-02 
669	 1,71302948423828E-02 
670	 1,72605046001303E-02 
671	 1,76940172853652E-02 
672	 1,89442570180672E-02 
673	 1,93658036810354E-02 
674	 1,91282991272151E-02 
675	 1,92973348289315E-02 
676	 0,019733267819719 
677	 2,02898438082183E-02 
678	 2,01301166149011E-02 
679	 2,01815317589285E-02 
680	 2,15882041762172E-02 
681	 2,22426949679182E-02 
682	 2,20155116863715E-02 
683	 2,22058233135876E-02 
684	 0,022448744983474 
685	 2,25579125376928E-02 
686	 2,26605517940197E-02 
687	 0,022921550256509 
688	 2,35843591820349E-02 
689	 2,45345604133824E-02 
690	 0,025427708375901 
691	 2,49323998900885E-02 
692	 2,47954333019158E-02 
693	 2,65222024765886E-02 
694	 2,77846990624244E-02 
695	 0,028739071699428 
696	 3,09255436700668E-02 
697	 3,35021872540819E-02 
698	 3,61250178069284E-02 
699	 3,88279236554399E-02 
700	 0,041962321438749 
701	 4,59658403529917E-02 
702	 4,97157234995646E-02 
703	 5,34312229874165E-02 
704	 5,88000343957816E-02 
705	 6,46654335487764E-02 
706	 7,02866027746756E-02 
707	 7,61100282287083E-02 
708	 8,23854985035525E-02 
709	 8,94339961074462E-02 
710	 9,68481478742325E-02 
711	 0,104622400287475 
712	 0,11340777677765 
713	 0,122216755335179 
714	 0,130234900360817 
715	 0,139197936729486 
716	 0,149145092060887 
717	 0,159285699126655 
718	 0,169678703261111 
719	 0,180222990986665 
720	 0,190349502853187 
721	 0,200444441181797 
722	 0,211126032175669 
723	 0,222070310632643 
724	 0,232968733069483 
725	 0,24327574147826 
726	 0,25326895565652 
727	 0,263116062278664 
728	 0,272869019117743 
729	 0,28227987228484 
730	 0,290909090909091 
731	 0,299010973398737 
732	 0,306742968195974 
733	 0,314399999201632 
734	 0,321685129251755 
735	 0,328319187990918 
736	 0,334366382282724 
737	 0,340013439289335 
738	 0,345745664852444 
739	 0,35075070789271 
740	 0,354874606555179 
741	 0,359187466783864 
742	 0,363224096608304 
743	 0,36635623325659 
744	 0,369076820030884 
745	 0,371648114370123 
746	 0,374433871109253 
747	 0,377133669165526 
748	 0,379524531740533 
749	 0,381346874722733 
750	 0,382745154139701 
751	 0,383971721474875 
752	 0,385305732859133 
753	 0,386739240626696 
754	 0,38786805789024 
755	 0,388742462035434 
756	 0,38942433613631 
757	 0,39007883096494 
758	 0,390694611876933 
759	 0,391165569360222 
760	 0,391692296076309 
761	 0,392249185624255 
762	 0,392395878143624 
763	 0,392455178163252 
764	 0,392741709283606 
765	 0,392993205098417 
766	 0,393166622490928 
767	 0,393276950579618 
768	 0,393365160199697 
769	 0,393453848527759 
770	 0,393491801412233 
771	 0,393712180382099 
772	 0,394366599539534 
773	 0,394411494547352 
774	 0,393962662127408 
775	 0,394148819451641 
776	 0,394368880565803 
777	 0,39432107786701 
778	 0,394130324573451 
779	 0,394007198327189 
780	 0,394234330523207 
781	 0,394412426010008 
782	 0,394451422485907 
783	 0,394458259737845 
784	 0,394493146277365 
785	 0,394559912097816 
786	 0,394312428930948 
787	 0,393957944924792 
788	 0,393912944268389 
789	 0,394306694558929 
790	 0,394924320776944 
791	 0,394711048341982 
792	 0,394448927975147 
793	 0,394752324417166 
794	 0,394999983517839 
795	 0,394928591593049 
796	 0,394107790032953 
797	 0,393981726278228 
798	 0,394741779631787 
799	 0,394627358999586 
800	 0,394456929413618 
801	 0,395005604520435 
802	 0,394915695674609 
803	 0,394423449181668 
804	 0,39476889834203 
805	 0,395150756988379 
806	 0,395295985904143 
807	 0,395356052818175 
808	 0,395437154104486 
809	 0,395642814043953 
810	 0,395928159917232 
811	 0,396185044673478 
812	 0,396135090299559 
813	 0,396153174955596 
814	 0,396356920480856 
815	 0,396357474491418 
816	 0,396419302171876 
817	 0,396872135839725 
818	 0,396991304227387 
819	 0,396859693451747 
820	 0,397235479053146 
821	 0,397671567323259 
822	 0,397901015826304 
823	 0,397651595178494 
824	 0,397463065446567 
825	 0,398042102015291 
826	 0,398566537904236 
827	 0,398674510626099 
828	 0,397881033597993 
829	 0,397296789631551 
830	 0,397471345532123 
831	 0,397593354999348 
832	 0,397841817739251 
833	 0,398568043349867 
834	 0,398691495529303 
835	 0,398191469663306 
836	 0,397905424621397 
837	 0,39790176329589 
838	 0,398175798856938 
839	 0,398256428839027 
840	 0,398209436069692 
841	 0,398211716696748 
842	 0,398255900571898 
843	 0,398415287566377 
844	 0,399006986231218 
845	 0,399117196515675 
846	 0,398380355255549 
847	 0,398045695984379 
848	 0,398134132057492 
849	 0,398444644218813 
850	 0,399119074932441 
851	 0,399807231430873 
852	 0,399403418655024 
853	 0,398811063127154 
854	 0,39853230577951 
855	 0,398194506987774 
856	 0,398123311145654 
857	 0,398779063629081 
858	 0,398974902538428 
859	 0,398559186969664 
860	 0,39797610202074 
861	 0,39804525838285 
862	 0,398981878021046 
863	 0,398938928488449 
864	 0,398820577898544 
865	 0,400020832330304 
866	 0,400733052104165 
867	 0,40071285629444 
868	 0,400608541479788 
869	 0,400458930479029 
870	 0,400392225886871 
871	 0,400897806883948 
872	 0,401192326250891 
873	 0,400340666989089 
874	 0,399939045673535 
875	 0,400076095678004 
876	 0,39979407829025 
877	 0,400145316165003 
878	 0,401325836498652 
879	 0,401967795053579 
880	 0,401857941276871 
881	 0,400997399028586 
882	 0,401207173374223 
883	 0,402094989226883 
884	 0,401534673707068 
885	 0,401146052799324 
886	 0,401429526915372 
887	 0,401800022219469 
888	 0,402218739131024 
889	 0,402602480290512 
890	 0,401986072451385 
891	 0,401119770222248 
892	 0,40200001308695 
893	 0,402908424024797 
894	 0,403201754474964 
895	 0,402796804806873 
896	 0,402240266401889 
897	 0,402003949117022 
898	 0,402073380027714 
899	 0,402423580824511 
900	 0,403009517789406 
901	 0,403329837081419 
902	 0,403356799942128 
903	 0,403669974301739 
904	 0,403891689168057 
905	 0,403764472867298 
906	 0,403328884106642 
907	 0,402602402053611 
908	 0,401607373178768 
909	 0,401708513910693 
910	 0,402644206228323 
911	 0,402494332535582 
912	 0,40218005826311 
913	 0,402123314774305 
914	 0,402132724564219 
915	 0,402374264342128 
916	 0,402960846306388 
917	 0,402417515453678 
918	 0,401076629876298 
919	 0,400442551264437 
920	 0,400413367297445 
921	 0,400783972156252 
922	 0,400565936141522 
923	 0,40004546677397 
924	 0,399535195450771 
925	 0,399312799404959 
926	 0,399028895317408 
927	 0,3979940939615 
928	 0,396496754058833 
929	 0,39503325502639 
930	 0,394898849356639 
931	 0,395298996477496 
932	 0,395531759078514 
933	 0,394482580473436 
934	 0,393100184924533 
935	 0,39273253014318 
936	 0,392107751197947 
937	 0,39091954903119 
938	 0,38890136075966 
939	 0,388092630160769 
940	 0,388661052224096 
941	 0,387041990632173 
942	 0,384838281228851 
943	 0,383668784666814 
944	 0,383044964074296 
945	 0,382488141887159 
946	 0,381273950921799 
947	 0,379799505953573 
948	 0,37795120242209 
949	 0,374898234416808 
950	 0,372145334130006 
951	 0,370497241364385 
952	 0,368764569163688 
953	 0,367509219902333 
954	 0,36744242589865 
955	 0,366169584170425 
956	 0,363548349078191 
957	 0,360428207779745 
958	 0,358672107390741 
959	 0,358437764565638 
960	 0,356786562345976 
961	 0,35517152177354 
962	 0,354710538036513 
963	 0,354490348041829 
964	 0,354156481057933 
965	 0,353382484579692 
966	 0,353318201679459 
967	 0,353340909730444 
968	 0,350313403809983 
969	 0,349263377305638 
970	 0,351542592061278 
971	 0,351768843665929 
972	 0,350878549289387 
973	 0,350167449277817 
974	 0,350447461317019 
975	 0,351388245954698 
976	 0,352149784214491 
977	 0,351132200181097 
978	 0,348870885478386 
979	 0,348651287607721 
980	 0,349795872747788 
981	 0,351569007149218 
982	 0,351891319610544 
983	 0,351417862421863 
984	 0,351148530995176 
985	 0,352707451197289 
986	 0,354311774914574 
987	 0,351828203082616 
988	 0,351806233274353 
989	 0,354827616159508 
990	 0,35570681954386 
991	 0,356387266068243 
992	 0,357559710619164 
993	 0,357073538114874 
994	 0,35699837474461 
995	 0,359336480589771 
996	 0,359922525192401 
997	 0,359073118016025 
998	 0,358771892145149 
999	 0,361497707571807 
1000	 0,366140209106197 
1001	 0,366320463159682 
1002	 0,365454544530535 
1003	 0,365673032776849 
1004	 0,368464706366424 
1005	 0,370978578711529 
1006	 0,370403307916285 
1007	 0,368224716870868 
1008	 0,367403480901353 
1009	 0,372501796729951 
1010	 0,375468042846395 
1011	 0,37497465590134 
1012	 0,374760306304862 
1013	 0,374149215717769 
1014	 0,373585489799567 
1015	 0,375702504385004 
1016	 0,379280902174323 
1017	 0,38266781205053 
1018	 0,383559346169329 
1019	 0,382164457448826 
1020	 0,379494749778418 
1021	 0,379304385374181 
1022	 0,382751414747937 
1023	 0,390842768591209 
1024	 0,392735864902847 
1025	 0,387462175316605 
1026	 0,389929242109218 
1027	 0,393188696541826 
1028	 0,392820735302259 
1029	 0,393363753865852 
1030	 0,394744868758803 
1031	 0,396183550800405 
1032	 0,396155381673988 
1033	 0,39327757327272 
1034	 0,385331213493038 
1035	 0,385944199754882 
1036	 0,395339052489337 
1037	 0,40067246253735 
1038	 0,401410434730752 
1039	 0,398399977193121 
1040	 0,399831989027986 
1041	 0,400089576492248 
1042	 0,395549108448841 
1043	 0,399199605930894 
1044	 0,407080660921514 
1045	 0,411832918225492 
1046	 0,40923505925189 
1047	 0,402954748907182 
1048	 0,403765623713416 
1049	 0,408398924799063 
1050	 0,41344131575247 
1051	 0,408837020077351 
1052	 0,407987573072111 
1053	 0,415644414831647 
1054	 0,418504337549448 
1055	 0,417442028710903 
1056	 0,414504115852498 
1057	 0,413099881092413 
1058	 0,414675925146391 
1059	 0,420057882083483 
1060	 0,427432077056094 
1061	 0,429211930368937 
1062	 0,410013537916336 
1063	 0,406937569071473 
1064	 0,422962481692343 
1065	 0,42213516116988 
1066	 0,421405975395431 
1067	 0,424652133689614 
1068	 0,410846869706806 
1069	 0,406828742995675 
1070	 0,427781873465497 
1071	 0,421983442771037 
1072	 0,405072595924498 
1073	 0,402399347247397 
1074	 0,410928310355668 
1075	 0,423116684287795 
