Wavelength	GRA-VIE00563.asd
325	 0,289877499911403 
326	 0,346520522129535 
327	 0,298674166074777 
328	 0,176752384851687 
329	 0,201397322260911 
330	 0,268166058931907 
331	 0,268283730588325 
332	 0,254192879813552 
333	 0,239660903070807 
334	 0,265798626735771 
335	 0,3195946424775 
336	 0,352627031665865 
337	 0,288220227644708 
338	 0,198980450584114 
339	 0,137804794515557 
340	 0,126760542748871 
341	 0,159825003729898 
342	 0,209480553596859 
343	 0,21809462064688 
344	 0,186616109858578 
345	 0,167608941648697 
346	 0,168600283692828 
347	 0,195133496752641 
348	 0,156324559290107 
349	 8,95853242053483E-02 
350	 0,142274077194779 
351	 0,170436150337157 
352	 0,141003498156684 
353	 0,137146666520095 
354	 0,141938829023761 
355	 0,127369602591609 
356	 0,129911792685758 
357	 0,145113438622725 
358	 0,13690692555458 
359	 0,143185378590078 
360	 0,172467506880353 
361	 0,139782912741982 
362	 0,104766705439907 
363	 0,156294218844211 
364	 0,178624713332638 
365	 0,157342896819512 
366	 0,142425554890368 
367	 0,142369443424652 
368	 0,158486886644523 
369	 0,154200808695847 
370	 0,139248806499303 
371	 0,136632657430022 
372	 0,149043451685324 
373	 0,16806158720309 
374	 0,152507765872046 
375	 0,134350273117486 
376	 0,13685325174656 
377	 0,124815390702936 
378	 0,114417422639546 
379	 0,155286170252681 
380	 0,166976851603069 
381	 0,140536970151721 
382	 0,145591658983108 
383	 0,159938843322323 
384	 0,158344128941299 
385	 0,156922367929898 
386	 0,153221627163106 
387	 0,130867654601661 
388	 0,121138996628473 
389	 0,134835763869088 
390	 0,152004609661861 
391	 0,162578865510462 
392	 0,156832047694753 
393	 0,147971246780835 
394	 0,141207130199104 
395	 0,142718794942822 
396	 0,142270641055543 
397	 0,135852149631821 
398	 0,136058530999517 
399	 0,136398853189525 
400	 0,124795580871882 
401	 0,121228000007126 
402	 0,127230639487594 
403	 0,127420428791212 
404	 0,128401557688463 
405	 0,134126242538268 
406	 0,136318719328465 
407	 0,135554494470222 
408	 0,135362536777395 
409	 0,134766964400484 
410	 0,132971235406636 
411	 0,126029903264886 
412	 0,123484358018145 
413	 0,133039192203708 
414	 0,131979911491768 
415	 0,123193854878732 
416	 0,125488118521856 
417	 0,127493426729263 
418	 0,125567378965501 
419	 0,125554114727236 
420	 0,127095152827307 
421	 0,129134084400543 
422	 0,130272278940384 
423	 0,130203977198931 
424	 0,130000338659802 
425	 0,126860337287645 
426	 0,120366662959256 
427	 0,121677845802083 
428	 0,12782976470379 
429	 0,131335173775715 
430	 0,133925752883151 
431	 0,135048510034352 
432	 0,13181574589125 
433	 0,127931886242195 
434	 0,126908509255404 
435	 0,130730354319837 
436	 0,136256255304963 
437	 0,13501001093371 
438	 0,133457363874842 
439	 0,134076482648718 
440	 0,135103762713451 
441	 0,135469895777218 
442	 0,134071767317944 
443	 0,133629948541653 
444	 0,134755484614288 
445	 0,136935631603888 
446	 0,139180131266816 
447	 0,140653615558271 
448	 0,139903979945366 
449	 0,138705117768695 
450	 0,140814617830609 
451	 0,141069578893659 
452	 0,139117470213394 
453	 0,141036087381589 
454	 0,143270196396483 
455	 0,142304712614514 
456	 0,139241415500258 
457	 0,136384244509495 
458	 0,138760379078743 
459	 0,143036457895811 
460	 0,146886627934531 
461	 0,146080141418498 
462	 0,143820376822843 
463	 0,144930912813405 
464	 0,144023427572246 
465	 0,142043592810849 
466	 0,14728200287135 
467	 0,15056717705219 
468	 0,146533664005029 
469	 0,145200900654883 
470	 0,145712506147531 
471	 0,142752501615491 
472	 0,144989397207924 
473	 0,152051161447513 
474	 0,148511978855668 
475	 0,14377437877966 
476	 0,147521880828495 
477	 0,149573342238629 
478	 0,14896381317856 
479	 0,14888469048225 
480	 0,148373869739778 
481	 0,147234364627367 
482	 0,146489966285552 
483	 0,146448070002164 
484	 0,147310602120753 
485	 0,149868936399569 
486	 0,152751644772564 
487	 0,150201279329721 
488	 0,148149460698394 
489	 0,150776099388963 
490	 0,151627492830597 
491	 0,150614388527492 
492	 0,149693093881985 
493	 0,150179242038101 
494	 0,151989156112089 
495	 0,151534392668631 
496	 0,150108984492588 
497	 0,149469193939334 
498	 0,149426840166892 
499	 0,149836811694445 
500	 0,150248675154433 
501	 0,150719538286129 
502	 0,151224367323318 
503	 0,151256410694123 
504	 0,151632885576553 
505	 0,153990887133288 
506	 0,155255519947131 
507	 0,154841645626208 
508	 0,154553716800399 
509	 0,15507730928507 
510	 0,156851414483801 
511	 0,158046010945778 
512	 0,158595478305028 
513	 0,159377712745486 
514	 0,160045817992136 
515	 0,160470472139342 
516	 0,160690476175357 
517	 0,160886449063472 
518	 0,161284078519673 
519	 0,161852846596092 
520	 0,16253879392012 
521	 0,163172871231181 
522	 0,163879242006719 
523	 0,164661239915301 
524	 0,164433270850853 
525	 0,163982353463467 
526	 0,165646491365649 
527	 0,166260009813064 
528	 0,165016549389156 
529	 0,163875290292557 
530	 0,163505315240561 
531	 0,164434275029683 
532	 0,164767355247917 
533	 0,164507132021263 
534	 0,165190395718718 
535	 0,166003468573186 
536	 0,166511791598808 
537	 0,16749145865508 
538	 0,168128907826491 
539	 0,166608240835379 
540	 0,166588932936239 
541	 0,168531160076971 
542	 0,168767741985716 
543	 0,168323289477092 
544	 0,168390543355116 
545	 0,168867512333757 
546	 0,169771861774076 
547	 0,171275070709594 
548	 0,172165887880038 
549	 0,171971695819425 
550	 0,172194869335891 
551	 0,17250726295468 
552	 0,172089827497844 
553	 0,172164167226006 
554	 0,172759884476959 
555	 0,172547553459731 
556	 0,172103062470655 
557	 0,171970905524661 
558	 0,172494440844167 
559	 0,173193788553822 
560	 0,172728157824898 
561	 0,172214093198812 
562	 0,172088877966983 
563	 0,172031746438722 
564	 0,171975395182291 
565	 0,171853481879708 
566	 0,172412166575307 
567	 0,173502311356083 
568	 0,173953889397764 
569	 0,1741948218116 
570	 0,174582878338773 
571	 0,175463913862461 
572	 0,176714698665966 
573	 0,177931204989442 
574	 0,179242623249671 
575	 0,180644531498387 
576	 0,182099557881791 
577	 0,183075691849182 
578	 0,183056262250832 
579	 0,184588753523411 
580	 0,187290522286107 
581	 0,188128740948523 
582	 0,188563384091185 
583	 0,189410563255617 
584	 0,19022826086705 
585	 0,191156536970579 
586	 0,192563237351931 
587	 0,193412743589088 
588	 0,193547533365304 
589	 0,193775605891271 
590	 0,194338512237129 
591	 0,195382847983433 
592	 0,196108763914479 
593	 0,196501730514419 
594	 0,19703539615616 
595	 0,197412126138128 
596	 0,197585483277147 
597	 0,19815055266959 
598	 0,198815199915055 
599	 0,199070468600384 
600	 0,198977062887654 
601	 0,198668817168786 
602	 0,198638342169683 
603	 0,198484595238507 
604	 0,197909930714706 
605	 0,19737123431328 
606	 0,196929432812086 
607	 0,196529851393865 
608	 0,196059975028881 
609	 0,195520205544897 
610	 0,195218177990685 
611	 0,194888623985419 
612	 0,19418059812937 
613	 0,19404479280271 
614	 0,194424547189068 
615	 0,194282800993373 
616	 0,194339470997021 
617	 0,194883879460894 
618	 0,194162186426916 
619	 0,193004170459294 
620	 0,1935316001401 
621	 0,194036692057495 
622	 0,194001823500548 
623	 0,193757172580197 
624	 0,193654768778619 
625	 0,194033604214319 
626	 0,194678525725849 
627	 0,195343693708098 
628	 0,195521769723399 
629	 0,195598746184677 
630	 0,195791728672575 
631	 0,19611324865622 
632	 0,196427597160217 
633	 0,196465292222669 
634	 0,197161455098414 
635	 0,198526742259692 
636	 0,199419159325378 
637	 0,200143410754315 
638	 0,20096107788039 
639	 0,201412883610608 
640	 0,201673069922391 
641	 0,202287143138384 
642	 0,203319919779788 
643	 0,204613835578477 
644	 0,205044397821709 
645	 0,205135804815906 
646	 0,205708846607291 
647	 0,205866161476737 
648	 0,205486508633454 
649	 0,20494037024104 
650	 0,204329100579511 
651	 0,203702422711477 
652	 0,20272953934783 
653	 0,201724962226973 
654	 0,201474218128763 
655	 0,200716160426657 
656	 0,199136082411126 
657	 0,197514360573358 
658	 0,195869390459571 
659	 0,194178382362254 
660	 0,192498433195054 
661	 0,19086660477466 
662	 0,189374772452721 
663	 0,187666801034914 
664	 0,185664447902703 
665	 0,184114421452216 
666	 0,183034149166868 
667	 0,18229115636335 
668	 0,181698689239994 
669	 0,181157859419031 
670	 0,180597367662822 
671	 0,180245668803493 
672	 0,180230046954872 
673	 0,179727121596294 
674	 0,179089229724489 
675	 0,179481748278056 
676	 0,180190300957945 
677	 0,180755071711901 
678	 0,180181769000276 
679	 0,179675059141747 
680	 0,180730401638801 
681	 0,18189257545208 
682	 0,182860554891506 
683	 0,18381127750936 
684	 0,185041134981508 
685	 0,186694963280682 
686	 0,188242497161999 
687	 0,190122341783254 
688	 0,193162358508558 
689	 0,197026556989144 
690	 0,201362984044896 
691	 0,2051449142127 
692	 0,209316976242426 
693	 0,214710504274434 
694	 0,220226277404088 
695	 0,225800260093767 
696	 0,231870126375208 
697	 0,238132381670654 
698	 0,244526976369935 
699	 0,251614768392166 
700	 0,258725671542289 
701	 0,264951104685654 
702	 0,271229856953542 
703	 0,277635088727881 
704	 0,283616253047036 
705	 0,289441112968034 
706	 0,295228293600543 
707	 0,300617818343084 
708	 0,305430555319817 
709	 0,309374444394547 
710	 0,313457237680166 
711	 0,317759734978389 
712	 0,320981983377866 
713	 0,323830418168449 
714	 0,326999222833448 
715	 0,329926145967932 
716	 0,332554748038636 
717	 0,335008052061627 
718	 0,337281773827502 
719	 0,339370590838993 
720	 0,341161942205748 
721	 0,342822067739278 
722	 0,344578268443117 
723	 0,346359875625879 
724	 0,348037708374896 
725	 0,349270026450727 
726	 0,350382107820756 
727	 0,351563115571318 
728	 0,35253887930239 
729	 0,353477281556814 
730	 0,354757351834804 
731	 0,355730742286333 
732	 0,356265982576953 
733	 0,356717923087074 
734	 0,357262319584116 
735	 0,358020233449226 
736	 0,358626759292317 
737	 0,359144008584044 
738	 0,359929911579264 
739	 0,360566118791871 
740	 0,360956972147098 
741	 0,361541379301227 
742	 0,362125237481115 
743	 0,36245292440785 
744	 0,362997877445024 
745	 0,363744484502506 
746	 0,364309980207993 
747	 0,364808058335046 
748	 0,365304514049061 
749	 0,365855134389342 
750	 0,366419455150398 
751	 0,366928392303981 
752	 0,367290913508743 
753	 0,367532393348715 
754	 0,367824921741143 
755	 0,368209373946723 
756	 0,368712857309901 
757	 0,369335772578658 
758	 0,369864218411705 
759	 0,369852941011859 
760	 0,370062556453214 
761	 0,370634886224297 
762	 0,370916302034412 
763	 0,371141689231323 
764	 0,371555528045766 
765	 0,371999957187638 
766	 0,372418477927698 
767	 0,372753370807427 
768	 0,373009822711199 
769	 0,373255804237408 
770	 0,373868870276181 
771	 0,374449843289876 
772	 0,374511875304068 
773	 0,374769069216412 
774	 0,375298769411095 
775	 0,375831609140329 
776	 0,376253601507092 
777	 0,376483011450564 
778	 0,376491870280015 
779	 0,376519028859232 
780	 0,376903570866265 
781	 0,377251507659948 
782	 0,377489693773842 
783	 0,377744327573424 
784	 0,378140339727261 
785	 0,378668406435396 
786	 0,378485756915711 
787	 0,378109672139703 
788	 0,378655211787398 
789	 0,379245889766094 
790	 0,379681862031222 
791	 0,380333277537977 
792	 0,380828961647404 
793	 0,380902624465545 
794	 0,381112056088322 
795	 0,381372865159714 
796	 0,381241834074929 
797	 0,381500625072711 
798	 0,382209020639519 
799	 0,382300818719357 
800	 0,382277610756664 
801	 0,382642629292106 
802	 0,382933560479498 
803	 0,383232041559814 
804	 0,384023335303286 
805	 0,384459686494466 
806	 0,384376134867409 
807	 0,384742166657187 
808	 0,385335422181515 
809	 0,385835085009983 
810	 0,386143668038797 
811	 0,386376573113284 
812	 0,386931612621214 
813	 0,387526138518718 
814	 0,38797820712389 
815	 0,38801585523917 
816	 0,387964567287585 
817	 0,388241004395972 
818	 0,389031121914217 
819	 0,389990442162556 
820	 0,389970197704473 
821	 0,390004096906708 
822	 0,390500762628106 
823	 0,390626416254434 
824	 0,390724878933351 
825	 0,391323745668294 
826	 0,392134108156173 
827	 0,392799141416843 
828	 0,392421889267355 
829	 0,392224188376875 
830	 0,392784332240157 
831	 0,393218574749749 
832	 0,393526748832997 
833	 0,393840546934878 
834	 0,39427844139879 
835	 0,394703765785995 
836	 0,394540012895918 
837	 0,39451871757802 
838	 0,394975306985004 
839	 0,39517866689771 
840	 0,395327165506367 
841	 0,395810198195991 
842	 0,395865172100896 
843	 0,395675033384317 
844	 0,396557529637087 
845	 0,39710199380693 
846	 0,396688321504645 
847	 0,39684218325679 
848	 0,397347815585378 
849	 0,3976538206016 
850	 0,398112336900907 
851	 0,398714427254277 
852	 0,39929136909236 
853	 0,399345875039912 
854	 0,39881550994509 
855	 0,399269595538055 
856	 0,400082256452484 
857	 0,400162751444579 
858	 0,400563293439408 
859	 0,401209266728231 
860	 0,401050367861364 
861	 0,400885553918939 
862	 0,401152265182111 
863	 0,401717618691516 
864	 0,402366615588852 
865	 0,40283315089318 
866	 0,40320614952145 
867	 0,403545213682488 
868	 0,403966539343224 
869	 0,404481594600149 
870	 0,405018956213873 
871	 0,405096900700579 
872	 0,40522573546411 
873	 0,406027170340252 
874	 0,406207495541236 
875	 0,40589586731175 
876	 0,406278183569731 
877	 0,406800632771636 
878	 0,407224072613969 
879	 0,407521227039038 
880	 0,407797453433277 
881	 0,408193599933328 
882	 0,40918414327052 
883	 0,410242691965934 
884	 0,409719405884686 
885	 0,409362398178963 
886	 0,409788081361218 
887	 0,410491843514378 
888	 0,411287269631481 
889	 0,411984648503789 
890	 0,412294732142701 
891	 0,412383746020283 
892	 0,41271728218214 
893	 0,41324499846688 
894	 0,413744195133257 
895	 0,413257380184233 
896	 0,412863561545212 
897	 0,413390843496525 
898	 0,413913785354037 
899	 0,414560344812391 
900	 0,415845009360353 
901	 0,416494805710558 
902	 0,416471051510399 
903	 0,417178292200181 
904	 0,417707108882379 
905	 0,417624869481404 
906	 0,418181854849719 
907	 0,418986042256218 
908	 0,419275027587851 
909	 0,419693286502632 
910	 0,420165063765268 
911	 0,420056957903966 
912	 0,419520562507891 
913	 0,418856523806087 
914	 0,419088192412013 
915	 0,420250392801086 
916	 0,422129563116794 
917	 0,42243997663119 
918	 0,421527564132049 
919	 0,421438457814756 
920	 0,422103252679096 
921	 0,423190434124582 
922	 0,422902332203202 
923	 0,422601242422444 
924	 0,423365646293876 
925	 0,423520207382704 
926	 0,423124045322176 
927	 0,422739236407285 
928	 0,422788511127652 
929	 0,423393461878756 
930	 0,424562571095727 
931	 0,424917520963624 
932	 0,423775082886409 
933	 0,422408550820664 
934	 0,421868862968529 
935	 0,423181482072764 
936	 0,423889951934367 
937	 0,423335003981047 
938	 0,421069890160425 
939	 0,421021591136971 
940	 0,423789191326032 
941	 0,423709797214824 
942	 0,422715857163191 
943	 0,422809985909952 
944	 0,423378281604621 
945	 0,423709888597291 
946	 0,422662494037929 
947	 0,421246488734874 
948	 0,420024097823358 
949	 0,419870035273058 
950	 0,419328021843718 
951	 0,417797354291441 
952	 0,417183651325332 
953	 0,417244346703638 
954	 0,417394552136687 
955	 0,416686105732179 
956	 0,415378957459985 
957	 0,41450132412248 
958	 0,415246397470931 
959	 0,41724448157397 
960	 0,416640364127885 
961	 0,415910294826243 
962	 0,416800192387887 
963	 0,416386425851323 
964	 0,415440059923597 
965	 0,415707374464311 
966	 0,417042272335673 
967	 0,418120937647718 
968	 0,414694530304163 
969	 0,413223028625841 
970	 0,415830246684507 
971	 0,417411636552511 
972	 0,417936430974961 
973	 0,417783011234178 
974	 0,418419810423056 
975	 0,419215475688438 
976	 0,418579986262111 
977	 0,417599652885724 
978	 0,416961460339852 
979	 0,417732533723059 
980	 0,419091557441615 
981	 0,420507580722533 
982	 0,422051493398332 
983	 0,421918894044566 
984	 0,418858538191462 
985	 0,420252516263851 
986	 0,423813315434186 
987	 0,42242023231575 
988	 0,420632118189375 
989	 0,420416697076732 
990	 0,424085215809599 
991	 0,426988923221436 
992	 0,426820219942063 
993	 0,426090578892465 
994	 0,426532876070838 
995	 0,429450456451438 
996	 0,431523651150119 
997	 0,431865884298481 
998	 0,429989461948153 
999	 0,431096033301538 
1000	 0,435107111545146 
1001	 0,436207054231022 
1002	 0,435319961417 
1003	 0,433642917507726 
1004	 0,435018190757387 
1005	 0,438327649302275 
1006	 0,441707182024632 
1007	 0,440929455753167 
1008	 0,437845693447641 
1009	 0,437008778638263 
1010	 0,439120696622347 
1011	 0,442962994218864 
1012	 0,443833952031308 
1013	 0,444198270175458 
1014	 0,444562008147417 
1015	 0,441641472688611 
1016	 0,440435882570316 
1017	 0,444677845360971 
1018	 0,447361373164901 
1019	 0,448131800902686 
1020	 0,448088166209694 
1021	 0,450370836810706 
1022	 0,454263308110262 
1023	 0,455884009669233 
1024	 0,454376069030031 
1025	 0,451342727881174 
1026	 0,455202397504579 
1027	 0,459885549654962 
1028	 0,460811349744617 
1029	 0,457021062300167 
1030	 0,45570883557788 
1031	 0,464187752260914 
1032	 0,463331670010632 
1033	 0,456323925884277 
1034	 0,457423146299184 
1035	 0,458325678031202 
1036	 0,457649927392908 
1037	 0,458152481585187 
1038	 0,459197785785635 
1039	 0,460444486910377 
1040	 0,461674157423029 
1041	 0,463376398833113 
1042	 0,465801938834501 
1043	 0,467901974443197 
1044	 0,468972866361277 
1045	 0,468373862795569 
1046	 0,461107508102742 
1047	 0,455133882049839 
1048	 0,470902895822359 
1049	 0,478176765495013 
1050	 0,471116528437342 
1051	 0,467591948579182 
1052	 0,467050626712883 
1053	 0,469164252615164 
1054	 0,471519833476604 
1055	 0,474010500459912 
1056	 0,476934886167234 
1057	 0,483364918256293 
1058	 0,489066206656215 
1059	 0,487633707710061 
1060	 0,482361719053025 
1061	 0,475409039821531 
1062	 0,468461421664077 
1063	 0,471427899544088 
1064	 0,481984164565186 
1065	 0,478740439546926 
1066	 0,476922274505357 
1067	 0,481151586589713 
1068	 0,478566245383989 
1069	 0,474263472467959 
1070	 0,473384539902556 
1071	 0,478512828523592 
1072	 0,485170616947889 
1073	 0,487962452891111 
1074	 0,489677671258471 
1075	 0,489142953602913 
