Wavelength	GRA-VIE00986.asd
325	 0,133731232206774 
326	 0,239059945126514 
327	 0,26053404488127 
328	 0,178355770102994 
329	 0,319434016457463 
330	 0,41345096823294 
331	 0,214074353597153 
332	 0,121077992284472 
333	 0,104088301614044 
334	 0,11228314442568 
335	 0,163513098528335 
336	 0,221094726994748 
337	 0,235743312490546 
338	 0,246914234418442 
339	 0,276736150076003 
340	 0,262701176112136 
341	 0,216674679040384 
342	 0,211095441536356 
343	 0,205815596082726 
344	 0,188941534060433 
345	 0,1573318103209 
346	 0,13435911895942 
347	 0,148915583257828 
348	 0,126054059329245 
349	 8,13000328983441E-02 
350	 0,099360790477863 
351	 9,76574920248796E-02 
352	 6,01453855365113E-02 
353	 7,06490288163235E-02 
354	 0,105331635169788 
355	 0,128659013085918 
356	 0,116298867941069 
357	 0,078408617233143 
358	 0,055157564191884 
359	 0,055676854553832 
360	 8,06814473676109E-02 
361	 9,49303416458151E-02 
362	 9,97242770640743E-02 
363	 0,105619630815867 
364	 9,65672669307481E-02 
365	 7,69217079451538E-02 
366	 7,40341588486329E-02 
367	 7,54717873006219E-02 
368	 0,072494471875957 
369	 6,23363487108451E-02 
370	 5,40026510879148E-02 
371	 6,19978650621119E-02 
372	 8,40437207836142E-02 
373	 0,108495942910717 
374	 9,13094868628707E-02 
375	 0,069094809957197 
376	 6,88923441681462E-02 
377	 0,05788000720789 
378	 4,49032644466178E-02 
379	 5,88982899174867E-02 
380	 7,78626405113149E-02 
381	 9,01767432691941E-02 
382	 7,62679053837165E-02 
383	 5,21138895921776E-02 
384	 3,67246486145551E-02 
385	 5,38065027461498E-02 
386	 8,17275145089022E-02 
387	 5,86176303422654E-02 
388	 0,053841319510062 
389	 8,45825146583857E-02 
390	 8,32099504070059E-02 
391	 6,83371868353867E-02 
392	 0,067835575907136 
393	 0,056497460661183 
394	 3,98534232136859E-02 
395	 4,98848070138333E-02 
396	 6,89151888348382E-02 
397	 8,38471713809891E-02 
398	 6,07340596293296E-02 
399	 2,98112356736947E-02 
400	 3,79066562543066E-02 
401	 4,83752652291883E-02 
402	 5,06787603232076E-02 
403	 4,32128736620953E-02 
404	 4,13073154614427E-02 
405	 5,32496183792967E-02 
406	 5,11130198201377E-02 
407	 0,041542574784385 
408	 4,68805961418669E-02 
409	 0,046652794606731 
410	 3,89491499795365E-02 
411	 4,19461473368927E-02 
412	 4,89500727976869E-02 
413	 5,23808758047903E-02 
414	 4,06086771461399E-02 
415	 2,43309086538615E-02 
416	 3,74615464538628E-02 
417	 4,49376109497248E-02 
418	 3,64798149187756E-02 
419	 4,01520731889908E-02 
420	 4,74664359148401E-02 
421	 0,044974005467491 
422	 3,85991247067129E-02 
423	 3,26161347827082E-02 
424	 3,57912951233862E-02 
425	 0,037497504435691 
426	 3,22804285767249E-02 
427	 3,24925344445036E-02 
428	 3,61845398101963E-02 
429	 3,71904389143739E-02 
430	 3,81303236997087E-02 
431	 3,85439978321948E-02 
432	 3,37783272206834E-02 
433	 2,94206807461197E-02 
434	 3,04178338037735E-02 
435	 3,39970022151773E-02 
436	 3,75162868113021E-02 
437	 3,60055201384113E-02 
438	 3,41504235621787E-02 
439	 3,41389750531635E-02 
440	 3,63300480534177E-02 
441	 3,88414010708121E-02 
442	 0,039447093949716 
443	 3,62191493156905E-02 
444	 3,13727773136917E-02 
445	 3,35706368885888E-02 
446	 3,71938555251689E-02 
447	 3,84405181303771E-02 
448	 3,65535086762609E-02 
449	 3,37992033302604E-02 
450	 3,45658920509775E-02 
451	 3,55023187996291E-02 
452	 3,55877914510932E-02 
453	 3,51064304886892E-02 
454	 3,49717129810143E-02 
455	 0,035868253221432 
456	 3,47206956875284E-02 
457	 3,24547450069096E-02 
458	 3,29721709945575E-02 
459	 3,39896074595879E-02 
460	 3,45179289385711E-02 
461	 3,46293967629074E-02 
462	 3,49566349054196E-02 
463	 3,63554203680986E-02 
464	 3,59754592924455E-02 
465	 3,42322912535426E-02 
466	 3,51674484534442E-02 
467	 3,61988378778173E-02 
468	 3,57200503347376E-02 
469	 3,59190794735806E-02 
470	 3,57327737115395E-02 
471	 3,21379884451214E-02 
472	 3,11655033373317E-02 
473	 3,35980280911077E-02 
474	 0,032757554600084 
475	 3,15938315788955E-02 
476	 0,03318620115586 
477	 3,31338191723225E-02 
478	 3,14132600638291E-02 
479	 3,03125923186767E-02 
480	 2,97971975962054E-02 
481	 2,98449646114463E-02 
482	 0,029627482810797 
483	 3,00737002502912E-02 
484	 3,27470333732959E-02 
485	 3,37189633489041E-02 
486	 3,26084942646272E-02 
487	 3,22860836312922E-02 
488	 3,22668196703287E-02 
489	 3,22544323654278E-02 
490	 3,38943686584932E-02 
491	 3,51898436917715E-02 
492	 3,06281436068311E-02 
493	 2,81932378421761E-02 
494	 3,01073789787591E-02 
495	 3,14289484643957E-02 
496	 3,17673118878352E-02 
497	 3,11535576502873E-02 
498	 3,02156975916013E-02 
499	 2,93811028999809E-02 
500	 2,91164073757511E-02 
501	 2,95395250860101E-02 
502	 3,05410226414208E-02 
503	 3,06814730093079E-02 
504	 3,05091770046492E-02 
505	 3,14004753943399E-02 
506	 3,17186593274318E-02 
507	 3,08609063033226E-02 
508	 2,81986462168945E-02 
509	 2,68037292293109E-02 
510	 2,91930913362077E-02 
511	 2,99147789985483E-02 
512	 2,89901071236524E-02 
513	 2,92476626322495E-02 
514	 3,01149231546497E-02 
515	 3,11696179652517E-02 
516	 0,03100713722208 
517	 3,05700450626174E-02 
518	 3,13600366200246E-02 
519	 3,16375999763105E-02 
520	 3,12393081842253E-02 
521	 3,11620080378405E-02 
522	 3,15854912989317E-02 
523	 3,24595778093812E-02 
524	 3,18274554726958E-02 
525	 3,05234618846411E-02 
526	 3,12044947486797E-02 
527	 3,14801176774275E-02 
528	 3,06828618845858E-02 
529	 0,029710095458437 
530	 2,94844670362051E-02 
531	 3,09164231092234E-02 
532	 3,19388085538811E-02 
533	 3,20064131296171E-02 
534	 3,10350837135355E-02 
535	 3,05948402801755E-02 
536	 3,15248452037695E-02 
537	 3,24050494427906E-02 
538	 3,26519951818497E-02 
539	 3,15296690021779E-02 
540	 3,09098524778962E-02 
541	 3,13797160649064E-02 
542	 0,032457029073378 
543	 3,33299592520037E-02 
544	 3,32727857427856E-02 
545	 3,32272446050155E-02 
546	 3,35072094620358E-02 
547	 3,44107477142309E-02 
548	 0,03519500062145 
549	 3,55519862681732E-02 
550	 3,62434268360905E-02 
551	 3,69800745889205E-02 
552	 3,71815143903809E-02 
553	 3,75443323451225E-02 
554	 3,80583732025222E-02 
555	 3,77110567077008E-02 
556	 3,78534947114431E-02 
557	 3,95274721007826E-02 
558	 4,10051614722269E-02 
559	 4,19240051777198E-02 
560	 4,23555905297234E-02 
561	 4,22485980142954E-02 
562	 4,18833982360403E-02 
563	 4,27893899087205E-02 
564	 4,41819153870978E-02 
565	 4,48593732206952E-02 
566	 4,48941596630775E-02 
567	 4,46204516200663E-02 
568	 4,52916158997964E-02 
569	 4,56487261600707E-02 
570	 4,49174303579874E-02 
571	 4,46737861577335E-02 
572	 4,48819533997397E-02 
573	 4,49699487685372E-02 
574	 4,46018433609511E-02 
575	 4,38158713744249E-02 
576	 4,38143356799879E-02 
577	 4,34012150983181E-02 
578	 4,12268115305142E-02 
579	 4,10333016053914E-02 
580	 4,26185183090503E-02 
581	 4,27397943311198E-02 
582	 4,16873839185869E-02 
583	 3,98591369224658E-02 
584	 3,93006706854103E-02 
585	 3,96871533713735E-02 
586	 0,039911410291103 
587	 4,02274575324244E-02 
588	 4,05199050552673E-02 
589	 4,02658876286017E-02 
590	 3,98279068066339E-02 
591	 3,95733020929282E-02 
592	 3,93833460365058E-02 
593	 3,94055276934258E-02 
594	 0,040108058939456 
595	 4,06875870973688E-02 
596	 4,08143060497758E-02 
597	 4,12467772600074E-02 
598	 4,15119578205942E-02 
599	 4,07726786967285E-02 
600	 4,06561550016363E-02 
601	 4,12602817833014E-02 
602	 4,11515977642491E-02 
603	 4,04183138109513E-02 
604	 3,92573587341434E-02 
605	 3,90181855095356E-02 
606	 3,89752716671084E-02 
607	 0,036552051726415 
608	 3,50071296283197E-02 
609	 3,53117447071095E-02 
610	 0,035170261276405 
611	 0,034713894336047 
612	 3,43530878831864E-02 
613	 3,39110320887851E-02 
614	 3,32670703270893E-02 
615	 3,19429973116627E-02 
616	 3,14644537454175E-02 
617	 3,25701219638883E-02 
618	 3,25004653855974E-02 
619	 3,15928826985056E-02 
620	 3,13043646209707E-02 
621	 3,13501974061039E-02 
622	 3,15781400096951E-02 
623	 3,15814705771269E-02 
624	 3,11781124673188E-02 
625	 3,02758933824158E-02 
626	 3,05227750173199E-02 
627	 3,15471086007971E-02 
628	 3,12657493109405E-02 
629	 3,05591742264195E-02 
630	 2,99426874424288E-02 
631	 2,96813355200939E-02 
632	 2,99171825488697E-02 
633	 3,08439203662984E-02 
634	 3,10334586012726E-02 
635	 3,03962233994275E-02 
636	 3,05279093480754E-02 
637	 3,08540390710313E-02 
638	 3,08756601373447E-02 
639	 3,12184880972929E-02 
640	 3,16968184256385E-02 
641	 3,14853763881522E-02 
642	 3,18105863375348E-02 
643	 3,28728316523428E-02 
644	 3,26584200486507E-02 
645	 3,21278792786794E-02 
646	 3,27596843867163E-02 
647	 3,28408881772674E-02 
648	 3,22326694223459E-02 
649	 3,19904799103746E-02 
650	 3,18159485777384E-02 
651	 3,14581967965633E-02 
652	 3,04583200398722E-02 
653	 2,93588351011242E-02 
654	 2,93802624114195E-02 
655	 2,93700671495082E-02 
656	 2,89861174275988E-02 
657	 2,85515498662143E-02 
658	 2,83320826577288E-02 
659	 2,85558414462152E-02 
660	 0,028464536831142 
661	 2,80358867376282E-02 
662	 2,77041107190939E-02 
663	 2,74319892982443E-02 
664	 2,72437485982924E-02 
665	 2,72980960003555E-02 
666	 2,74779665400805E-02 
667	 2,75723656668797E-02 
668	 2,78264108301992E-02 
669	 0,028210008773009 
670	 2,82662717797436E-02 
671	 0,028673316682424 
672	 2,98613831666632E-02 
673	 3,01537327573711E-02 
674	 2,97871264423835E-02 
675	 3,00569546559315E-02 
676	 3,03015303132704E-02 
677	 3,03310407137158E-02 
678	 3,02670629624163E-02 
679	 3,04780882575461E-02 
680	 3,13670638853013E-02 
681	 3,17128184824361E-02 
682	 3,14609288621588E-02 
683	 3,14182989728942E-02 
684	 3,15588371231585E-02 
685	 3,18589890641932E-02 
686	 3,21025093325245E-02 
687	 3,23448998478114E-02 
688	 3,27004121283027E-02 
689	 0,03358084476372 
690	 3,48337683554802E-02 
691	 3,51821406393576E-02 
692	 3,56220144642265E-02 
693	 3,70898556483442E-02 
694	 3,91312785909513E-02 
695	 4,16164858154829E-02 
696	 4,43587927749332E-02 
697	 4,77156490275798E-02 
698	 5,18778877528086E-02 
699	 5,68746919859164E-02 
700	 6,27036992899864E-02 
701	 6,93414279804244E-02 
702	 0,07642052705511 
703	 8,40844262437607E-02 
704	 9,31646422443558E-02 
705	 0,102913988180229 
706	 0,112831673062764 
707	 0,123092902458261 
708	 0,134000487533391 
709	 0,146029822340191 
710	 0,158650902790511 
711	 0,171616013358053 
712	 0,184716611464682 
713	 0,198019741193784 
714	 0,211623389976127 
715	 0,225271432170401 
716	 0,238909162431245 
717	 0,252518498267903 
718	 0,266482907665395 
719	 0,280791647581676 
720	 0,294222663103535 
721	 0,30712738716243 
722	 0,320194184948556 
723	 0,333020118443946 
724	 0,345359459648798 
725	 0,356904175608153 
726	 0,367876383702945 
727	 0,378408281804463 
728	 0,388454011975141 
729	 0,398083256180214 
730	 0,407459501374933 
731	 0,415833773050302 
732	 0,423136042541162 
733	 0,430100828048839 
734	 0,436845103719156 
735	 0,443387372008671 
736	 0,448969140231723 
737	 0,453807438497941 
738	 0,458807897593107 
739	 0,463297064995262 
740	 0,467090221751477 
741	 0,470610552669367 
742	 0,473827241291824 
743	 0,476664032101098 
744	 0,479162956672218 
745	 0,481487422913721 
746	 0,484062249680103 
747	 0,486450641435546 
748	 0,488386722657511 
749	 0,489838915452964 
750	 0,49103267137379 
751	 0,492296964733526 
752	 0,493663433840623 
753	 0,494993307096506 
754	 0,495726145797282 
755	 0,496209411683577 
756	 0,49672598948609 
757	 0,497322805497596 
758	 0,49788956668248 
759	 0,49814304138915 
760	 0,498603176201143 
761	 0,499284770751733 
762	 0,499435006549815 
763	 0,499339768328137 
764	 0,499332738898824 
765	 0,499786328407385 
766	 0,500420319710487 
767	 0,500315478646074 
768	 0,500122729572546 
769	 0,500138539646181 
770	 0,50046321341327 
771	 0,500831627701759 
772	 0,500920452564112 
773	 0,500698798697256 
774	 0,500357954845638 
775	 0,500468368425732 
776	 0,50067595283545 
777	 0,500783868290435 
778	 0,500758201482643 
779	 0,500820390977788 
780	 0,501303175485108 
781	 0,501510874574739 
782	 0,501365155915979 
783	 0,501279541172283 
784	 0,501393198974258 
785	 0,50175797525767 
786	 0,502000682445864 
787	 0,501968044932763 
788	 0,501471789963231 
789	 0,501319178133477 
790	 0,501684143886761 
791	 0,502133415776987 
792	 0,502365473138457 
793	 0,502172260376964 
794	 0,501978977710468 
795	 0,501853984543042 
796	 0,501726005573861 
797	 0,501907937898955 
798	 0,502346821319174 
799	 0,502251936631837 
800	 0,502174986202837 
801	 0,502621808078221 
802	 0,502711565479416 
803	 0,502467785888269 
804	 0,502332592255764 
805	 0,502421984294008 
806	 0,50275542217723 
807	 0,503050413981616 
808	 0,503253751180406 
809	 0,50333711056786 
810	 0,503340438113577 
811	 0,503385392153493 
812	 0,503812145103934 
813	 0,50398625215871 
814	 0,503727680615328 
815	 0,50373185673452 
816	 0,503934665540332 
817	 0,504181744942837 
818	 0,504451092842919 
819	 0,504736969870974 
820	 0,505128347643436 
821	 0,505215952024103 
822	 0,504942174249864 
823	 0,505386413731544 
824	 0,505706871523289 
825	 0,50472586687455 
826	 0,504725640969818 
827	 0,505515857588656 
828	 0,504654985114776 
829	 0,503854872275307 
830	 0,503956976487887 
831	 0,504200237230588 
832	 0,504346826371846 
833	 0,504189350983633 
834	 0,504324096496406 
835	 0,504644566261429 
836	 0,50429728585053 
837	 0,503936985700865 
838	 0,503902322783811 
839	 0,503794703476625 
840	 0,50384943211348 
841	 0,50444194636975 
842	 0,504536412765751 
843	 0,504159559759334 
844	 0,504379973191805 
845	 0,504467019122558 
846	 0,504100149626294 
847	 0,503989601518457 
848	 0,504024309139998 
849	 0,503931196265282 
850	 0,504307131588276 
851	 0,505002133922807 
852	 0,505117565229911 
853	 0,504901483631065 
854	 0,504571460878789 
855	 0,504676678335318 
856	 0,504799073483298 
857	 0,504289136047071 
858	 0,50455299863623 
859	 0,505488756859952 
860	 0,505710126010163 
861	 0,505412081378844 
862	 0,504873458665072 
863	 0,505241331602033 
864	 0,5060570182015 
865	 0,506544141019871 
866	 0,506311781152215 
867	 0,505712291236769 
868	 0,506159253971663 
869	 0,506534976545791 
870	 0,506413738805143 
871	 0,506699569753274 
872	 0,507019512929798 
873	 0,50683892117937 
874	 0,506260629605879 
875	 0,505669546119428 
876	 0,506078636260546 
877	 0,506389395715989 
878	 0,506227709108424 
879	 0,50649123407029 
880	 0,506442696782089 
881	 0,505346769529114 
882	 0,505639706124486 
883	 0,506851270634697 
884	 0,50648108862516 
885	 0,505651319144368 
886	 0,505071892720013 
887	 0,506341504710122 
888	 0,507463981947579 
889	 0,506596340948979 
890	 0,505988981322765 
891	 0,506052362730031 
892	 0,506820075292105 
893	 0,50698478069111 
894	 0,506335948496681 
895	 0,506154081342225 
896	 0,506235149770915 
897	 0,506335745243798 
898	 0,505913613451415 
899	 0,505626115214388 
900	 0,506794379408288 
901	 0,507584223098637 
902	 0,507612723628094 
903	 0,507643825852076 
904	 0,507816922334211 
905	 0,508062020874239 
906	 0,507042902459547 
907	 0,505949657251781 
908	 0,506643028206703 
909	 0,507130388263878 
910	 0,50695815188784 
911	 0,506315137597493 
912	 0,505971347319707 
913	 0,506188743430594 
914	 0,505942708607596 
915	 0,505634617511664 
916	 0,505789329243421 
917	 0,506094672113557 
918	 0,506124800351222 
919	 0,504968113958168 
920	 0,503844687889791 
921	 0,503403238696526 
922	 0,504350412885351 
923	 0,50487716482044 
924	 0,503649261864428 
925	 0,503377962384407 
926	 0,503595951590947 
927	 0,502678648830868 
928	 0,501670883314351 
929	 0,50098079445953 
930	 0,5010173920774 
931	 0,500804226537491 
932	 0,49981180760291 
933	 0,498605678736438 
934	 0,498079086577779 
935	 0,499165836089248 
936	 0,498572378212621 
937	 0,49650191560975 
938	 0,495669397378821 
939	 0,495430478513865 
940	 0,495275958504147 
941	 0,493558494978952 
942	 0,492086045092113 
943	 0,492297120129423 
944	 0,490843018022915 
945	 0,4886264665568 
946	 0,488344356094487 
947	 0,488211103305736 
948	 0,487372912647401 
949	 0,484766009178678 
950	 0,481870506046384 
951	 0,479753032933966 
952	 0,478964194529797 
953	 0,478569715474935 
954	 0,477356514348063 
955	 0,475344536675212 
956	 0,472962580312349 
957	 0,471065148322924 
958	 0,470937433426525 
959	 0,472089058258286 
960	 0,470055854934338 
961	 0,467829296532377 
962	 0,467685574610829 
963	 0,467729287428611 
964	 0,466928119624579 
965	 0,46417487675064 
966	 0,463911671091807 
967	 0,465678081629767 
968	 0,464437063169135 
969	 0,463008285537615 
970	 0,462693028635461 
971	 0,463623494365141 
972	 0,464645831784183 
973	 0,464738588917014 
974	 0,465045250377615 
975	 0,465850141894503 
976	 0,467420697955432 
977	 0,465968924224907 
978	 0,462389961371308 
979	 0,463573426397218 
980	 0,464605725356061 
981	 0,463641985170238 
982	 0,465166735866235 
983	 0,467038171749608 
984	 0,466842155593524 
985	 0,466534750706613 
986	 0,466299385120526 
987	 0,465743094327719 
988	 0,466304198002738 
989	 0,468200093165009 
990	 0,470742157908557 
991	 0,472351731671542 
992	 0,47226125017243 
993	 0,47154152311652 
994	 0,471453521010543 
995	 0,473011440456825 
996	 0,473778623914179 
997	 0,4739543698546 
998	 0,47479548345418 
999	 0,476654179006633 
1000	 0,478813352750486 
1001	 0,478169892030492 
1002	 0,479324197822236 
1003	 0,483460976333567 
1004	 0,482973230941637 
1005	 0,482226876464034 
1006	 0,485381714960799 
1007	 0,483808106214907 
1008	 0,480165831395842 
1009	 0,481532783411115 
1010	 0,484281727297517 
1011	 0,487192782143737 
1012	 0,490196960002557 
1013	 0,489353818044392 
1014	 0,484924980328422 
1015	 0,487917205906292 
1016	 0,491290744172179 
1017	 0,489158528545285 
1018	 0,489430568144787 
1019	 0,49216449815966 
1020	 0,495665017998417 
1021	 0,496563622258898 
1022	 0,496685571970951 
1023	 0,504456409131604 
1024	 0,506238562557077 
1025	 0,500532153065688 
1026	 0,503224390045019 
1027	 0,507241610862303 
1028	 0,507397910189263 
1029	 0,503595135219893 
1030	 0,501435778925399 
1031	 0,506827097544962 
1032	 0,508412942628215 
1033	 0,506546931719763 
1034	 0,506606048872849 
1035	 0,50652655262132 
1036	 0,506346378500448 
1037	 0,507875494471097 
1038	 0,508179758460504 
1039	 0,506911052171069 
1040	 0,510002962407201 
1041	 0,512609828040854 
1042	 0,510888477835578 
1043	 0,510566219319661 
1044	 0,511369020193933 
1045	 0,511815983909795 
1046	 0,509297953819335 
1047	 0,507690796188865 
1048	 0,51776275642855 
1049	 0,517627868914362 
1050	 0,506462168133448 
1051	 0,509467134222116 
1052	 0,516058094248779 
1053	 0,52044525274706 
1054	 0,521774979512114 
1055	 0,521567799967617 
1056	 0,521993729961342 
1057	 0,529020236970145 
1058	 0,534151632799356 
1059	 0,52524928473727 
1060	 0,525764624376818 
1061	 0,53091037232283 
1062	 0,518129075988413 
1063	 0,520187650951694 
1064	 0,536073076457179 
1065	 0,52252448536403 
1066	 0,516314983842621 
1067	 0,52767832404281 
1068	 0,52044202999354 
1069	 0,510800789596655 
1070	 0,513002039465673 
1071	 0,524932600415472 
1072	 0,530847925388916 
1073	 0,514739088487101 
1074	 0,509690503547059 
1075	 0,516887356973313 
