Wavelength	GRA-VIE-00084.asd
325	 0,348044308278687 
326	 0,186667410065353 
327	 0,16088273908113 
328	 0,275055876212698 
329	 0,291814633287354 
330	 0,29866515769072 
331	 0,341708237850597 
332	 0,306051862079609 
333	 0,22826896520649 
334	 0,244086707471582 
335	 0,242059653201746 
336	 0,198098987719197 
337	 0,129442532861863 
338	 8,00797761505031E-02 
339	 0,088032691393036 
340	 0,110328701166339 
341	 0,133387991031212 
342	 0,158735239169516 
343	 0,163458429069866 
344	 0,143946348782835 
345	 0,153183543846804 
346	 0,148548179605651 
347	 9,49663527421586E-02 
348	 0,101334206520962 
349	 0,146409464478775 
350	 0,118532987928426 
351	 9,79573045101753E-02 
352	 9,87757751476729E-02 
353	 4,97750192590518E-02 
354	 2,91228616494831E-02 
355	 0,125526422209532 
356	 0,139910992402743 
357	 8,75831028641379E-02 
358	 9,73222095819378E-02 
359	 0,115020498246584 
360	 0,11196905177202 
361	 8,56040401747716E-02 
362	 6,05547764961789E-02 
363	 6,96803991705166E-02 
364	 8,23563353894587E-02 
365	 8,73822174317607E-02 
366	 7,57073473375219E-02 
367	 7,34738162176067E-02 
368	 9,20726261487222E-02 
369	 9,57619352379931E-02 
370	 9,22795210013326E-02 
371	 0,103027887789798 
372	 0,101366973902395 
373	 8,59769426950502E-02 
374	 0,083674665274748 
375	 0,078886003600273 
376	 6,34258051835641E-02 
377	 8,94624881788348E-02 
378	 0,131803404731143 
379	 0,133564669034604 
380	 0,124427360874781 
381	 0,11554648599846 
382	 0,117685109961581 
383	 0,117809615577176 
384	 0,104261388374031 
385	 0,109359087750688 
386	 0,12841373880436 
387	 0,13848923620457 
388	 0,131023750746751 
389	 0,108325258302076 
390	 0,10538943286566 
391	 0,115181354302171 
392	 0,124925619988149 
393	 0,134676102794355 
394	 0,139981741249144 
395	 0,128540866759252 
396	 0,121934355147978 
397	 0,130242228552534 
398	 0,13304889520409 
399	 0,131533843493696 
400	 0,130987312072898 
401	 0,125841668584236 
402	 0,118767544579086 
403	 0,124096371936922 
404	 0,128436834562523 
405	 0,123595859466975 
406	 0,12459457024866 
407	 0,128158929786858 
408	 0,123495874249367 
409	 0,121444258457879 
410	 0,123434094038875 
411	 0,119395534385088 
412	 0,11817812681901 
413	 0,127293908285905 
414	 0,129723315374693 
415	 0,125354292838809 
416	 0,121234757349318 
417	 0,122815114594997 
418	 0,13036826696472 
419	 0,130237792765741 
420	 0,126415637709131 
421	 0,125450547440633 
422	 0,12524349938544 
423	 0,124973983861537 
424	 0,123539554696347 
425	 0,120230751162717 
426	 0,11559972417906 
427	 0,118410102188101 
428	 0,124804392215202 
429	 0,126099154490902 
430	 0,126388864251028 
431	 0,12616060071888 
432	 0,122373071222147 
433	 0,120333445568723 
434	 0,124332010684124 
435	 0,124754164600521 
436	 0,122146701266635 
437	 0,122049717430064 
438	 0,124159446600337 
439	 0,12742121368108 
440	 0,125936932014349 
441	 0,121927136261988 
442	 0,11876575371915 
443	 0,120015665118345 
444	 0,124577536866413 
445	 0,125846105564689 
446	 0,125301872930274 
447	 0,124285161137572 
448	 0,126326040949033 
449	 0,129527237633256 
450	 0,129561461524461 
451	 0,128433235666766 
452	 0,127031617680166 
453	 0,126205281110871 
454	 0,126630136407722 
455	 0,128703552563872 
456	 0,129614821662525 
457	 0,128885484230256 
458	 0,126530874987372 
459	 0,126052354964824 
460	 0,128351995672738 
461	 0,128224291123795 
462	 0,127267879556495 
463	 0,128247474134517 
464	 0,129774550641847 
465	 0,131275207040733 
466	 0,132609773073529 
467	 0,131055535853607 
468	 0,125777417145332 
469	 0,125983552078234 
470	 0,12978764363728 
471	 0,130843708859364 
472	 0,131379532406814 
473	 0,131891257177424 
474	 0,132609989199337 
475	 0,13183934241932 
476	 0,128142570966437 
477	 0,127326739680461 
478	 0,128740586236255 
479	 0,126716924852283 
480	 0,126442985930881 
481	 0,129450327226708 
482	 0,128582865439204 
483	 0,126880843467256 
484	 0,130012363411891 
485	 0,129554340036007 
486	 0,125419334491812 
487	 0,125987347476499 
488	 0,12791985141174 
489	 0,128628577743967 
490	 0,129922452567214 
491	 0,130883939835363 
492	 0,128987989684068 
493	 0,126436973180123 
494	 0,124665957130985 
495	 0,126263328329732 
496	 0,12857848980494 
497	 0,128476359523913 
498	 0,127568778433811 
499	 0,126443041903928 
500	 0,125458479574421 
501	 0,125829288443372 
502	 0,127934191245348 
503	 0,128931268856934 
504	 0,129161213814193 
505	 0,130016571338764 
506	 0,12986923183654 
507	 0,128680947833876 
508	 0,128198280094812 
509	 0,128385203973945 
510	 0,129093290222405 
511	 0,129907757596069 
512	 0,130445212533907 
513	 0,130149705920436 
514	 0,129144752495641 
515	 0,127976760688502 
516	 0,129522501031492 
517	 0,131610067387148 
518	 0,130878934072236 
519	 0,130232354627721 
520	 0,130240672280796 
521	 0,130050416355929 
522	 0,130128655953783 
523	 0,130652293574213 
524	 0,12959839090319 
525	 0,127978728564867 
526	 0,128791175535457 
527	 0,129521064668688 
528	 0,129356737586895 
529	 0,129030906028932 
530	 0,12839686197655 
531	 0,127258558498182 
532	 0,127544728086694 
533	 0,128842323092376 
534	 0,128451197396491 
535	 0,1278804453338 
536	 0,12798889589166 
537	 0,127998155254689 
538	 0,12812856531595 
539	 0,129018765649595 
540	 0,12945325771741 
541	 0,129168685611311 
542	 0,128968158323049 
543	 0,12871844810917 
544	 0,128292148928867 
545	 0,128660925053807 
546	 0,129519073507612 
547	 0,129519526016659 
548	 0,129241744445871 
549	 0,129056751688453 
550	 0,129687795610289 
551	 0,130044569802567 
552	 0,128260739675895 
553	 0,127482118688568 
554	 0,128339428035277 
555	 0,129379131907365 
556	 0,130071607527503 
557	 0,130065415968016 
558	 0,130575818856173 
559	 0,131181845181126 
560	 0,130201303314173 
561	 0,129364516783611 
562	 0,129390469176346 
563	 0,12990395995939 
564	 0,130375006092923 
565	 0,130169715241915 
566	 0,129855928574714 
567	 0,129728555194127 
568	 0,130209449605881 
569	 0,130851059172427 
570	 0,131334321360594 
571	 0,131838436255232 
572	 0,132474756584941 
573	 0,133496224327067 
574	 0,134174600158068 
575	 0,134389720483687 
576	 0,134989632216134 
577	 0,135919280140922 
578	 0,137026742598482 
579	 0,137698783615998 
580	 0,137977688122311 
581	 0,138502161574275 
582	 0,139053702502206 
583	 0,139502442927463 
584	 0,139721825594938 
585	 0,140086605796825 
586	 0,14133280684512 
587	 0,141924140228912 
588	 0,141735036415742 
589	 0,142628595681721 
590	 0,143177441556716 
591	 0,142110083100345 
592	 0,142024872845246 
593	 0,142863545248611 
594	 0,143098087609925 
595	 0,142779758236803 
596	 0,142004568301861 
597	 0,141576597577993 
598	 0,141416183893543 
599	 0,141248511402359 
600	 0,141112681636056 
601	 0,140943656179979 
602	 0,140433462633624 
603	 0,140296723814694 
604	 0,140963113531687 
605	 0,140457164797702 
606	 0,139266555103303 
607	 0,13944303928846 
608	 0,139557644042628 
609	 0,139122997179469 
610	 0,138463267824436 
611	 0,138008592649562 
612	 0,138241978091803 
613	 0,138009244202053 
614	 0,137305457996219 
615	 0,137151677722767 
616	 0,136936035819687 
617	 0,136397390868551 
618	 0,136893714552884 
619	 0,137793878108591 
620	 0,137533054574096 
621	 0,137003818706411 
622	 0,136650768814475 
623	 0,137108337939121 
624	 0,137784616554189 
625	 0,13803694167783 
626	 0,138202564436917 
627	 0,138348607220559 
628	 0,138468963814159 
629	 0,138646017554249 
630	 0,138926915251566 
631	 0,139223650353649 
632	 0,139683253053253 
633	 0,140541516872188 
634	 0,141698758006337 
635	 0,142896460195985 
636	 0,143343092970433 
637	 0,143578877090626 
638	 0,144089872101472 
639	 0,144683012598389 
640	 0,14532322477978 
641	 0,146014685790325 
642	 0,14660868269849 
643	 0,147055549670782 
644	 0,147478510685717 
645	 0,14801851452658 
646	 0,148844701742102 
647	 0,148828127462151 
648	 0,148153417234588 
649	 0,148520148823415 
650	 0,148887471572044 
651	 0,148566888576817 
652	 0,148054118179416 
653	 0,147531457547002 
654	 0,147196750936829 
655	 0,146976072049667 
656	 0,146731854825706 
657	 0,146019245703894 
658	 0,144935369383361 
659	 0,14364031188105 
660	 0,142706259811406 
661	 0,142088682045892 
662	 0,141264571556503 
663	 0,140259455095601 
664	 0,139152888719201 
665	 0,138463916468435 
666	 0,138005134155666 
667	 0,137367923145933 
668	 0,137098381352791 
669	 0,137140922057666 
670	 0,136718409009301 
671	 0,136159397409502 
672	 0,135759897915497 
673	 0,135514058507499 
674	 0,135498961132459 
675	 0,13592678081201 
676	 0,13623149672355 
677	 0,136222247983084 
678	 0,136242155495511 
679	 0,136314959980795 
680	 0,136435473973543 
681	 0,136896800279529 
682	 0,137607973644283 
683	 0,137976139578215 
684	 0,138726994421906 
685	 0,140215386832197 
686	 0,141490008735969 
687	 0,142928783829286 
688	 0,145425564959104 
689	 0,148073347288913 
690	 0,150772418679215 
691	 0,154251698960324 
692	 0,15843160593885 
693	 0,163226755130292 
694	 0,16886494034689 
695	 0,17542505654016 
696	 0,183034682093254 
697	 0,19124422480607 
698	 0,199850361066533 
699	 0,209106533678375 
700	 0,218872475023317 
701	 0,228919491349751 
702	 0,239283078634885 
703	 0,249778597352203 
704	 0,259912462132614 
705	 0,269746869831256 
706	 0,279343423816276 
707	 0,288974632550545 
708	 0,298424564142542 
709	 0,307260208294295 
710	 0,315510822855961 
711	 0,32319470937138 
712	 0,330344051434838 
713	 0,337504154522615 
714	 0,345080366262527 
715	 0,351639839610017 
716	 0,357152241807872 
717	 0,362220676091549 
718	 0,367362430059211 
719	 0,372673263416114 
720	 0,377109354724021 
721	 0,381023454236953 
722	 0,384978880518155 
723	 0,388700809571851 
724	 0,392115572194299 
725	 0,395136197095675 
726	 0,3980374594356 
727	 0,400945664973002 
728	 0,403363592217566 
729	 0,405476056970638 
730	 0,407741671208149 
731	 0,409718799563352 
732	 0,411405536779937 
733	 0,41340430278557 
734	 0,415131015738087 
735	 0,416129962745029 
736	 0,417502266639216 
737	 0,419126691913265 
738	 0,420172566808122 
739	 0,421185821947609 
740	 0,422343900168406 
741	 0,423479914763282 
742	 0,424476808793221 
743	 0,425216477171142 
744	 0,425663563675612 
745	 0,426015848067957 
746	 0,426839790791327 
747	 0,427753341090866 
748	 0,428517812758906 
749	 0,429033260768298 
750	 0,429368918748625 
751	 0,429641804476421 
752	 0,43023782876837 
753	 0,431147402386638 
754	 0,431942511479323 
755	 0,432345249331557 
756	 0,43223209844445 
757	 0,432390833977896 
758	 0,432903454735592 
759	 0,433708809407581 
760	 0,434033278791398 
761	 0,433816313633199 
762	 0,434171751063441 
763	 0,434653915036009 
764	 0,434810465672096 
765	 0,43514339385142 
766	 0,435538941094878 
767	 0,435431497481739 
768	 0,435490988920045 
769	 0,435931747875242 
770	 0,436338905065464 
771	 0,436498679221116 
772	 0,436225467961506 
773	 0,436337949999445 
774	 0,436904104359592 
775	 0,437534691330974 
776	 0,43796719706737 
777	 0,438049353624876 
778	 0,437903673708816 
779	 0,437828485534452 
780	 0,438213751919197 
781	 0,438760612669615 
782	 0,439234244064147 
783	 0,439137228903172 
784	 0,439075232058235 
785	 0,439418025802229 
786	 0,439626719206042 
787	 0,439738272466304 
788	 0,43996172955195 
789	 0,440067560321965 
790	 0,440034312021985 
791	 0,440031622615727 
792	 0,440156538945655 
793	 0,440489472476318 
794	 0,441086889401767 
795	 0,44170079934028 
796	 0,44180301811068 
797	 0,441940799395485 
798	 0,442184494004624 
799	 0,441911143146846 
800	 0,441678577736831 
801	 0,44201059658214 
802	 0,442353231960821 
803	 0,442598559096226 
804	 0,442767051024281 
805	 0,44285127373129 
806	 0,442942137035798 
807	 0,443485723691606 
808	 0,44411722631303 
809	 0,444416789836526 
810	 0,444542727139406 
811	 0,444652537298863 
812	 0,445116036143346 
813	 0,445426935317981 
814	 0,445447329011705 
815	 0,445732782928156 
816	 0,446172292847677 
817	 0,446569771082286 
818	 0,446692995418181 
819	 0,446659489644667 
820	 0,446970953402553 
821	 0,447404669481204 
822	 0,447857066967395 
823	 0,448393715375046 
824	 0,448824436011113 
825	 0,448915191489657 
826	 0,448871614722649 
827	 0,448850059005332 
828	 0,449078463634419 
829	 0,449627181529563 
830	 0,450407060950951 
831	 0,45062486304026 
832	 0,450596221741311 
833	 0,450871368569641 
834	 0,451208078216797 
835	 0,451453713896605 
836	 0,451215900801717 
837	 0,451329462067184 
838	 0,452101093890912 
839	 0,452233956976086 
840	 0,452011417446202 
841	 0,452041176232149 
842	 0,452209270611736 
843	 0,452421605165557 
844	 0,452323765010062 
845	 0,4526845289181 
846	 0,453705777137757 
847	 0,453653163033802 
848	 0,453170606807075 
849	 0,453428947905443 
850	 0,454004113770871 
851	 0,454633134402607 
852	 0,454907109792051 
853	 0,45448928747587 
854	 0,453528873185503 
855	 0,454332280140515 
856	 0,455616398882276 
857	 0,455297239112267 
858	 0,455197024391266 
859	 0,455575512279027 
860	 0,455855471815303 
861	 0,455894624687811 
862	 0,455695980542049 
863	 0,45590167453315 
864	 0,456214812444765 
865	 0,456165782326612 
866	 0,456114540243918 
867	 0,456221143281743 
868	 0,456746210938788 
869	 0,457031486275601 
870	 0,456874325327505 
871	 0,457171294637797 
872	 0,457668128237287 
873	 0,4579657029269 
874	 0,458298964857612 
875	 0,458689020164974 
876	 0,459133922777249 
877	 0,459247694931273 
878	 0,458952920807134 
879	 0,458788925793589 
880	 0,45892579061187 
881	 0,459458875657034 
882	 0,459743308010332 
883	 0,459877935871324 
884	 0,460551035213774 
885	 0,461009150184889 
886	 0,461047274923575 
887	 0,461154376882579 
888	 0,461293929421345 
889	 0,461383816384654 
890	 0,461054521368698 
891	 0,460758886997254 
892	 0,461690530036036 
893	 0,461913121125957 
894	 0,461218485427087 
895	 0,46179966933953 
896	 0,46219005252131 
897	 0,461400521371806 
898	 0,461895165720478 
899	 0,46312045736676 
900	 0,463446394210706 
901	 0,463321356180124 
902	 0,463064706776017 
903	 0,463509740288917 
904	 0,46371678919622 
905	 0,463278965630604 
906	 0,463889253836309 
907	 0,464696788802518 
908	 0,464233714683634 
909	 0,464345768274314 
910	 0,46493195017456 
911	 0,46415913864515 
912	 0,463693925624546 
913	 0,464168914965329 
914	 0,464363180263765 
915	 0,46392174529368 
916	 0,462687682853404 
917	 0,462727798651534 
918	 0,463841227493927 
919	 0,464432663189411 
920	 0,464804012050938 
921	 0,464862982526063 
922	 0,463986254619976 
923	 0,463343815036913 
924	 0,46385250877329 
925	 0,464385721963899 
926	 0,464445650426711 
927	 0,463486283069323 
928	 0,463003576473058 
929	 0,463146360693425 
930	 0,462703675841626 
931	 0,462048436001223 
932	 0,461565354131048 
933	 0,462280873184314 
934	 0,463145160435545 
935	 0,462713072997648 
936	 0,461700235918814 
937	 0,460812535092872 
938	 0,461593657136379 
939	 0,462099758132911 
940	 0,461441147162624 
941	 0,459355016111411 
942	 0,457717177728346 
943	 0,458020189156486 
944	 0,457401676861224 
945	 0,456586587237702 
946	 0,457889420647756 
947	 0,457497194400178 
948	 0,455167105849671 
949	 0,454187720189397 
950	 0,453805782528514 
951	 0,453583228965404 
952	 0,453781611736228 
953	 0,452875555083832 
954	 0,449260741754262 
955	 0,44744486547112 
956	 0,447619666152035 
957	 0,447829549234474 
958	 0,446146989304789 
959	 0,443129354645649 
960	 0,445163252837267 
961	 0,446985243364266 
962	 0,444719799573762 
963	 0,442640558344641 
964	 0,441920882568096 
965	 0,44333547532071 
966	 0,44371089138997 
967	 0,442575984262417 
968	 0,4409401160182 
969	 0,441615094949475 
970	 0,444751963956358 
971	 0,443948187688752 
972	 0,442106483698364 
973	 0,442169949520377 
974	 0,441628595703315 
975	 0,441257088491275 
976	 0,443067231937052 
977	 0,444295960187354 
978	 0,444208995626504 
979	 0,443182331833758 
980	 0,44279490573253 
981	 0,443571106970159 
982	 0,443151452735689 
983	 0,442768013139752 
984	 0,443755499466808 
985	 0,444666888670612 
986	 0,445072476577691 
987	 0,444614521481896 
988	 0,445588000990119 
989	 0,447933591020355 
990	 0,449169092723821 
991	 0,448211150326147 
992	 0,445481217113729 
993	 0,44726708756976 
994	 0,448813893747536 
995	 0,445361789128991 
996	 0,447062689198377 
997	 0,451092658182536 
998	 0,448330607443467 
999	 0,448230031064314 
1000	 0,451903083607315 
1001	 0,45341062397379 
1002	 0,454408968523226 
1003	 0,455432651374323 
1004	 0,455132882566949 
1005	 0,454420225995715 
1006	 0,454311329755154 
1007	 0,454962340523646 
1008	 0,455542048025079 
1009	 0,454509332088573 
1010	 0,454658236758677 
1011	 0,456097428622927 
1012	 0,456312096692839 
1013	 0,458210962415102 
1014	 0,461509777180648 
1015	 0,45782629268217 
1016	 0,455378975202302 
1017	 0,460556594804436 
1018	 0,462640981237901 
1019	 0,461888380761011 
1020	 0,461101056295718 
1021	 0,462655678646917 
1022	 0,465845289660932 
1023	 0,46690162531451 
1024	 0,467292937893488 
1025	 0,467032155841594 
1026	 0,464114194226081 
1027	 0,462197567609552 
1028	 0,463795937419995 
1029	 0,467777952342163 
1030	 0,471379968441837 
1031	 0,471654450003166 
1032	 0,471227632372192 
1033	 0,47039213629615 
1034	 0,468597678166087 
1035	 0,467649771811513 
1036	 0,468640085896962 
1037	 0,473841423004533 
1038	 0,474429251448552 
1039	 0,468631442071189 
1040	 0,471658059304196 
1041	 0,476361625329775 
1042	 0,476746969881756 
1043	 0,480231866973194 
1044	 0,48025126584688 
1045	 0,467935436840911 
1046	 0,466221436878445 
1047	 0,475877121876621 
1048	 0,486129159766182 
1049	 0,483398600756085 
1050	 0,470221854879644 
1051	 0,473352771294736 
1052	 0,476122943026196 
1053	 0,471872422397565 
1054	 0,473511927126315 
1055	 0,472045453525228 
1056	 0,462242893113174 
1057	 0,475725048473571 
1058	 0,49163325930299 
1059	 0,477587695278054 
1060	 0,475187021009713 
1061	 0,486680798516558 
1062	 0,497076090336487 
1063	 0,49785705588177 
1064	 0,487079272032962 
1065	 0,470055874750257 
1066	 0,463923787580566 
1067	 0,474249372457739 
1068	 0,485223540993283 
1069	 0,486210635811121 
1070	 0,47221446372217 
1071	 0,463543973460761 
1072	 0,468397100596984 
1073	 0,489133437913265 
1074	 0,486269090178551 
1075	 0,473664450514584 
