Wavelength	GRA-VIE00143.asd
325	 9,66770226690135E-02 
326	 0,095547072028379 
327	 0,021810351998669 
328	-4,60789385295437E-02 
329	 2,90701482985724E-02 
330	 0,142935115452521 
331	 0,14384692949626 
332	 0,056003658477746 
333	-8,32090520861434E-02 
334	-2,99111136992901E-04 
335	 7,79840786147922E-02 
336	 8,65278494542601E-02 
337	 0,171527245471835 
338	 0,233456867854427 
339	 0,200309257766786 
340	 0,125367489266457 
341	 0,056066019950057 
342	 0,121615717505219 
343	 0,182587153969469 
344	 0,192031197533502 
345	 0,141851527638406 
346	 8,62195885808256E-02 
347	 9,03327852426318E-02 
348	 0,100448613749966 
349	 0,100304701330033 
350	 7,85071096812257E-02 
351	 6,26023805824836E-02 
352	 6,10926337236602E-02 
353	 8,44325581504913E-02 
354	 0,107446427366049 
355	 0,104648981969566 
356	 0,110523168888344 
357	 0,11902751771548 
358	 8,90419430729309E-02 
359	 7,28563968668407E-02 
360	 9,16136658888431E-02 
361	 0,109304876713181 
362	 0,110767498450882 
363	 8,40798331646172E-02 
364	 7,00239323812502E-02 
365	 7,42899515983336E-02 
366	 7,61874448260522E-02 
367	 8,59561246082554E-02 
368	 0,104987755678938 
369	 9,44435171044404E-02 
370	 7,16256192646371E-02 
371	 7,29876478593616E-02 
372	 6,86753252245049E-02 
373	 5,92365869381093E-02 
374	 8,55561854828896E-02 
375	 9,93644628133625E-02 
376	 6,79855659896304E-02 
377	 0,060531879122941 
378	 0,078784715095352 
379	 0,100497805524205 
380	 0,102662941439244 
381	 8,56190624562831E-02 
382	 8,57666353810264E-02 
383	 8,83835677738067E-02 
384	 7,84916706345035E-02 
385	 0,088818150042708 
386	 0,105144958493833 
387	 7,64399683934735E-02 
388	 7,16380995717725E-02 
389	 0,107754363818283 
390	 0,116469064650129 
391	 0,10417645487078 
392	 8,51735185682238E-02 
393	 8,05087198412197E-02 
394	 8,91946674079479E-02 
395	 8,99868862260559E-02 
396	 0,092991734831573 
397	 0,10042634198272 
398	 9,13314876858786E-02 
399	 7,26692997555661E-02 
400	 5,51899490100602E-02 
401	 6,32038260702254E-02 
402	 8,88793070444309E-02 
403	 0,078978353653493 
404	 7,24989934242371E-02 
405	 9,36558976510677E-02 
406	 9,88302915217724E-02 
407	 9,18550017858391E-02 
408	 9,30885007547897E-02 
409	 9,25345023447435E-02 
410	 8,79313335556723E-02 
411	 7,95001004486707E-02 
412	 7,61567801451267E-02 
413	 8,48434656291322E-02 
414	 8,36432216339465E-02 
415	 7,58147529283881E-02 
416	 8,13117510129637E-02 
417	 8,38846646976781E-02 
418	 7,90383491174743E-02 
419	 0,080025211787973 
420	 8,38047946778245E-02 
421	 8,52075798996144E-02 
422	 8,33958611877489E-02 
423	 7,98639318795524E-02 
424	 8,00791668231391E-02 
425	 8,03627085588886E-02 
426	 7,87617246876506E-02 
427	 7,86637015620793E-02 
428	 7,98107438716988E-02 
429	 8,13010118897733E-02 
430	 8,00848809441627E-02 
431	 7,67250059694726E-02 
432	 7,80391813126698E-02 
433	 7,94124992660155E-02 
434	 7,69877951902939E-02 
435	 7,91785695767046E-02 
436	 8,41385331522651E-02 
437	 8,38555393723558E-02 
438	 8,18427354806772E-02 
439	 8,00406886103166E-02 
440	 0,081266409705608 
441	 8,37128541430755E-02 
442	 8,48990984609476E-02 
443	 8,22549107046334E-02 
444	 7,77830844961392E-02 
445	 8,02948513128002E-02 
446	 8,35983690731945E-02 
447	 8,39521470590942E-02 
448	 8,41093340462612E-02 
449	 8,47273113601968E-02 
450	 8,65056595110099E-02 
451	 8,70878502680241E-02 
452	 8,61366326778533E-02 
453	 8,58609312261907E-02 
454	 8,58078385189978E-02 
455	 8,54190017070942E-02 
456	 8,34683589413568E-02 
457	 8,17614533941207E-02 
458	 8,61017775940921E-02 
459	 8,81055214871173E-02 
460	 8,49593452072484E-02 
461	 8,35787329504198E-02 
462	 8,43379633262337E-02 
463	 8,67779704369809E-02 
464	 8,73210193317193E-02 
465	 0,086141447085732 
466	 8,76801754087674E-02 
467	 8,84849489146054E-02 
468	 8,66373452653567E-02 
469	 8,65492337358554E-02 
470	 8,77229002827593E-02 
471	 8,78827626198322E-02 
472	 8,84880606122372E-02 
473	 8,91579134281949E-02 
474	 8,59872419379226E-02 
475	 8,33875311954004E-02 
476	 0,085649554217094 
477	 8,71780005920452E-02 
478	 8,72928238428107E-02 
479	 8,76981498106672E-02 
480	 0,087136786793651 
481	 8,52441274173229E-02 
482	 8,31520590219488E-02 
483	 8,22491306938371E-02 
484	 8,43062573333114E-02 
485	 8,71351060007187E-02 
486	 8,92105667910856E-02 
487	 8,75943580317646E-02 
488	 8,61761923144011E-02 
489	 8,77120407405761E-02 
490	 8,81580528848674E-02 
491	 8,73211077006877E-02 
492	 8,61833818118078E-02 
493	 8,53421006579516E-02 
494	 8,50511892319187E-02 
495	 8,48829028589501E-02 
496	 0,084749009759222 
497	 8,45854578659061E-02 
498	 8,37681699727698E-02 
499	 8,25833012298054E-02 
500	 8,19824706057123E-02 
501	 8,27664128007916E-02 
502	 8,50952036319088E-02 
503	 8,63081568876739E-02 
504	 8,66889657049938E-02 
505	 8,74916961936676E-02 
506	 8,76037467348255E-02 
507	 8,70740645128793E-02 
508	 8,73320769693957E-02 
509	 8,80502102219879E-02 
510	 8,88424211292059E-02 
511	 8,92813255316681E-02 
512	 8,97654293247547E-02 
513	 9,19702958158434E-02 
514	 9,21661439200415E-02 
515	 8,96681282875395E-02 
516	 9,14505528605934E-02 
517	 9,42436187195486E-02 
518	 9,26360625954493E-02 
519	 9,14096720845812E-02 
520	 9,15954645562148E-02 
521	 9,22193242601708E-02 
522	 9,27709174814088E-02 
523	 9,28658456580985E-02 
524	 9,25660949147881E-02 
525	 9,23028087526306E-02 
526	 9,31247652014653E-02 
527	 9,33365557696084E-02 
528	 9,24846752503703E-02 
529	 9,15730116048672E-02 
530	 9,10229827522892E-02 
531	 9,11922262766105E-02 
532	 9,17941666867539E-02 
533	 9,23220461430557E-02 
534	 0,091488921849209 
535	 9,07663310413501E-02 
536	 9,10727786058391E-02 
537	 9,23762383061996E-02 
538	 9,33562645663185E-02 
539	 9,15708880188888E-02 
540	 9,04816390166171E-02 
541	 9,10711168668818E-02 
542	 9,22806673877093E-02 
543	 9,30492050119081E-02 
544	 0,092464781889426 
545	 0,092121152006551 
546	 0,092331497585792 
547	 9,30987286116284E-02 
548	 9,31452930599126E-02 
549	 9,21032012482308E-02 
550	 0,092313753696156 
551	 9,31057955739809E-02 
552	 0,093016112143266 
553	 9,30627921622837E-02 
554	 9,32906933625339E-02 
555	 9,28711595533069E-02 
556	 9,20311034679082E-02 
557	 9,10906250937366E-02 
558	 9,14782964263598E-02 
559	 9,24830062522209E-02 
560	 9,16361749985595E-02 
561	 0,091051958422573 
562	 9,13358299229323E-02 
563	 9,06740885986924E-02 
564	 8,99124816007764E-02 
565	 9,03485833389955E-02 
566	 9,06263967219345E-02 
567	 9,05952759278356E-02 
568	 9,10204099842046E-02 
569	 9,14746009632617E-02 
570	 9,17089361205223E-02 
571	 0,0923303573795 
572	 9,33271153108268E-02 
573	 9,45557419340305E-02 
574	 9,52677086701769E-02 
575	 9,54505830452687E-02 
576	 9,67346365983875E-02 
577	 9,79963982907342E-02 
578	 9,79171741993862E-02 
579	 9,93695176893003E-02 
580	 0,101909566652083 
581	 0,102062700831103 
582	 0,102236670962524 
583	 0,103681745032947 
584	 0,104706180571321 
585	 0,105491516806647 
586	 0,106719955394403 
587	 0,108177219713096 
588	 0,109576878079112 
589	 0,110083588383764 
590	 0,110087112125541 
591	 0,110021335530636 
592	 0,110179658054842 
593	 0,110712455711791 
594	 0,111892696443053 
595	 0,112594327068463 
596	 0,112407668005928 
597	 0,112740852647625 
598	 0,113053444351438 
599	 0,112298509458888 
600	 0,111921578360252 
601	 0,112189238216947 
602	 0,112512281524201 
603	 0,112348021388274 
604	 0,111349365418089 
605	 0,110688156768454 
606	 0,110244911211238 
607	 0,1091262013451 
608	 0,108253159767232 
609	 0,107836646484834 
610	 0,106808978098961 
611	 0,106036183243986 
612	 0,10666158722887 
613	 0,106805304067904 
614	 0,106202741231151 
615	 0,105651015093211 
616	 0,105247244788894 
617	 0,105046122982661 
618	 0,104763680420567 
619	 0,104487095333114 
620	 0,104451027935199 
621	 0,104712377832673 
622	 0,105070259564986 
623	 0,10444927911266 
624	 0,103941431726634 
625	 0,10468362093587 
626	 0,105125724759999 
627	 0,10523810838859 
628	 0,106091630722032 
629	 0,106353060144507 
630	 0,105538702339586 
631	 0,105402583410149 
632	 0,105958337923713 
633	 0,106861887404694 
634	 0,107771917800874 
635	 0,10852458971352 
636	 0,109032413894328 
637	 0,109767373241777 
638	 0,111061647620719 
639	 0,111775800248555 
640	 0,112079942084041 
641	 0,112963033678729 
642	 0,113809908013088 
643	 0,114395043325107 
644	 0,114872495255223 
645	 0,115401265755243 
646	 0,116171476354854 
647	 0,116264838228799 
648	 0,115640179828619 
649	 0,114990896910643 
650	 0,114466625836263 
651	 0,114127385738607 
652	 0,11345371185139 
653	 0,112550083751701 
654	 0,111814787268914 
655	 0,11088239952152 
656	 0,10961064502549 
657	 0,107898452690144 
658	 0,106235773252439 
659	 0,105101330837904 
660	 0,103460439638392 
661	 0,101436035844783 
662	 9,99655000950157E-02 
663	 9,87826034717923E-02 
664	 9,77063570326771E-02 
665	 9,63512794948771E-02 
666	 9,49676779434327E-02 
667	 9,39985956172637E-02 
668	 9,33466622443453E-02 
669	 0,092915508638062 
670	 9,22985815659079E-02 
671	 9,23283872817976E-02 
672	 9,34714939704961E-02 
673	 9,29978934625759E-02 
674	 0,091428772806253 
675	 9,11174450644738E-02 
676	 9,11848102096722E-02 
677	 9,13449930931086E-02 
678	 9,15198430857032E-02 
679	 9,17420676163111E-02 
680	 9,20675177820431E-02 
681	 9,23769155411875E-02 
682	 9,27311347674385E-02 
683	 9,33391922734762E-02 
684	 9,42963595830043E-02 
685	 9,56366945671105E-02 
686	 9,70388417728874E-02 
687	 9,87525194082009E-02 
688	 0,101189900858983 
689	 0,104946287729811 
690	 0,109737454825256 
691	 0,113421431064034 
692	 0,117600194450375 
693	 0,123751040133252 
694	 0,130808437972793 
695	 0,138421253642293 
696	 0,146164646064472 
697	 0,155015637199266 
698	 0,165127777767298 
699	 0,174841333235704 
700	 0,184875156087274 
701	 0,196331853742734 
702	 0,207407939382031 
703	 0,217898054224586 
704	 0,228876214432165 
705	 0,239657129110277 
706	 0,249803978374539 
707	 0,259784945308537 
708	 0,269246572687154 
709	 0,277350757645591 
710	 0,285458587317858 
711	 0,293787783566204 
712	 0,301185772943678 
713	 0,307843989413639 
714	 0,314011494357743 
715	 0,319596206552568 
716	 0,324820582518777 
717	 0,330277968167985 
718	 0,335267678595235 
719	 0,339507331650188 
720	 0,343125334476066 
721	 0,34659015935835 
722	 0,350485101460112 
723	 0,354024678369617 
724	 0,357005473761168 
725	 0,359501026567268 
726	 0,361727484560497 
727	 0,363856160868267 
728	 0,366047402498208 
729	 0,368075299541932 
730	 0,369462472794568 
731	 0,371007531324224 
732	 0,372829522044197 
733	 0,374303130120417 
734	 0,375474609184289 
735	 0,376434482951048 
736	 0,377584136168928 
737	 0,378827897167131 
738	 0,37974471531824 
739	 0,380438935677111 
740	 0,381032815779127 
741	 0,381999558785103 
742	 0,382997826024122 
743	 0,383597946137864 
744	 0,384460028643634 
745	 0,385472083441906 
746	 0,385788039793671 
747	 0,386232968771518 
748	 0,38719700232236 
749	 0,388109259690064 
750	 0,388724542723678 
751	 0,388765775645631 
752	 0,38919661324848 
753	 0,390047273384011 
754	 0,39026905344885 
755	 0,390498938482527 
756	 0,391176953784893 
757	 0,391781947297592 
758	 0,392168913733854 
759	 0,392169101605674 
760	 0,392524573752017 
761	 0,393332729160826 
762	 0,393761385977333 
763	 0,394017001230536 
764	 0,394327221141348 
765	 0,394519259542363 
766	 0,394622582771551 
767	 0,394725856745727 
768	 0,395053290706859 
769	 0,395676554769117 
770	 0,396404347655592 
771	 0,397016323924784 
772	 0,397286986552128 
773	 0,397339692981209 
774	 0,397431196096392 
775	 0,398265575439445 
776	 0,39885261167353 
777	 0,39871741425056 
778	 0,39846875693178 
779	 0,398472320817008 
780	 0,399138837285438 
781	 0,399707818626472 
782	 0,399943082699345 
783	 0,39976881191374 
784	 0,400030697219116 
785	 0,401098127335016 
786	 0,40101367453187 
787	 0,40037751733179 
788	 0,400745531153386 
789	 0,401190593941568 
790	 0,401500772213307 
791	 0,401972175732559 
792	 0,402277172582297 
793	 0,402189321180659 
794	 0,402241097043195 
795	 0,402456387777593 
796	 0,402690710504155 
797	 0,402844074873317 
798	 0,402869606627561 
799	 0,402729635644787 
800	 0,402809559041709 
801	 0,403419094447205 
802	 0,403708044730146 
803	 0,403696825349267 
804	 0,403855862140811 
805	 0,404126584925511 
806	 0,404485407969268 
807	 0,404791699549008 
808	 0,405149767876883 
809	 0,405674131674903 
810	 0,406239079950638 
811	 0,406678195789696 
812	 0,406581930776858 
813	 0,406685658917023 
814	 0,407215358352846 
815	 0,407384363532792 
816	 0,407522876536892 
817	 0,408083102219712 
818	 0,408452474129618 
819	 0,40860726768073 
820	 0,408923196006356 
821	 0,409151145235446 
822	 0,409246011534124 
823	 0,409669786725222 
824	 0,410198951433872 
825	 0,410490163571045 
826	 0,410774422991628 
827	 0,411029764894888 
828	 0,411034166247465 
829	 0,410978738050399 
830	 0,410987107151217 
831	 0,411087564238857 
832	 0,411314727057428 
833	 0,411701582175321 
834	 0,412289548146591 
835	 0,41278960167327 
836	 0,412218576006237 
837	 0,411984298656047 
838	 0,412734712575542 
839	 0,413114794862919 
840	 0,413215480632515 
841	 0,413385060829212 
842	 0,413618472887889 
843	 0,413857412604125 
844	 0,413897747361533 
845	 0,413772735860008 
846	 0,413644796285939 
847	 0,414561245804666 
848	 0,41531373249689 
849	 0,414089473309807 
850	 0,414176461510807 
851	 0,415684290540114 
852	 0,416216527522227 
853	 0,41594942176898 
854	 0,415144233367782 
855	 0,415133105194826 
856	 0,415493288112807 
857	 0,41542151604935 
858	 0,415556737563164 
859	 0,415962216576178 
860	 0,416440644088515 
861	 0,416543830940569 
862	 0,416184800962108 
863	 0,41648784440931 
864	 0,41704072937657 
865	 0,417157748425539 
866	 0,417901533751758 
867	 0,418959056804806 
868	 0,418678971323916 
869	 0,418316792551265 
870	 0,418418234944753 
871	 0,418292339323789 
872	 0,418265468320867 
873	 0,418774911695912 
874	 0,419424733768658 
875	 0,419906132526289 
876	 0,419555311176167 
877	 0,419664251925681 
878	 0,420624339829857 
879	 0,421255757529425 
880	 0,421342387855783 
881	 0,420818637133363 
882	 0,420710736025479 
883	 0,421035856071443 
884	 0,421134978043234 
885	 0,421683299253201 
886	 0,422693040980842 
887	 0,423095954627929 
888	 0,423058135430587 
889	 0,422850127921911 
890	 0,423001292152207 
891	 0,423432938187231 
892	 0,423755347904358 
893	 0,423771494287771 
894	 0,423518816256986 
895	 0,423521583749455 
896	 0,423658716317345 
897	 0,423825260243297 
898	 0,424079364664705 
899	 0,424422468033703 
900	 0,424862909149235 
901	 0,425097076147532 
902	 0,425148715885561 
903	 0,425491833979673 
904	 0,425735167543459 
905	 0,425705624861606 
906	 0,426080380213414 
907	 0,426480694833307 
908	 0,426270580378921 
909	 0,426122169539452 
910	 0,426162315934299 
911	 0,426226057904005 
912	 0,426283361780158 
913	 0,426335596244353 
914	 0,42648373325192 
915	 0,426792172174214 
916	 0,4273005433754 
917	 0,427772934335775 
918	 0,427868883049264 
919	 0,426862523777273 
920	 0,425945273230238 
921	 0,425740678567524 
922	 0,426879626256092 
923	 0,427504006606436 
924	 0,426225931634446 
925	 0,425413359210131 
926	 0,425518452435943 
927	 0,426674224766942 
928	 0,426374392837861 
929	 0,42475558318333 
930	 0,425279171338332 
931	 0,425793536071519 
932	 0,425138180699918 
933	 0,424641855016634 
934	 0,424414484561988 
935	 0,424422760197831 
936	 0,425442619387832 
937	 0,426459512979673 
938	 0,424017342324571 
939	 0,422910101237939 
940	 0,424214856899766 
941	 0,423121714673381 
942	 0,421557685472948 
943	 0,421422828838419 
944	 0,421655293253339 
945	 0,42167200113237 
946	 0,420717773157743 
947	 0,419861552535357 
948	 0,419159873897473 
949	 0,417602238218327 
950	 0,416024247506031 
951	 0,414920071837376 
952	 0,413880141615329 
953	 0,413482318081126 
954	 0,414320082063565 
955	 0,413128807586706 
956	 0,410646758535267 
957	 0,410554840375569 
958	 0,410923993803571 
959	 0,410940062354855 
960	 0,410025185670377 
961	 0,408724211230052 
962	 0,407482526466636 
963	 0,405897653478731 
964	 0,404862422861655 
965	 0,405705756376443 
966	 0,407849021934515 
967	 0,409737242792077 
968	 0,407240027686884 
969	 0,405337799674837 
970	 0,405876658115994 
971	 0,405704434275722 
972	 0,40594530637147 
973	 0,407547899211128 
974	 0,407895319849689 
975	 0,40715406327476 
976	 0,406445966355556 
977	 0,405634589003017 
978	 0,405198792482416 
979	 0,406853382385056 
980	 0,40711706181653 
981	 0,405185153880507 
982	 0,407557236231388 
983	 0,409810427900061 
984	 0,407306651995683 
985	 0,405713290694562 
986	 0,40623896768386 
987	 0,409113161212638 
988	 0,411097716492399 
989	 0,411303963986646 
990	 0,410402951407406 
991	 0,411102496354187 
992	 0,41391832022406 
993	 0,412364728038513 
994	 0,410443323758349 
995	 0,41250955060518 
996	 0,413234864630236 
997	 0,413114114141137 
998	 0,414952727309885 
999	 0,416831501407038 
1000	 0,417914234322495 
1001	 0,417411266215401 
1002	 0,416863647313166 
1003	 0,417344181827915 
1004	 0,419781878640576 
1005	 0,421774956770732 
1006	 0,421206497953882 
1007	 0,422218963238516 
1008	 0,423598478836098 
1009	 0,421911064170901 
1010	 0,424374706959887 
1011	 0,42952755262603 
1012	 0,426400722229813 
1013	 0,422368042294704 
1014	 0,421101820492178 
1015	 0,423342065722313 
1016	 0,425258527627072 
1017	 0,424089375893909 
1018	 0,426477595427895 
1019	 0,430366645979012 
1020	 0,431287845509055 
1021	 0,429659726085118 
1022	 0,428181892906341 
1023	 0,434677345065655 
1024	 0,436347791677238 
1025	 0,430850146542593 
1026	 0,428928727282057 
1027	 0,43044715722876 
1028	 0,434404045795944 
1029	 0,435515570783576 
1030	 0,435642021353063 
1031	 0,437332197598078 
1032	 0,434487254797672 
1033	 0,429066888896722 
1034	 0,42731415211257 
1035	 0,428784110799431 
1036	 0,432458562708163 
1037	 0,435005664905237 
1038	 0,437614062997416 
1039	 0,440527110619041 
1040	 0,443554577171051 
1041	 0,444597673972604 
1042	 0,442619371548088 
1043	 0,445251666579803 
1044	 0,446238836784553 
1045	 0,436665398764055 
1046	 0,432888570583381 
1047	 0,436294709736898 
1048	 0,440581104570172 
1049	 0,442982990078579 
1050	 0,442766994421944 
1051	 0,442423778828054 
1052	 0,443036023559594 
1053	 0,444730994347247 
1054	 0,444930200814703 
1055	 0,443016057297785 
1056	 0,439347758777178 
1057	 0,440159084852388 
1058	 0,440979651234837 
1059	 0,434830743027464 
1060	 0,435866703320923 
1061	 0,439369841716875 
1062	 0,427767131402028 
1063	 0,428499041378933 
1064	 0,443738616216454 
1065	 0,448836482947351 
1066	 0,448287771415613 
1067	 0,444580893299083 
1068	 0,440454401667166 
1069	 0,439255324884875 
1070	 0,442026799893416 
1071	 0,43827229095378 
1072	 0,431477002463799 
1073	 0,427287892064513 
1074	 0,426548573065172 
1075	 0,433506023183871 
