Wavelength	GRA-VIE00530.asd
325	 0,349246335038333 
326	 0,386958540032702 
327	 0,408724140799468 
328	 0,379323194904471 
329	 0,449047875798056 
330	 0,478945385871 
331	 0,357659402045147 
332	 0,362543816774037 
333	 0,436840524678947 
334	 0,297615581307936 
335	 0,233501051189379 
336	 0,295138305007432 
337	 0,307551502193337 
338	 0,284209919333724 
339	 0,237146200807685 
340	 0,190281437818692 
341	 0,160640306710652 
342	 0,198465303413663 
343	 0,220564588499449 
344	 0,209376485415131 
345	 0,196857185558426 
346	 0,191797230658628 
347	 0,202946135230693 
348	 0,199081627777659 
349	 0,180796962386227 
350	 0,167896958283123 
351	 0,157699301538033 
352	 0,151844859269465 
353	 0,178977016196471 
354	 0,20991333876805 
355	 0,213117886929711 
356	 0,199124296358495 
357	 0,170255195548469 
358	 0,118366880723755 
359	 0,10315158961757 
360	 0,145306891435115 
361	 0,17302406248934 
362	 0,178226642079131 
363	 0,166621306914043 
364	 0,15315475259738 
365	 0,142410376022974 
366	 0,131180082959187 
367	 0,130338873823978 
368	 0,144630473457323 
369	 0,157483426219584 
370	 0,16093018818051 
371	 0,145296522090931 
372	 0,139327561815721 
373	 0,146936394128807 
374	 0,144304193901067 
375	 0,136819979610563 
376	 0,129012342232694 
377	 0,118247015134711 
378	 0,1141125000512 
379	 0,136713017250042 
380	 0,154760884127569 
381	 0,160065289135328 
382	 0,161930167772692 
383	 0,156744015340199 
384	 0,141909941440912 
385	 0,144424993117001 
386	 0,154301129702936 
387	 0,132500658469301 
388	 0,126022014146687 
389	 0,147439901914533 
390	 0,155287668397183 
391	 0,149219955426024 
392	 0,133156728215136 
393	 0,126395461069593 
394	 0,13179343734436 
395	 0,144435144476953 
396	 0,145768864741945 
397	 0,130195371801604 
398	 0,127637918332192 
399	 0,129576309919365 
400	 0,117266296109146 
401	 0,115795144190256 
402	 0,125283257929778 
403	 0,120703609654419 
404	 0,120677560164101 
405	 0,135170607690092 
406	 0,127933440736906 
407	 0,111218845598173 
408	 0,121211214193672 
409	 0,123743211597199 
410	 0,113953833777038 
411	 0,115329989102841 
412	 0,122313443110878 
413	 0,127975512877914 
414	 0,120087208049089 
415	 0,105934366667269 
416	 0,110568478805688 
417	 0,113344152094178 
418	 0,108322058109964 
419	 0,112103256348822 
420	 0,118624230128363 
421	 0,118834745255292 
422	 0,111192099241338 
423	 0,102030893286491 
424	 0,113009126250919 
425	 0,119010468164551 
426	 0,107245578912246 
427	 0,108040428466732 
428	 0,115844432655393 
429	 0,11383657309583 
430	 0,111891190598587 
431	 0,112218975126952 
432	 0,112176029617501 
433	 0,111230236245131 
434	 0,109343601578958 
435	 0,112603990936705 
436	 0,118081343315176 
437	 0,116077933034005 
438	 0,112279327227808 
439	 0,109764209703145 
440	 0,112109511696473 
441	 0,11530517870689 
442	 0,114132540005081 
443	 0,112797358435493 
444	 0,112394213389569 
445	 0,112882027671265 
446	 0,114141012547346 
447	 0,115723123966349 
448	 0,114504188611879 
449	 0,112775006135535 
450	 0,11562743310868 
451	 0,117784512018848 
452	 0,117770975733584 
453	 0,117191841343055 
454	 0,116345135816831 
455	 0,115561222604587 
456	 0,116311146516511 
457	 0,118093689240171 
458	 0,118977378640794 
459	 0,119388268189946 
460	 0,119212587131359 
461	 0,117014104606894 
462	 0,114673029284016 
463	 0,114774779683877 
464	 0,115873690550463 
465	 0,117386492469443 
466	 0,118978222563285 
467	 0,119100660520515 
468	 0,117138864376304 
469	 0,11730338893881 
470	 0,118645822037053 
471	 0,117987633338566 
472	 0,117975410391802 
473	 0,118606425175793 
474	 0,115677834702586 
475	 0,113347476752708 
476	 0,115642242920605 
477	 0,116072239489651 
478	 0,114993675924602 
479	 0,117478528460639 
480	 0,118906525458011 
481	 0,117210344314471 
482	 0,113981029060382 
483	 0,111695712152335 
484	 0,113679237536336 
485	 0,115663178224937 
486	 0,116195474731249 
487	 0,114500763077771 
488	 0,114115106443631 
489	 0,117222887411334 
490	 0,117088798436508 
491	 0,11439604683942 
492	 0,11296016332638 
493	 0,112707618842641 
494	 0,113617362369962 
495	 0,114733504799196 
496	 0,115500893613306 
497	 0,115434791173975 
498	 0,115021513165011 
499	 0,114402014503019 
500	 0,113351475080426 
501	 0,113212297888521 
502	 0,114466622101109 
503	 0,114076179924038 
504	 0,11356966660193 
505	 0,116502998244203 
506	 0,117222939265061 
507	 0,115101623840676 
508	 0,115234417554861 
509	 0,116251080549047 
510	 0,116738455955491 
511	 0,117697894139678 
512	 0,118944453159025 
513	 0,119758717498137 
514	 0,119906936091184 
515	 0,119588478557912 
516	 0,120750592634128 
517	 0,12249761351835 
518	 0,123392260006239 
519	 0,123179503658665 
520	 0,122255848839158 
521	 0,12233631212653 
522	 0,122534823147484 
523	 0,122263042234999 
524	 0,122607245023446 
525	 0,123375498455852 
526	 0,123955404480487 
527	 0,123630726914524 
528	 0,122384968298507 
529	 0,12166005706951 
530	 0,121478167892219 
531	 0,12170319041111 
532	 0,122039439463505 
533	 0,122302323515513 
534	 0,122316967797859 
535	 0,122016430202803 
536	 0,121545145017666 
537	 0,122530591851373 
538	 0,1236911652831 
539	 0,12222456195074 
540	 0,121523530097184 
541	 0,122338557078466 
542	 0,122773025298343 
543	 0,123037596808869 
544	 0,123397628144737 
545	 0,123029828421717 
546	 0,122449230685081 
547	 0,123573053140535 
548	 0,124426878701724 
549	 0,124156631065038 
550	 0,124186781746983 
551	 0,124292032978948 
552	 0,123841415449209 
553	 0,123990804831734 
554	 0,124607372182263 
555	 0,123780544558554 
556	 0,122821235315212 
557	 0,122891751913636 
558	 0,124076553301432 
559	 0,125300667935549 
560	 0,123829753514258 
561	 0,12268396559762 
562	 0,122868476900708 
563	 0,122257955168486 
564	 0,12154105587423 
565	 0,121841182851627 
566	 0,122521067388394 
567	 0,12322525912781 
568	 0,123354454855974 
569	 0,123434602989996 
570	 0,123882161313461 
571	 0,124863492659916 
572	 0,126126211091646 
573	 0,127103548071528 
574	 0,127855915055093 
575	 0,12860187713399 
576	 0,130516390652021 
577	 0,132188340239309 
578	 0,132042779625705 
579	 0,133834245143214 
580	 0,137119753672727 
581	 0,137887679105682 
582	 0,137980800545018 
583	 0,138496446780501 
584	 0,139364980765987 
585	 0,140526520408252 
586	 0,141850227435407 
587	 0,143147080009662 
588	 0,144311510137352 
589	 0,145368334670585 
590	 0,146059049530473 
591	 0,146178602178586 
592	 0,146356753207556 
593	 0,146777234753345 
594	 0,147577298630065 
595	 0,148122826539263 
596	 0,148163501550361 
597	 0,148341926406302 
598	 0,148557561446505 
599	 0,148574156401716 
600	 0,14801455973224 
601	 0,147210062102223 
602	 0,147908773629899 
603	 0,14832394196929 
604	 0,14712482373612 
605	 0,146345349916533 
606	 0,146068420355155 
607	 0,145639467572995 
608	 0,145023191087764 
609	 0,144174389893818 
610	 0,143054498159799 
611	 0,14217055154837 
612	 0,142124139687637 
613	 0,141600958071926 
614	 0,140570455683855 
615	 0,140013375092719 
616	 0,139955229412186 
617	 0,140276841273231 
618	 0,139632658492284 
619	 0,138795802461627 
620	 0,139749871214271 
621	 0,140298650488421 
622	 0,139853952119042 
623	 0,139343672766286 
624	 0,13910597225912 
625	 0,13940705625032 
626	 0,139388187451509 
627	 0,13922468214909 
628	 0,14008122637724 
629	 0,14060103318894 
630	 0,140250430290452 
631	 0,140625213987286 
632	 0,141472132519388 
633	 0,14206034156685 
634	 0,142804300168946 
635	 0,143739586631551 
636	 0,144603774698354 
637	 0,145388444392518 
638	 0,146101106172529 
639	 0,146846170922908 
640	 0,147659674983405 
641	 0,14859109759725 
642	 0,149444042522755 
643	 0,150140023136481 
644	 0,150829820849397 
645	 0,151410324782505 
646	 0,151732394814806 
647	 0,15202867343934 
648	 0,152152570110006 
649	 0,15141661973167 
650	 0,150510652536214 
651	 0,149845904714984 
652	 0,148596867254351 
653	 0,147079197747433 
654	 0,146166157956983 
655	 0,145059878821289 
656	 0,143544996612227 
657	 0,142007068396176 
658	 0,14020152218532 
659	 0,137892725507579 
660	 0,135908044056092 
661	 0,134272812934364 
662	 0,132474115241306 
663	 0,130646519542753 
664	 0,128905970460993 
665	 0,127570006270711 
666	 0,126512502155748 
667	 0,125461625806829 
668	 0,124718847524797 
669	 0,124246680881029 
670	 0,123525080325505 
671	 0,123201384787118 
672	 0,123686626453375 
673	 0,12336949490985 
674	 0,122493141804676 
675	 0,122297331380512 
676	 0,122403513199432 
677	 0,122573559856587 
678	 0,122053696781115 
679	 0,1217088765342 
680	 0,12261181895654 
681	 0,123250268337546 
682	 0,123508023009013 
683	 0,124175699560358 
684	 0,125194410799201 
685	 0,126555401950516 
686	 0,128315018400211 
687	 0,130437950425941 
688	 0,132775279521365 
689	 0,136153991396995 
690	 0,140507617770733 
691	 0,144247593939388 
692	 0,148648880525339 
693	 0,154882169045634 
694	 0,162157801144321 
695	 0,170093138691193 
696	 0,178032450950863 
697	 0,18728634098252 
698	 0,198091188101318 
699	 0,208389702718388 
700	 0,218971922425272 
701	 0,231081523649306 
702	 0,242742069493446 
703	 0,25382998631779 
704	 0,265787069307162 
705	 0,277781452968469 
706	 0,28918973945445 
707	 0,299666128471162 
708	 0,309704232604809 
709	 0,320343885142614 
710	 0,330114681996678 
711	 0,338743533457901 
712	 0,347245747159387 
713	 0,355317251003404 
714	 0,362676054765455 
715	 0,369661290085005 
716	 0,376173641458614 
717	 0,381684140427352 
718	 0,387274265070668 
719	 0,393203531162892 
720	 0,397908853472577 
721	 0,401895699194497 
722	 0,406018275078991 
723	 0,409916180407148 
724	 0,413430349716155 
725	 0,416276874477309 
726	 0,418964785170719 
727	 0,421765278622322 
728	 0,424047371123127 
729	 0,426090046367955 
730	 0,428583445590913 
731	 0,430304899824838 
732	 0,431220302092266 
733	 0,432815632568356 
734	 0,434661638043572 
735	 0,436300749837988 
736	 0,437442752331653 
737	 0,438281678582108 
738	 0,439446127843097 
739	 0,440586289962426 
740	 0,441576001603575 
741	 0,44245476541404 
742	 0,443203245754932 
743	 0,443804218426397 
744	 0,444566453572968 
745	 0,445453086584194 
746	 0,446072477259701 
747	 0,446823947609359 
748	 0,44785605791092 
749	 0,448648117907856 
750	 0,449200209242384 
751	 0,449608795508859 
752	 0,450094028175852 
753	 0,450684776244311 
754	 0,451173514487688 
755	 0,451656030152644 
756	 0,452222148158472 
757	 0,45305585039953 
758	 0,45384530268434 
759	 0,453868970663199 
760	 0,454251349983361 
761	 0,455141085268892 
762	 0,45538874016788 
763	 0,455323626207677 
764	 0,455344919787587 
765	 0,455926234300462 
766	 0,456732594405858 
767	 0,456565967576685 
768	 0,456757463523467 
769	 0,457669731956144 
770	 0,458123802975439 
771	 0,458310204709214 
772	 0,458574422823344 
773	 0,458966201577559 
774	 0,459475810990925 
775	 0,460038947592825 
776	 0,460432853340912 
777	 0,460539291537915 
778	 0,460459924380485 
779	 0,460449405797722 
780	 0,460842696888439 
781	 0,461236056697444 
782	 0,4615799175321 
783	 0,46212454964096 
784	 0,462723485703339 
785	 0,463189307149989 
786	 0,462809216129507 
787	 0,462273843720556 
788	 0,462960662544949 
789	 0,46374730017106 
790	 0,464226754756185 
791	 0,464208219657084 
792	 0,46436876790044 
793	 0,465186573499503 
794	 0,465656651634936 
795	 0,465761467218043 
796	 0,465816403840214 
797	 0,466030832390877 
798	 0,466449267872544 
799	 0,466801391495262 
800	 0,467097995134507 
801	 0,467350943770154 
802	 0,467320428233689 
803	 0,467322489610292 
804	 0,46831109606903 
805	 0,469038419832329 
806	 0,469129453002804 
807	 0,469351397620367 
808	 0,469678548889785 
809	 0,470020252406401 
810	 0,470193526810147 
811	 0,470346583686109 
812	 0,471029229711253 
813	 0,471575432078682 
814	 0,471747615995396 
815	 0,472031320180943 
816	 0,472302833870318 
817	 0,472382676216611 
818	 0,472890365948862 
819	 0,473710462192371 
820	 0,474114933200576 
821	 0,474299651752631 
822	 0,474377001626696 
823	 0,474510866182778 
824	 0,474683516330563 
825	 0,47484364605159 
826	 0,475305012144137 
827	 0,475847473000419 
828	 0,475582565382851 
829	 0,475150391150744 
830	 0,474989950471783 
831	 0,475531990111398 
832	 0,476236666611318 
833	 0,476314962805746 
834	 0,476903274079113 
835	 0,477801509588637 
836	 0,477476273717089 
837	 0,477006128751854 
838	 0,476987697609363 
839	 0,477030267624028 
840	 0,477350804188293 
841	 0,478289852234509 
842	 0,478360701991852 
843	 0,477741672483174 
844	 0,478430467779084 
845	 0,478865734335315 
846	 0,478348868408739 
847	 0,478368719293876 
848	 0,478774170173906 
849	 0,479110982796986 
850	 0,479512839215484 
851	 0,479923700685128 
852	 0,480119671981893 
853	 0,480324981874611 
854	 0,480655508256675 
855	 0,481075982444132 
856	 0,481176617593169 
857	 0,48043458982594 
858	 0,480257775055342 
859	 0,480873358518514 
860	 0,48193027655272 
861	 0,482075859179554 
862	 0,480910764211209 
863	 0,480900857893394 
864	 0,481791551314919 
865	 0,482866582042421 
866	 0,483668642898322 
867	 0,48401175133928 
868	 0,4838735805963 
869	 0,483624541060111 
870	 0,483520047022111 
871	 0,483693934663418 
872	 0,484095441738925 
873	 0,484617229891815 
874	 0,484620556524804 
875	 0,48423316721156 
876	 0,48414330913557 
877	 0,484672407196884 
878	 0,485785144035759 
879	 0,486429079408892 
880	 0,486452534722321 
881	 0,485871016718085 
882	 0,485967748868299 
883	 0,486587879775504 
884	 0,486519512575097 
885	 0,486683848617113 
886	 0,487251973312736 
887	 0,487362730273771 
888	 0,487555405563238 
889	 0,488313763717161 
890	 0,488651950634369 
891	 0,488616412507871 
892	 0,488662930749186 
893	 0,489133568385725 
894	 0,48991316683678 
895	 0,489927284506071 
896	 0,489662374259664 
897	 0,489567259743356 
898	 0,489696338800708 
899	 0,490192635016953 
900	 0,491312420357096 
901	 0,491415886618876 
902	 0,490705613895126 
903	 0,492002044001087 
904	 0,492701146758376 
905	 0,491475922837461 
906	 0,49141780162282 
907	 0,492058435536175 
908	 0,492186078673131 
909	 0,492469788784196 
910	 0,492850252458094 
911	 0,492692091944182 
912	 0,492716129905933 
913	 0,493150209113984 
914	 0,493056382619164 
915	 0,493180360308564 
916	 0,494324189010741 
917	 0,494298043094514 
918	 0,493444572486519 
919	 0,493807947160333 
920	 0,493906605243005 
921	 0,493507854403352 
922	 0,493997132358072 
923	 0,494304519659447 
924	 0,493583393342286 
925	 0,493055406576543 
926	 0,492866754894944 
927	 0,492929627768053 
928	 0,492429335237202 
929	 0,491601427830491 
930	 0,492297317764213 
931	 0,492689978043203 
932	 0,491886738048761 
933	 0,491807896055847 
934	 0,491854636893191 
935	 0,491042715850925 
936	 0,491077928114378 
937	 0,491554527753635 
938	 0,490113618231396 
939	 0,489482153588 
940	 0,490305186571298 
941	 0,490155690163228 
942	 0,489633346053458 
943	 0,489340271409183 
944	 0,488577632992119 
945	 0,487495450297753 
946	 0,486529596505998 
947	 0,486330089845924 
948	 0,486423533601715 
949	 0,484239250460287 
950	 0,4827150260098 
951	 0,483159491882353 
952	 0,482233753349226 
953	 0,480662853003086 
954	 0,479729204300902 
955	 0,478881090778673 
956	 0,477586588832652 
957	 0,474440007833716 
958	 0,473387705506563 
959	 0,474916778446204 
960	 0,474361015621981 
961	 0,473219337467349 
962	 0,472744236510734 
963	 0,472163626670985 
964	 0,472386693549261 
965	 0,47483757952521 
966	 0,475201560121934 
967	 0,473187263045461 
968	 0,471314315623994 
969	 0,470556354820945 
970	 0,471345861355034 
971	 0,472775282255373 
972	 0,473914596261076 
973	 0,473879626665369 
974	 0,471977362937014 
975	 0,470266596335113 
976	 0,472532118873964 
977	 0,473748905503939 
978	 0,472910534238189 
979	 0,471639453039695 
980	 0,471201877701058 
981	 0,47224443081171 
982	 0,474138918663347 
983	 0,475385477838508 
984	 0,474750959454462 
985	 0,475437616039146 
986	 0,477186244640609 
987	 0,478453810008066 
988	 0,476647551489046 
989	 0,473341149332277 
990	 0,476957742418495 
991	 0,480779662203155 
992	 0,481443803869438 
993	 0,4822171752288 
994	 0,482705126342537 
995	 0,482373567207426 
996	 0,48242880083241 
997	 0,482831294368736 
998	 0,482967535458302 
999	 0,484292272598018 
1000	 0,486572933664475 
1001	 0,487832036273961 
1002	 0,487637838172979 
1003	 0,486632117596807 
1004	 0,489710703797022 
1005	 0,493817155324701 
1006	 0,495374088540476 
1007	 0,492603153111042 
1008	 0,489638046052477 
1009	 0,49411369384643 
1010	 0,497878084518518 
1011	 0,499230171140757 
1012	 0,500915090545753 
1013	 0,5003785737245 
1014	 0,497370978185003 
1015	 0,495570113202002 
1016	 0,497740002816155 
1017	 0,504633016018538 
1018	 0,504485432852006 
1019	 0,500790421891984 
1020	 0,501381993067596 
1021	 0,501770694037817 
1022	 0,502497708084342 
1023	 0,507779882250679 
1024	 0,512189885942226 
1025	 0,513200723731361 
1026	 0,508825147423507 
1027	 0,508970585025209 
1028	 0,517747602862144 
1029	 0,515032860952928 
1030	 0,510195112615753 
1031	 0,515987134543996 
1032	 0,518749318626563 
1033	 0,516471718739015 
1034	 0,510259455974776 
1035	 0,511016979745835 
1036	 0,518733807543987 
1037	 0,522089499415461 
1038	 0,521497778155856 
1039	 0,518253465270235 
1040	 0,519465030712502 
1041	 0,519978507327753 
1042	 0,516383786004739 
1043	 0,520146956381903 
1044	 0,52671714105371 
1045	 0,528284866453381 
1046	 0,520394563418286 
1047	 0,512276649146964 
1048	 0,52760226968946 
1049	 0,532631374528958 
1050	 0,523124519848476 
1051	 0,526986892182285 
1052	 0,532650236858368 
1053	 0,53387147318661 
1054	 0,528938386610749 
1055	 0,525910780541077 
1056	 0,531155195052232 
1057	 0,535591156904423 
1058	 0,535811212073685 
1059	 0,52959870431238 
1060	 0,530705444342013 
1061	 0,535214992133715 
1062	 0,527185035928179 
1063	 0,529782799811957 
1064	 0,543276987963748 
1065	 0,541363356475355 
1066	 0,538425534327343 
1067	 0,538899272568458 
1068	 0,530638221528217 
1069	 0,525860588463182 
1070	 0,532728762274114 
1071	 0,535231324285585 
1072	 0,535758798836299 
1073	 0,538799795143257 
1074	 0,532536340437148 
1075	 0,527328678896093 
