Wavelength	MORB100038.asd
325	 0,370321587151221 
326	 0,279280925818974 
327	 0,208726004478503 
328	 0,246496214094941 
329	 0,276461647244849 
330	 0,268750583524384 
331	 0,211408464716385 
332	 0,130139096412452 
333	 7,95502306819005E-02 
334	 0,145161786417323 
335	 0,176301802779962 
336	 0,146614521456384 
337	 0,151150079474953 
338	 0,130916343704707 
339	 5,21602141848487E-02 
340	 8,49062214701833E-02 
341	 0,180586105001222 
342	 0,206572882144676 
343	 0,204307922062544 
344	 0,183297729289632 
345	 0,134202383642494 
346	 0,121269052082484 
347	 0,186752304423897 
348	 0,205642800546985 
349	 0,168445805349258 
350	 0,137385922343003 
351	 0,137537193809166 
352	 0,166707147814018 
353	 0,15931286799717 
354	 0,136834231657683 
355	 0,128124895715514 
356	 0,145122692408483 
357	 0,169140482754597 
358	 0,139233229408394 
359	 0,101607062833848 
360	 8,30229235261229E-02 
361	 0,115341646535903 
362	 0,16714023055957 
363	 0,198217102945456 
364	 0,174536813534593 
365	 0,108449774420918 
366	 0,117807907913733 
367	 0,137041133598693 
368	 0,126995242882826 
369	 0,119627141378895 
370	 0,116625049204761 
371	 0,113547554877615 
372	 0,133177006003953 
373	 0,164737329005675 
374	 0,139858733420269 
375	 0,108915927209415 
376	 0,111337512661962 
377	 0,140766518785933 
378	 0,168669346068133 
379	 0,141172821499389 
380	 0,127311087735343 
381	 0,142048584984676 
382	 0,14347549498115 
383	 0,137585108969877 
384	 0,13295479706416 
385	 0,142192918484752 
386	 0,154748203098345 
387	 0,13905858614089 
388	 0,130677525226652 
389	 0,139499131698213 
390	 0,131878117238455 
391	 0,121506538909348 
392	 0,127916051522829 
393	 0,131720240924147 
394	 0,130685126207755 
395	 0,131395035790095 
396	 0,13034882237256 
397	 0,128182657406685 
398	 0,142670836243238 
399	 0,157854829237688 
400	 0,150217964567927 
401	 0,137900982620758 
402	 0,130561221503145 
403	 0,139106919675492 
404	 0,144913546948924 
405	 0,135955798560207 
406	 0,130074308530408 
407	 0,128501341610059 
408	 0,128373721417786 
409	 0,129454727379623 
410	 0,1314233833803 
411	 0,135782068423343 
412	 0,13470307291032 
413	 0,122161319472708 
414	 0,12291530911731 
415	 0,133557641098533 
416	 0,135078863752716 
417	 0,130936298810534 
418	 0,123206107184538 
419	 0,114801596519756 
420	 0,112905954449293 
421	 0,125937435873459 
422	 0,131052938430725 
423	 0,125554840336372 
424	 0,118268870637777 
425	 0,116484463222966 
426	 0,123440389207045 
427	 0,127310177876889 
428	 0,126957796289969 
429	 0,123254849146883 
430	 0,118967452842871 
431	 0,116630456313934 
432	 0,122289582297164 
433	 0,128138504259231 
434	 0,127288712003568 
435	 0,122136411225484 
436	 0,117861497807017 
437	 0,127564389050477 
438	 0,130353024370037 
439	 0,120831334328978 
440	 0,121239016747878 
441	 0,125809708627206 
442	 0,124721104940072 
443	 0,124142657868576 
444	 0,124968240446464 
445	 0,125658124236472 
446	 0,126155194665382 
447	 0,126392421074552 
448	 0,12614921067093 
449	 0,126272182747557 
450	 0,128547743243682 
451	 0,128515491532297 
452	 0,126238321941001 
453	 0,129317827279783 
454	 0,131137433848157 
455	 0,125965593283726 
456	 0,126469340902788 
457	 0,131323024016387 
458	 0,130350113248831 
459	 0,129228131705725 
460	 0,129900880618805 
461	 0,12956261980464 
462	 0,128669105746655 
463	 0,128123854534524 
464	 0,128983889642071 
465	 0,130561095161186 
466	 0,129349995908991 
467	 0,128732301827051 
468	 0,130717639283643 
469	 0,132182785551046 
470	 0,132168905574783 
471	 0,129545235547765 
472	 0,128075079913318 
473	 0,12888576380647 
474	 0,130661931818754 
475	 0,131294678505975 
476	 0,12896174340862 
477	 0,127819206236884 
478	 0,128137627803656 
479	 0,127791386249982 
480	 0,128740476211308 
481	 0,131355719174379 
482	 0,132417777064655 
483	 0,13171986169605 
484	 0,129468853584776 
485	 0,127651852729825 
486	 0,127026025831459 
487	 0,127662192905336 
488	 0,128928756066241 
489	 0,130101747429 
490	 0,128752555304318 
491	 0,126628488511345 
492	 0,12893592452955 
493	 0,129772813947153 
494	 0,127706871350623 
495	 0,126938464642859 
496	 0,126700331278488 
497	 0,125793869191486 
498	 0,126030472114286 
499	 0,127262987686208 
500	 0,127980860677073 
501	 0,128097999848414 
502	 0,127706800614135 
503	 0,128121059087297 
504	 0,129014400567344 
505	 0,129633771415434 
506	 0,128971246057109 
507	 0,127690392112961 
508	 0,129999037400686 
509	 0,132742180959461 
510	 0,132982849029948 
511	 0,132770903374591 
512	 0,132758439492472 
513	 0,133689754556495 
514	 0,134098374534823 
515	 0,133573447729921 
516	 0,13393178643004 
517	 0,134735883457336 
518	 0,135132170483912 
519	 0,135545223688494 
520	 0,135899067387549 
521	 0,135605670534264 
522	 0,135263856277788 
523	 0,135318352307901 
524	 0,135559232480338 
525	 0,135788249016663 
526	 0,135674698837127 
527	 0,135286247176728 
528	 0,134895212410372 
529	 0,135797035449321 
530	 0,136739544789093 
531	 0,136226045194577 
532	 0,135409286690968 
533	 0,134879946275987 
534	 0,135617756607932 
535	 0,136115855912999 
536	 0,135531596237376 
537	 0,134864236718538 
538	 0,134497139299746 
539	 0,134943310909713 
540	 0,134561197245367 
541	 0,133419863112945 
542	 0,134370524232946 
543	 0,135680507925973 
544	 0,135591356004221 
545	 0,135607728369815 
546	 0,135949459267922 
547	 0,136411043260315 
548	 0,136705322378572 
549	 0,136752466905187 
550	 0,137226854726405 
551	 0,137560962311904 
552	 0,136745900576471 
553	 0,136300172387278 
554	 0,136559765896419 
555	 0,137029241242188 
556	 0,136981871817002 
557	 0,135928852499923 
558	 0,135476885701372 
559	 0,135591218739651 
560	 0,13546063870216 
561	 0,134973190717002 
562	 0,134198224128634 
563	 0,134095692296911 
564	 0,134080349347183 
565	 0,133263272924237 
566	 0,133323761034457 
567	 0,134209105374411 
568	 0,134098879523605 
569	 0,134172753014618 
570	 0,135192525144522 
571	 0,136000299537956 
572	 0,136718712941868 
573	 0,138025098797303 
574	 0,139474274009954 
575	 0,140800661961272 
576	 0,14153479888524 
577	 0,142420104066123 
578	 0,144292265904921 
579	 0,145907093426057 
580	 0,14716591501283 
581	 0,148789902340817 
582	 0,150258063852038 
583	 0,151208263626409 
584	 0,151222850172981 
585	 0,151214036155666 
586	 0,152908424960794 
587	 0,153797100281618 
588	 0,153597345061664 
589	 0,15472247585643 
590	 0,155981376968524 
591	 0,156225441669164 
592	 0,156748580825765 
593	 0,15751487513547 
594	 0,157756537755582 
595	 0,15788400157867 
596	 0,158054029351857 
597	 0,158059343450908 
598	 0,157838958197164 
599	 0,157311902926311 
600	 0,157197451259565 
601	 0,157415221174734 
602	 0,156745654704999 
603	 0,156177829663101 
604	 0,156382894599458 
605	 0,155347829328665 
606	 0,153798362559849 
607	 0,154453604010254 
608	 0,154587032173359 
609	 0,153349935721247 
610	 0,15224661568884 
611	 0,151491220896717 
612	 0,151178204660076 
613	 0,150406233616598 
614	 0,149251814512772 
615	 0,148745035345852 
616	 0,148392820125261 
617	 0,14795290693247 
618	 0,148264547729619 
619	 0,148751087202836 
620	 0,14806001752743 
621	 0,147564396515766 
622	 0,147594739420307 
623	 0,147387330525361 
624	 0,147141920722246 
625	 0,147096612171663 
626	 0,146905324697733 
627	 0,146809519748428 
628	 0,147772557779029 
629	 0,148504468876806 
630	 0,148409456474263 
631	 0,148467379779047 
632	 0,148850922981219 
633	 0,14961686851292 
634	 0,150725856430167 
635	 0,151985092266899 
636	 0,152815917053701 
637	 0,153396174163296 
638	 0,153955871434955 
639	 0,155321489280075 
640	 0,156977804199918 
641	 0,157235090847918 
642	 0,157437534099413 
643	 0,158100194850294 
644	 0,158864169081535 
645	 0,159445349684356 
646	 0,159518658063993 
647	 0,159890566709331 
648	 0,16043396925494 
649	 0,16001279286863 
650	 0,159318628137789 
651	 0,158757741845573 
652	 0,157478145149756 
653	 0,155891757026211 
654	 0,155099557600565 
655	 0,153915546786889 
656	 0,152080514008259 
657	 0,15033930750187 
658	 0,148770076357653 
659	 0,147378617007072 
660	 0,145602316532081 
661	 0,143546943985607 
662	 0,141787997074774 
663	 0,140417976405309 
664	 0,13934882093912 
665	 0,137376371739245 
666	 0,13546913352795 
667	 0,13536748655778 
668	 0,134777136014651 
669	 0,133431444122778 
670	 0,133015093619362 
671	 0,132963893106799 
672	 0,132767805035639 
673	 0,13233664189157 
674	 0,13180905409354 
675	 0,13162941053691 
676	 0,131224599490127 
677	 0,130568375275009 
678	 0,130710361853105 
679	 0,131163587912842 
680	 0,131255080558459 
681	 0,131182941304953 
682	 0,131346079902583 
683	 0,132904972004174 
684	 0,134329563080203 
685	 0,134862749156995 
686	 0,136216174432882 
687	 0,138391124535456 
688	 0,140950918187559 
689	 0,143975332875875 
690	 0,14747347460805 
691	 0,151374587825379 
692	 0,156051721366657 
693	 0,161825439043457 
694	 0,168430443209671 
695	 0,175782325407527 
696	 0,183714067204791 
697	 0,192701703540866 
698	 0,202954470008083 
699	 0,214325354029398 
700	 0,226393722195089 
701	 0,23865055297158 
702	 0,251242116459451 
703	 0,264142047331114 
704	 0,277323860014367 
705	 0,29034991688793 
706	 0,302904168286325 
707	 0,315250085655739 
708	 0,327306395911907 
709	 0,338866718549206 
710	 0,349882860121115 
711	 0,360432322651247 
712	 0,370999318540369 
713	 0,381053680009378 
714	 0,390102880581168 
715	 0,398511319620089 
716	 0,406505832464806 
717	 0,414576720405444 
718	 0,421693317840798 
719	 0,427572971187402 
720	 0,433425048569147 
721	 0,439080409769845 
722	 0,444171342851202 
723	 0,44894484228522 
724	 0,453358532215237 
725	 0,457057236678782 
726	 0,460427684237856 
727	 0,46369535226415 
728	 0,466542807096733 
729	 0,468999336359073 
730	 0,471183511942428 
731	 0,473162139336483 
732	 0,474939366607555 
733	 0,476300344933793 
734	 0,477721383866872 
735	 0,479583802749439 
736	 0,481234850994821 
737	 0,48250152681761 
738	 0,483289285431296 
739	 0,483831926648775 
740	 0,484376362417028 
741	 0,485583597652483 
742	 0,486851438933128 
743	 0,48742587251729 
744	 0,48782027631375 
745	 0,488153044055938 
746	 0,488375642119308 
747	 0,488707745469256 
748	 0,489249587134507 
749	 0,489775410810903 
750	 0,490200263242876 
751	 0,490452181594543 
752	 0,490516950340414 
753	 0,490513388603478 
754	 0,490884989697285 
755	 0,491181504572016 
756	 0,491092142722165 
757	 0,490964619093015 
758	 0,490989774551935 
759	 0,491436038093444 
760	 0,49190179109443 
761	 0,492148682348764 
762	 0,491830396435974 
763	 0,491478908570779 
764	 0,49160496411082 
765	 0,491957650521525 
766	 0,492294129048708 
767	 0,492132347534893 
768	 0,491912595397523 
769	 0,49182391116177 
770	 0,491805138293814 
771	 0,4918988035212 
772	 0,492141711991676 
773	 0,491827544470454 
774	 0,491186558027284 
775	 0,491406709109243 
776	 0,491764417413643 
777	 0,491862369136439 
778	 0,49174229820472 
779	 0,491541644974068 
780	 0,491461561841901 
781	 0,491342851603461 
782	 0,491181823034544 
783	 0,491119258469982 
784	 0,490992921987897 
785	 0,490734643588199 
786	 0,49077678194687 
787	 0,490794225885788 
788	 0,490093809172452 
789	 0,489559680222671 
790	 0,489391320335892 
791	 0,489168163939094 
792	 0,488972632519431 
793	 0,488861547493575 
794	 0,48867994515766 
795	 0,48836710018164 
796	 0,487835773740658 
797	 0,48740795829161 
798	 0,487210226237456 
799	 0,487207810429369 
800	 0,487203272687735 
801	 0,487011365877245 
802	 0,486685570342802 
803	 0,486334426814074 
804	 0,486135382682502 
805	 0,486285941758642 
806	 0,486783434805933 
807	 0,487168570762472 
808	 0,487397525796982 
809	 0,487462229856403 
810	 0,487242341282563 
811	 0,486963312209592 
812	 0,487317828513258 
813	 0,487485645277762 
814	 0,487188510018677 
815	 0,487053004867292 
816	 0,487001914025367 
817	 0,486887880345472 
818	 0,487110631246162 
819	 0,4875186057085 
820	 0,48741627707796 
821	 0,487244174293721 
822	 0,487242764544038 
823	 0,487548236993114 
824	 0,487716206851489 
825	 0,487185275993803 
826	 0,487473154275062 
827	 0,488421504594691 
828	 0,488324092441609 
829	 0,488196831768756 
830	 0,488476347753624 
831	 0,488364796937522 
832	 0,488255098198162 
833	 0,488772145864781 
834	 0,488777657836824 
835	 0,488320126044672 
836	 0,48853255817124 
837	 0,488738477109103 
838	 0,488593365323059 
839	 0,488362398824824 
840	 0,488285018855087 
841	 0,488644534250459 
842	 0,488820650042632 
843	 0,488642141624288 
844	 0,488127627384418 
845	 0,487623614396932 
846	 0,487426838315843 
847	 0,488051642322706 
848	 0,488642511771137 
849	 0,487955863639467 
850	 0,48728894882796 
851	 0,486941878263292 
852	 0,486678717991717 
853	 0,486590106152567 
854	 0,48667394366384 
855	 0,486609580789398 
856	 0,486527880853847 
857	 0,486658613065917 
858	 0,486297704440926 
859	 0,485582239068125 
860	 0,485488639689251 
861	 0,485527741902325 
862	 0,485453496092431 
863	 0,485473472993831 
864	 0,485227253765966 
865	 0,484266760669877 
866	 0,484378337532437 
867	 0,485543417643628 
868	 0,486420373256317 
869	 0,48684786362684 
870	 0,486684853280355 
871	 0,485904428782699 
872	 0,485383966331224 
873	 0,48609986651448 
874	 0,486399777803837 
875	 0,486278699189556 
876	 0,486902013956753 
877	 0,487221159168167 
878	 0,486977790796298 
879	 0,487355333053209 
880	 0,487892735955146 
881	 0,488007272972406 
882	 0,488060631496937 
883	 0,488036880049871 
884	 0,487704675261642 
885	 0,487308047665157 
886	 0,487168059844662 
887	 0,488363970969659 
888	 0,489322432313373 
889	 0,48860369559498 
890	 0,487877093996192 
891	 0,487473057701209 
892	 0,487348970508824 
893	 0,487689338205428 
894	 0,488325904381479 
895	 0,488309960690047 
896	 0,488338053764307 
897	 0,488858538367118 
898	 0,488467997731461 
899	 0,487645051202264 
900	 0,487596899136375 
901	 0,487730282509315 
902	 0,487963874816972 
903	 0,488604819945058 
904	 0,489215498635227 
905	 0,489367183146182 
906	 0,48814650362256 
907	 0,486810072522418 
908	 0,487234122968508 
909	 0,487096888616506 
910	 0,486321903767007 
911	 0,486582569462642 
912	 0,486653080880766 
913	 0,486145658242855 
914	 0,486470308688478 
915	 0,486718649716506 
916	 0,485829617700375 
917	 0,48526484141425 
918	 0,485300321791162 
919	 0,485905570830676 
920	 0,486177833645763 
921	 0,485671374501923 
922	 0,484133832929873 
923	 0,482997081975756 
924	 0,483322763109025 
925	 0,483246344113969 
926	 0,482492944445749 
927	 0,481126581985703 
928	 0,480367734325831 
929	 0,480412030364862 
930	 0,48051553453714 
931	 0,480383967053349 
932	 0,479822305257499 
933	 0,479002221861297 
934	 0,477959682503531 
935	 0,476741056571034 
936	 0,475904883713854 
937	 0,475544630605148 
938	 0,475730810300291 
939	 0,474814405494196 
940	 0,472528609100631 
941	 0,471215690476334 
942	 0,470148310515572 
943	 0,468708895184601 
944	 0,468931011932782 
945	 0,469239499952501 
946	 0,466156742474526 
947	 0,464131134527736 
948	 0,46388738632802 
949	 0,463205641193954 
950	 0,461660730144128 
951	 0,459268577117896 
952	 0,457934915945105 
953	 0,457139141662856 
954	 0,455971811821215 
955	 0,453827151755449 
956	 0,451383067147614 
957	 0,450749130195493 
958	 0,449789971294821 
959	 0,44826058677259 
960	 0,448659724606712 
961	 0,448690673346875 
962	 0,446726563652456 
963	 0,44497161334124 
964	 0,444083906235233 
965	 0,444500417343749 
966	 0,444677123402001 
967	 0,444461584992116 
968	 0,445085597682164 
969	 0,444002145821432 
970	 0,44105378857678 
971	 0,441547406336761 
972	 0,442519407677028 
973	 0,441178127379488 
974	 0,440988019564259 
975	 0,441686402043918 
976	 0,441780121843186 
977	 0,442817164480487 
978	 0,443578807323518 
979	 0,437938040218434 
980	 0,436454235064174 
981	 0,442429701698187 
982	 0,441271219442498 
983	 0,438497176757273 
984	 0,440641075034698 
985	 0,442986176529512 
986	 0,443980716976654 
987	 0,442287884689819 
988	 0,440819620777601 
989	 0,440632113628155 
990	 0,44199800401715 
991	 0,442172194915498 
992	 0,44057556565276 
993	 0,44335739513845 
994	 0,446198526461215 
995	 0,444510726867349 
996	 0,444550303421243 
997	 0,445739163107739 
998	 0,444660215465376 
999	 0,445702845093807 
1000	 0,448538800903212 
1001	 0,447439834130999 
1002	 0,446452589296105 
1003	 0,447609322026761 
1004	 0,449983700026667 
1005	 0,451517209591129 
1006	 0,450560970000939 
1007	 0,450816346063679 
1008	 0,451930163792262 
1009	 0,452094001916791 
1010	 0,452046726409106 
1011	 0,451955330343225 
1012	 0,451747241647324 
1013	 0,451574635077432 
1014	 0,452046116553665 
1015	 0,456243151245537 
1016	 0,457695412090143 
1017	 0,45240837298484 
1018	 0,456024680958049 
1019	 0,461883449861088 
1020	 0,456992227582059 
1021	 0,455675243004795 
1022	 0,45833003384365 
1023	 0,45604042980753 
1024	 0,457339629296571 
1025	 0,462959612798344 
1026	 0,462842512958978 
1027	 0,460899475819323 
1028	 0,459958459544668 
1029	 0,459453312886774 
1030	 0,460223715471803 
1031	 0,463056240000667 
1032	 0,466431710175625 
1033	 0,469660274116159 
1034	 0,472352900036964 
1035	 0,470911899913167 
1036	 0,466398569528751 
1037	 0,466111195012779 
1038	 0,466410572444885 
1039	 0,465848781355631 
1040	 0,465293903632287 
1041	 0,467138320152247 
1042	 0,472133059115219 
1043	 0,470401892853082 
1044	 0,465026376253098 
1045	 0,462347398201113 
1046	 0,466351212136643 
1047	 0,472663244726842 
1048	 0,468494569586339 
1049	 0,468337445637754 
1050	 0,474067213894215 
1051	 0,475747805849943 
1052	 0,472933918167037 
1053	 0,467620319020676 
1054	 0,471961899260568 
1055	 0,477183158545515 
1056	 0,475009721865131 
1057	 0,470497196553181 
1058	 0,464230636173426 
1059	 0,457046848394437 
1060	 0,462119261727432 
1061	 0,473460076135797 
1062	 0,471242096132024 
1063	 0,462651464657999 
1064	 0,4563871274947 
1065	 0,475551811420765 
1066	 0,486593172738647 
1067	 0,478062173148481 
1068	 0,470847602821309 
1069	 0,468958721631266 
1070	 0,472897263717501 
1071	 0,468159251767939 
1072	 0,459320515211815 
1073	 0,453719181598062 
1074	 0,456134569024486 
1075	 0,464398863807564 
