Wavelength	MORB100398.asd
325	 0,236640907685087 
326	 9,98389223147424E-02 
327	 3,44125715159253E-02 
328	 0,168128128247348 
329	 0,251774688350806 
330	 0,212169465854747 
331	 3,46788423979349E-02 
332	 2,21558146818856E-03 
333	 0,109922944998671 
334	 0,226878866704162 
335	 0,222578285261309 
336	 9,44693111737596E-02 
337	 6,29564682356561E-02 
338	 7,77546034870589E-02 
339	 7,60862289916824E-02 
340	 7,80427096002926E-02 
341	 9,06054900131085E-02 
342	 0,131433746077463 
343	 0,139726547113593 
344	 0,11040490278744 
345	 0,130143882155794 
346	 0,139086315103105 
347	 8,42722489797305E-02 
348	 7,47842781100466E-02 
349	 0,112253417548441 
350	 0,131105336946716 
351	 0,113725723374683 
352	 6,60875384157827E-02 
353	 7,30911213157139E-02 
354	 0,11120228797712 
355	 0,146862377139563 
356	 0,156898591469439 
357	 0,141308962003177 
358	 0,12013071419492 
359	 0,102587115442625 
360	 9,29899981362987E-02 
361	 8,66423681317794E-02 
362	 9,72596248699456E-02 
363	 0,141812569751701 
364	 0,151369980582108 
365	 0,118538997073958 
366	 8,98035075468509E-02 
367	 0,081553552475511 
368	 9,52450476693449E-02 
369	 0,106851762291126 
370	 0,107608934082147 
371	 8,63141321967477E-02 
372	 9,09180279047174E-02 
373	 0,120950021639879 
374	 0,113814503504787 
375	 0,103979820754747 
376	 0,117345503816701 
377	 0,127413462182688 
378	 0,129178395884722 
379	 0,120729742470623 
380	 0,123182332724558 
381	 0,136875599619992 
382	 0,128778175983212 
383	 0,113810830116417 
384	 0,108309240758103 
385	 0,106540571166111 
386	 0,109649130357094 
387	 0,125276232697378 
388	 0,130176132100728 
389	 0,117217853260207 
390	 0,105320381438927 
391	 0,104168488802626 
392	 0,122553435844319 
393	 0,123044851661125 
394	 0,109579079386198 
395	 0,119684078514985 
396	 0,127517965853853 
397	 0,1226779825583 
398	 0,13211880333598 
399	 0,141177554139477 
400	 0,125009878577521 
401	 0,118656369714884 
402	 0,124797572085436 
403	 0,113614367878277 
404	 0,1072182884927 
405	 0,11933423565704 
406	 0,122252424626585 
407	 0,118463569422421 
408	 0,121731470704705 
409	 0,12074021200355 
410	 0,115215740386251 
411	 0,118805705193796 
412	 0,120514798725547 
413	 0,11053757061952 
414	 0,110564356077799 
415	 0,11800163227534 
416	 0,116357430622015 
417	 0,114454319443824 
418	 0,115054471573355 
419	 0,112976335629266 
420	 0,109526006893808 
421	 0,106911457968056 
422	 0,107894700324733 
423	 0,111219714024039 
424	 0,11027032895659 
425	 0,111397670093589 
426	 0,117067571322427 
427	 0,114496822524436 
428	 0,108715873908658 
429	 0,111417244017536 
430	 0,113964396269129 
431	 0,114372123911785 
432	 0,115503719654592 
433	 0,115662000798928 
434	 0,113444724827093 
435	 0,110560667796016 
436	 0,10953764678345 
437	 0,116459116130824 
438	 0,120130202019381 
439	 0,116926923030759 
440	 0,115092654997166 
441	 0,114772644489492 
442	 0,11513894608995 
443	 0,115421831182457 
444	 0,115494439410556 
445	 0,115770011303529 
446	 0,116348923635928 
447	 0,117182356647317 
448	 0,117273692361493 
449	 0,117100113220038 
450	 0,117862401319062 
451	 0,117708815103654 
452	 0,116836101973074 
453	 0,119084976823888 
454	 0,120445269341352 
455	 0,117472575550674 
456	 0,117403251839917 
457	 0,120445831988029 
458	 0,123819444289991 
459	 0,12445251806876 
460	 0,121465237707993 
461	 0,119389584600728 
462	 0,118378011807883 
463	 0,117920917655471 
464	 0,118811963022508 
465	 0,12052284194851 
466	 0,121157971000467 
467	 0,120052969339567 
468	 0,117342049508007 
469	 0,11799872169618 
470	 0,120895624220871 
471	 0,122493391709256 
472	 0,123302054325614 
473	 0,123247332268507 
474	 0,122173802928565 
475	 0,120300048740641 
476	 0,117968338584014 
477	 0,11777925302324 
478	 0,119264642326926 
479	 0,119358131031149 
480	 0,120781298312361 
481	 0,123950352904787 
482	 0,123503374011369 
483	 0,121179165790095 
484	 0,120397017198649 
485	 0,118407190411672 
486	 0,116071252108926 
487	 0,119039488016045 
488	 0,122276653936594 
489	 0,121917132913894 
490	 0,119659470795502 
491	 0,117417017593035 
492	 0,11897855849554 
493	 0,12017842549714 
494	 0,119728597338394 
495	 0,119445904461845 
496	 0,118850764243473 
497	 0,117310024015158 
498	 0,118119642166349 
499	 0,120584055204465 
500	 0,120426284543099 
501	 0,11937048758432 
502	 0,118607569590104 
503	 0,119291421404399 
504	 0,120937883432147 
505	 0,122635525050813 
506	 0,122565943467938 
507	 0,121003791658352 
508	 0,12180837418409 
509	 0,123288950981059 
510	 0,123796178002231 
511	 0,124455198075049 
512	 0,125162439937187 
513	 0,125085878694086 
514	 0,125498882615824 
515	 0,126658550221809 
516	 0,126478798205297 
517	 0,125516947564358 
518	 0,124767953349776 
519	 0,125522530652879 
520	 0,127240292154159 
521	 0,126618712056716 
522	 0,125914035396171 
523	 0,126700390019279 
524	 0,127141783778538 
525	 0,127022752120191 
526	 0,126348145579895 
527	 0,126505821450831 
528	 0,127662483563654 
529	 0,127837105477672 
530	 0,127343057159323 
531	 0,126725644004068 
532	 0,126159274903419 
533	 0,125792161630292 
534	 0,125733955026524 
535	 0,126067105660461 
536	 0,126733366623206 
537	 0,126959578908569 
538	 0,126789080111163 
539	 0,126476030215398 
540	 0,126427404920168 
541	 0,126796193789971 
542	 0,127576979952884 
543	 0,128057864043795 
544	 0,127599132980021 
545	 0,127034175579498 
546	 0,126880316852062 
547	 0,128196544180368 
548	 0,128578276488108 
549	 0,127236644342936 
550	 0,127707187613059 
551	 0,128974149795233 
552	 0,128844060502288 
553	 0,128774004235691 
554	 0,128937034022797 
555	 0,128424442244012 
556	 0,127904817547071 
557	 0,127886845262131 
558	 0,127237573517084 
559	 0,12632116238074 
560	 0,126589426079942 
561	 0,126631629235892 
562	 0,126050032583628 
563	 0,12618147336346 
564	 0,126316645060654 
565	 0,125378408415972 
566	 0,125214758010009 
567	 0,125859728583902 
568	 0,125524358360059 
569	 0,125750028216359 
570	 0,1274112871002 
571	 0,127846996283603 
572	 0,127636096658675 
573	 0,1289494878742 
574	 0,130401167980492 
575	 0,131507178319354 
576	 0,132272616883643 
577	 0,133459877826354 
578	 0,135867753569578 
579	 0,137250787470165 
580	 0,13776328876244 
581	 0,139663189296671 
582	 0,14155767924946 
583	 0,142552956822419 
584	 0,142215953244489 
585	 0,141697144735762 
586	 0,143052552628511 
587	 0,144711544549933 
588	 0,146069569291865 
589	 0,146816255703806 
590	 0,14725285797938 
591	 0,147692776439596 
592	 0,148171216125108 
593	 0,148577729800192 
594	 0,148590414077627 
595	 0,14837051487197 
596	 0,1480808742884 
597	 0,14814800498278 
598	 0,148536765279911 
599	 0,14914205674081 
600	 0,149222383941469 
601	 0,148718628760053 
602	 0,14837042157703 
603	 0,148056360446184 
604	 0,147650595965614 
605	 0,146890277314619 
606	 0,146010595951462 
607	 0,145694912587694 
608	 0,145406176763985 
609	 0,144885941453115 
610	 0,143933526184925 
611	 0,142872604552639 
612	 0,142118334117209 
613	 0,141528821830316 
614	 0,141031602887998 
615	 0,140468433637068 
616	 0,139958146022426 
617	 0,139607770549696 
618	 0,139671925938283 
619	 0,139808132103493 
620	 0,139291813952702 
621	 0,138737893095647 
622	 0,138424103086146 
623	 0,138584417874381 
624	 0,138869168820991 
625	 0,138901302605917 
626	 0,138666154028599 
627	 0,138418684144769 
628	 0,138944110698095 
629	 0,139294127782187 
630	 0,139103875525523 
631	 0,139570641529122 
632	 0,140357881950176 
633	 0,140683435105299 
634	 0,14131029057156 
635	 0,142320910283363 
636	 0,143190153785407 
637	 0,143800235615009 
638	 0,144148914129178 
639	 0,145504706837806 
640	 0,14727949791761 
641	 0,147371754473052 
642	 0,147601176232596 
643	 0,148489366007792 
644	 0,148513455837909 
645	 0,148212846371163 
646	 0,14844719191507 
647	 0,148763171467071 
648	 0,148970696702683 
649	 0,14887519883099 
650	 0,148458993378752 
651	 0,147715553411103 
652	 0,146773227261106 
653	 0,145512283384841 
654	 0,143604267747561 
655	 0,141687581061403 
656	 0,140061443996287 
657	 0,138870672995562 
658	 0,137662177237371 
659	 0,135952186403365 
660	 0,133687647991958 
661	 0,131336738742587 
662	 0,130178630252298 
663	 0,129146688351883 
664	 0,12774541698386 
665	 0,126574965187029 
666	 0,125560799128058 
667	 0,124477148003291 
668	 0,123731965505791 
669	 0,123322520633785 
670	 0,122781168040108 
671	 0,122267819591101 
672	 0,121907509293692 
673	 0,121489640819728 
674	 0,121060320269562 
675	 0,120855331014833 
676	 0,120442361419452 
677	 0,119874226477039 
678	 0,120377082404194 
679	 0,121120381068815 
680	 0,121021964869694 
681	 0,120721881721327 
682	 0,120714839769308 
683	 0,122079612910488 
684	 0,123347814845288 
685	 0,123786325791221 
686	 0,125034043067 
687	 0,126956718213337 
688	 0,128861185793386 
689	 0,131642887977598 
690	 0,135371107064462 
691	 0,13908625765197 
692	 0,143239241358326 
693	 0,148288023738748 
694	 0,154502480729118 
695	 0,161517295326068 
696	 0,168103861764394 
697	 0,17593236853429 
698	 0,185602381558871 
699	 0,196075335542005 
700	 0,20698451375424 
701	 0,218004892161203 
702	 0,229121540170518 
703	 0,24020634769264 
704	 0,250924242367091 
705	 0,261794415919529 
706	 0,272997452881131 
707	 0,283308058201515 
708	 0,292973834347716 
709	 0,302829846806879 
710	 0,311923661601052 
711	 0,320145663787461 
712	 0,328432922901711 
713	 0,336295819782855 
714	 0,343274391083613 
715	 0,349938073703039 
716	 0,356382500894208 
717	 0,362692637706084 
718	 0,367950618840547 
719	 0,371977552619177 
720	 0,376270902611411 
721	 0,380666824231551 
722	 0,384758750370723 
723	 0,388542127021927 
724	 0,391914818072767 
725	 0,394597275413497 
726	 0,397027216900775 
727	 0,399485184207301 
728	 0,401778862186919 
729	 0,403862242896233 
730	 0,405685944707748 
731	 0,407478346351307 
732	 0,409198313553534 
733	 0,410320680424635 
734	 0,411296335831545 
735	 0,412536057039169 
736	 0,413875628036787 
737	 0,415165774744903 
738	 0,41613423570324 
739	 0,416876817201178 
740	 0,417507092739585 
741	 0,418420007665145 
742	 0,419390306120757 
743	 0,420113796091077 
744	 0,420571154418266 
745	 0,420834258918354 
746	 0,421118255581062 
747	 0,421481385053686 
748	 0,421936190212956 
749	 0,422228710773086 
750	 0,422565583181861 
751	 0,423319371911925 
752	 0,423832958004432 
753	 0,423943849775319 
754	 0,423778721697978 
755	 0,423770115379291 
756	 0,424205641794724 
757	 0,424591669244998 
758	 0,424898896310625 
759	 0,425241626357358 
760	 0,425614776512864 
761	 0,425916344312755 
762	 0,425698341235897 
763	 0,425417048369587 
764	 0,42552712148655 
765	 0,42594090639197 
766	 0,42652214804364 
767	 0,42701976891571 
768	 0,427275009035997 
769	 0,427247255407768 
770	 0,427151482588229 
771	 0,427282799580856 
772	 0,427934575073885 
773	 0,4281549677122 
774	 0,427948142012741 
775	 0,42804193375713 
776	 0,428234660674743 
777	 0,428409685535377 
778	 0,4284448577986 
779	 0,428407065443996 
780	 0,428420478974337 
781	 0,428336136344498 
782	 0,428216283253192 
783	 0,428427268682739 
784	 0,428567096795561 
785	 0,428386414116988 
786	 0,428152536029109 
787	 0,42806428780509 
788	 0,428423168043098 
789	 0,428460563542161 
790	 0,428051758260292 
791	 0,427745228973782 
792	 0,427599472264114 
793	 0,427627140032382 
794	 0,427537607091605 
795	 0,427327491124158 
796	 0,427101259428102 
797	 0,426893516775476 
798	 0,426792180519454 
799	 0,427118634347361 
800	 0,427348038899546 
801	 0,427005765747558 
802	 0,426716805672584 
803	 0,426586774707892 
804	 0,426521628318971 
805	 0,426663663887301 
806	 0,4270160425993 
807	 0,427334642130768 
808	 0,427544778576865 
809	 0,427607280930717 
810	 0,427948979354621 
811	 0,428404127426825 
812	 0,428215970707562 
813	 0,428253320097452 
814	 0,428721489392204 
815	 0,428467057591751 
816	 0,42804714249611 
817	 0,428225818539195 
818	 0,428443258922962 
819	 0,428658389920612 
820	 0,42916230302245 
821	 0,429497264810291 
822	 0,429471381589599 
823	 0,429459390161593 
824	 0,429412340044345 
825	 0,429223471750524 
826	 0,42922741746502 
827	 0,4294705285004 
828	 0,429828807748239 
829	 0,430146898472359 
830	 0,430304580816757 
831	 0,430199298766899 
832	 0,43002342918059 
833	 0,430045826502091 
834	 0,430146811218386 
835	 0,430281833940598 
836	 0,430439433337743 
837	 0,430376080632642 
838	 0,430048295488091 
839	 0,430095238396349 
840	 0,430466340076057 
841	 0,43097610082727 
842	 0,431263048685205 
843	 0,431207047805546 
844	 0,430812423873893 
845	 0,430350262575215 
846	 0,430110292423396 
847	 0,430911264410187 
848	 0,431571240041915 
849	 0,43034981319821 
850	 0,429861440668391 
851	 0,430368279852291 
852	 0,430414554080396 
853	 0,430282799001886 
854	 0,430135646255706 
855	 0,430129829309308 
856	 0,430264070407594 
857	 0,43050231196213 
858	 0,430148093182342 
859	 0,429415532031505 
860	 0,429617427812785 
861	 0,429533182314943 
862	 0,428772084530477 
863	 0,42928939142763 
864	 0,429833538120828 
865	 0,428585849634409 
866	 0,428834878406322 
867	 0,430413845250555 
868	 0,43040372497625 
869	 0,430194964343359 
870	 0,43027745399188 
871	 0,429518717983761 
872	 0,428788610836869 
873	 0,429208013405163 
874	 0,430170572725893 
875	 0,431176245739677 
876	 0,431316826703334 
877	 0,431094518723536 
878	 0,430813094557499 
879	 0,430864194284171 
880	 0,430994111875925 
881	 0,430919623582581 
882	 0,431378841633472 
883	 0,432055130354397 
884	 0,431756374248221 
885	 0,43133314719037 
886	 0,43131308249604 
887	 0,432728407877645 
888	 0,433771489594975 
889	 0,432840673606356 
890	 0,432375553535609 
891	 0,43259558528746 
892	 0,43299576250188 
893	 0,432992133541395 
894	 0,432591837926089 
895	 0,432915850283434 
896	 0,433205286338951 
897	 0,432920996797198 
898	 0,433100960313807 
899	 0,433620045490239 
900	 0,433993541464514 
901	 0,433911800298327 
902	 0,433602142872377 
903	 0,434315752437581 
904	 0,435043711003866 
905	 0,43510058473124 
906	 0,434502574249761 
907	 0,433944352464953 
908	 0,434376196339962 
909	 0,434578328477814 
910	 0,434343849858672 
911	 0,434032146524524 
912	 0,433767075351547 
913	 0,433669475030677 
914	 0,433988373522051 
915	 0,434164750355085 
916	 0,43358355302931 
917	 0,432628134641656 
918	 0,43189568344818 
919	 0,432674351501529 
920	 0,433289573419779 
921	 0,433023518512779 
922	 0,431685646359972 
923	 0,430580234795572 
924	 0,430711719468937 
925	 0,430622884961806 
926	 0,430232404449829 
927	 0,429842031633241 
928	 0,429368096683474 
929	 0,428800796157836 
930	 0,42816989004509 
931	 0,427467459047046 
932	 0,426722598524762 
933	 0,426129482303297 
934	 0,425485262977881 
935	 0,424544589205158 
936	 0,424720610068728 
937	 0,425548041631761 
938	 0,42494400600654 
939	 0,423791946396999 
940	 0,422446036878078 
941	 0,421034731905652 
942	 0,41960886496053 
943	 0,418254657064491 
944	 0,417483858461756 
945	 0,417313903879735 
946	 0,417706360525204 
947	 0,416400124919574 
948	 0,413458682898962 
949	 0,411693520560385 
950	 0,410585989954945 
951	 0,409775023478884 
952	 0,408742764372057 
953	 0,407856506220516 
954	 0,407564387340007 
955	 0,405920172321015 
956	 0,403543078394143 
957	 0,403068168011471 
958	 0,402471796392635 
959	 0,401508779681599 
960	 0,402545058522324 
961	 0,402332397149677 
962	 0,398912874746567 
963	 0,398146782957697 
964	 0,398636650623871 
965	 0,396972512846449 
966	 0,397118045571355 
967	 0,398912756384411 
968	 0,399001486479093 
969	 0,398326778623936 
970	 0,397437488390441 
971	 0,397209112763193 
972	 0,397239667445877 
973	 0,39711329444938 
974	 0,397236494812372 
975	 0,397282669142371 
976	 0,396599461405459 
977	 0,395913522861338 
978	 0,395273022625553 
979	 0,393733058137874 
980	 0,394195105639357 
981	 0,397123229176356 
982	 0,396005856009304 
983	 0,394703222594743 
984	 0,397274121830354 
985	 0,3978017323478 
986	 0,39625731315398 
987	 0,394554339163496 
988	 0,395586099558227 
989	 0,398878868744162 
990	 0,399284148596435 
991	 0,398995136596877 
992	 0,399365446641425 
993	 0,401501940072836 
994	 0,402390461163827 
995	 0,39934194173265 
996	 0,399621183498422 
997	 0,402036348279175 
998	 0,401569801081639 
999	 0,402297456025715 
1000	 0,404276235262944 
1001	 0,403678673559407 
1002	 0,403102064643394 
1003	 0,403978473901445 
1004	 0,40619395928493 
1005	 0,408833125183159 
1006	 0,410801251808667 
1007	 0,410185998934787 
1008	 0,408838168179288 
1009	 0,410622299111909 
1010	 0,410536619561003 
1011	 0,408926179107554 
1012	 0,411448925085187 
1013	 0,413342614330801 
1014	 0,412784117540595 
1015	 0,411752308523326 
1016	 0,412245884938898 
1017	 0,415551272030321 
1018	 0,419058942396115 
1019	 0,419474153587772 
1020	 0,413114785445994 
1021	 0,415157692316185 
1022	 0,422790920562726 
1023	 0,41743782257497 
1024	 0,412735777183389 
1025	 0,413703706791682 
1026	 0,420501914181081 
1027	 0,423707022762795 
1028	 0,418499217305662 
1029	 0,416829419346661 
1030	 0,418149426925494 
1031	 0,420123305039946 
1032	 0,42310655446791 
1033	 0,42537137050594 
1034	 0,423781013989063 
1035	 0,421560369272238 
1036	 0,420625793778445 
1037	 0,423574120524233 
1038	 0,427685830551818 
1039	 0,43049443706978 
1040	 0,427278503911597 
1041	 0,423070247136569 
1042	 0,42214647712052 
1043	 0,421133272254183 
1044	 0,421583172454469 
1045	 0,425736961234878 
1046	 0,42622398577321 
1047	 0,425114782500083 
1048	 0,431452107442025 
1049	 0,434246637159371 
1050	 0,431207587107351 
1051	 0,427355443877219 
1052	 0,426922589995014 
1053	 0,430320039774961 
1054	 0,425078445389463 
1055	 0,422065410086258 
1056	 0,429942510182969 
1057	 0,433209835663236 
1058	 0,42953770198978 
1059	 0,419984138863635 
1060	 0,416933109485212 
1061	 0,422233328570647 
1062	 0,433853684973468 
1063	 0,439213080800783 
1064	 0,43693999004692 
1065	 0,440535000839823 
1066	 0,438443637770922 
1067	 0,42856163551284 
1068	 0,426824922196748 
1069	 0,428278828194684 
1070	 0,427836709093896 
1071	 0,424146606895539 
1072	 0,419103727649611 
1073	 0,415192387783654 
1074	 0,414576373992487 
1075	 0,421593979455723 
