Wavelength	MORB100457.asd
325	 0,151623291656123 
326	 0,177858032317886 
327	 0,120545913153268 
328	-6,71130947950133E-03 
329	 1,31340857083999E-02 
330	 4,05095594261232E-02 
331	-3,28016923149423E-02 
332	-2,25460445580903E-02 
333	 6,00932389671248E-02 
334	 0,133276065101237 
335	 0,112296894732071 
336	 2,11492067977147E-03 
337	-2,42034558785828E-02 
338	 2,62915532501167E-02 
339	 0,109601586796288 
340	 9,09831653636502E-02 
341	 2,89678175476016E-02 
342	 8,13309268820315E-02 
343	 9,43733854656263E-02 
344	 4,07926468021505E-02 
345	 4,41792721097719E-02 
346	 5,39326758497025E-02 
347	 1,82634153977017E-02 
348	 6,59836938869661E-03 
349	 2,73115285599276E-02 
350	 5,58393403745841E-02 
351	 6,55924128345585E-02 
352	 5,74832292389544E-02 
353	 8,25427555251544E-02 
354	 0,109718036152972 
355	 0,105337448621031 
356	 0,082191364064113 
357	 5,61083351048955E-02 
358	 6,65783911499643E-02 
359	 0,058170063644455 
360	 1,52494253587625E-02 
361	 3,28359334281579E-02 
362	 0,080952726238475 
363	 0,109627358881712 
364	 8,22792958063789E-02 
365	 1,32683742450668E-02 
366	 3,45661565233776E-02 
367	 6,52904529592094E-02 
368	 5,96308589846281E-02 
369	 6,67536563421025E-02 
370	 6,93393991660482E-02 
371	 2,36505293412234E-02 
372	 2,15769302497719E-02 
373	 6,49753438693437E-02 
374	 5,04980291078481E-02 
375	 2,32116578713868E-02 
376	 1,90198302858375E-02 
377	 2,66176562677215E-02 
378	 3,61125988104669E-02 
379	 2,94163381340331E-02 
380	 0,03741466498863 
381	 6,05127612410323E-02 
382	 5,61181200908616E-02 
383	 3,59991945043922E-02 
384	 1,57485724612437E-02 
385	 0,023134106473979 
386	 0,049874284880136 
387	 7,03773574078968E-02 
388	 6,33493854050642E-02 
389	 2,90865054479038E-02 
390	 2,70332093168831E-02 
391	 0,04042691637528 
392	 4,27813432643473E-02 
393	 3,22960226431859E-02 
394	 1,88450652717497E-02 
395	 3,28657374274694E-02 
396	 4,95349008939286E-02 
397	 5,54026758696325E-02 
398	 0,055306877748696 
399	 4,94217644891721E-02 
400	 3,57554545644478E-02 
401	 0,034130825514556 
402	 4,29609487102635E-02 
403	 3,49196818916101E-02 
404	 2,61826189026788E-02 
405	 2,80345168630438E-02 
406	 0,030773640358004 
407	 3,24834121486683E-02 
408	 3,18697820271936E-02 
409	 3,28285250409875E-02 
410	 3,64175227708062E-02 
411	 4,28858175975951E-02 
412	 4,47614748550679E-02 
413	 3,60161967896142E-02 
414	 3,40119928523365E-02 
415	 3,80394627771867E-02 
416	 3,78132596634538E-02 
417	 3,73620353415807E-02 
418	 3,74463759350614E-02 
419	 3,32588275960952E-02 
420	 0,028910466382356 
421	 3,00931214787223E-02 
422	 3,07534652790333E-02 
423	 2,94981439211257E-02 
424	 2,59182851273693E-02 
425	 2,59580864801231E-02 
426	 3,19794846566764E-02 
427	 3,21083550211953E-02 
428	 3,00573561127875E-02 
429	 3,54643703902199E-02 
430	 3,75889340599559E-02 
431	 3,50639120132871E-02 
432	 3,66353844367491E-02 
433	 3,75189957513771E-02 
434	 0,033458679656505 
435	 2,80313050960935E-02 
436	 2,50990097403007E-02 
437	 3,33850706503693E-02 
438	 3,74838440991969E-02 
439	 3,27867806799301E-02 
440	 3,26823866410448E-02 
441	 3,52937128411717E-02 
442	 3,66855363044551E-02 
443	 3,54749506115349E-02 
444	 3,26299777363665E-02 
445	 3,25406247504731E-02 
446	 3,41347617755389E-02 
447	 3,62609483715273E-02 
448	 3,52780136883649E-02 
449	 3,28437457345023E-02 
450	 3,28914261261747E-02 
451	 3,28462087636197E-02 
452	 3,23839364397562E-02 
453	 3,35791861471569E-02 
454	 3,45609124913652E-02 
455	 3,36467436705369E-02 
456	 3,27883630579036E-02 
457	 3,31233929499708E-02 
458	 3,70671168915938E-02 
459	 3,83606942785701E-02 
460	 3,52137316110774E-02 
461	 3,49643025217801E-02 
462	 3,63088969431717E-02 
463	 3,65571413285804E-02 
464	 3,52130798619744E-02 
465	 3,30729423044346E-02 
466	 3,31454731889369E-02 
467	 3,50173792379173E-02 
468	 0,037890368266689 
469	 3,76812868683277E-02 
470	 3,57431583311835E-02 
471	 3,59318069765153E-02 
472	 0,036053337313986 
473	 0,035904598037631 
474	 3,80497903925858E-02 
475	 3,85464373619023E-02 
476	 3,37565291763217E-02 
477	 3,22439699341733E-02 
478	 3,43575373788016E-02 
479	 0,035733601817259 
480	 3,80376336830082E-02 
481	 0,040950094231121 
482	 3,85169133249561E-02 
483	 3,41062792869691E-02 
484	 3,35253929893603E-02 
485	 3,34536642013655E-02 
486	 3,32139685728079E-02 
487	 3,33135139438722E-02 
488	 0,034150434434568 
489	 3,58237896000718E-02 
490	 3,63315083633454E-02 
491	 3,56818789671166E-02 
492	 3,46074737719743E-02 
493	 3,39207689613574E-02 
494	 3,37831457148761E-02 
495	 3,29113711672537E-02 
496	 3,19824789304484E-02 
497	 3,18498826053525E-02 
498	 3,23311666652222E-02 
499	 0,033258677658697 
500	 3,44759987507265E-02 
501	 3,49715925996569E-02 
502	 0,034253902009759 
503	 3,32684020466328E-02 
504	 3,30276330367538E-02 
505	 3,51668222953189E-02 
506	 3,54290295747364E-02 
507	 3,36116945159673E-02 
508	 3,50111463267998E-02 
509	 3,67517769747225E-02 
510	 3,61451688646337E-02 
511	 3,57869313470264E-02 
512	 0,035877916852656 
513	 3,56592591692292E-02 
514	 3,53317302495624E-02 
515	 3,49963423746349E-02 
516	 3,48074247423234E-02 
517	 3,45454245985189E-02 
518	 0,033840737414401 
519	 3,43505858715049E-02 
520	 3,58239781613725E-02 
521	 3,59064750341095E-02 
522	 3,53174039379416E-02 
523	 3,46476401153944E-02 
524	 3,39673435279208E-02 
525	 3,35494021489583E-02 
526	 3,39439426867712E-02 
527	 3,42294731081785E-02 
528	 0,034090741724141 
529	 3,38770829150531E-02 
530	 3,36084042316217E-02 
531	 3,32819988306385E-02 
532	 3,32557970251286E-02 
533	 3,34985954728022E-02 
534	 3,36905312086668E-02 
535	 3,36699691753842E-02 
536	 3,33579924090741E-02 
537	 3,29551474358128E-02 
538	 3,27361836473405E-02 
539	 3,31584805674696E-02 
540	 3,33801855150069E-02 
541	 0,03320868132011 
542	 3,30907726687392E-02 
543	 3,32138273754504E-02 
544	 3,37028280703697E-02 
545	 0,033757647620424 
546	 3,35693517813165E-02 
547	 3,42751977724111E-02 
548	 3,44023749209152E-02 
549	 3,35455025871223E-02 
550	 3,42720965701326E-02 
551	 3,54803393580169E-02 
552	 3,50307141487592E-02 
553	 3,45862487538615E-02 
554	 3,45946223736377E-02 
555	 3,49190990986043E-02 
556	 3,50137494361046E-02 
557	 3,44774372896065E-02 
558	 3,40978452064518E-02 
559	 3,41333499995145E-02 
560	 3,48838928687527E-02 
561	 3,54738618624568E-02 
562	 3,55312640897879E-02 
563	 3,53334751468294E-02 
564	 3,52669997006986E-02 
565	 3,57914219205028E-02 
566	 3,60888041937194E-02 
567	 3,60645319069284E-02 
568	 3,60587830393977E-02 
569	 3,66646371285583E-02 
570	 0,03814916958701 
571	 3,88069775375944E-02 
572	 3,88670483555394E-02 
573	 3,94401186348305E-02 
574	 4,00683549223766E-02 
575	 4,06465013649415E-02 
576	 4,13686491602787E-02 
577	 4,20216161395431E-02 
578	 4,23604938876309E-02 
579	 4,26170726048115E-02 
580	 4,30640757771225E-02 
581	 4,44253870968835E-02 
582	 4,54411775624647E-02 
583	 0,045400320189847 
584	 4,49353817114328E-02 
585	 4,46121731542404E-02 
586	 0,045276630983462 
587	 4,55090156861563E-02 
588	 4,51253553850619E-02 
589	 4,54210906256581E-02 
590	 4,58496674477781E-02 
591	 4,58501706687492E-02 
592	 0,045538134639759 
593	 4,51052290979481E-02 
594	 4,50100588527669E-02 
595	 4,48646313523901E-02 
596	 4,45408680210999E-02 
597	 4,44517016271291E-02 
598	 4,44306825080705E-02 
599	 4,41878475573219E-02 
600	 4,34969434855274E-02 
601	 4,25783325031056E-02 
602	 4,24656231620937E-02 
603	 4,26155367818171E-02 
604	 4,25751636295145E-02 
605	 4,25677149056799E-02 
606	 4,24861649932994E-02 
607	 4,20492333643771E-02 
608	 4,13545321313916E-02 
609	 4,05848580910437E-02 
610	 0,040544302176619 
611	 4,03992800367827E-02 
612	 3,90609198839364E-02 
613	 3,84321595093003E-02 
614	 3,87051708609209E-02 
615	 0,038887464748835 
616	 3,87816433461539E-02 
617	 3,83882676531797E-02 
618	 3,91441510942344E-02 
619	 4,02242007201307E-02 
620	 0,039616759318696 
621	 3,89856370717779E-02 
622	 3,88904180435405E-02 
623	 3,91113177896188E-02 
624	 3,96104486887187E-02 
625	 4,03242812305069E-02 
626	 4,05314112746778E-02 
627	 4,03648255925163E-02 
628	 0,040729340039716 
629	 4,10149342145651E-02 
630	 4,09952693306714E-02 
631	 4,13576426442224E-02 
632	 4,19321616045882E-02 
633	 4,22755059584823E-02 
634	 4,33504027355498E-02 
635	 4,49857699659295E-02 
636	 4,53984805841625E-02 
637	 4,54140560267633E-02 
638	 4,58183301247503E-02 
639	 4,67939526336705E-02 
640	 4,80057029071379E-02 
641	 4,85232552945537E-02 
642	 4,88966146691529E-02 
643	 4,93118002452582E-02 
644	 0,049562188942759 
645	 4,97473245076524E-02 
646	 5,00085266636192E-02 
647	 5,04140458600643E-02 
648	 5,09053112612888E-02 
649	 5,12822552451245E-02 
650	 0,05139637997854 
651	 5,11339908892386E-02 
652	 5,04304461626948E-02 
653	 4,96220510322222E-02 
654	 4,93853403884792E-02 
655	 4,90234905589359E-02 
656	 4,83733916129123E-02 
657	 4,78439443091805E-02 
658	 4,73818065198603E-02 
659	 0,046889180577435 
660	 4,59011512254214E-02 
661	 4,46355259585254E-02 
662	 4,39500939501502E-02 
663	 4,34786433168766E-02 
664	 4,29622041530878E-02 
665	 4,18348296271086E-02 
666	 4,07905806452665E-02 
667	 4,10068504839912E-02 
668	 4,11733464816511E-02 
669	 4,08948384418986E-02 
670	 4,02475846155941E-02 
671	 3,96644360632534E-02 
672	 3,95053670279917E-02 
673	 3,96704790920541E-02 
674	 3,99672063170633E-02 
675	 4,00898310035977E-02 
676	 3,97004852667932E-02 
677	 3,89086179417878E-02 
678	 3,90982443181379E-02 
679	 3,96870027572313E-02 
680	 3,98486883262346E-02 
681	 3,97407646095469E-02 
682	 3,97496068488817E-02 
683	 4,10922749472952E-02 
684	 4,20839509680876E-02 
685	 4,19266157140722E-02 
686	 4,28172181577283E-02 
687	 4,45017012397075E-02 
688	 4,59820301982194E-02 
689	 4,78023769420744E-02 
690	 5,00191532241725E-02 
691	 5,21694992742028E-02 
692	 5,48014758976786E-02 
693	 5,83990954540199E-02 
694	 6,24958411629456E-02 
695	 6,70106848432697E-02 
696	 7,18440726036209E-02 
697	 7,77045546439675E-02 
698	 8,48000590458021E-02 
699	 9,22851856920626E-02 
700	 0,100242484107202 
701	 0,108880282553881 
702	 0,117952330646742 
703	 0,127260443158171 
704	 0,136455184699544 
705	 0,145794336475595 
706	 0,155360053556126 
707	 0,164597806893303 
708	 0,173579379519495 
709	 0,182572241078278 
710	 0,191572300490283 
711	 0,200470294417936 
712	 0,208844490289978 
713	 0,216811421034188 
714	 0,224493610832666 
715	 0,231723261858624 
716	 0,238580524604833 
717	 0,245414876769369 
718	 0,251599618902444 
719	 0,257015420783214 
720	 0,262691147900502 
721	 0,268247726371905 
722	 0,273086112050199 
723	 0,277471187038648 
724	 0,28152756784223 
725	 0,285449708792297 
726	 0,288977789224405 
727	 0,292039497875329 
728	 0,29539994238503 
729	 0,298744894235367 
730	 0,301317946032953 
731	 0,303876594051536 
732	 0,306462124970506 
733	 0,308129929195902 
734	 0,30990030562828 
735	 0,312600650189158 
736	 0,314717243161626 
737	 0,316161678132904 
738	 0,317342959992308 
739	 0,318833446083495 
740	 0,320792116669376 
741	 0,322592892304274 
742	 0,323925439503002 
743	 0,324523097922686 
744	 0,325505961760139 
745	 0,326928560328631 
746	 0,328119046364186 
747	 0,32895783358224 
748	 0,329410868838412 
749	 0,329862728531983 
750	 0,33041646501924 
751	 0,331133651104155 
752	 0,331957024340838 
753	 0,332725297492459 
754	 0,332959167719843 
755	 0,333098955859482 
756	 0,333499263370378 
757	 0,334216371076995 
758	 0,335044043036243 
759	 0,335564857532976 
760	 0,335975887462166 
761	 0,336321569892992 
762	 0,336527617891026 
763	 0,336724487879006 
764	 0,337057597102033 
765	 0,33784292054151 
766	 0,338811746214642 
767	 0,339121399744612 
768	 0,339468312735688 
769	 0,340039551266669 
770	 0,340227645223421 
771	 0,340363050664226 
772	 0,340878510254317 
773	 0,341335348414306 
774	 0,34167863959114 
775	 0,342090271461067 
776	 0,342353489924355 
777	 0,342421040238882 
778	 0,342770904757221 
779	 0,343256576793747 
780	 0,343591159873398 
781	 0,343620210229101 
782	 0,343506204795531 
783	 0,344016757342416 
784	 0,344427833820357 
785	 0,344326517694291 
786	 0,344560853576076 
787	 0,344943087158265 
788	 0,344934393585151 
789	 0,344823795949486 
790	 0,344746077035363 
791	 0,344816273334211 
792	 0,345179197820717 
793	 0,345861018192205 
794	 0,345956052599718 
795	 0,345643092515136 
796	 0,345628952507364 
797	 0,345721884056124 
798	 0,345890090665658 
799	 0,346163611792946 
800	 0,346479958501191 
801	 0,346747123500638 
802	 0,346458273594354 
803	 0,346015361067372 
804	 0,346665383415109 
805	 0,347358167275746 
806	 0,347734699742637 
807	 0,348110658109275 
808	 0,348578370084871 
809	 0,349200071212059 
810	 0,349567057323582 
811	 0,349721029019198 
812	 0,350060876170121 
813	 0,350230676847322 
814	 0,350194137236246 
815	 0,35058369432864 
816	 0,351229299469281 
817	 0,351849974687352 
818	 0,352193509343627 
819	 0,352260076370794 
820	 0,352209456505776 
821	 0,352470958332187 
822	 0,353150156702312 
823	 0,353378865356035 
824	 0,353477291841428 
825	 0,353962792848017 
826	 0,354141785920933 
827	 0,35409138329042 
828	 0,354604917476022 
829	 0,354999013726507 
830	 0,354965316358355 
831	 0,354930218586135 
832	 0,355183063206989 
833	 0,356032811631048 
834	 0,356359911495504 
835	 0,356102710704569 
836	 0,356051507649248 
837	 0,356129393148516 
838	 0,356325556520638 
839	 0,356716596891722 
840	 0,35711327367943 
841	 0,35725268623798 
842	 0,357434555146492 
843	 0,357665252383565 
844	 0,357701310312493 
845	 0,357711694844298 
846	 0,357851092331292 
847	 0,358515255907694 
848	 0,359098103504696 
849	 0,358710542549546 
850	 0,35882988871994 
851	 0,359430958609312 
852	 0,359118911812607 
853	 0,358797610126082 
854	 0,358993852904742 
855	 0,359689800328659 
856	 0,36037509905785 
857	 0,360377382070847 
858	 0,360159763499701 
859	 0,359949192019339 
860	 0,360102652055845 
861	 0,359995260562287 
862	 0,359491478737356 
863	 0,360024533713561 
864	 0,360705221921362 
865	 0,36022113832265 
866	 0,360190544374371 
867	 0,36079120326369 
868	 0,361446538569058 
869	 0,361612214547097 
870	 0,36113974722061 
871	 0,360983155722025 
872	 0,361247478825395 
873	 0,36190631419691 
874	 0,362129601912064 
875	 0,362055524269456 
876	 0,362745146786868 
877	 0,363053040790521 
878	 0,362690311155751 
879	 0,362884681954304 
880	 0,363492934995847 
881	 0,364215509261814 
882	 0,364454927233913 
883	 0,364315008971279 
884	 0,364407827983021 
885	 0,364611225028309 
886	 0,36489800660536 
887	 0,365234555161407 
888	 0,365553391203159 
889	 0,365781740929318 
890	 0,365784911967818 
891	 0,365676893132444 
892	 0,365692958464914 
893	 0,366262537501276 
894	 0,367200875544964 
895	 0,366949570177577 
896	 0,366998031846459 
897	 0,368320116971917 
898	 0,368184002804478 
899	 0,367283376756794 
900	 0,367589698649589 
901	 0,3680750238142 
902	 0,368411845122678 
903	 0,368354656318216 
904	 0,368715877002624 
905	 0,369808726007556 
906	 0,369938148142356 
907	 0,36963593940907 
908	 0,369953731361481 
909	 0,369640012503569 
910	 0,368760916833882 
911	 0,368357571420238 
912	 0,368547823914321 
913	 0,369172907244321 
914	 0,368722917618747 
915	 0,36848545377319 
916	 0,369880087881462 
917	 0,369600207918642 
918	 0,368350951021739 
919	 0,369765657795756 
920	 0,370384441399544 
921	 0,369286764680559 
922	 0,368146315153565 
923	 0,367675683750838 
924	 0,368218755075371 
925	 0,367614469368146 
926	 0,366228569261799 
927	 0,365314703889865 
928	 0,365822705887358 
929	 0,367115469356532 
930	 0,365761352565623 
931	 0,364281438622082 
932	 0,364136980525405 
933	 0,36425761198744 
934	 0,364035733419114 
935	 0,362882874168116 
936	 0,361953445712235 
937	 0,36138558397863 
938	 0,360737112675667 
939	 0,360262635502814 
940	 0,360014558032376 
941	 0,359942266636887 
942	 0,359268666981939 
943	 0,357488536798466 
944	 0,356729118668685 
945	 0,356349782251955 
946	 0,354483026938787 
947	 0,352975380627142 
948	 0,352142762727725 
949	 0,351210868948813 
950	 0,349898957831062 
951	 0,348118594266552 
952	 0,346176119808344 
953	 0,3454967965301 
954	 0,347433793105186 
955	 0,345257000712808 
956	 0,340250049754186 
957	 0,339412468579217 
958	 0,339075930728718 
959	 0,338356233344362 
960	 0,338816398085148 
961	 0,3387220649597 
962	 0,337062484776859 
963	 0,337504781488945 
964	 0,337986006485117 
965	 0,334673616672164 
966	 0,335311872125681 
967	 0,339041384306581 
968	 0,337032128668327 
969	 0,334866411402834 
970	 0,334676852658438 
971	 0,334263955949474 
972	 0,334136608609232 
973	 0,33477155318178 
974	 0,335238806822949 
975	 0,335396562741053 
976	 0,335343318433184 
977	 0,334858875331959 
978	 0,334187671951644 
979	 0,334167341054221 
980	 0,334872730836706 
981	 0,336037805017532 
982	 0,336032381159073 
983	 0,335418020434004 
984	 0,335003575829981 
985	 0,335494748567875 
986	 0,336973078852621 
987	 0,339389049014482 
988	 0,339817873721202 
989	 0,338228312663505 
990	 0,337892097464146 
991	 0,338155421834991 
992	 0,338878732282287 
993	 0,341191325579803 
994	 0,342973458341511 
995	 0,342140201051113 
996	 0,341079401225989 
997	 0,341026338021735 
998	 0,343357319196282 
999	 0,345804949269206 
1000	 0,347156876480749 
1001	 0,346009150070533 
1002	 0,344467666428425 
1003	 0,344025977229366 
1004	 0,345979166615697 
1005	 0,348263393354918 
1006	 0,348780186662086 
1007	 0,348299184380659 
1008	 0,348179709742135 
1009	 0,350525667880039 
1010	 0,352796919592875 
1011	 0,354372696955827 
1012	 0,355654541640355 
1013	 0,356904351416371 
1014	 0,357709950823654 
1015	 0,355154182771607 
1016	 0,352895995303148 
1017	 0,354094309932426 
1018	 0,357650425791273 
1019	 0,360405528236125 
1020	 0,358234065552223 
1021	 0,360207341107236 
1022	 0,365501644203158 
1023	 0,365963815435942 
1024	 0,363687214519864 
1025	 0,360673412103686 
1026	 0,362962374016041 
1027	 0,364521082582518 
1028	 0,361989769501787 
1029	 0,361902542661869 
1030	 0,36212806733532 
1031	 0,359965579114098 
1032	 0,364938761158359 
1033	 0,372659776335586 
1034	 0,370981143540699 
1035	 0,370801928773084 
1036	 0,373317381715326 
1037	 0,371525810162739 
1038	 0,36980554175605 
1039	 0,369814623732432 
1040	 0,368435099339757 
1041	 0,369983568669916 
1042	 0,376604579695827 
1043	 0,374611143885223 
1044	 0,370815962252623 
1045	 0,376513041023369 
1046	 0,377963751454211 
1047	 0,376021575018332 
1048	 0,379769521001948 
1049	 0,381529074644394 
1050	 0,379887587873679 
1051	 0,37949611039773 
1052	 0,375720919728868 
1053	 0,3684079729335 
1054	 0,367553078875353 
1055	 0,373348637296908 
1056	 0,383102329301519 
1057	 0,379907783695038 
1058	 0,367546910807531 
1059	 0,35652005998434 
1060	 0,363690784379877 
1061	 0,381775193674361 
1062	 0,385778449005293 
1063	 0,377837612005564 
1064	 0,365972750785167 
1065	 0,377512216543489 
1066	 0,387619238832933 
1067	 0,386282152101594 
1068	 0,37951311268274 
1069	 0,37993864708787 
1070	 0,391711010338837 
1071	 0,372281709491801 
1072	 0,348205425202263 
1073	 0,353741515103951 
1074	 0,36120611602923 
1075	 0,367895360767491 
