Wavelength	MORB100164.asd
325	 0,309315408023566 
326	 0,225104237488455 
327	 9,50875176578163E-02 
328	 0,048336911308884 
329	 0,130054729996826 
330	 0,15616149880183 
331	 1,19383603604547E-02 
332	 3,06638529038751E-02 
333	 0,138022657552115 
334	 3,20167498593926E-02 
335	 1,62210139504093E-02 
336	 0,123710016118778 
337	 8,47746500538379E-02 
338	 0,027413470071985 
339	 6,34538939360547E-02 
340	 6,19500343472973E-02 
341	 5,09689728720922E-02 
342	 0,13296314230554 
343	 0,148564952310068 
344	 7,49676122019032E-02 
345	 0,073949074084432 
346	 0,10588780666721 
347	 0,124793654814755 
348	 5,92643009493625E-02 
349	-3,43959072015062E-02 
350	 3,44559277843456E-02 
351	 7,70476518453002E-02 
352	 0,05163742110307 
353	 8,30887209504819E-02 
354	 0,115274447255527 
355	 8,24853895216369E-02 
356	 0,068395079996045 
357	 7,17029998973947E-02 
358	 3,26121185293631E-02 
359	-2,98174333918013E-03 
360	-9,85897993414922E-03 
361	 3,65429459949005E-02 
362	 9,39741875357983E-02 
363	 0,111897969865681 
364	 9,65122890583931E-02 
365	 6,03900428095767E-02 
366	 6,73976596033574E-02 
367	 8,05649489637335E-02 
368	 7,59326320919384E-02 
369	 5,10580048422808E-02 
370	 3,00181594364465E-02 
371	 5,94721056671514E-02 
372	 6,45144190757894E-02 
373	 3,82394994212701E-02 
374	 4,55779816173642E-02 
375	 5,73078426479054E-02 
376	 5,09799492126521E-02 
377	 4,43002859085907E-02 
378	 4,13555645401845E-02 
379	 4,26684193877538E-02 
380	 5,36405800838725E-02 
381	 6,96767704140224E-02 
382	 6,47638959722277E-02 
383	 5,02807836104441E-02 
384	 3,98684046925354E-02 
385	 5,08036770375212E-02 
386	 7,26720496539434E-02 
387	 7,77103714302398E-02 
388	 6,65388670564555E-02 
389	 4,39641153269063E-02 
390	 3,63246622781334E-02 
391	 3,88553822639644E-02 
392	 4,28550706134175E-02 
393	 3,75753974011772E-02 
394	 2,98515750588663E-02 
395	 4,89948875158793E-02 
396	 6,16304261888541E-02 
397	 5,38594854019464E-02 
398	 6,02167594255837E-02 
399	 6,46083117821071E-02 
400	 3,73977964640597E-02 
401	 2,89473574172143E-02 
402	 4,41881857184197E-02 
403	 4,70484492685999E-02 
404	 4,42643116717687E-02 
405	 4,10016314867249E-02 
406	 3,81990649277706E-02 
407	 3,76205564670254E-02 
408	 4,24060660288526E-02 
409	 4,57786501941427E-02 
410	 4,60948379335202E-02 
411	 4,60573414951592E-02 
412	 4,59108626587417E-02 
413	 0,045837880345182 
414	 0,047976990136352 
415	 0,050689084817664 
416	 4,92817322740609E-02 
417	 4,66470754618671E-02 
418	 4,42060847673115E-02 
419	 4,19457667885212E-02 
420	 4,11141679587419E-02 
421	 4,32397442990693E-02 
422	 4,45679238532547E-02 
423	 4,39113268725346E-02 
424	 3,99369874534031E-02 
425	 3,90606433230597E-02 
426	 4,42592523621413E-02 
427	 4,62388512595956E-02 
428	 4,58819272710403E-02 
429	 4,70219157274177E-02 
430	 4,70135978489191E-02 
431	 4,60640764518849E-02 
432	 4,81865403207329E-02 
433	 5,02469826533253E-02 
434	 4,94230817662814E-02 
435	 4,66653465975169E-02 
436	 4,40411482352805E-02 
437	 4,63782534064645E-02 
438	 4,77482223557849E-02 
439	 4,65878495971413E-02 
440	 4,90122690146698E-02 
441	 5,22823722833078E-02 
442	 5,23107240556125E-02 
443	 5,06260308427229E-02 
444	 4,89166854396952E-02 
445	 5,16578745327538E-02 
446	 5,37380671184376E-02 
447	 5,22165642666281E-02 
448	 5,11778113603437E-02 
449	 5,10995820460221E-02 
450	 5,17902185795469E-02 
451	 5,21172865488952E-02 
452	 0,052016125743401 
453	 5,35384436275383E-02 
454	 5,36935214477025E-02 
455	 5,00464855580727E-02 
456	 4,95308812525183E-02 
457	 5,21945968006131E-02 
458	 5,46051461758019E-02 
459	 5,59743994756799E-02 
460	 5,57352505207077E-02 
461	 5,37145464354174E-02 
462	 5,22880051972919E-02 
463	 5,45182654917106E-02 
464	 5,54003396803931E-02 
465	 5,41686955148929E-02 
466	 5,26403391930068E-02 
467	 5,24656834614443E-02 
468	 5,45689594688637E-02 
469	 5,68807496323655E-02 
470	 5,81018049823459E-02 
471	 5,61333221226698E-02 
472	 5,63462756018592E-02 
473	 5,92709903819572E-02 
474	 5,86129692662361E-02 
475	 5,57472326689375E-02 
476	 5,25857342241516E-02 
477	 5,31431239376409E-02 
478	 5,61144317879186E-02 
479	 0,05520924499486 
480	 5,56755255966044E-02 
481	 5,90947516618757E-02 
482	 5,95275031955304E-02 
483	 5,74002484325567E-02 
484	 5,41658853100555E-02 
485	 5,31289472568281E-02 
486	 5,49629136584874E-02 
487	 5,80833888106842E-02 
488	 6,07755199039408E-02 
489	 6,16700747320893E-02 
490	 6,03184129969206E-02 
491	 5,83807335180764E-02 
492	 5,98083556117845E-02 
493	 6,06548624353037E-02 
494	 5,99319293197524E-02 
495	 0,060165477945829 
496	 6,08297783884115E-02 
497	 6,11301681002758E-02 
498	 6,09604157321148E-02 
499	 6,05499521416649E-02 
500	 6,06257056596467E-02 
501	 0,061050177122589 
502	 0,061704408428253 
503	 6,22607106071129E-02 
504	 6,27578376171058E-02 
505	 6,34718740373018E-02 
506	 6,31513684419148E-02 
507	 6,19818715898195E-02 
508	 6,22078911168803E-02 
509	 6,35248237095681E-02 
510	 6,54179994176824E-02 
511	 6,55770759881625E-02 
512	 6,45504533162527E-02 
513	 6,49956706611902E-02 
514	 6,53548340376998E-02 
515	 6,51504851578788E-02 
516	 6,56898578513359E-02 
517	 0,06635455979438 
518	 6,61165473958944E-02 
519	 6,64086982310901E-02 
520	 6,73107306316683E-02 
521	 0,067815289400603 
522	 6,78460116294721E-02 
523	 6,74411653891644E-02 
524	 0,067470309740768 
525	 6,78950645392837E-02 
526	 6,82348543498794E-02 
527	 6,87959631004653E-02 
528	 6,96685483402461E-02 
529	 7,09876161184804E-02 
530	 7,18274788956643E-02 
531	 7,11764250815599E-02 
532	 7,06318593589165E-02 
533	 7,07703833564092E-02 
534	 7,21840577312674E-02 
535	 0,073001136658621 
536	 7,22497362352293E-02 
537	 7,18066199055492E-02 
538	 7,20164909513936E-02 
539	 7,30578415315868E-02 
540	 7,36954550929712E-02 
541	 7,35638583845527E-02 
542	 7,30196582618601E-02 
543	 7,29561409513741E-02 
544	 7,41485581490507E-02 
545	 0,075100975381547 
546	 7,55451956912959E-02 
547	 7,57340119072058E-02 
548	 7,57931303093124E-02 
549	 7,58491181219338E-02 
550	 7,61037347261534E-02 
551	 7,65316462481434E-02 
552	 7,70759136098506E-02 
553	 7,72062262214274E-02 
554	 0,077081224589892 
555	 7,81077931631571E-02 
556	 7,87873212116495E-02 
557	 7,79826086669127E-02 
558	 7,78769696151516E-02 
559	 7,86215399200468E-02 
560	 7,96059998891579E-02 
561	 8,04796071644676E-02 
562	 8,09020581471448E-02 
563	 8,01265319488402E-02 
564	 7,93852821742136E-02 
565	 8,03429401554669E-02 
566	 8,07966456844151E-02 
567	 8,05676997914587E-02 
568	 8,11535169273882E-02 
569	 8,17468572188778E-02 
570	 8,18366113345009E-02 
571	 8,23030730241411E-02 
572	 8,29218821928069E-02 
573	 8,29181870421973E-02 
574	 8,29088967968306E-02 
575	 8,31891964525665E-02 
576	 8,40766009672348E-02 
577	 0,084959347612314 
578	 8,51334007729707E-02 
579	 8,49241615422117E-02 
580	 8,47293225378973E-02 
581	 8,54487930074715E-02 
582	 0,086506583962338 
583	 8,73277123147761E-02 
584	 8,61967358329217E-02 
585	 8,47326772578996E-02 
586	 8,62192867464791E-02 
587	 8,68935157103924E-02 
588	 8,62191919112981E-02 
589	 8,73493175695003E-02 
590	 8,83704272062295E-02 
591	 0,08748914347359 
592	 8,70355928177664E-02 
593	 8,73515805384592E-02 
594	 8,80972368366622E-02 
595	 8,85792006773747E-02 
596	 8,84640935916854E-02 
597	 8,82122398997613E-02 
598	 8,80416916511431E-02 
599	 8,81908134420254E-02 
600	 0,088143361781674 
601	 8,79647940380692E-02 
602	 0,0885623227052 
603	 8,89716350146782E-02 
604	 0,088471706988009 
605	 8,80247429619344E-02 
606	 8,79487829174666E-02 
607	 8,85786010278907E-02 
608	 8,93503547376437E-02 
609	 0,089866278703185 
610	 8,95122455644504E-02 
611	 8,87394196055994E-02 
612	 8,81686043162729E-02 
613	 8,81981198083927E-02 
614	 8,86156320042433E-02 
615	 8,82575770278395E-02 
616	 8,80789371427819E-02 
617	 8,86480210907435E-02 
618	 8,92873035655347E-02 
619	 8,96466537701473E-02 
620	 8,92301232738275E-02 
621	 8,89874913641589E-02 
622	 8,92636399272809E-02 
623	 8,99882099449377E-02 
624	 9,05103951851298E-02 
625	 9,01953767854952E-02 
626	 8,96951364704485E-02 
627	 8,94542008786203E-02 
628	 9,03093897479471E-02 
629	 9,10106267852185E-02 
630	 9,09620971234508E-02 
631	 9,11237462955615E-02 
632	 9,12796447571752E-02 
633	 9,08666145494849E-02 
634	 9,09609734239785E-02 
635	 9,16877055357945E-02 
636	 9,21913236686363E-02 
637	 9,23864545664489E-02 
638	 9,22820755240484E-02 
639	 9,28009011585756E-02 
640	 9,35459160642392E-02 
641	 9,29925062490702E-02 
642	 9,27644224958034E-02 
643	 9,33768144543426E-02 
644	 9,36856429445109E-02 
645	 9,35771595427081E-02 
646	 9,30407406564829E-02 
647	 9,34830048888437E-02 
648	 9,46314370354743E-02 
649	 9,41710195602517E-02 
650	 9,37680013383132E-02 
651	 9,44328720071058E-02 
652	 9,45786103866133E-02 
653	 9,41855613671142E-02 
654	 9,36650957240717E-02 
655	 9,33480682988996E-02 
656	 9,32387490496031E-02 
657	 0,092512174604626 
658	 9,20357838417901E-02 
659	 9,26699228212752E-02 
660	 9,20910015162596E-02 
661	 9,06572998585631E-02 
662	 0,090907496633807 
663	 9,10687069468836E-02 
664	 9,04009344336347E-02 
665	 9,03216252894797E-02 
666	 0,090578056994164 
667	 9,05264859704638E-02 
668	 9,06817033779772E-02 
669	 9,08870235998225E-02 
670	 8,99383661217359E-02 
671	 8,92461959439501E-02 
672	 0,089904717981441 
673	 9,06167154116114E-02 
674	 9,10815454057587E-02 
675	 9,12652463826557E-02 
676	 9,08688962530179E-02 
677	 9,00802344915604E-02 
678	 9,04776160267841E-02 
679	 0,091316778142966 
680	 9,15643718463077E-02 
681	 9,17246158432765E-02 
682	 9,19647178756164E-02 
683	 9,24934640847456E-02 
684	 0,092966528242385 
685	 9,32444531357702E-02 
686	 9,39685747355606E-02 
687	 9,49042299752736E-02 
688	 9,54848225286527E-02 
689	 9,61673257816354E-02 
690	 0,097096196086167 
691	 9,82900059089219E-02 
692	 9,94484109307675E-02 
693	 0,100321362507739 
694	 0,10133687020084 
695	 0,102515047223887 
696	 0,103618099792756 
697	 0,105074704852333 
698	 0,106976951818329 
699	 0,108695700183669 
700	 0,110398953477385 
701	 0,112377262062543 
702	 0,114535483474091 
703	 0,116714469980142 
704	 0,118470666498964 
705	 0,120282442269555 
706	 0,122396943431631 
707	 0,124169913227555 
708	 0,125712539311335 
709	 0,127360270069307 
710	 0,129373378423859 
711	 0,131567784491293 
712	 0,132795166926493 
713	 0,133566168647771 
714	 0,134422268090842 
715	 0,135381119971079 
716	 0,13652556076567 
717	 0,138077631367914 
718	 0,139259885908196 
719	 0,139825624739607 
720	 0,14056927211833 
721	 0,141418434807015 
722	 0,142178657007346 
723	 0,143188724310417 
724	 0,144251504822414 
725	 0,144440839602388 
726	 0,144688767064074 
727	 0,145510698694786 
728	 0,14602636756424 
729	 0,146298711723607 
730	 0,146653949344144 
731	 0,146973389071072 
732	 0,147285048091595 
733	 0,147768409358714 
734	 0,148405185006236 
735	 0,149136549807033 
736	 0,149497249202225 
737	 0,149603543332339 
738	 0,149997156584393 
739	 0,15021635706727 
740	 0,150176497230876 
741	 0,150356839150125 
742	 0,150705225227535 
743	 0,151104946056787 
744	 0,151179279975247 
745	 0,151054993461891 
746	 0,151423043774528 
747	 0,151749118293179 
748	 0,151789473326162 
749	 0,152014029511689 
750	 0,152246619433765 
751	 0,152128757159648 
752	 0,152203146108842 
753	 0,152544745013153 
754	 0,15279952565763 
755	 0,153118687862511 
756	 0,153576312693068 
757	 0,15379558097536 
758	 0,153826389108855 
759	 0,153879011162769 
760	 0,15404874577652 
761	 0,154274217905787 
762	 0,154037405756439 
763	 0,153852162524942 
764	 0,154210733212585 
765	 0,154761499853758 
766	 0,155277973745151 
767	 0,155365691607659 
768	 0,155511848243246 
769	 0,15586312444294 
770	 0,156075551430873 
771	 0,156077300645962 
772	 0,155832456772342 
773	 0,155843336265485 
774	 0,156184122319823 
775	 0,156756140272556 
776	 0,156908295796953 
777	 0,156433913699686 
778	 0,156540656511154 
779	 0,156993237536364 
780	 0,157247562638969 
781	 0,157040264462961 
782	 0,156622660382019 
783	 0,157202939264208 
784	 0,157775943444334 
785	 0,157746172045125 
786	 0,158163425753464 
787	 0,158636385434007 
788	 0,158214483749522 
789	 0,157850704436062 
790	 0,157845056932588 
791	 0,158076912800141 
792	 0,158435406448367 
793	 0,158802072043559 
794	 0,158974504303295 
795	 0,159006915366403 
796	 0,159101449699602 
797	 0,159160435634329 
798	 0,159187047796093 
799	 0,159300999660994 
800	 0,159478859797866 
801	 0,159675305931061 
802	 0,159646374048247 
803	 0,159508458613058 
804	 0,159661543293744 
805	 0,159883615382246 
806	 0,160119262014322 
807	 0,160530816686937 
808	 0,160850394417527 
809	 0,160799237741803 
810	 0,160709076247747 
811	 0,16070855074484 
812	 0,160931087826026 
813	 0,161172118746016 
814	 0,161285104687334 
815	 0,160994271361673 
816	 0,160772117448291 
817	 0,161184440047788 
818	 0,161530567847685 
819	 0,161708791775086 
820	 0,16201588619396 
821	 0,161882409895393 
822	 0,161248097587633 
823	 0,16159066130736 
824	 0,162084307793749 
825	 0,161506158587971 
826	 0,161149413667192 
827	 0,161382090417739 
828	 0,162426624357926 
829	 0,162927280831317 
830	 0,162321773819821 
831	 0,162158015527294 
832	 0,16241656892252 
833	 0,162822248062575 
834	 0,162948953689329 
835	 0,162832718793295 
836	 0,163100407638083 
837	 0,162982683321821 
838	 0,162258662688354 
839	 0,162436659420431 
840	 0,163013742284738 
841	 0,163045430860205 
842	 0,163269237273791 
843	 0,163576867019582 
844	 0,162984801878384 
845	 0,162718279640982 
846	 0,163341338724541 
847	 0,163631826332267 
848	 0,16367239549267 
849	 0,163784597763802 
850	 0,163714704415368 
851	 0,163523878406501 
852	 0,163607571158158 
853	 0,163549028650487 
854	 0,163221083386165 
855	 0,163391846982836 
856	 0,163762982343593 
857	 0,163816732900862 
858	 0,163704250528479 
859	 0,163548269548808 
860	 0,163693313780561 
861	 0,163532132154867 
862	 0,162921220014231 
863	 0,163134210334482 
864	 0,163616148059051 
865	 0,163483732811242 
866	 0,163536651896642 
867	 0,163912283144939 
868	 0,164545748792802 
869	 0,16479813747178 
870	 0,164356643709311 
871	 0,163400876000973 
872	 0,162859912380301 
873	 0,16373704439701 
874	 0,164008412830508 
875	 0,163641961490512 
876	 0,163980765479508 
877	 0,164110330066499 
878	 0,163783354606739 
879	 0,163767788061352 
880	 0,164084667555386 
881	 0,164653128414934 
882	 0,164890216658934 
883	 0,164775108422717 
884	 0,164576643494165 
885	 0,164475170017493 
886	 0,164670600681581 
887	 0,165747724185055 
888	 0,166347324033923 
889	 0,165295475822908 
890	 0,164585070065228 
891	 0,164425983828202 
892	 0,164380130794679 
893	 0,164626743204795 
894	 0,165090718103559 
895	 0,165304292122887 
896	 0,165532560943929 
897	 0,165924210277174 
898	 0,165726538473709 
899	 0,165239575172456 
900	 0,165170191924002 
901	 0,165506016678909 
902	 0,166079766902296 
903	 0,166263036267044 
904	 0,166316291587288 
905	 0,166403542164674 
906	 0,16647168133528 
907	 0,166415121601491 
908	 0,166095908364931 
909	 0,166065038140072 
910	 0,1662191595845 
911	 0,165673739946951 
912	 0,165647199256348 
913	 0,166469037967701 
914	 0,166412846701512 
915	 0,166019503851408 
916	 0,166047632136577 
917	 0,166042544608796 
918	 0,166040132133835 
919	 0,166311594003766 
920	 0,166751138403592 
921	 0,167138173415023 
922	 0,166747710742275 
923	 0,166115833043144 
924	 0,165752887412881 
925	 0,165650127533486 
926	 0,165926918361414 
927	 0,166793327108261 
928	 0,167111129367547 
929	 0,166723296225124 
930	 0,166434448463235 
931	 0,166162410473654 
932	 0,165876221940546 
933	 0,165507560966032 
934	 0,165440658817305 
935	 0,166123846866271 
936	 0,166236073120687 
937	 0,165966258463031 
938	 0,166792291086752 
939	 0,16734435199839 
940	 0,167176351488256 
941	 0,166944132562549 
942	 0,166608899646122 
943	 0,16617142912812 
944	 0,166151545820571 
945	 0,166712257522557 
946	 0,168063698108229 
947	 0,167565027583137 
948	 0,165408829721269 
949	 0,165209633720346 
950	 0,165860602266322 
951	 0,166584647970082 
952	 0,166749142958949 
953	 0,166770878792523 
954	 0,167197200598457 
955	 0,166365129071652 
956	 0,164851664071644 
957	 0,164979350189249 
958	 0,164985985525811 
959	 0,164843224162876 
960	 0,167436081321194 
961	 0,168774742977144 
962	 0,16627492092543 
963	 0,165678347308655 
964	 0,166306957632613 
965	 0,165841958400317 
966	 0,166235292708113 
967	 0,167140256365479 
968	 0,166043468746108 
969	 0,165352124811739 
970	 0,165961740393923 
971	 0,166685451633996 
972	 0,166887083929037 
973	 0,166245435305646 
974	 0,167164680940574 
975	 0,168406760140152 
976	 0,167045231554638 
977	 0,167147399981789 
978	 0,168723916469508 
979	 0,167620760709161 
980	 0,167448564756506 
981	 0,16924456145567 
982	 0,167806186739507 
983	 0,166069525292511 
984	 0,167244020352187 
985	 0,1683173603379 
986	 0,168682522999807 
987	 0,168201848066774 
988	 0,16909492820575 
989	 0,170651849088064 
990	 0,167557747735793 
991	 0,166251880983396 
992	 0,169282582721522 
993	 0,169930054267949 
994	 0,169345180298077 
995	 0,169332365413725 
996	 0,169742320858252 
997	 0,170281627301943 
998	 0,170352462260895 
999	 0,170542086123172 
1000	 0,170765300897311 
1001	 0,170181693814937 
1002	 0,169147594425712 
1003	 0,168465805745721 
1004	 0,171562214317228 
1005	 0,173984185008131 
1006	 0,171564656449038 
1007	 0,169467293133636 
1008	 0,1699347465103 
1009	 0,175192445681172 
1010	 0,176710028212548 
1011	 0,173765582249489 
1012	 0,172198339433295 
1013	 0,171539472361032 
1014	 0,171658522172669 
1015	 0,17181051719554 
1016	 0,172312123980921 
1017	 0,173288561890799 
1018	 0,173285999228283 
1019	 0,172125227108352 
1020	 0,170020412446002 
1021	 0,172329340672859 
1022	 0,176755813409155 
1023	 0,173303564824326 
1024	 0,169173959951318 
1025	 0,167871336339357 
1026	 0,172865853902157 
1027	 0,175940562486345 
1028	 0,172484432827323 
1029	 0,170174288314392 
1030	 0,171182682329639 
1031	 0,176448201113244 
1032	 0,179114986031288 
1033	 0,180108052068596 
1034	 0,184372680453465 
1035	 0,184542974848816 
1036	 0,180830044019553 
1037	 0,181442268632916 
1038	 0,182915375967898 
1039	 0,182769997126162 
1040	 0,176514488023706 
1041	 0,171031612347475 
1042	 0,172109072946451 
1043	 0,176775444526116 
1044	 0,18078611748647 
1045	 0,179392171658282 
1046	 0,180745783602893 
1047	 0,183775423623875 
1048	 0,181657956969226 
1049	 0,180986616041386 
1050	 0,18213443707725 
1051	 0,177499542258017 
1052	 0,17879291418454 
1053	 0,188370324924475 
1054	 0,184594645456898 
1055	 0,178201311309815 
1056	 0,179123952607016 
1057	 0,177395021440659 
1058	 0,175299825622459 
1059	 0,177494412977036 
1060	 0,177461097255387 
1061	 0,175148300382853 
1062	 0,173390693769391 
1063	 0,174868932250696 
1064	 0,180283352421283 
1065	 0,188334784463212 
1066	 0,195081044830033 
1067	 0,197023860017562 
1068	 0,183904636940393 
1069	 0,176934158890901 
1070	 0,189421731966768 
1071	 0,189178737061687 
1072	 0,17946005603892 
1073	 0,169165562005946 
1074	 0,176219918491315 
1075	 0,192197639420555 
