Wavelength	MORB100434.asd
325	 0,219623975101814 
326	 0,117484361330633 
327	-6,91054033625578E-02 
328	-0,242417024216096 
329	-0,107249636710855 
330	 2,18367791528782E-02 
331	-6,73653400076447E-02 
332	-0,033356952510051 
333	 7,92144737795599E-02 
334	 5,14513322553431E-02 
335	 2,55732907744301E-02 
336	 2,72028461523642E-02 
337	 6,25544787981336E-04 
338	-2,67306450742642E-02 
339	-3,04364506044355E-02 
340	-9,43286813314261E-03 
341	 0,0333363882779 
342	 0,102503505914462 
343	 0,115670135977323 
344	 6,85748631354338E-02 
345	 9,24349442795041E-02 
346	 0,111523962833157 
347	 5,60424769866549E-02 
348	-8,79748105515984E-03 
349	-0,04430647426029 
350	-5,09571977263342E-03 
351	 2,82041181381913E-02 
352	 3,73971448398929E-02 
353	 7,06091750431046E-02 
354	 8,08961243720896E-02 
355	 2,07021123865474E-02 
356	 7,21170965919659E-03 
357	 3,90557361393984E-02 
358	 3,45513693883248E-02 
359	 1,45859634618512E-02 
360	-5,91166055786793E-03 
361	 1,81514962388333E-02 
362	 5,17738832183009E-02 
363	 0,046839340144286 
364	 2,24614592385182E-02 
365	-5,62549548121135E-03 
366	 3,01680064509157E-02 
367	 5,05783486475052E-02 
368	 1,86403072667746E-02 
369	 6,38018755960952E-03 
370	 0,010050792334374 
371	 6,56937349639871E-03 
372	 1,02465721474238E-02 
373	 0,018826456740001 
374	 7,25332799482461E-03 
375	 4,34547672289274E-03 
376	 2,94927520253514E-02 
377	 4,04510953552663E-02 
378	 3,98380410778918E-02 
379	 5,05876662100237E-02 
380	 5,26158992505295E-02 
381	 4,12452650276435E-02 
382	 2,36423258787122E-02 
383	 9,37338520927688E-03 
384	 7,7667517607836E-03 
385	 2,11690986593024E-02 
386	 4,03317791228552E-02 
387	 4,79115002249691E-02 
388	 4,56383425271932E-02 
389	 3,39988602335751E-02 
390	 1,37600205964905E-02 
391	-3,35924333129254E-03 
392	-3,45379662880198E-03 
393	 5,10879207476908E-04 
394	 0,00621952218185 
395	 1,82607272200885E-02 
396	 2,37871271046488E-02 
397	 1,89285453763398E-02 
398	 2,71395613161185E-02 
399	 3,72023103887245E-02 
400	 3,03506236448181E-02 
401	 2,15457355834862E-02 
402	 1,70474866049552E-02 
403	 1,89320612624454E-02 
404	 2,60200916327583E-02 
405	 0,035401920369436 
406	 2,99459794753129E-02 
407	 1,72500269449119E-02 
408	 1,70130056628008E-02 
409	 2,18416553675647E-02 
410	 2,77880297835608E-02 
411	 2,77312394512373E-02 
412	 2,36245249263825E-02 
413	 0,018222629977857 
414	 2,15510185207823E-02 
415	 2,86083253208184E-02 
416	 2,19607682176746E-02 
417	 1,69638396379498E-02 
418	 1,84236434947267E-02 
419	 1,42065138984136E-02 
420	 9,48607100756337E-03 
421	 1,21447032450952E-02 
422	 1,18719354581159E-02 
423	 8,66045774376843E-03 
424	 9,46040289120896E-03 
425	 1,57638991546232E-02 
426	 2,61381815050915E-02 
427	 2,31042935549675E-02 
428	 1,46555568686637E-02 
429	 1,89016096076712E-02 
430	 2,20161054146838E-02 
431	 0,020993856726364 
432	 2,08885569006873E-02 
433	 2,00782894700951E-02 
434	 1,71660597212318E-02 
435	 1,47517361749882E-02 
436	 1,44372268689046E-02 
437	 1,95262038829444E-02 
438	 2,16632049485162E-02 
439	 1,85936039862347E-02 
440	 1,93402246551061E-02 
441	 2,15899899220728E-02 
442	 2,13953461348977E-02 
443	 1,99889382363989E-02 
444	 1,86331362754523E-02 
445	 2,08024284265181E-02 
446	 2,22025809295576E-02 
447	 2,05647548932021E-02 
448	 2,11799970025478E-02 
449	 2,27335444042471E-02 
450	 2,15605838338155E-02 
451	 0,019843393410984 
452	 1,87338934605791E-02 
453	 2,04444456252937E-02 
454	 2,10185908034249E-02 
455	 1,70963088102611E-02 
456	 1,57424625368614E-02 
457	 1,71366847736454E-02 
458	 1,76672625365327E-02 
459	 1,95211888736076E-02 
460	 2,26330261074493E-02 
461	 2,14479861342271E-02 
462	 1,89334723836878E-02 
463	 1,97046276156921E-02 
464	 2,00115110684295E-02 
465	 1,93549903457867E-02 
466	 1,90840055637718E-02 
467	 1,95176809744042E-02 
468	 2,06934116502587E-02 
469	 2,11672073649672E-02 
470	 2,06137869306301E-02 
471	 1,86477525567909E-02 
472	 1,82001616282242E-02 
473	 1,95570195670965E-02 
474	 1,88092531259921E-02 
475	 1,78983422007306E-02 
476	 1,88285149903165E-02 
477	 1,81108914454406E-02 
478	 1,65079991032784E-02 
479	 1,76231816252909E-02 
480	 2,08936971222517E-02 
481	 0,025078115341082 
482	 2,47335405395173E-02 
483	 2,14901308134536E-02 
484	 1,85192962067888E-02 
485	 1,77815556354228E-02 
486	 1,93906511037911E-02 
487	 2,11243776796407E-02 
488	 2,21634174407551E-02 
489	 2,20182083685613E-02 
490	 2,21816730457279E-02 
491	 0,02252887469562 
492	 2,22094000098573E-02 
493	 2,13976339650543E-02 
494	 2,04329892173594E-02 
495	 2,07456852661264E-02 
496	 2,11767438742045E-02 
497	 2,03371491511638E-02 
498	 1,99727353786789E-02 
499	 0,020599474778239 
500	 2,28855552372297E-02 
501	 2,34444598020578E-02 
502	 2,09624426016129E-02 
503	 2,17528415089528E-02 
504	 2,38443031063724E-02 
505	 2,24084141718752E-02 
506	 2,10811418530412E-02 
507	 2,09348579466637E-02 
508	 2,16929996099442E-02 
509	 2,22018364221778E-02 
510	 2,15205398215815E-02 
511	 2,15945060370347E-02 
512	 2,22743361216528E-02 
513	 2,21737404521503E-02 
514	 2,21580982797555E-02 
515	 2,24946572543774E-02 
516	 2,24537495780791E-02 
517	 2,22689933098363E-02 
518	 2,23708377424289E-02 
519	 2,20715016946888E-02 
520	 2,14488313454777E-02 
521	 2,14228289843004E-02 
522	 2,14065252274043E-02 
523	 2,09933640981309E-02 
524	 2,06123310484123E-02 
525	 2,05387254718912E-02 
526	 2,13744692822489E-02 
527	 2,14757079397093E-02 
528	 2,06433965367278E-02 
529	 2,12124747364091E-02 
530	 2,21897280788198E-02 
531	 2,22620885853525E-02 
532	 2,21713095324843E-02 
533	 2,21191364663799E-02 
534	 0,0221878410046 
535	 2,24588499924695E-02 
536	 2,28273589482032E-02 
537	 2,19341644243792E-02 
538	 2,08325498124908E-02 
539	 2,17914682052439E-02 
540	 2,25413494532651E-02 
541	 2,25184008965298E-02 
542	 2,27100507577367E-02 
543	 2,27547287755036E-02 
544	 2,23118338270632E-02 
545	 2,25254285230706E-02 
546	 2,32758745012016E-02 
547	 2,36168426196761E-02 
548	 2,36072471723262E-02 
549	 0,023351493885763 
550	 2,36311310365351E-02 
551	 2,38141961804692E-02 
552	 2,27443852992922E-02 
553	 2,23243460518207E-02 
554	 2,28881961257625E-02 
555	 2,34266111673823E-02 
556	 0,023624427532 
557	 2,32741340482283E-02 
558	 2,28583686489094E-02 
559	 2,27553180774215E-02 
560	 2,36877316390943E-02 
561	 2,44932860517846E-02 
562	 2,45827832363998E-02 
563	 2,36283002182875E-02 
564	 2,29199412322588E-02 
565	 2,41551133689578E-02 
566	 2,42418966863062E-02 
567	 2,30862603056371E-02 
568	 2,31985043223691E-02 
569	 0,0241160913929 
570	 2,53572952731958E-02 
571	 2,55675384563524E-02 
572	 2,51559914401222E-02 
573	 2,54825706159301E-02 
574	 2,60764311928663E-02 
575	 2,66723433146155E-02 
576	 2,66338009113044E-02 
577	 0,026525167258841 
578	 2,70092176197051E-02 
579	 0,026861180024708 
580	 2,63813231334087E-02 
581	 2,74790375449821E-02 
582	 2,81832928046424E-02 
583	 2,74506541054761E-02 
584	 2,65481854031737E-02 
585	 0,026163405693453 
586	 2,71795934886033E-02 
587	 2,81176186614649E-02 
588	 2,85698981661838E-02 
589	 2,92215572766756E-02 
590	 2,93916108844615E-02 
591	 2,85169553538732E-02 
592	 2,83482993216017E-02 
593	 0,02878622666554 
594	 0,028546922834147 
595	 2,81826912595443E-02 
596	 2,79467018331854E-02 
597	 0,027805421708951 
598	 2,78348565212805E-02 
599	 2,81670378300414E-02 
600	 2,78758257529378E-02 
601	 2,71430081045384E-02 
602	 2,77695262460231E-02 
603	 2,84480383853169E-02 
604	 2,81421396414379E-02 
605	 2,76830111537642E-02 
606	 2,73316783378804E-02 
607	 2,73823653924311E-02 
608	 2,73626412197664E-02 
609	 2,71245744738438E-02 
610	 2,70264463717934E-02 
611	 2,68187077979955E-02 
612	 2,61681119524205E-02 
613	 2,58755215279148E-02 
614	 2,59581789938706E-02 
615	 2,57451247066677E-02 
616	 2,55340539649847E-02 
617	 2,55526774438471E-02 
618	 0,02607834856643 
619	 2,66890803528309E-02 
620	 2,64962809895932E-02 
621	 0,026364214374551 
622	 0,026480919513401 
623	 2,62108671268801E-02 
624	 2,61655377648366E-02 
625	 0,026945635675542 
626	 2,69040142202265E-02 
627	 2,62501728520485E-02 
628	 2,66351574131185E-02 
629	 2,72511325896302E-02 
630	 0,027625665282164 
631	 2,74480576381536E-02 
632	 2,71848302706759E-02 
633	 2,76163900430549E-02 
634	 2,85164344022571E-02 
635	 2,96085133918009E-02 
636	 3,01406984612519E-02 
637	 3,03346249058914E-02 
638	 0,030423285880397 
639	 3,05786487032783E-02 
640	 3,08409499415694E-02 
641	 0,031226585124061 
642	 3,13958029334999E-02 
643	 3,12765583298075E-02 
644	 3,13868299096496E-02 
645	 3,16138611700915E-02 
646	 3,17378948924974E-02 
647	 3,26638357361278E-02 
648	 3,39897329178724E-02 
649	 0,0336145066703 
650	 3,30398481351205E-02 
651	 3,32237164195387E-02 
652	 3,30282433584942E-02 
653	 3,26109414811705E-02 
654	 3,25943888656266E-02 
655	 0,03271994179858 
656	 3,27851032121615E-02 
657	 3,22004879224647E-02 
658	 3,16991551756634E-02 
659	 3,20204154624149E-02 
660	 3,16356970667569E-02 
661	 0,030688473666051 
662	 3,05680605813096E-02 
663	 3,04280909970105E-02 
664	 2,98989073220213E-02 
665	 2,94968816693438E-02 
666	 2,92016219296365E-02 
667	 2,88786402612217E-02 
668	 2,88115899737369E-02 
669	 2,89129144417881E-02 
670	 2,85427257061495E-02 
671	 2,81085106142092E-02 
672	 2,79721333547973E-02 
673	 2,82351769633033E-02 
674	 2,86216370273115E-02 
675	 2,84596150637075E-02 
676	 2,81605141509358E-02 
677	 2,79050370681352E-02 
678	 2,77842595362917E-02 
679	 2,78324771243371E-02 
680	 0,028066278577556 
681	 2,76808895588157E-02 
682	 2,70072642346472E-02 
683	 0,027720879356955 
684	 0,028510494940416 
685	 2,86466286041857E-02 
686	 2,89719055186296E-02 
687	 2,94777362089887E-02 
688	 0,029941304751829 
689	 0,03057701948859 
690	 3,15143831181851E-02 
691	 3,29976095342935E-02 
692	 3,45653474445017E-02 
693	 3,58234298556743E-02 
694	 3,73298245121994E-02 
695	 0,039250649583533 
696	 4,16094529627719E-02 
697	 4,46311162197132E-02 
698	 4,83678370465042E-02 
699	 5,24535698738139E-02 
700	 5,68806632856073E-02 
701	 6,16884816018307E-02 
702	 6,67024819720757E-02 
703	 7,18377456963292E-02 
704	 7,69436566921027E-02 
705	 8,25383414021544E-02 
706	 8,87795439162551E-02 
707	 9,41571945415949E-02 
708	 9,90554734756923E-02 
709	 0,104631022826567 
710	 0,109889355236028 
711	 0,114641351926069 
712	 0,119510158104858 
713	 0,124217274580959 
714	 0,128483567665287 
715	 0,13236552331257 
716	 0,13605502437672 
717	 0,140108839247374 
718	 0,143507500598026 
719	 0,146004551515038 
720	 0,148971883529398 
721	 0,151969849477333 
722	 0,154277253067516 
723	 0,156648925689161 
724	 0,159079029067586 
725	 0,160915529543356 
726	 0,162579752290058 
727	 0,16433950990177 
728	 0,166092581201098 
729	 0,167705270807061 
730	 0,168974539870251 
731	 0,170056313551094 
732	 0,170976396694521 
733	 0,171567330409055 
734	 0,172220383833163 
735	 0,173255928928488 
736	 0,174204491393599 
737	 0,175013497346544 
738	 0,175812393330182 
739	 0,176409868320469 
740	 0,17680944769421 
741	 0,17741006731785 
742	 0,178171468784118 
743	 0,178990602165324 
744	 0,17921717867285 
745	 0,179002296625613 
746	 0,179268330857849 
747	 0,179668254477112 
748	 0,18001283885227 
749	 0,180279942778541 
750	 0,180512205612989 
751	 0,180795236212546 
752	 0,180913816339542 
753	 0,180840939021859 
754	 0,180656702374626 
755	 0,180692574307141 
756	 0,181156801228825 
757	 0,181609903150746 
758	 0,181921533872344 
759	 0,181993464832272 
760	 0,182081143250662 
761	 0,182192685919719 
762	 0,181906688227718 
763	 0,181603347750775 
764	 0,181660817065808 
765	 0,18203337023541 
766	 0,18246484895948 
767	 0,182314727105877 
768	 0,182230921191753 
769	 0,182449379842138 
770	 0,182725173787797 
771	 0,182898718788383 
772	 0,182815244165555 
773	 0,182743911246646 
774	 0,182789224571799 
775	 0,183034949662579 
776	 0,183360739072258 
777	 0,183623627813552 
778	 0,183356431548217 
779	 0,183001739123283 
780	 0,183273479077822 
781	 0,183473531944209 
782	 0,183447821938344 
783	 0,183324970965597 
784	 0,183333037237261 
785	 0,183593046372254 
786	 0,183764539861974 
787	 0,18378946152501 
788	 0,183675348256274 
789	 0,183361798352286 
790	 0,182948669858095 
791	 0,182811069292765 
792	 0,182957606449314 
793	 0,183318317050051 
794	 0,183207619876275 
795	 0,182785926146798 
796	 0,182630653287592 
797	 0,182683350573661 
798	 0,18290602923166 
799	 0,183141197336246 
800	 0,183225048154125 
801	 0,183039911333619 
802	 0,18299385133803 
803	 0,183116830373495 
804	 0,183250225252868 
805	 0,183468443450696 
806	 0,183788128629327 
807	 0,184262645447646 
808	 0,184450127618914 
809	 0,18393280360481 
810	 0,183872839826595 
811	 0,184270988984525 
812	 0,184374465375953 
813	 0,184569743155231 
814	 0,184899899192503 
815	 0,184751928796079 
816	 0,184408197981037 
817	 0,184276432981437 
818	 0,184712510570696 
819	 0,185447798624529 
820	 0,185455236564385 
821	 0,18530021714899 
822	 0,185282085571157 
823	 0,185558703424099 
824	 0,185660059224057 
825	 0,184987161052854 
826	 0,184974396275061 
827	 0,18567100239723 
828	 0,186089600954699 
829	 0,186312549929216 
830	 0,18638150666768 
831	 0,186476196356962 
832	 0,186609455999207 
833	 0,186764049488289 
834	 0,186875998137513 
835	 0,186946317051684 
836	 0,187096447325223 
837	 0,186975001542913 
838	 0,186457114679775 
839	 0,186013349153705 
840	 0,185979006015333 
841	 0,186713287699706 
842	 0,187135776734671 
843	 0,186970328602853 
844	 0,18628589390123 
845	 0,186011831846518 
846	 0,18659966873267 
847	 0,187228952940498 
848	 0,187312541676781 
849	 0,186200692201981 
850	 0,186482757563138 
851	 0,187889165654167 
852	 0,187215296030806 
853	 0,186472259509672 
854	 0,186678146394969 
855	 0,186783831532048 
856	 0,186791783544447 
857	 0,186852629070549 
858	 0,186545518062642 
859	 0,186116088931585 
860	 0,186711403024287 
861	 0,187052275503106 
862	 0,186590176319244 
863	 0,186560037169462 
864	 0,18655229572048 
865	 0,185893283010885 
866	 0,185832525548453 
867	 0,186440678349029 
868	 0,187089354690839 
869	 0,187264379525389 
870	 0,18670511789089 
871	 0,185517544093568 
872	 0,185116881398449 
873	 0,187027933921199 
874	 0,187590244784659 
875	 0,186813646353527 
876	 0,18727162263985 
877	 0,187596635750602 
878	 0,187412613829502 
879	 0,187837761562496 
880	 0,188180895189275 
881	 0,187680479032993 
882	 0,187714424074564 
883	 0,188190101747055 
884	 0,188085906209146 
885	 0,188084310913031 
886	 0,188477080264345 
887	 0,189581815216009 
888	 0,190153610065602 
889	 0,189166090863827 
890	 0,188934191532318 
891	 0,18941515492571 
892	 0,189505137843648 
893	 0,189890630714362 
894	 0,190475450929312 
895	 0,189967047804056 
896	 0,189502961598797 
897	 0,189956712783048 
898	 0,190408571567718 
899	 0,190689235172585 
900	 0,190765886188047 
901	 0,190741306954574 
902	 0,190766098782536 
903	 0,191267367136347 
904	 0,191604483874482 
905	 0,191402083278118 
906	 0,191065567498838 
907	 0,190992502032163 
908	 0,19164470074737 
909	 0,191233242668502 
910	 0,190104555784939 
911	 0,190825790386937 
912	 0,191513961790864 
913	 0,191380180300645 
914	 0,191379661117538 
915	 0,191696807156178 
916	 0,192392427827708 
917	 0,192399391614975 
918	 0,19188218336452 
919	 0,19186379626763 
920	 0,191702968668982 
921	 0,191203511418309 
922	 0,190371004908089 
923	 0,189938742882472 
924	 0,19040551076131 
925	 0,190390736967746 
926	 0,19013410518599 
927	 0,190513238995216 
928	 0,190302165196942 
929	 0,189537167267515 
930	 0,189724197303056 
931	 0,189614200689629 
932	 0,188624544206964 
933	 0,188147550736191 
934	 0,187931635651552 
935	 0,187476871836718 
936	 0,187680197285209 
937	 0,18831339594319 
938	 0,188226184815653 
939	 0,188076196257168 
940	 0,188026097291752 
941	 0,187632382127088 
942	 0,187283035276939 
943	 0,187279777319576 
944	 0,186923921590724 
945	 0,186206368567724 
946	 0,185286051281481 
947	 0,185378904728498 
948	 0,186148581771772 
949	 0,185040880790385 
950	 0,183612582279906 
951	 0,182812007350172 
952	 0,18226694781421 
953	 0,182278495068415 
954	 0,183116028301344 
955	 0,182238277213355 
956	 0,180290194387569 
957	 0,180401533261775 
958	 0,180154634818101 
959	 0,179248529753611 
960	 0,180231849495451 
961	 0,180762296993019 
962	 0,179238444134931 
963	 0,178555693500198 
964	 0,178240608664255 
965	 0,176946056174045 
966	 0,17737644495865 
967	 0,179209837708017 
968	 0,179550086895587 
969	 0,178677699509459 
970	 0,177134008973315 
971	 0,177316189498231 
972	 0,177829430495939 
973	 0,177399954347586 
974	 0,178182497652508 
975	 0,179572669056421 
976	 0,179956823778083 
977	 0,179414275478322 
978	 0,178324623816765 
979	 0,177789074241569 
980	 0,178372951115973 
981	 0,179830757440825 
982	 0,178851119647362 
983	 0,177881119673732 
984	 0,179426437165539 
985	 0,179663238599138 
986	 0,178763764754156 
987	 0,17841461310481 
988	 0,178344778907136 
989	 0,178357807434777 
990	 0,177656114949498 
991	 0,177828131338854 
992	 0,179667386816986 
993	 0,182977223688581 
994	 0,183901436811065 
995	 0,179212288533886 
996	 0,178101984599489 
997	 0,180389611186875 
998	 0,182236052895397 
999	 0,182870801045176 
1000	 0,182151053423269 
1001	 0,181156150949624 
1002	 0,179818664871362 
1003	 0,17894173542764 
1004	 0,182995182792121 
1005	 0,186100556223138 
1006	 0,182929139915588 
1007	 0,182766527577391 
1008	 0,184844191544509 
1009	 0,18488433745553 
1010	 0,185381334770445 
1011	 0,186675627398206 
1012	 0,188351375280669 
1013	 0,186915667013475 
1014	 0,182778656939681 
1015	 0,186785139135486 
1016	 0,191061046530244 
1017	 0,189002045675567 
1018	 0,187149755292719 
1019	 0,18687874752335 
1020	 0,188675373994967 
1021	 0,190844982184362 
1022	 0,191982101526282 
1023	 0,189495052962333 
1024	 0,187926135654903 
1025	 0,188536165496081 
1026	 0,188773653580769 
1027	 0,188250141454052 
1028	 0,186998060879922 
1029	 0,186861432540478 
1030	 0,187885072280194 
1031	 0,189759122848504 
1032	 0,191597137324622 
1033	 0,193943825649548 
1034	 0,198581916130474 
1035	 0,196974272424577 
1036	 0,190444875709468 
1037	 0,192647926615881 
1038	 0,194767894564232 
1039	 0,193466916644999 
1040	 0,193562485867939 
1041	 0,194022441965296 
1042	 0,193784732447349 
1043	 0,192851329080192 
1044	 0,191618081560762 
1045	 0,190920806032406 
1046	 0,20033582328279 
1047	 0,210865735700911 
1048	 0,196015996334011 
1049	 0,195263819156474 
1050	 0,210090734345002 
1051	 0,196430335283957 
1052	 0,186736756711191 
1053	 0,194642298744258 
1054	 0,194545709386786 
1055	 0,194398850682471 
1056	 0,200628700892847 
1057	 0,196718834415802 
1058	 0,189125605364758 
1059	 0,190030961399545 
1060	 0,193131607434635 
1061	 0,197479570346366 
1062	 0,203942751070794 
1063	 0,202695802908342 
1064	 0,195921147126097 
1065	 0,203620212330686 
1066	 0,208349577855467 
1067	 0,204048430768807 
1068	 0,201243375050741 
1069	 0,195900015151894 
1070	 0,186168009836082 
1071	 0,182510558347758 
1072	 0,180426670733731 
1073	 0,17405771511097 
1074	 0,181107229745136 
1075	 0,19382462036195 
