Wavelength	MORB100449.asd
325	 0,14943669800568 
326	 0,104322779211475 
327	 0,068989335952871 
328	 7,84663437059887E-02 
329	 0,174136596718427 
330	 0,156649065842298 
331	-8,94670150433813E-02 
332	-6,81669978486011E-02 
333	 0,128821952221068 
334	 0,099451191647919 
335	 8,02891700381386E-02 
336	 0,105202319562802 
337	 3,59780546582577E-02 
338	-3,81991281422509E-02 
339	-3,98788680200145E-02 
340	 1,88464066184714E-02 
341	 0,112223388655602 
342	 0,208514812881642 
343	 0,214462119912329 
344	 0,125106627760338 
345	 0,10226349832089 
346	 0,106543931860787 
347	 8,35266773559394E-02 
348	 3,48806418178771E-02 
349	-7,38690021863155E-03 
350	 2,98945939287379E-02 
351	 7,20711346310597E-02 
352	 9,89565777733717E-02 
353	 0,118636090511027 
354	 0,123080702526308 
355	 0,10763507991653 
356	 0,070882877824788 
357	 0,029694511152794 
358	 3,09341172097016E-02 
359	 2,06562069791663E-02 
360	-1,71348698515251E-02 
361	 4,44063603838538E-03 
362	 5,94745661058658E-02 
363	 0,105109376477231 
364	 8,54521365045648E-02 
365	 1,18869365928189E-02 
366	 2,16305188165562E-02 
367	 4,64175857075584E-02 
368	 4,44829976735487E-02 
369	 4,55090371403236E-02 
370	 4,41150104319101E-02 
371	 2,46265673625638E-02 
372	 1,55633397955697E-02 
373	 2,47570691461985E-02 
374	 4,90262319118627E-02 
375	 6,51028868839888E-02 
376	 5,75423441650575E-02 
377	 0,048092986634682 
378	 4,50086436150632E-02 
379	 5,73445865248079E-02 
380	 5,89850173963497E-02 
381	 4,76130975553661E-02 
382	 5,95638919722246E-02 
383	 6,05010790601538E-02 
384	 1,93655391602827E-02 
385	 1,60037090017444E-02 
386	 4,28922155090765E-02 
387	 4,70727181837483E-02 
388	 4,40366608605982E-02 
389	 3,84927872551524E-02 
390	 2,75563248389637E-02 
391	 1,88549976769705E-02 
392	 2,15514631881744E-02 
393	 3,38860038501294E-02 
394	 4,64693126862884E-02 
395	 3,44523797605696E-02 
396	 2,24167096987822E-02 
397	 2,35596260121292E-02 
398	 3,50553760948838E-02 
399	 0,043144703869737 
400	 2,90779903476078E-02 
401	 2,55027158573454E-02 
402	 3,44420663667765E-02 
403	 2,81157879978744E-02 
404	 2,27415845535015E-02 
405	 2,82849415042323E-02 
406	 2,25990867864139E-02 
407	 0,01227860264039 
408	 1,65150795459985E-02 
409	 2,48558468271962E-02 
410	 3,25146339197106E-02 
411	 3,38505384980203E-02 
412	 2,99836316649761E-02 
413	 0,02284161222899 
414	 2,14524245610044E-02 
415	 2,44763244578468E-02 
416	 2,36973890850405E-02 
417	 2,44251708275646E-02 
418	 0,027204219562553 
419	 2,23224894326709E-02 
420	 1,73459336895545E-02 
421	 2,28468417921923E-02 
422	 2,29857861366314E-02 
423	 1,70710360580435E-02 
424	 1,40025221868961E-02 
425	 1,68562196801248E-02 
426	 2,56523961525514E-02 
427	 2,55089493431899E-02 
428	 2,13255160881899E-02 
429	 2,56475549916525E-02 
430	 2,56989668507051E-02 
431	 2,02615811755265E-02 
432	 2,03146664481009E-02 
433	 2,29807675404965E-02 
434	 2,50672092488188E-02 
435	 2,35628685858482E-02 
436	 2,07135481679096E-02 
437	 2,43768072515431E-02 
438	 2,51186688656551E-02 
439	 2,04259551068489E-02 
440	 1,88797026790232E-02 
441	 2,06430841199125E-02 
442	 2,48162299924114E-02 
443	 2,56249837720353E-02 
444	 2,28787488516452E-02 
445	 2,09452815833736E-02 
446	 2,08351647511629E-02 
447	 2,27534814791602E-02 
448	 0,02200741869411 
449	 2,06085398070742E-02 
450	 2,37836534657944E-02 
451	 2,35616106331352E-02 
452	 1,94592621800407E-02 
453	 2,14807616107304E-02 
454	 2,37407426073748E-02 
455	 2,07069697529829E-02 
456	 1,82489642662952E-02 
457	 1,81187224631324E-02 
458	 2,19904308863727E-02 
459	 2,49129807757023E-02 
460	 2,47784028154506E-02 
461	 2,38821294521413E-02 
462	 2,27645376005836E-02 
463	 2,18156383921862E-02 
464	 0,022191141816229 
465	 2,29443332827784E-02 
466	 1,94183245515947E-02 
467	 1,74163562946237E-02 
468	 2,03563049060931E-02 
469	 2,21625765405122E-02 
470	 2,21346717371938E-02 
471	 2,05171272369384E-02 
472	 2,07610424505721E-02 
473	 2,30024025767544E-02 
474	 2,18965912598047E-02 
475	 1,94722545842993E-02 
476	 1,80919278846524E-02 
477	 1,85718975466344E-02 
478	 2,01160490278031E-02 
479	 1,97407262984392E-02 
480	 2,06529555507197E-02 
481	 2,37608413691729E-02 
482	 2,50070310683077E-02 
483	 2,47348958410103E-02 
484	 2,41987683178603E-02 
485	 2,07701743275456E-02 
486	 1,60516000171172E-02 
487	 1,78693817536264E-02 
488	 2,19690475793406E-02 
489	 2,45569651864721E-02 
490	 2,22321216363818E-02 
491	 1,75931157596538E-02 
492	 1,79039161051268E-02 
493	 1,84892399891038E-02 
494	 1,80352482915369E-02 
495	 1,81617052575222E-02 
496	 1,85928441892913E-02 
497	 1,89065271074317E-02 
498	 1,86768314393043E-02 
499	 1,82662534999022E-02 
500	 1,90284958234754E-02 
501	 2,01260278772573E-02 
502	 2,09876891540411E-02 
503	 2,12421178478347E-02 
504	 2,11377401881374E-02 
505	 0,021289375556659 
506	 2,04107589189983E-02 
507	 1,87325992572438E-02 
508	 1,86712618243861E-02 
509	 1,94247784497698E-02 
510	 2,01276056210577E-02 
511	 2,03393094973942E-02 
512	 2,02596771169186E-02 
513	 2,07741524094379E-02 
514	 2,10497926835697E-02 
515	 2,07654887371265E-02 
516	 2,04321156666842E-02 
517	 1,98633002731946E-02 
518	 0,018667861983176 
519	 1,90390861617085E-02 
520	 2,06375077670344E-02 
521	 0,020165402974865 
522	 1,91932614573937E-02 
523	 1,89573741702215E-02 
524	 1,96095573554554E-02 
525	 2,03566620058419E-02 
526	 1,91948740301364E-02 
527	 1,87969551847995E-02 
528	 0,019838700835175 
529	 2,06439284033893E-02 
530	 2,07532124792999E-02 
531	 1,98298128088623E-02 
532	 1,90432267820479E-02 
533	 1,88624573309386E-02 
534	 1,98339773552546E-02 
535	 2,02672834998392E-02 
536	 1,92837295521567E-02 
537	 1,85906997995607E-02 
538	 1,84574048655121E-02 
539	 1,89367278788312E-02 
540	 1,92279703911663E-02 
541	 1,91906347228958E-02 
542	 1,96923613597764E-02 
543	 1,98702461111475E-02 
544	 1,89289526883741E-02 
545	 1,85831637583232E-02 
546	 1,89757147555491E-02 
547	 1,95597149656537E-02 
548	 1,95050414242023E-02 
549	 1,86716926745708E-02 
550	 0,019455001639977 
551	 2,05921986720449E-02 
552	 1,97132832950701E-02 
553	 1,89356480119683E-02 
554	 1,89847918024076E-02 
555	 2,03240000176714E-02 
556	 0,020909661411237 
557	 1,92464023212681E-02 
558	 1,88297699350156E-02 
559	 1,95143473242298E-02 
560	 1,92087548516718E-02 
561	 1,92076169006871E-02 
562	 1,97825392698075E-02 
563	 1,94958881770423E-02 
564	 1,91021841199483E-02 
565	 1,97479697761941E-02 
566	 2,00801939606617E-02 
567	 1,98246287755145E-02 
568	 0,019146481847502 
569	 1,92104960775862E-02 
570	 2,06474591851497E-02 
571	 2,10908430296681E-02 
572	 2,07606429259712E-02 
573	 2,09739413168516E-02 
574	 2,13131637784257E-02 
575	 2,15826107865741E-02 
576	 2,13732090786248E-02 
577	 2,10375851255354E-02 
578	 2,10069566684456E-02 
579	 2,12300131519901E-02 
580	 2,16889540001438E-02 
581	 2,23267647586862E-02 
582	 2,31708906427322E-02 
583	 2,39898922019302E-02 
584	 2,29425724227663E-02 
585	 2,14363250905333E-02 
586	 2,23822663197324E-02 
587	 2,27807976354389E-02 
588	 2,21656542113388E-02 
589	 2,27747397357361E-02 
590	 2,34884075068057E-02 
591	 2,32139269874766E-02 
592	 2,28464830836889E-02 
593	 2,26060072030299E-02 
594	 2,26449260145944E-02 
595	 2,23405730228588E-02 
596	 2,15792552358072E-02 
597	 2,17118350801591E-02 
598	 2,22334242879009E-02 
599	 2,21942397808736E-02 
600	 2,19008559980504E-02 
601	 2,15605577063392E-02 
602	 2,16846387949686E-02 
603	 2,18485448239851E-02 
604	 0,021722419444325 
605	 2,16372863888941E-02 
606	 2,16863602449985E-02 
607	 2,20231858614972E-02 
608	 2,20872572703794E-02 
609	 2,16917223036224E-02 
610	 2,11976019241804E-02 
611	 2,07821407157124E-02 
612	 0,020613779375915 
613	 2,05566594106261E-02 
614	 2,04998492613509E-02 
615	 2,02237285119787E-02 
616	 1,98765763551418E-02 
617	 1,96299114705308E-02 
618	 2,00828945452044E-02 
619	 2,07595904512225E-02 
620	 2,05840735798759E-02 
621	 2,03297949802585E-02 
622	 2,02894138434765E-02 
623	 2,05868682653805E-02 
624	 2,08971746294131E-02 
625	 2,08796879311407E-02 
626	 2,05998820851261E-02 
627	 0,020348884947997 
628	 2,09504434567942E-02 
629	 0,021361812566269 
630	 2,11229716933889E-02 
631	 2,11620961494679E-02 
632	 0,021453709787247 
633	 2,17897530548567E-02 
634	 2,18490264239732E-02 
635	 2,17444437455867E-02 
636	 2,24030061154521E-02 
637	 2,30638991290416E-02 
638	 2,31168268177578E-02 
639	 2,37372001094899E-02 
640	 2,46017746286066E-02 
641	 2,43942256394332E-02 
642	 2,39750045630642E-02 
643	 2,37308572866494E-02 
644	 2,36937895541924E-02 
645	 2,38336469882008E-02 
646	 2,40911905124138E-02 
647	 2,45107478072261E-02 
648	 2,50352445612107E-02 
649	 2,55438300428961E-02 
650	 2,58016552156601E-02 
651	 2,56724390166569E-02 
652	 2,54510820545914E-02 
653	 2,52868460326119E-02 
654	 2,54119595031304E-02 
655	 2,51516340273484E-02 
656	 2,44601385444635E-02 
657	 2,42932430048695E-02 
658	 2,43617017212309E-02 
659	 0,024291617358554 
660	 2,37807117526796E-02 
661	 0,023048333027876 
662	 0,022907482637509 
663	 2,29029441808482E-02 
664	 2,27333976332329E-02 
665	 2,19124165660886E-02 
666	 2,12019855105663E-02 
667	 2,18743613816601E-02 
668	 2,23268396743779E-02 
669	 2,21011438687411E-02 
670	 2,13374317476185E-02 
671	 2,08647202446934E-02 
672	 2,12914038293684E-02 
673	 2,15941473230934E-02 
674	 2,15769608292125E-02 
675	 2,12290673410327E-02 
676	 0,020896646390376 
677	 2,07160205962995E-02 
678	 2,05100615510737E-02 
679	 2,03888793002589E-02 
680	 2,04904401215213E-02 
681	 2,05026647669404E-02 
682	 2,04883859098371E-02 
683	 2,09193523052367E-02 
684	 2,13145138268776E-02 
685	 2,14122996026518E-02 
686	 2,16059577047274E-02 
687	 2,18404643206305E-02 
688	 2,18720953368952E-02 
689	 2,24985934372606E-02 
690	 2,37015026656651E-02 
691	 2,42653667692206E-02 
692	 2,47423071710216E-02 
693	 2,56817445307326E-02 
694	 2,70618534555055E-02 
695	 2,86937421555871E-02 
696	 2,99768732787023E-02 
697	 3,18645091696845E-02 
698	 3,47371277662077E-02 
699	 3,81225776077347E-02 
700	 0,041873413880797 
701	 4,58571431405109E-02 
702	 5,04258731948251E-02 
703	 5,53790272288519E-02 
704	 5,97347275151534E-02 
705	 6,45330013206584E-02 
706	 7,03411341046122E-02 
707	 0,076011593153246 
708	 0,081614324292291 
709	 8,76314815181584E-02 
710	 9,34460193711878E-02 
711	 9,89191542573451E-02 
712	 0,104442650037807 
713	 0,109828092996646 
714	 0,114910600106045 
715	 0,120085796103006 
716	 0,125351295975732 
717	 0,13056035052893 
718	 0,13543528938541 
719	 0,139822208766083 
720	 0,143736457253191 
721	 0,147479635489365 
722	 0,151421326702039 
723	 0,155226911746906 
724	 0,158736814341681 
725	 0,161730541523596 
726	 0,164466623440995 
727	 0,167101358020254 
728	 0,169417282610142 
729	 0,171597424360692 
730	 0,17403251415937 
731	 0,176062305932676 
732	 0,17758496140298 
733	 0,179045818833322 
734	 0,180651061271728 
735	 0,182530900231314 
736	 0,184136577126293 
737	 0,185461308071357 
738	 0,186772035525 
739	 0,187963012617692 
740	 0,189013020371981 
741	 0,189979942060003 
742	 0,190878780530452 
743	 0,191716031628904 
744	 0,192318947937394 
745	 0,192820156692137 
746	 0,193763142354496 
747	 0,194539978786943 
748	 0,194858166397714 
749	 0,195153693387105 
750	 0,195547537305139 
751	 0,196138779711537 
752	 0,196634352384479 
753	 0,196998031635396 
754	 0,19744571830665 
755	 0,197915437374639 
756	 0,198339856698462 
757	 0,198536059247988 
758	 0,198642196018943 
759	 0,198974241533587 
760	 0,199482416664671 
761	 0,19999742562091 
762	 0,199795999203291 
763	 0,199626250677882 
764	 0,20019154759509 
765	 0,200769337485765 
766	 0,201111893907954 
767	 0,200880896050225 
768	 0,201069421201287 
769	 0,201914452174248 
770	 0,202220433205255 
771	 0,202219461532051 
772	 0,202306998847377 
773	 0,202292616608772 
774	 0,202264666193292 
775	 0,202579924312505 
776	 0,202850117156915 
777	 0,202897196503282 
778	 0,203010878222706 
779	 0,203217762237142 
780	 0,203520405407135 
781	 0,203283991959358 
782	 0,202710464234482 
783	 0,203160687778896 
784	 0,203628065170087 
785	 0,203477583653727 
786	 0,203362843761752 
787	 0,203358930277574 
788	 0,203463033052121 
789	 0,203214720757802 
790	 0,202649888407386 
791	 0,202566504941785 
792	 0,20242451634541 
793	 0,201867469314146 
794	 0,202094481055553 
795	 0,202670779379345 
796	 0,202253087852605 
797	 0,20181796188435 
798	 0,201708601359408 
799	 0,201951431365965 
800	 0,202053846474429 
801	 0,201603850007287 
802	 0,201529570632959 
803	 0,201821948341016 
804	 0,201986441299626 
805	 0,202195229109972 
806	 0,202486325850044 
807	 0,20281386306601 
808	 0,203158218246718 
809	 0,203497955471388 
810	 0,203757753494271 
811	 0,203911055965601 
812	 0,203893086296417 
813	 0,204107859623576 
814	 0,204603536024584 
815	 0,204533883725426 
816	 0,204239239059459 
817	 0,204218865119895 
818	 0,20466492950581 
819	 0,205318305448713 
820	 0,205268462915699 
821	 0,205156683964976 
822	 0,205307760611427 
823	 0,205714918832035 
824	 0,206039747682307 
825	 0,205864671436177 
826	 0,206062881354602 
827	 0,206675324486149 
828	 0,207167656557638 
829	 0,207416305337892 
830	 0,207400181755333 
831	 0,207567112020679 
832	 0,207834613387671 
833	 0,208019565641318 
834	 0,207943054504799 
835	 0,207710901586779 
836	 0,20779851484583 
837	 0,208018445526857 
838	 0,208237204969065 
839	 0,20828295370012 
840	 0,208243063170433 
841	 0,208272271783952 
842	 0,208375264636022 
843	 0,208546015895832 
844	 0,208801439817144 
845	 0,208782130677971 
846	 0,208363721524685 
847	 0,208184330685172 
848	 0,208186366007929 
849	 0,208174964123482 
850	 0,208210334485842 
851	 0,208186403823182 
852	 0,207724508802485 
853	 0,207358971085984 
854	 0,207384161290708 
855	 0,207583492368401 
856	 0,207751669832325 
857	 0,207652519497443 
858	 0,207600729798579 
859	 0,207691391210161 
860	 0,208038923939319 
861	 0,2079710457601 
862	 0,207256180728538 
863	 0,206935699246095 
864	 0,206750083696016 
865	 0,206227536961057 
866	 0,206803608032912 
867	 0,20812749485722 
868	 0,208149099663074 
869	 0,20803368503763 
870	 0,208207507771322 
871	 0,207691226138399 
872	 0,207323368685299 
873	 0,20815057414145 
874	 0,208908686830302 
875	 0,209268626438053 
876	 0,209153596952387 
877	 0,209099488294128 
878	 0,209412983702177 
879	 0,210293743226993 
880	 0,210994828195107 
881	 0,210764548113025 
882	 0,210965124284394 
883	 0,211502958090662 
884	 0,211298447560059 
885	 0,211478546820981 
886	 0,212383811769254 
887	 0,213660174620044 
888	 0,214248641298018 
889	 0,213327972914151 
890	 0,213035233497794 
891	 0,213425163027629 
892	 0,213723097504751 
893	 0,213679429465214 
894	 0,213319125223286 
895	 0,213194620076866 
896	 0,213670623988548 
897	 0,214828232532625 
898	 0,214826478528439 
899	 0,214183566320203 
900	 0,214351587152926 
901	 0,214603658578654 
902	 0,214810616808962 
903	 0,21519447092547 
904	 0,21562742736671 
905	 0,215911407137978 
906	 0,215266726811485 
907	 0,214444543977872 
908	 0,214612081052413 
909	 0,214794685663092 
910	 0,21474763867798 
911	 0,214436944145494 
912	 0,214409076625024 
913	 0,214837413251664 
914	 0,214982170324585 
915	 0,21513610899782 
916	 0,215649481366581 
917	 0,215638089489967 
918	 0,215046145539646 
919	 0,214164013280984 
920	 0,213406771803908 
921	 0,213022554215872 
922	 0,213232556565592 
923	 0,213084836619048 
924	 0,211900801737 
925	 0,211089877384467 
926	 0,211006447955018 
927	 0,211861254247856 
928	 0,212142098476191 
929	 0,211459720572149 
930	 0,210321870068262 
931	 0,209032977820362 
932	 0,207890499663618 
933	 0,207263287581749 
934	 0,206937477082548 
935	 0,206560082096005 
936	 0,205306572567778 
937	 0,203919305822659 
938	 0,205301993295041 
939	 0,205143747165978 
940	 0,202443567063523 
941	 0,201229259015567 
942	 0,20107199629118 
943	 0,201244689702227 
944	 0,200533188641176 
945	 0,199031090895378 
946	 0,197349198425378 
947	 0,196317792293482 
948	 0,19593902444864 
949	 0,195374615798733 
950	 0,193504271296488 
951	 0,190297666623405 
952	 0,189942633191726 
953	 0,190386555831678 
954	 0,188655012795985 
955	 0,185746243540878 
956	 0,182709944309044 
957	 0,181559294557164 
958	 0,181080480213428 
959	 0,180945363846732 
960	 0,181862840491247 
961	 0,181661100882712 
962	 0,179062252355942 
963	 0,178025733815842 
964	 0,177957856875825 
965	 0,177046851992713 
966	 0,176863096949672 
967	 0,177476924513793 
968	 0,178229978220811 
969	 0,177504432100922 
970	 0,175355212152477 
971	 0,176267510121788 
972	 0,177355906320116 
973	 0,17593857068181 
974	 0,175348480517959 
975	 0,175356882028904 
976	 0,174496877026546 
977	 0,175522518079918 
978	 0,177640264810719 
979	 0,175348255999782 
980	 0,174357537234937 
981	 0,176625071695683 
982	 0,175261804311927 
983	 0,174141428631606 
984	 0,177308479547666 
985	 0,178693955702467 
986	 0,177929943042606 
987	 0,176506172568953 
988	 0,17609432473989 
989	 0,1768297366893 
990	 0,176835338840851 
991	 0,176822562964016 
992	 0,177370117292568 
993	 0,179904885298634 
994	 0,18123034942502 
995	 0,178475725959378 
996	 0,179075339963185 
997	 0,181983567873792 
998	 0,182473376040795 
999	 0,182722202670624 
1000	 0,18322205627217 
1001	 0,184014216180635 
1002	 0,18289352205189 
1003	 0,180496001482373 
1004	 0,187217018599299 
1005	 0,19357904034825 
1006	 0,190329871891105 
1007	 0,187995591002381 
1008	 0,187787546757269 
1009	 0,188592809079723 
1010	 0,187532802649274 
1011	 0,185786614050415 
1012	 0,190335356478282 
1013	 0,193091019365843 
1014	 0,191536037645661 
1015	 0,192816069428645 
1016	 0,194749994300558 
1017	 0,195203830976902 
1018	 0,194451635382893 
1019	 0,194401802682714 
1020	 0,197641873618144 
1021	 0,196380968947628 
1022	 0,192622166066488 
1023	 0,19741324500706 
1024	 0,200715415476386 
1025	 0,199780124908936 
1026	 0,199475647829037 
1027	 0,198522765769611 
1028	 0,19686591365528 
1029	 0,200042419031833 
1030	 0,204518708939801 
1031	 0,205600316875892 
1032	 0,206133731726411 
1033	 0,206082466895721 
1034	 0,204335470813803 
1035	 0,2043464446357 
1036	 0,20667400982787 
1037	 0,209509535957209 
1038	 0,210949135016716 
1039	 0,210456173963023 
1040	 0,210795822222851 
1041	 0,211611934586998 
1042	 0,212260257055733 
1043	 0,210913949736064 
1044	 0,209212121815423 
1045	 0,209617305470516 
1046	 0,209636378592441 
1047	 0,20977417135326 
1048	 0,212363682178365 
1049	 0,215557677318673 
1050	 0,218304807950765 
1051	 0,220369488124005 
1052	 0,218568428622842 
1053	 0,213541586595572 
1054	 0,217514427940019 
1055	 0,223100876937383 
1056	 0,22242358405402 
1057	 0,212465281439757 
1058	 0,20157165004425 
1059	 0,20210112618533 
1060	 0,211005967443837 
1061	 0,222430910904359 
1062	 0,224500186937956 
1063	 0,22063067601849 
1064	 0,21783463433066 
1065	 0,239139830179779 
1066	 0,241788352738237 
1067	 0,216171483989004 
1068	 0,216120566929854 
1069	 0,221945336477474 
1070	 0,216525961581538 
1071	 0,210197618877592 
1072	 0,20485893917644 
1073	 0,201627761663136 
1074	 0,204994233293708 
1075	 0,213860019156477 
