Wavelength	MORB100128.asd
325	 0,40741798111008 
326	 0,413572439876109 
327	 0,351217150799874 
328	 0,224096399891619 
329	 0,239486885401066 
330	 0,314050229778935 
331	 0,371447945083542 
332	 0,305526887351931 
333	 0,198287398246334 
334	 0,263458766872891 
335	 0,292374605490351 
336	 0,246653694582335 
337	 0,226787673691227 
338	 0,227030939228575 
339	 0,232521161365102 
340	 0,239788741818355 
341	 0,249818091937168 
342	 0,263867385248118 
343	 0,290685057960123 
344	 0,32677014373545 
345	 0,314749766759217 
346	 0,28435997228788 
347	 0,259980001379925 
348	 0,247238697745238 
349	 0,244056296877161 
350	 0,22893163582353 
351	 0,237237661317695 
352	 0,278120352929513 
353	 0,330222010250972 
354	 0,348667179994867 
355	 0,298732539670706 
356	 0,274468127769646 
357	 0,284077199425142 
358	 0,285815299769474 
359	 0,27440852366464 
360	 0,254558613406225 
361	 0,289970960238924 
362	 0,334506422762994 
363	 0,324689976300927 
364	 0,312039093259524 
365	 0,304902777577583 
366	 0,293500037408661 
367	 0,296856012133523 
368	 0,317993321206855 
369	 0,30280409168225 
370	 0,275305269842415 
371	 0,290559161882527 
372	 0,320360670858205 
373	 0,349060057925362 
374	 0,349428102985023 
375	 0,337600602949616 
376	 0,327511343452703 
377	 0,323602632163206 
378	 0,327814517991719 
379	 0,342287719505546 
380	 0,349922698462338 
381	 0,348543555498113 
382	 0,360350277192521 
383	 0,368698136721481 
384	 0,357132802456565 
385	 0,34378385849928 
386	 0,338013408465174 
387	 0,353498868741243 
388	 0,359965229692256 
389	 0,348546156047886 
390	 0,348002443309169 
391	 0,351804054167217 
392	 0,34931388609664 
393	 0,349597190280205 
394	 0,355468815730284 
395	 0,37200837154055 
396	 0,377599311555734 
397	 0,364173581887195 
398	 0,357622501201753 
399	 0,360893141785791 
400	 0,3749537864247 
401	 0,37166586448685 
402	 0,353260783003274 
403	 0,354261888814066 
404	 0,362164933139543 
405	 0,367396984917133 
406	 0,369203885771941 
407	 0,36816911260719 
408	 0,365338685160396 
409	 0,366735231370025 
410	 0,372379009450606 
411	 0,374922453238656 
412	 0,371159291189877 
413	 0,359622258858913 
414	 0,361550960055361 
415	 0,371735865194224 
416	 0,366625180792407 
417	 0,363959686183437 
418	 0,369034558671143 
419	 0,368708479538339 
420	 0,364896745398341 
421	 0,361485164202909 
422	 0,362445873712065 
423	 0,366309203260666 
424	 0,364456389450779 
425	 0,364745505835531 
426	 0,370728355600952 
427	 0,370487303105258 
428	 0,367445682189975 
429	 0,370410453328385 
430	 0,372142642898646 
431	 0,371311877165002 
432	 0,371644751098883 
433	 0,371668280080572 
434	 0,370032018696381 
435	 0,367656618560704 
436	 0,36593610504103 
437	 0,368135273631271 
438	 0,368768499066695 
439	 0,366799575450912 
440	 0,370789075432331 
441	 0,374844120084591 
442	 0,37070466615847 
443	 0,370418119789845 
444	 0,374551077048596 
445	 0,375203430738785 
446	 0,373976285209406 
447	 0,372187326488356 
448	 0,372402333016936 
449	 0,373386700854 
450	 0,371910895293727 
451	 0,372725381684384 
452	 0,376584206622409 
453	 0,38027881380526 
454	 0,381338026544216 
455	 0,378104191652803 
456	 0,378286959007827 
457	 0,381644567025594 
458	 0,383484926825768 
459	 0,383769748455377 
460	 0,382646647766672 
461	 0,382288024701278 
462	 0,382290170735599 
463	 0,381796870093631 
464	 0,381029321392024 
465	 0,380455107242922 
466	 0,38148809780414 
467	 0,382505096429408 
468	 0,382570866821508 
469	 0,383641640757543 
470	 0,385613682854045 
471	 0,38797992444873 
472	 0,388628013156743 
473	 0,387467209366996 
474	 0,387757962675929 
475	 0,388860034686127 
476	 0,389889149161058 
477	 0,389597671381778 
478	 0,388626344902836 
479	 0,389675213371347 
480	 0,389695590589848 
481	 0,387908032615693 
482	 0,389484361281529 
483	 0,391250367936567 
484	 0,387752598285858 
485	 0,384960078178713 
486	 0,384642349974281 
487	 0,386863175066192 
488	 0,388920292513717 
489	 0,388775514898279 
490	 0,387534384590508 
491	 0,386286648343315 
492	 0,387186203338172 
493	 0,387429894540219 
494	 0,386308801359118 
495	 0,385508758424108 
496	 0,385760242170895 
497	 0,38767507743617 
498	 0,38897387943846 
499	 0,389293401723209 
500	 0,389233143421942 
501	 0,390040246220314 
502	 0,392088730992881 
503	 0,391988676900266 
504	 0,391326088779283 
505	 0,393640050689575 
506	 0,395389225181073 
507	 0,395862243308623 
508	 0,396743846589855 
509	 0,398568629566139 
510	 0,40159617549244 
511	 0,403267479356939 
512	 0,403406744513936 
513	 0,402684097821462 
514	 0,403150586753154 
515	 0,405438627658963 
516	 0,406795775318995 
517	 0,407586025357422 
518	 0,408761747784673 
519	 0,409094775137562 
520	 0,40882169351661 
521	 0,409862186648425 
522	 0,410944915580363 
523	 0,411148640819811 
524	 0,411174970867081 
525	 0,411261337421582 
526	 0,411792733335151 
527	 0,411706203311594 
528	 0,410819923102037 
529	 0,410265967561975 
530	 0,410092657498348 
531	 0,410237277751343 
532	 0,410510299869143 
533	 0,410681679945673 
534	 0,410233680182843 
535	 0,409906730009468 
536	 0,410126162953037 
537	 0,410538339246271 
538	 0,410736438155921 
539	 0,409993975372782 
540	 0,410033210991401 
541	 0,41098174962763 
542	 0,410655954061792 
543	 0,41029807124886 
544	 0,411160120148505 
545	 0,411842119160804 
546	 0,412089224781162 
547	 0,411970665081614 
548	 0,412112109170841 
549	 0,412829037698849 
550	 0,413913972955395 
551	 0,414700614706563 
552	 0,414244968512453 
553	 0,413648427236827 
554	 0,413242107389037 
555	 0,412935696586187 
556	 0,412387775626479 
557	 0,411363019083865 
558	 0,410584180666298 
559	 0,410081321917506 
560	 0,409476967191661 
561	 0,409439060885819 
562	 0,409877870962354 
563	 0,408643081134302 
564	 0,406949508034774 
565	 0,406619895154294 
566	 0,406741231034616 
567	 0,407132213803944 
568	 0,407822848207982 
569	 0,409035728029655 
570	 0,410832550779874 
571	 0,412207891105736 
572	 0,413482632004312 
573	 0,415814594496315 
574	 0,417760331834569 
575	 0,419097724154514 
576	 0,421568159032743 
577	 0,424429198177641 
578	 0,426713874412837 
579	 0,429113884808607 
580	 0,431740868778619 
581	 0,434572920324605 
582	 0,437044839701678 
583	 0,43886135705704 
584	 0,440500027315672 
585	 0,442289977136597 
586	 0,444700499726162 
587	 0,446616505770135 
588	 0,447909944008876 
589	 0,44964317331314 
590	 0,451509090188933 
591	 0,453139322919163 
592	 0,453685721344355 
593	 0,453636895814838 
594	 0,454835640834123 
595	 0,455652263694014 
596	 0,455537995508435 
597	 0,456227839302444 
598	 0,45709409292232 
599	 0,456964545238272 
600	 0,456275525544109 
601	 0,455462450625565 
602	 0,455724812487163 
603	 0,455839771316268 
604	 0,454863742729568 
605	 0,453732943922728 
606	 0,45286615817531 
607	 0,453016408198573 
608	 0,452433006294069 
609	 0,450660000166247 
610	 0,449424020303342 
611	 0,448429073775609 
612	 0,447125732096964 
613	 0,445994027720467 
614	 0,445132073220333 
615	 0,444460576296383 
616	 0,443839428182055 
617	 0,443181232765259 
618	 0,442621203510668 
619	 0,442127223095759 
620	 0,441566383510083 
621	 0,441306389126888 
622	 0,4413148098472 
623	 0,440722510037204 
624	 0,440423819737429 
625	 0,441324492291117 
626	 0,441729182095299 
627	 0,441613050651575 
628	 0,442027152405094 
629	 0,442604269000956 
630	 0,443146656205445 
631	 0,44351996323386 
632	 0,443980978067213 
633	 0,444965366453408 
634	 0,446042925606448 
635	 0,447143178158875 
636	 0,448554195663997 
637	 0,450004058248791 
638	 0,451268828966324 
639	 0,452755707632945 
640	 0,45421823110217 
641	 0,454803976062072 
642	 0,45564706048345 
643	 0,457016523172368 
644	 0,457585027670966 
645	 0,457670130675179 
646	 0,457839580710314 
647	 0,458064863794576 
648	 0,458169754662693 
649	 0,45768310582632 
650	 0,456391190770829 
651	 0,454260538286624 
652	 0,452254483159484 
653	 0,450574976366258 
654	 0,449409958250596 
655	 0,447171780666124 
656	 0,443622129389788 
657	 0,440523222250124 
658	 0,437826667957123 
659	 0,435313509906721 
660	 0,431931531496327 
661	 0,42801750291217 
662	 0,425080857779784 
663	 0,42265366835677 
664	 0,420440535902824 
665	 0,417859258873086 
666	 0,415415586861196 
667	 0,414020537358327 
668	 0,41261127602411 
669	 0,411010181908711 
670	 0,409837500188122 
671	 0,408739826246651 
672	 0,40751578164096 
673	 0,407432607279923 
674	 0,407881524894399 
675	 0,406892674222834 
676	 0,405998558017912 
677	 0,405781147263725 
678	 0,406114974597235 
679	 0,406617596151463 
680	 0,40685157089931 
681	 0,407120383012478 
682	 0,407650710767021 
683	 0,408786322748958 
684	 0,410552874750984 
685	 0,412965303432458 
686	 0,415859159216272 
687	 0,419339291249912 
688	 0,42366795147457 
689	 0,428247106474175 
690	 0,433166682135833 
691	 0,439580643055448 
692	 0,44699770468667 
693	 0,454893620170079 
694	 0,463013846658935 
695	 0,471489594665481 
696	 0,480716843036825 
697	 0,491026227375878 
698	 0,502301615591644 
699	 0,513055178092991 
700	 0,52336587303594 
701	 0,533543603477739 
702	 0,543641339044854 
703	 0,553677636585619 
704	 0,563727426576012 
705	 0,573077227137582 
706	 0,581287461697388 
707	 0,589011454428365 
708	 0,596449925568271 
709	 0,603782278862594 
710	 0,610475919932558 
711	 0,61641906851828 
712	 0,621938145869701 
713	 0,627195097059035 
714	 0,632291878732421 
715	 0,636603006298682 
716	 0,640298073778961 
717	 0,644168831347458 
718	 0,647534482873965 
719	 0,650199996260408 
720	 0,652701636452486 
721	 0,655260636340879 
722	 0,658076962429739 
723	 0,660500134646583 
724	 0,662428407535122 
725	 0,664136671901339 
726	 0,665655387265458 
727	 0,667010526131476 
728	 0,668125791001698 
729	 0,669154159265601 
730	 0,670371164239135 
731	 0,671553416492297 
732	 0,672550271818124 
733	 0,673075964802232 
734	 0,673400957335641 
735	 0,67379893435308 
736	 0,674522519900221 
737	 0,675342634603962 
738	 0,675593767500082 
739	 0,675591860626367 
740	 0,675604953323143 
741	 0,676409300139539 
742	 0,677285074084791 
743	 0,677338838274577 
744	 0,677387973447028 
745	 0,67760565904058 
746	 0,677945293035926 
747	 0,678126098664782 
748	 0,678044081339577 
749	 0,678165114015664 
750	 0,678406339182494 
751	 0,678570090293861 
752	 0,678317133923424 
753	 0,677763273121587 
754	 0,677689208547991 
755	 0,677816397375942 
756	 0,677912072150131 
757	 0,677867268173769 
758	 0,677766334128167 
759	 0,677837571404148 
760	 0,67786189680091 
761	 0,677766261889538 
762	 0,677521829918927 
763	 0,677448814215643 
764	 0,677823465486013 
765	 0,678253768550375 
766	 0,678447395640982 
767	 0,677817884520448 
768	 0,67750345317554 
769	 0,677859807257208 
770	 0,677962860072023 
771	 0,677867734535832 
772	 0,677733664507972 
773	 0,677466119498584 
774	 0,677179561255119 
775	 0,677242218443762 
776	 0,67733899345518 
777	 0,677283785510107 
778	 0,677015534287299 
779	 0,676798097753424 
780	 0,677022300776827 
781	 0,677120259079613 
782	 0,676997549432977 
783	 0,6769191975891 
784	 0,676838224730777 
785	 0,67673930318124 
786	 0,676791899784081 
787	 0,6767423463062 
788	 0,676092662393656 
789	 0,675560598579746 
790	 0,675395002959251 
791	 0,67560333604721 
792	 0,67571588858268 
793	 0,675386061519496 
794	 0,675178621699852 
795	 0,675038883773735 
796	 0,674576331460272 
797	 0,674649231373011 
798	 0,67524413533193 
799	 0,67486351143524 
800	 0,674222589982964 
801	 0,674060697545978 
802	 0,674043673734706 
803	 0,674082047234301 
804	 0,6741271272957 
805	 0,67393662281233 
806	 0,673552978431009 
807	 0,673693800682176 
808	 0,674165438992269 
809	 0,674670855582507 
810	 0,674654682731001 
811	 0,674148035670717 
812	 0,673524100711659 
813	 0,673341106368735 
814	 0,673745968142606 
815	 0,673894913754615 
816	 0,673705884088574 
817	 0,673197950076067 
818	 0,672845303826063 
819	 0,672802862145533 
820	 0,673164950435555 
821	 0,673350146668245 
822	 0,673116314034056 
823	 0,672974463750613 
824	 0,672993474617215 
825	 0,673183864150348 
826	 0,672883094159095 
827	 0,672294029676818 
828	 0,672612578705448 
829	 0,67279863334291 
830	 0,672408790938787 
831	 0,672366505919582 
832	 0,672459596196204 
833	 0,672272257812895 
834	 0,67224236942554 
835	 0,672352480361916 
836	 0,672208132348438 
837	 0,672003069210337 
838	 0,671851357934123 
839	 0,671722094425698 
840	 0,671765827242253 
841	 0,672185029532949 
842	 0,672189109670199 
843	 0,671792652054723 
844	 0,671732810738559 
845	 0,67187972188182 
846	 0,672110458513179 
847	 0,672119118512368 
848	 0,671778805854858 
849	 0,670980861230584 
850	 0,670844955271679 
851	 0,671392049066311 
852	 0,671680484481909 
853	 0,671759340849385 
854	 0,671682022523323 
855	 0,671821528887688 
856	 0,671934950963744 
857	 0,671640071938594 
858	 0,671322086309349 
859	 0,67108982793505 
860	 0,67092229797457 
861	 0,670885596797567 
862	 0,670958083360779 
863	 0,670846291916902 
864	 0,670425591135287 
865	 0,669605458094127 
866	 0,669457302454698 
867	 0,670053887244089 
868	 0,670917826863091 
869	 0,670966742712076 
870	 0,669839339001903 
871	 0,668960280326237 
872	 0,668685252578715 
873	 0,669214266848446 
874	 0,669438395236519 
875	 0,669328080689188 
876	 0,669655202418813 
877	 0,669807034923899 
878	 0,669615709937736 
879	 0,669704402262114 
880	 0,669705666310108 
881	 0,669207433656647 
882	 0,668832981633389 
883	 0,668660594881323 
884	 0,668563480897747 
885	 0,668244071301059 
886	 0,6678652035035 
887	 0,668902848777333 
888	 0,669818102947137 
889	 0,669190389378386 
890	 0,668839699286604 
891	 0,668784212621827 
892	 0,668245849225553 
893	 0,668396238139009 
894	 0,669172468512044 
895	 0,668526976210541 
896	 0,667919251588041 
897	 0,668471236840548 
898	 0,668980914691663 
899	 0,669190350021801 
900	 0,6689920710229 
901	 0,668727114335298 
902	 0,668526037450308 
903	 0,668365683534999 
904	 0,668395692795119 
905	 0,668635163195032 
906	 0,668509238353173 
907	 0,668282591521037 
908	 0,668427841650309 
909	 0,668431826853655 
910	 0,668153454363644 
911	 0,667433315983411 
912	 0,667517912156435 
913	 0,668542025973381 
914	 0,667355903646377 
915	 0,666137039367745 
916	 0,667425838747507 
917	 0,667385723061501 
918	 0,666352291857306 
919	 0,667260832832573 
920	 0,667638159984139 
921	 0,666778869499633 
922	 0,665589723157236 
923	 0,664881415155841 
924	 0,665182799745861 
925	 0,665036170130286 
926	 0,664458171352012 
927	 0,663941076037578 
928	 0,663354492868009 
929	 0,662865609141638 
930	 0,66308918251567 
931	 0,663501371879693 
932	 0,663689204421577 
933	 0,663338173299605 
934	 0,662578878102441 
935	 0,6616630800425 
936	 0,661003312037453 
937	 0,660809205051992 
938	 0,661392393734271 
939	 0,661761062261174 
940	 0,66132769687259 
941	 0,659496610883404 
942	 0,65784744599834 
943	 0,657708067277217 
944	 0,657555594982834 
945	 0,657058299110332 
946	 0,656078592487185 
947	 0,65565819608183 
948	 0,655717703632435 
949	 0,654809199486652 
950	 0,653636499651512 
951	 0,65275361215763 
952	 0,652760309552296 
953	 0,653274483156835 
954	 0,653637278434323 
955	 0,651031905602247 
956	 0,647340547012298 
957	 0,649052287239863 
958	 0,649423462394953 
959	 0,647104165898849 
960	 0,647405759640099 
961	 0,647500032733694 
962	 0,64554990059932 
963	 0,646239243416768 
964	 0,647564159982658 
965	 0,645576033608716 
966	 0,644195999869791 
967	 0,644384687740017 
968	 0,646226298690339 
969	 0,646436024305146 
970	 0,644130954276187 
971	 0,643044055732153 
972	 0,643572916860426 
973	 0,645537388995768 
974	 0,645539505810117 
975	 0,644407799494639 
976	 0,64475574911096 
977	 0,644776388457838 
978	 0,644199992154272 
979	 0,643467054751202 
980	 0,644312087961306 
981	 0,646723159539158 
982	 0,645027347198411 
983	 0,643392025495531 
984	 0,646111240712857 
985	 0,647254012542535 
986	 0,646291684256882 
987	 0,644243287740237 
988	 0,644945044469743 
989	 0,647732139758674 
990	 0,645621348944748 
991	 0,643480310918758 
992	 0,644053088935233 
993	 0,647299406779733 
994	 0,649439923735465 
995	 0,646942025981175 
996	 0,645072176224882 
997	 0,644989617073031 
998	 0,64692137791112 
999	 0,647245204690291 
1000	 0,645684227337951 
1001	 0,645638122207315 
1002	 0,645158712335131 
1003	 0,643853635284015 
1004	 0,644947181562335 
1005	 0,647265661107199 
1006	 0,649176203320112 
1007	 0,648478474860628 
1008	 0,646840470752136 
1009	 0,647923002771485 
1010	 0,649136280138711 
1011	 0,649836901069253 
1012	 0,650156720079634 
1013	 0,650539745037672 
1014	 0,651138821469288 
1015	 0,651537260306963 
1016	 0,651859644646841 
1017	 0,652061632059894 
1018	 0,650363575564975 
1019	 0,648663114246079 
1020	 0,650038177813209 
1021	 0,654750372706959 
1022	 0,658954100416195 
1023	 0,651412574437789 
1024	 0,648380508919857 
1025	 0,65346823578123 
1026	 0,654440892117857 
1027	 0,653731889174998 
1028	 0,653037508271432 
1029	 0,651518611673139 
1030	 0,651056651041265 
1031	 0,653339244715156 
1032	 0,650415016178007 
1033	 0,646423652436879 
1034	 0,652592092802871 
1035	 0,65581662063777 
1036	 0,654045949432037 
1037	 0,654273417142634 
1038	 0,654447903812237 
1039	 0,654073926073926 
1040	 0,654959787721133 
1041	 0,655234088499441 
1042	 0,653722962125602 
1043	 0,654902478282856 
1044	 0,655635198283848 
1045	 0,65124774159452 
1046	 0,649404801541758 
1047	 0,651969445889096 
1048	 0,659626761497748 
1049	 0,659666276428541 
1050	 0,652696863456102 
1051	 0,658669482582918 
1052	 0,657817225677231 
1053	 0,645179798009255 
1054	 0,651968257225078 
1055	 0,660596432284606 
1056	 0,655183479452488 
1057	 0,653022093572078 
1058	 0,650338140315031 
1059	 0,640050987805007 
1060	 0,647088899329046 
1061	 0,663129433028818 
1062	 0,656893214152187 
1063	 0,652699171496742 
1064	 0,65635222877586 
1065	 0,660039707433095 
1066	 0,666779652873754 
1067	 0,673759253867194 
1068	 0,658785335444932 
1069	 0,646875792225852 
1070	 0,654376707998785 
1071	 0,639909045831125 
1072	 0,628968350067034 
1073	 0,653181055637633 
1074	 0,655545556979707 
1075	 0,645734384776869 
