Wavelength	MORB100358.asd
325	 2,67322428481518E-02 
326	 7,10666949344601E-02 
327	 9,13733605478382E-02 
328	 0,022119928182438 
329	 0,063042497870374 
330	 5,27039223212341E-02 
331	-0,121344531654981 
332	-0,120878838758042 
333	 3,08848039807725E-02 
334	 0,159481773762655 
335	 0,14874041528663 
336	 2,15345162333006E-03 
337	-5,19571347997744E-02 
338	-3,31216637859018E-02 
339	 1,02047979365118E-02 
340	 0,076072572419269 
341	 0,130254504654625 
342	 0,10183565279184 
343	 5,47654892597972E-02 
344	 1,74513076803945E-02 
345	 6,63623163438584E-02 
346	 0,103762531583666 
347	 5,34412146638697E-02 
348	 2,95866373451778E-02 
349	 4,02542773466071E-02 
350	 2,89383710357516E-02 
351	 2,63410210861955E-02 
352	 3,97128316975645E-02 
353	 5,42623740396578E-02 
354	 6,39768268983977E-02 
355	 6,68776852145722E-02 
356	 7,91241402819274E-02 
357	 9,04402035742859E-02 
358	 6,49993963794263E-02 
359	 2,00957335746534E-02 
360	-2,68136919922967E-02 
361	 3,50655264586152E-03 
362	 0,054055983402499 
363	 4,40701348898207E-02 
364	 0,017078626371858 
365	-1,19814924254436E-02 
366	-3,63113398119591E-03 
367	 2,08401986354985E-02 
368	 4,25708872886949E-02 
369	 2,43504406915629E-02 
370	-8,52782360205894E-03 
371	-1,82945820080388E-03 
372	 1,83780991387058E-02 
373	 3,73191498884201E-02 
374	 0,025480257249389 
375	 1,49292535192066E-02 
376	 2,83164439676412E-02 
377	 2,89341770899156E-02 
378	 2,43758779821944E-02 
379	 4,26314940839509E-02 
380	 6,16310083876473E-02 
381	 6,92007839134525E-02 
382	 4,70588823529864E-02 
383	 0,017740660810359 
384	 5,34349235366444E-03 
385	 2,21884982070519E-02 
386	 5,00677722068882E-02 
387	 4,54096682372312E-02 
388	 2,94285043809927E-02 
389	 0,013476967861924 
390	 9,37537861195808E-03 
391	 1,13986622575629E-02 
392	 1,13345309531987E-02 
393	 1,45348609895939E-02 
394	 0,021123154223509 
395	 3,11094455816043E-02 
396	 3,07049691199452E-02 
397	 1,74447180627489E-02 
398	 2,70681960630248E-02 
399	 4,31002487661999E-02 
400	 3,82414496937414E-02 
401	 2,67215009939767E-02 
402	 0,015581545482959 
403	 8,4231162390041E-03 
404	 1,32503415111541E-02 
405	 3,21983855063758E-02 
406	 2,97804111089679E-02 
407	 1,51303605405325E-02 
408	 1,72612155556471E-02 
409	 1,95417371034892E-02 
410	 1,94757154007816E-02 
411	 2,85719609544385E-02 
412	 3,20421171391514E-02 
413	 1,72654466188857E-02 
414	 1,60673606689295E-02 
415	 2,58035398723816E-02 
416	 2,46463676411664E-02 
417	 2,36213955011686E-02 
418	 2,52953240867611E-02 
419	 1,79433971281762E-02 
420	 1,03856019664205E-02 
421	 1,48716949667646E-02 
422	 2,00279583356042E-02 
423	 2,20725520259773E-02 
424	 1,71306505066969E-02 
425	 1,56511500731106E-02 
426	 0,022749295012827 
427	 2,53778336002475E-02 
428	 2,38614703252042E-02 
429	 2,16270314204879E-02 
430	 2,05076214704301E-02 
431	 2,09486996017919E-02 
432	 2,09096683698655E-02 
433	 2,25711503408779E-02 
434	 2,71918587715397E-02 
435	 2,22516990526151E-02 
436	 1,28673530957292E-02 
437	 1,83639887901065E-02 
438	 2,08482783450715E-02 
439	 1,53484440344509E-02 
440	 1,73397155605953E-02 
441	 2,18430133674336E-02 
442	 2,09069125305073E-02 
443	 2,02785951742893E-02 
444	 2,04736174029315E-02 
445	 1,80958047075194E-02 
446	 1,84275032455909E-02 
447	 2,41142171318874E-02 
448	 2,86349727731428E-02 
449	 2,93507582435023E-02 
450	 2,31203538105543E-02 
451	 1,89510457356005E-02 
452	 1,94209150882172E-02 
453	 2,08071743354975E-02 
454	 2,14928579172075E-02 
455	 0,02021757581576 
456	 0,018187241244964 
457	 1,76292109897897E-02 
458	 2,41467766663276E-02 
459	 2,82058791993535E-02 
460	 2,59891079809606E-02 
461	 2,19484969180795E-02 
462	 0,019283833686658 
463	 2,15050132418769E-02 
464	 2,28439867121212E-02 
465	 0,021776082562371 
466	 1,81618240268018E-02 
467	 1,70546426055403E-02 
468	 2,12602344801696E-02 
469	 2,37655011331193E-02 
470	 2,43589670808915E-02 
471	 2,48214913415314E-02 
472	 2,52435490263701E-02 
473	 2,54462030045035E-02 
474	 2,40827574321899E-02 
475	 2,22490469481726E-02 
476	 2,10623790304534E-02 
477	 1,92569139972424E-02 
478	 1,73221253987198E-02 
479	 1,65069202437838E-02 
480	 1,90206318272551E-02 
481	 2,46219920062082E-02 
482	 2,49157173222086E-02 
483	 2,27927267594738E-02 
484	 2,39355281750591E-02 
485	 0,022262267822223 
486	 1,85610011413165E-02 
487	 2,16248172635352E-02 
488	 2,53086069743008E-02 
489	 2,47839824320608E-02 
490	 2,10940858504325E-02 
491	 1,69367221283822E-02 
492	 1,79151894905783E-02 
493	 1,98617348328599E-02 
494	 2,09756797502162E-02 
495	 2,01654944979873E-02 
496	 1,89544562011002E-02 
497	 1,91451341146237E-02 
498	 1,96594851781121E-02 
499	 2,02190479478432E-02 
500	 2,07169346645567E-02 
501	 2,13079760364235E-02 
502	 2,19858784726349E-02 
503	 2,21291366901068E-02 
504	 2,17373104561086E-02 
505	 2,08889309417896E-02 
506	 2,04068521501306E-02 
507	 2,05476305785808E-02 
508	 2,09872924947589E-02 
509	 2,15722444873331E-02 
510	 2,21522761792825E-02 
511	 0,022467374542722 
512	 2,24205555730713E-02 
513	 2,18277297541962E-02 
514	 2,15907003392354E-02 
515	 2,20178596621399E-02 
516	 2,23664449963715E-02 
517	 2,19501223560576E-02 
518	 1,98638922171428E-02 
519	 2,04750679748421E-02 
520	 2,32454079776916E-02 
521	 2,19006169443133E-02 
522	 2,01287268606079E-02 
523	 2,06078273883525E-02 
524	 2,12922603136158E-02 
525	 0,021686643729047 
526	 2,13684402080149E-02 
527	 2,12033224320772E-02 
528	 0,021404889296553 
529	 2,14157810377872E-02 
530	 2,08917139420697E-02 
531	 1,95231664194214E-02 
532	 1,97044394361816E-02 
533	 2,10882768143348E-02 
534	 0,020751198592919 
535	 2,03404337124679E-02 
536	 2,07554639096299E-02 
537	 2,10310198833428E-02 
538	 2,10145717718048E-02 
539	 2,06561015164879E-02 
540	 2,02200259708194E-02 
541	 2,00019292960165E-02 
542	 2,09147087759815E-02 
543	 2,14849991674281E-02 
544	 0,020341090162201 
545	 0,019560232682933 
546	 1,96915838149079E-02 
547	 2,11632209040164E-02 
548	 2,16451772625767E-02 
549	 2,03260916025944E-02 
550	 0,020512476928863 
551	 2,13565662148873E-02 
552	 2,09108646201277E-02 
553	 2,12485893028897E-02 
554	 0,02233470356577 
555	 2,17350240706913E-02 
556	 2,08030077662719E-02 
557	 2,06569147658483E-02 
558	 1,99164809977351E-02 
559	 1,91108582588083E-02 
560	 2,02101616851357E-02 
561	 2,10257640289001E-02 
562	 2,07279358404413E-02 
563	 2,01253032315265E-02 
564	 1,99854130726779E-02 
565	 2,11912994551284E-02 
566	 2,18114572879188E-02 
567	 0,021517088057135 
568	 2,10285426773823E-02 
569	 2,09705339622975E-02 
570	 2,16880173760289E-02 
571	 2,18601058201537E-02 
572	 2,16903573301747E-02 
573	 2,21180768205105E-02 
574	 2,24144450778952E-02 
575	 2,24134853392552E-02 
576	 2,26251203665597E-02 
577	 2,28820142285057E-02 
578	 2,29613370645095E-02 
579	 2,29719037310143E-02 
580	 0,023149046530835 
581	 2,42019955263535E-02 
582	 2,49857101490622E-02 
583	 2,48308133559084E-02 
584	 2,41567261776678E-02 
585	 0,023508154650629 
586	 2,36824038983919E-02 
587	 2,41472936893363E-02 
588	 2,46691285568626E-02 
589	 2,50804579081817E-02 
590	 2,52133649274894E-02 
591	 0,024949639777418 
592	 2,47729119938233E-02 
593	 2,46565537941921E-02 
594	 2,40874377365361E-02 
595	 2,41305299131051E-02 
596	 2,50611061785136E-02 
597	 2,51421163568985E-02 
598	 2,46275478975252E-02 
599	 2,41932355967558E-02 
600	 2,35562198668728E-02 
601	 2,29863058931011E-02 
602	 2,36715237227557E-02 
603	 2,43599235048393E-02 
604	 2,40151903670993E-02 
605	 2,27760902637305E-02 
606	 2,15330703100042E-02 
607	 2,24338980824984E-02 
608	 2,30386673442469E-02 
609	 2,25730335780204E-02 
610	 2,25250176569683E-02 
611	 2,24996929574549E-02 
612	 2,18744286851281E-02 
613	 2,15927631959271E-02 
614	 0,021655809552767 
615	 2,11694514824032E-02 
616	 2,09774754573162E-02 
617	 2,15759605290516E-02 
618	 2,23430100718284E-02 
619	 2,27668139561907E-02 
620	 2,20201904360678E-02 
621	 2,15724815172929E-02 
622	 2,18384504141711E-02 
623	 2,20775851662944E-02 
624	 2,23677686909298E-02 
625	 2,28004805036875E-02 
626	 0,022497990257691 
627	 2,18493153752574E-02 
628	 2,26067683474413E-02 
629	 2,29958537399151E-02 
630	 2,22830279169047E-02 
631	 2,22725171167903E-02 
632	 2,26996275338937E-02 
633	 2,27508681557657E-02 
634	 2,34228061038402E-02 
635	 2,46360236025394E-02 
636	 2,49936866630666E-02 
637	 2,49184778800873E-02 
638	 2,48544667610624E-02 
639	 2,52618510741621E-02 
640	 2,59411654725144E-02 
641	 2,61406489270763E-02 
642	 2,62934725669297E-02 
643	 2,65556647363788E-02 
644	 2,68603799524457E-02 
645	 2,70305552982586E-02 
646	 2,68440165304415E-02 
647	 2,70580601485806E-02 
648	 2,76908442854736E-02 
649	 2,80870667614437E-02 
650	 2,84565813638134E-02 
651	 2,88391526902845E-02 
652	 2,82489625252029E-02 
653	 2,73820248012414E-02 
654	 2,79834310783743E-02 
655	 2,80821291873076E-02 
656	 2,72922741862082E-02 
657	 2,71714690661149E-02 
658	 2,72309823258436E-02 
659	 2,68806528757947E-02 
660	 2,64320501103423E-02 
661	 2,60308534750253E-02 
662	 2,59114693330281E-02 
663	 2,57795376248223E-02 
664	 2,54527509882133E-02 
665	 2,47735537985402E-02 
666	 2,41814435956361E-02 
667	 2,43867765474277E-02 
668	 2,43694341862969E-02 
669	 2,39722031770885E-02 
670	 2,38196441842334E-02 
671	 2,37744051915565E-02 
672	 2,37146625995222E-02 
673	 2,36902483529525E-02 
674	 0,023646825645513 
675	 2,34439255356683E-02 
676	 2,32444612320192E-02 
677	 2,31185972778829E-02 
678	 2,30611047833141E-02 
679	 2,30458757058912E-02 
680	 0,023040739991534 
681	 2,29439182436302E-02 
682	 2,29092020278075E-02 
683	 2,35203375758385E-02 
684	 0,024062647248854 
685	 2,41406875764551E-02 
686	 2,42982142320361E-02 
687	 2,45287095059075E-02 
688	 2,46414899936854E-02 
689	 2,52248283787758E-02 
690	 2,63743825811689E-02 
691	 2,76341036692192E-02 
692	 2,89070133924255E-02 
693	 3,01392430826071E-02 
694	 3,16545672004826E-02 
695	 3,33809487218175E-02 
696	 0,034776935051486 
697	 0,037129599204288 
698	 4,08582602695357E-02 
699	 4,48130146564038E-02 
700	 4,88638662250263E-02 
701	 0,053001159731146 
702	 5,73432154527056E-02 
703	 6,18411595728778E-02 
704	 6,61743292210949E-02 
705	 7,08896319973253E-02 
706	 0,076220525543607 
707	 8,10955018793096E-02 
708	 0,085665571519193 
709	 9,05287716183486E-02 
710	 9,52127460069612E-02 
711	 9,95819109723098E-02 
712	 0,103748152435362 
713	 0,107740113468147 
714	 0,111577257333317 
715	 0,115106893660972 
716	 0,118537653782297 
717	 0,122561617435996 
718	 0,1260689966663 
719	 0,128692038120826 
720	 0,131390895221749 
721	 0,134050982512668 
722	 0,136410046453007 
723	 0,138634271379016 
724	 0,140779502330353 
725	 0,142914341049594 
726	 0,144791595800168 
727	 0,146261285732585 
728	 0,147418003026621 
729	 0,148528879798779 
730	 0,150046117075366 
731	 0,151254269254291 
732	 0,152030780340054 
733	 0,152859638236648 
734	 0,153734816903941 
735	 0,154627765866918 
736	 0,155422994541104 
737	 0,156082311504257 
738	 0,156548280417981 
739	 0,15711240896854 
740	 0,157791490906214 
741	 0,157941991074444 
742	 0,158065459525978 
743	 0,158779229820478 
744	 0,159038334689975 
745	 0,158870808669269 
746	 0,159112521165579 
747	 0,159411609681076 
748	 0,159591564080751 
749	 0,159768730299722 
750	 0,159896254039877 
751	 0,15987574557082 
752	 0,160130621547933 
753	 0,160599348292295 
754	 0,160621722506017 
755	 0,160398629887878 
756	 0,16015776146557 
757	 0,16051843450675 
758	 0,161170777966255 
759	 0,161324857515697 
760	 0,161151169586669 
761	 0,160817233949231 
762	 0,16088103371732 
763	 0,161049659133787 
764	 0,161038988394714 
765	 0,161322437313858 
766	 0,161706263756078 
767	 0,161433980035802 
768	 0,161357822152301 
769	 0,161725191007336 
770	 0,16183751252053 
771	 0,161834204656641 
772	 0,16194074890713 
773	 0,161689122841408 
774	 0,161256599769549 
775	 0,161475850357511 
776	 0,161765872809077 
777	 0,161807621705778 
778	 0,161625925741578 
779	 0,161492600853405 
780	 0,16180090276568 
781	 0,161900291971565 
782	 0,161734694490192 
783	 0,161787456240498 
784	 0,161818998225836 
785	 0,161699023851987 
786	 0,161721151333735 
787	 0,161829672247108 
788	 0,161866132466286 
789	 0,161740107734723 
790	 0,161459710346821 
791	 0,161170692649227 
792	 0,161024161260796 
793	 0,161120366252577 
794	 0,161267478499413 
795	 0,161230929980506 
796	 0,16054126410256 
797	 0,160277497519586 
798	 0,160659643979879 
799	 0,160777921675573 
800	 0,160733192388563 
801	 0,160662375573142 
802	 0,160508217203109 
803	 0,160386206867198 
804	 0,160585196010432 
805	 0,160851682737817 
806	 0,161048539299318 
807	 0,161014583570007 
808	 0,161009446501183 
809	 0,161296784834331 
810	 0,161182050883136 
811	 0,160872852025186 
812	 0,161377348773848 
813	 0,161768923012736 
814	 0,16168119509095 
815	 0,161472061140792 
816	 0,161382293212779 
817	 0,161649458200794 
818	 0,161955054866769 
819	 0,162178746238153 
820	 0,162183378219987 
821	 0,16236673664915 
822	 0,16284910789003 
823	 0,163093354068148 
824	 0,163075837647348 
825	 0,162850389076915 
826	 0,162786739475574 
827	 0,163024081894256 
828	 0,163725843160643 
829	 0,164027341583513 
830	 0,163565169035506 
831	 0,163267377901154 
832	 0,163286347747525 
833	 0,163667059086937 
834	 0,163791320292918 
835	 0,163658857916449 
836	 0,163862955783262 
837	 0,164068897897128 
838	 0,164050330980515 
839	 0,163501613729096 
840	 0,163136155029517 
841	 0,163964003701969 
842	 0,164705977999555 
843	 0,164964608201916 
844	 0,164679474048675 
845	 0,16422811936378 
846	 0,163877670313984 
847	 0,163742212592735 
848	 0,1636616536948 
849	 0,163385296753178 
850	 0,163455954871368 
851	 0,163786021543961 
852	 0,163695609497168 
853	 0,163317247115598 
854	 0,16280725528997 
855	 0,16264713349191 
856	 0,162872971148484 
857	 0,163435958758764 
858	 0,163192877281471 
859	 0,162318974545034 
860	 0,162354832768055 
861	 0,162520823486636 
862	 0,16243695196642 
863	 0,162420689413834 
864	 0,162256243119264 
865	 0,161656405463526 
866	 0,162087199610286 
867	 0,163282714502256 
868	 0,163475142884668 
869	 0,162934730502582 
870	 0,161975252879701 
871	 0,161647378682273 
872	 0,16217900304754 
873	 0,163612364497013 
874	 0,163637881483367 
875	 0,162679086524872 
876	 0,163612459624288 
877	 0,164277156167221 
878	 0,163950358750359 
879	 0,163954602761624 
880	 0,164168793412764 
881	 0,164357290633481 
882	 0,164589822129546 
883	 0,164826133227463 
884	 0,164922154233057 
885	 0,165166243490187 
886	 0,165614875397031 
887	 0,166025915867727 
888	 0,166190657244745 
889	 0,165949783000338 
890	 0,165553632420576 
891	 0,16530942919192 
892	 0,165754012144732 
893	 0,166113344746411 
894	 0,166198441775631 
895	 0,166420767608538 
896	 0,166820893067993 
897	 0,167287592443717 
898	 0,166519225464912 
899	 0,16536320840285 
900	 0,165645547254107 
901	 0,166189798139296 
902	 0,166578891058792 
903	 0,166591224461451 
904	 0,166555502227509 
905	 0,166653454482918 
906	 0,166484353808995 
907	 0,166490718011257 
908	 0,167337754965192 
909	 0,166879149535636 
910	 0,165390091648662 
911	 0,165343946989989 
912	 0,166127193455599 
913	 0,167221160538992 
914	 0,167349956003606 
915	 0,166865668253983 
916	 0,166350401631862 
917	 0,166395690387055 
918	 0,166719421420012 
919	 0,166159673826126 
920	 0,166131303113911 
921	 0,166799291930557 
922	 0,166554156921806 
923	 0,165838899532085 
924	 0,165144019837189 
925	 0,164869448938899 
926	 0,164807021788707 
927	 0,164435977301712 
928	 0,164092081385233 
929	 0,163880177267016 
930	 0,163873441635408 
931	 0,163747827891912 
932	 0,16337040401507 
933	 0,163248019343135 
934	 0,163297522430242 
935	 0,163321285516377 
936	 0,162633840072355 
937	 0,161683789053738 
938	 0,162296254927748 
939	 0,162214012487945 
940	 0,16087961203392 
941	 0,160186230380784 
942	 0,159964028503097 
943	 0,159904525734178 
944	 0,159364110116873 
945	 0,158755240290175 
946	 0,159107044486402 
947	 0,158523648018863 
948	 0,156946975106298 
949	 0,1562707934549 
950	 0,155727174941135 
951	 0,154975924559381 
952	 0,15470442060318 
953	 0,154833357439966 
954	 0,15510326506418 
955	 0,153465610548192 
956	 0,150934356817772 
957	 0,151216715494268 
958	 0,151358536302692 
959	 0,150802559030678 
960	 0,152007167984572 
961	 0,152438808054263 
962	 0,150454137392495 
963	 0,149724185015732 
964	 0,149847295308964 
965	 0,149380406764648 
966	 0,14980400261684 
967	 0,150684049362024 
968	 0,149848762101651 
969	 0,147846181901448 
970	 0,145534627017522 
971	 0,145795306889668 
972	 0,146992315752686 
973	 0,147505375662412 
974	 0,148610222145926 
975	 0,150135089143697 
976	 0,151584281868853 
977	 0,151123175928283 
978	 0,148903445733872 
979	 0,147089297979558 
980	 0,146739859930863 
981	 0,148097777595426 
982	 0,148910190223339 
983	 0,148870702909054 
984	 0,148019405505011 
985	 0,14799737994865 
986	 0,148752518650686 
987	 0,149567892393955 
988	 0,149499181346586 
989	 0,148722888791662 
990	 0,148935812136105 
991	 0,149728532607114 
992	 0,150938318892021 
993	 0,153194971615184 
994	 0,15418456477652 
995	 0,151853244595517 
996	 0,151015609067629 
997	 0,15161113667998 
998	 0,151604759565458 
999	 0,152810031688533 
1000	 0,154513564354589 
1001	 0,152571285275542 
1002	 0,150683719304518 
1003	 0,150976226677988 
1004	 0,153692846116019 
1005	 0,156253406706097 
1006	 0,156158924155624 
1007	 0,154304311918279 
1008	 0,153096577891255 
1009	 0,156411018368966 
1010	 0,157810424296026 
1011	 0,157007846017155 
1012	 0,159464855147957 
1013	 0,159602375574361 
1014	 0,156359248757443 
1015	 0,157869601854041 
1016	 0,158823594203834 
1017	 0,155172442102626 
1018	 0,15527220010668 
1019	 0,157431252507485 
1020	 0,157285960509604 
1021	 0,154913531059459 
1022	 0,152610476029226 
1023	 0,157045214213825 
1024	 0,159870948873508 
1025	 0,159022767934324 
1026	 0,160242886446032 
1027	 0,16002468956917 
1028	 0,156689871887395 
1029	 0,154659996734613 
1030	 0,157279483270663 
1031	 0,16664267858054 
1032	 0,168016984665442 
1033	 0,164799708817079 
1034	 0,170003136139639 
1035	 0,16908035711033 
1036	 0,161895279406475 
1037	 0,162231873275013 
1038	 0,164899862780816 
1039	 0,166636541540651 
1040	 0,162770121050759 
1041	 0,160508964111147 
1042	 0,165212218221889 
1043	 0,168152376815666 
1044	 0,168414320261653 
1045	 0,16674522819803 
1046	 0,167211530803169 
1047	 0,168900672220589 
1048	 0,167127795623335 
1049	 0,168008651690624 
1050	 0,171291917972762 
1051	 0,168307661637126 
1052	 0,169134510611335 
1053	 0,176283307528318 
1054	 0,173906011903051 
1055	 0,169363863558239 
1056	 0,169126554955179 
1057	 0,162310111327571 
1058	 0,157201186933979 
1059	 0,166094709550149 
1060	 0,165887365425208 
1061	 0,158225940675104 
1062	 0,158342393264986 
1063	 0,155899542338072 
1064	 0,15455596480525 
1065	 0,178484411996886 
1066	 0,191743690862685 
1067	 0,181118098718616 
1068	 0,16232245326564 
1069	 0,15601498321278 
1070	 0,172472161797574 
1071	 0,168674823004978 
1072	 0,154486514282299 
1073	 0,14774797468289 
1074	 0,162653216183968 
1075	 0,182362899775995 
