Wavelength	MORB100394.asd
325	 0,422566252057366 
326	 0,264379412273584 
327	 0,162746324767936 
328	 0,247976036992595 
329	 9,08083670640113E-02 
330	-3,68009377885204E-02 
331	 4,64234662086804E-02 
332	 8,75860687934195E-02 
333	 7,95550617164666E-02 
334	 0,125340533605174 
335	 0,115140948256779 
336	 4,01513837960257E-02 
337	 1,36368763779931E-02 
338	 4,44171149062371E-02 
339	 0,112678861489989 
340	 0,136217515039953 
341	 0,130740518562954 
342	 0,149977675342888 
343	 0,134150437751771 
344	 8,26202281772614E-02 
345	 0,11634408217235 
346	 0,144105061537208 
347	 8,77951778816498E-02 
348	 6,47144982074033E-02 
349	 9,18959047136643E-02 
350	 0,137317684008657 
351	 0,140565552359551 
352	 0,100477512309573 
353	 0,13993266426421 
354	 0,174445055549445 
355	 0,108810876401495 
356	 0,102348887716516 
357	 0,150572946670056 
358	 0,138418820697862 
359	 0,112217575403224 
360	 9,69416661489719E-02 
361	 0,117805209205359 
362	 0,147812078605423 
363	 0,151780229786465 
364	 0,120149549955478 
365	 6,81263242861467E-02 
366	 9,75628950423826E-02 
367	 0,131670864679827 
368	 0,126280844611076 
369	 0,101784421979614 
370	 8,09572316725412E-02 
371	 0,102789065431333 
372	 0,103450236683625 
373	 8,00170833632895E-02 
374	 9,95882119054305E-02 
375	 0,120848097189391 
376	 0,113586628068402 
377	 0,110350031113196 
378	 0,11574829220762 
379	 0,129526170398789 
380	 0,135650684341844 
381	 0,130383596700816 
382	 0,12703048233114 
383	 0,11716997477127 
384	 9,43786729275625E-02 
385	 0,10242013803649 
386	 0,128911103590429 
387	 0,128366393497127 
388	 0,115646638484649 
389	 0,101086885370045 
390	 0,109426428124306 
391	 0,12404667397382 
392	 0,122374811860393 
393	 0,121102989367399 
394	 0,122466001141989 
395	 0,122140884856143 
396	 0,121973672434231 
397	 0,123720107759217 
398	 0,134487700115091 
399	 0,140937952530157 
400	 0,122744164372263 
401	 0,120446033985575 
402	 0,134778465413863 
403	 0,126596347029589 
404	 0,115830874550113 
405	 0,116495903395713 
406	 0,118090958736744 
407	 0,118369702507039 
408	 0,115770416393435 
409	 0,113519568026436 
410	 0,113458858705045 
411	 0,119620399083177 
412	 0,123990280836233 
413	 0,119473535356322 
414	 0,117482011252999 
415	 0,117285304480261 
416	 0,109878389560148 
417	 0,10988331621336 
418	 0,119721829666592 
419	 0,116041333456336 
420	 0,108790676030615 
421	 0,11311020543871 
422	 0,116433134187341 
423	 0,115785683764376 
424	 0,109935716019984 
425	 0,108906518576548 
426	 0,117197167672222 
427	 0,118921545264935 
428	 0,116792900005384 
429	 0,119788934438702 
430	 0,117609261845089 
431	 0,110700825875397 
432	 0,113969800664266 
433	 0,119537755400794 
434	 0,119954848876047 
435	 0,117000357179405 
436	 0,113465937800135 
437	 0,115973786991934 
438	 0,116757016016327 
439	 0,113903365357412 
440	 0,115852220746478 
441	 0,119254486075444 
442	 0,118971809629999 
443	 0,118904042527901 
444	 0,119245066736738 
445	 0,117153732498399 
446	 0,116837004450186 
447	 0,120388744428357 
448	 0,121777551581156 
449	 0,121715366257072 
450	 0,123487283053538 
451	 0,121416087400912 
452	 0,116346172223728 
453	 0,120233668059814 
454	 0,124591480966481 
455	 0,121493701702425 
456	 0,118880620303282 
457	 0,118818521113781 
458	 0,122702524836138 
459	 0,125936219631463 
460	 0,126149096699586 
461	 0,122703194407778 
462	 0,119893660671545 
463	 0,123354828293069 
464	 0,125365766265667 
465	 0,124306034127223 
466	 0,121752102030636 
467	 0,120011877880756 
468	 0,120643170657885 
469	 0,122496681571715 
470	 0,124284526040487 
471	 0,123998402480443 
472	 0,12303274258389 
473	 0,122308297704544 
474	 0,124215570197999 
475	 0,124474076133798 
476	 0,119129015321446 
477	 0,117515800122073 
478	 0,119620161220277 
479	 0,119636120820792 
480	 0,120344910584494 
481	 0,122619711845748 
482	 0,124329163969921 
483	 0,124901634196683 
484	 0,123887898436847 
485	 0,121500649287904 
486	 0,118842781375076 
487	 0,119090349312504 
488	 0,120820756132949 
489	 0,122630715437436 
490	 0,122248745725466 
491	 0,120537235905944 
492	 0,120268985350216 
493	 0,120997392691754 
494	 0,121937890765499 
495	 0,119209020504964 
496	 0,116927038662181 
497	 0,119881733981528 
498	 0,120937282417886 
499	 0,119941467494828 
500	 0,121908502109893 
501	 0,123090139984759 
502	 0,121706091976426 
503	 0,121506681200017 
504	 0,121985683279686 
505	 0,121320534907014 
506	 0,121432329368149 
507	 0,122661638298183 
508	 0,123854256014633 
509	 0,125172186564172 
510	 0,12671398314134 
511	 0,126875301225154 
512	 0,126115977717782 
513	 0,126375944611376 
514	 0,126622683031894 
515	 0,126543753037135 
516	 0,127000883702714 
517	 0,127415786432187 
518	 0,126838124000847 
519	 0,127854610298811 
520	 0,130081890117301 
521	 0,129787661671382 
522	 0,128823318437503 
523	 0,128534261723148 
524	 0,127609062078258 
525	 0,126672628407796 
526	 0,127613041108351 
527	 0,128023710482113 
528	 0,127398111016832 
529	 0,127977197544603 
530	 0,12870077054304 
531	 0,128205539383535 
532	 0,127504471614662 
533	 0,127026690915833 
534	 0,127234950175774 
535	 0,127835127674329 
536	 0,128527082237238 
537	 0,128574437624937 
538	 0,128050067174437 
539	 0,127138746115138 
540	 0,127506170779304 
541	 0,129120982017061 
542	 0,12922977539065 
543	 0,128592981021626 
544	 0,128116519197622 
545	 0,128031402870294 
546	 0,128485877435253 
547	 0,12989671262903 
548	 0,130106364422949 
549	 0,128470314383635 
550	 0,128639005330989 
551	 0,1298199625768 
552	 0,130144477681182 
553	 0,130072384022759 
554	 0,129824178882352 
555	 0,130019194941973 
556	 0,12998046270151 
557	 0,129185576683258 
558	 0,128516371587889 
559	 0,128112201691832 
560	 0,127811891357946 
561	 0,1279111724232 
562	 0,12831706426713 
563	 0,127843296240517 
564	 0,126983990817139 
565	 0,126526221588113 
566	 0,126386873917605 
567	 0,126488192791891 
568	 0,126402637343889 
569	 0,126980584425386 
570	 0,128653431402038 
571	 0,129529182440108 
572	 0,129765449838565 
573	 0,130341882396787 
574	 0,131273767143657 
575	 0,132608976081698 
576	 0,134375557252591 
577	 0,135894181382619 
578	 0,136443932751298 
579	 0,137653066302103 
580	 0,13962839411757 
581	 0,141522598012039 
582	 0,143071064742109 
583	 0,144019728277676 
584	 0,143858517082329 
585	 0,143658080693841 
586	 0,145408848364343 
587	 0,146540899247636 
588	 0,146666698685783 
589	 0,147896661987008 
590	 0,149005327365628 
591	 0,148845054121262 
592	 0,148957689305511 
593	 0,149482744505693 
594	 0,149986164549623 
595	 0,150112879197295 
596	 0,14982939886144 
597	 0,150270835038303 
598	 0,150959333819735 
599	 0,151046278337893 
600	 0,150186105445529 
601	 0,148831691308239 
602	 0,149092798645074 
603	 0,149575856330535 
604	 0,149151386218884 
605	 0,148473257980781 
606	 0,147838592779259 
607	 0,1478306161369 
608	 0,147197287746227 
609	 0,145716440986509 
610	 0,145158380531347 
611	 0,144714759235895 
612	 0,143219065350157 
613	 0,142469515659293 
614	 0,1425037080122 
615	 0,141922396246767 
616	 0,141238344612659 
617	 0,140816872360199 
618	 0,140952389257351 
619	 0,141067004894681 
620	 0,139821784456772 
621	 0,13965368891397 
622	 0,140839696763794 
623	 0,140473588609083 
624	 0,139806094768138 
625	 0,140242195575624 
626	 0,140026441857794 
627	 0,13939157758449 
628	 0,140102276768675 
629	 0,140749589148208 
630	 0,140681613025626 
631	 0,14080778267036 
632	 0,141149734501231 
633	 0,141534958216018 
634	 0,142472429344729 
635	 0,143864154301455 
636	 0,144779618468262 
637	 0,145384840730114 
638	 0,145885012646943 
639	 0,146785260875681 
640	 0,14784238389834 
641	 0,148115739641709 
642	 0,14872511444956 
643	 0,149894194435887 
644	 0,150129604951052 
645	 0,149871335448314 
646	 0,149858045935745 
647	 0,150421007891159 
648	 0,151230165050912 
649	 0,150907385334635 
650	 0,150043198828064 
651	 0,149046910210183 
652	 0,147769808954558 
653	 0,146375390084745 
654	 0,14522742087823 
655	 0,143693756585903 
656	 0,141731133185202 
657	 0,140176864856344 
658	 0,138815968207234 
659	 0,13734711312106 
660	 0,135235363007914 
661	 0,132880986526864 
662	 0,131763190302832 
663	 0,130523716699263 
664	 0,128640501750198 
665	 0,127610993291843 
666	 0,126918663848235 
667	 0,125475063196638 
668	 0,124664255023697 
669	 0,124587924678131 
670	 0,124021139555482 
671	 0,12359647114328 
672	 0,123764065381854 
673	 0,123327348689359 
674	 0,122573771693795 
675	 0,122772101304096 
676	 0,12259278990542 
677	 0,121792167402581 
678	 0,121862631951754 
679	 0,122337946648829 
680	 0,122522700965353 
681	 0,122367163554457 
682	 0,12224549874456 
683	 0,123403478317168 
684	 0,124647132882923 
685	 0,125352873038199 
686	 0,126549659558491 
687	 0,128335201942617 
688	 0,130611013369158 
689	 0,133355021684332 
690	 0,13659010556878 
691	 0,140393876294801 
692	 0,144932916399792 
693	 0,150336008008812 
694	 0,156396916933795 
695	 0,163061173551178 
696	 0,170212998486682 
697	 0,178360709040127 
698	 0,187663585331613 
699	 0,197585881052279 
700	 0,208051696673458 
701	 0,21903281463906 
702	 0,230267800821291 
703	 0,241552485688419 
704	 0,252633812722346 
705	 0,263459730271024 
706	 0,273972913740884 
707	 0,284272288863961 
708	 0,294265916235533 
709	 0,303768237799794 
710	 0,312747366272122 
711	 0,32118520301446 
712	 0,32910237141728 
713	 0,336587604036915 
714	 0,343716708818695 
715	 0,35036993821331 
716	 0,356518040466251 
717	 0,362147920382565 
718	 0,367372752669844 
719	 0,372227637838727 
720	 0,376593038223621 
721	 0,380538694111087 
722	 0,384161290292161 
723	 0,387979789876266 
724	 0,391836911973873 
725	 0,394812229375345 
726	 0,397116855790551 
727	 0,399016625288335 
728	 0,401527169403148 
729	 0,404118244781649 
730	 0,405584802287616 
731	 0,40681822254747 
732	 0,408148413080298 
733	 0,409722604279452 
734	 0,411182848860074 
735	 0,412240990151926 
736	 0,41345924696841 
737	 0,414681376171606 
738	 0,415197522233173 
739	 0,415936011202403 
740	 0,417158867949237 
741	 0,418175990969999 
742	 0,418937755468132 
743	 0,419454879000367 
744	 0,419601859793057 
745	 0,419699272333233 
746	 0,420821505603975 
747	 0,421598704181386 
748	 0,42139058562437 
749	 0,421323697607067 
750	 0,421609654047403 
751	 0,422357341523082 
752	 0,422867374637511 
753	 0,423009431946701 
754	 0,423163450891844 
755	 0,423370535532533 
756	 0,42365835997375 
757	 0,424000421337884 
758	 0,424278150089777 
759	 0,424241241992902 
760	 0,424434920376026 
761	 0,424886861963301 
762	 0,42485484899951 
763	 0,424544139572607 
764	 0,42424010196552 
765	 0,424784971548778 
766	 0,425777084678393 
767	 0,425706171272297 
768	 0,425831338486619 
769	 0,42649013575126 
770	 0,426653339284702 
771	 0,426566212751571 
772	 0,426618340235425 
773	 0,426838663089178 
774	 0,427125172191805 
775	 0,427133400498545 
776	 0,427024678542421 
777	 0,426942253616097 
778	 0,427234846763067 
779	 0,427652915101111 
780	 0,427778745608693 
781	 0,427828809094159 
782	 0,427849227633104 
783	 0,427811566448463 
784	 0,427779261913645 
785	 0,427771249303623 
786	 0,427584050266853 
787	 0,427254704195758 
788	 0,426887906817556 
789	 0,426648486065286 
790	 0,426562962033459 
791	 0,426440569923034 
792	 0,426444782359097 
793	 0,426651025081829 
794	 0,426394056030825 
795	 0,425867413393057 
796	 0,425687658812098 
797	 0,425805762873898 
798	 0,426086875044687 
799	 0,425923483216442 
800	 0,425621929177756 
801	 0,425499005707968 
802	 0,425389762670042 
803	 0,425315493982861 
804	 0,425341726678598 
805	 0,425655519595977 
806	 0,42623725812034 
807	 0,426618481434446 
808	 0,426807169975445 
809	 0,426856534043396 
810	 0,426800311252797 
811	 0,426699699381697 
812	 0,426577392847771 
813	 0,426970034766473 
814	 0,427845144312493 
815	 0,427552132187826 
816	 0,426928265100211 
817	 0,427124285489457 
818	 0,427275594293213 
819	 0,427354638940325 
820	 0,427893585974094 
821	 0,428168634002239 
822	 0,427927641024722 
823	 0,427985953366059 
824	 0,428210690045402 
825	 0,428324516543379 
826	 0,42838050224593 
827	 0,428420353147474 
828	 0,4285625073084 
829	 0,428663865331038 
830	 0,428691638624149 
831	 0,428955780445717 
832	 0,429289065667351 
833	 0,429426536758705 
834	 0,429233859500931 
835	 0,428948300122488 
836	 0,429498398446237 
837	 0,429772452947083 
838	 0,429276764939189 
839	 0,429124117801245 
840	 0,429262977891891 
841	 0,429436358565211 
842	 0,42946686392307 
843	 0,429344561182597 
844	 0,429203438465723 
845	 0,429267553512023 
846	 0,429607108013565 
847	 0,429772763836028 
848	 0,429733296504312 
849	 0,429530592257989 
850	 0,429527753834433 
851	 0,429585260167931 
852	 0,428846012175986 
853	 0,428338823510035 
854	 0,42861325456846 
855	 0,42919983892228 
856	 0,429695887160006 
857	 0,429651465312293 
858	 0,428980593953705 
859	 0,428066559788927 
860	 0,428132016708764 
861	 0,428240624178477 
862	 0,427979816929265 
863	 0,428097831984125 
864	 0,428248284098538 
865	 0,427909769782661 
866	 0,428254100023104 
867	 0,429146484216321 
868	 0,429409875200669 
869	 0,429216943428568 
870	 0,42868858704865 
871	 0,428114271978821 
872	 0,427803576445462 
873	 0,428049036293028 
874	 0,428078992849099 
875	 0,427939725965443 
876	 0,428294791939583 
877	 0,42872999445741 
878	 0,429064403147857 
879	 0,429394367780289 
880	 0,42951654432732 
881	 0,429264094956659 
882	 0,42966171351228 
883	 0,430470216042618 
884	 0,430519605710446 
885	 0,430416357652132 
886	 0,430462840158111 
887	 0,431102348859201 
888	 0,431628107776812 
889	 0,431410741480649 
890	 0,431489096813828 
891	 0,431702751161846 
892	 0,431261662838863 
893	 0,430980194032354 
894	 0,431039928834844 
895	 0,430854513373268 
896	 0,431171884049888 
897	 0,432381894711928 
898	 0,432308722182735 
899	 0,431634331720236 
900	 0,43218252549545 
901	 0,43271309856894 
902	 0,433021241639149 
903	 0,433670414946925 
904	 0,434356289585033 
905	 0,434742845543075 
906	 0,433949359357022 
907	 0,432802221489447 
908	 0,432594091756989 
909	 0,43288433632432 
910	 0,433295161689718 
911	 0,433000193467651 
912	 0,432530423189709 
913	 0,432207624638164 
914	 0,432286959799689 
915	 0,432497207063924 
916	 0,43251224518683 
917	 0,432589043706983 
918	 0,432645442595251 
919	 0,432468655168339 
920	 0,431545806132033 
921	 0,430120364917501 
922	 0,430146179516496 
923	 0,430396687879416 
924	 0,429859375661524 
925	 0,429902286075827 
926	 0,43006036268167 
927	 0,429139419852143 
928	 0,428540542245473 
929	 0,428326776168028 
930	 0,427152387669155 
931	 0,426141954567761 
932	 0,425963422259355 
933	 0,42627451089736 
934	 0,426343926332304 
935	 0,425334832682681 
936	 0,424037658673582 
937	 0,423086303322662 
938	 0,423808992625586 
939	 0,423876453263264 
940	 0,422493804902594 
941	 0,420801407358669 
942	 0,419402147291944 
943	 0,418710741055729 
944	 0,417884507208523 
945	 0,416834937709053 
946	 0,415687333737386 
947	 0,414612095392124 
948	 0,413658264743826 
949	 0,412777731913321 
950	 0,412039104759069 
951	 0,411296054986406 
952	 0,409311666387385 
953	 0,407432302880897 
954	 0,407306181080002 
955	 0,405982326155284 
956	 0,403636435699437 
957	 0,402315185652168 
958	 0,401128857188424 
959	 0,400134428997955 
960	 0,400888908844522 
961	 0,400846234632586 
962	 0,398379903995581 
963	 0,397210274389508 
964	 0,397260287175361 
965	 0,397539991075556 
966	 0,396952571583324 
967	 0,396038403189894 
968	 0,397829414592638 
969	 0,397780998739418 
970	 0,394833179376471 
971	 0,394454381039765 
972	 0,395526300006035 
973	 0,396575556277041 
974	 0,396823024271926 
975	 0,396145177629941 
976	 0,394648712041977 
977	 0,394909857723115 
978	 0,396407774607503 
979	 0,394155372091916 
980	 0,394693101284642 
981	 0,399586876900937 
982	 0,39754878356051 
983	 0,394184562934059 
984	 0,395949753992323 
985	 0,399593277335307 
986	 0,402192436293578 
987	 0,399310316196774 
988	 0,397449020147983 
989	 0,397763272132573 
990	 0,396817663318181 
991	 0,395321906069733 
992	 0,394429818819906 
993	 0,398798008456706 
994	 0,402779373204287 
995	 0,400638019079021 
996	 0,399877657169466 
997	 0,401026222465292 
998	 0,402390912555895 
999	 0,402772391748279 
1000	 0,402081214805147 
1001	 0,401516491397182 
1002	 0,401654875944908 
1003	 0,402891460270108 
1004	 0,405492418218783 
1005	 0,407463292547505 
1006	 0,407121762654234 
1007	 0,407702977053123 
1008	 0,409406775263437 
1009	 0,411569097853897 
1010	 0,410665446574586 
1011	 0,407780169472485 
1012	 0,40982889463685 
1013	 0,411543383627025 
1014	 0,410970393642809 
1015	 0,410629833133546 
1016	 0,411230103504427 
1017	 0,413088868962155 
1018	 0,414673608398879 
1019	 0,41497614912629 
1020	 0,413074866409059 
1021	 0,412910088956028 
1022	 0,414454550240546 
1023	 0,414583901894953 
1024	 0,415696768233404 
1025	 0,418527052407418 
1026	 0,42327717709631 
1027	 0,42387620531362 
1028	 0,41784900865016 
1029	 0,416483074754631 
1030	 0,41866903299903 
1031	 0,421394270066751 
1032	 0,424890647213643 
1033	 0,426697225902555 
1034	 0,42223395409839 
1035	 0,421273158406786 
1036	 0,424269582344316 
1037	 0,421696957472151 
1038	 0,420612618565901 
1039	 0,423394359065592 
1040	 0,424562789261464 
1041	 0,425766360026162 
1042	 0,427846517018306 
1043	 0,423903137850025 
1044	 0,419948274049239 
1045	 0,424746004525908 
1046	 0,425588637369611 
1047	 0,422613202356379 
1048	 0,422504273084972 
1049	 0,42615017189423 
1050	 0,431329502856602 
1051	 0,429094712839181 
1052	 0,425218293918441 
1053	 0,4239265031745 
1054	 0,42895448403125 
1055	 0,436550628501352 
1056	 0,441488974266306 
1057	 0,433233012811933 
1058	 0,419549483457763 
1059	 0,414249685093378 
1060	 0,422374803271866 
1061	 0,43635360795262 
1062	 0,435742947191667 
1063	 0,437511414006294 
1064	 0,443717026082235 
1065	 0,443853224604702 
1066	 0,438513501153848 
1067	 0,428780128803285 
1068	 0,41926185534789 
1069	 0,415962397804397 
1070	 0,42172549566187 
1071	 0,424137051829695 
1072	 0,424800107584834 
1073	 0,426993510225944 
1074	 0,420857490409115 
1075	 0,416403750798645 
