Wavelength	MORB100354.asd
325	 0,261971654306249 
326	 6,55837177509559E-02 
327	-6,10203174585201E-02 
328	 2,23700390947176E-02 
329	-3,66239999109176E-02 
330	-0,11145834413934 
331	-0,102876725957032 
332	-3,93002562167213E-02 
333	 4,01072489673664E-02 
334	 0,085339918447694 
335	 5,83041513905082E-02 
336	-3,43888671260411E-02 
337	-9,38891452597036E-02 
338	-6,01574404667769E-02 
339	 6,90011509170605E-02 
340	 6,02683549874952E-02 
341	-1,08006176542469E-02 
342	 7,36311212008779E-02 
343	 0,103331408176038 
344	 0,045240898844364 
345	 7,69112879589586E-02 
346	 0,108190357812373 
347	 5,73606146640757E-02 
348	 9,38811734939809E-03 
349	-1,55271189695956E-02 
350	-0,029725327411073 
351	-1,68025587854193E-02 
352	 2,31015168038069E-02 
353	 5,74863940081863E-02 
354	 6,08154585120815E-02 
355	 1,69702365864413E-02 
356	 4,00965525538648E-02 
357	 0,106327930571753 
358	 7,15050847847374E-02 
359	 2,96212987341866E-02 
360	 2,38299061937007E-02 
361	 3,51504975295559E-02 
362	 5,31847382582854E-02 
363	 6,86116420705817E-02 
364	 5,77054702670228E-02 
365	 2,46358303184052E-02 
366	 2,54401059634947E-02 
367	 3,62430779562208E-02 
368	 4,04619272038734E-02 
369	 3,96784949619174E-02 
370	 3,42650436357335E-02 
371	 2,46192102920512E-02 
372	 2,68927341042719E-02 
373	 3,80371463165307E-02 
374	 0,025989083861855 
375	 0,011563479334527 
376	 1,09634250994619E-02 
377	 1,99763793699151E-02 
378	 3,10492789134078E-02 
379	 3,05019420658395E-02 
380	 3,84785872137931E-02 
381	 5,50746447574909E-02 
382	 5,43085033142333E-02 
383	 3,54448463479133E-02 
384	 2,55730411084115E-03 
385	 1,56901860476166E-02 
386	 5,40363281063065E-02 
387	 4,44308079074363E-02 
388	 2,36709115968231E-02 
389	 8,1452226715971E-03 
390	 1,39834016517578E-03 
391	 3,93984563174307E-03 
392	 1,52975258180589E-02 
393	 0,016156989357552 
394	 9,46852630669701E-03 
395	 1,82325875879871E-02 
396	 2,34617442971249E-02 
397	 1,85293533189285E-02 
398	 3,13520206868536E-02 
399	 4,28027415348364E-02 
400	 2,17101611729664E-02 
401	 9,28327819309932E-03 
402	 1,47311879335691E-02 
403	 2,36859268657907E-02 
404	 3,07559071478018E-02 
405	 3,14102186669211E-02 
406	 2,28321491425368E-02 
407	 1,30242546473809E-02 
408	 1,83425939222552E-02 
409	 2,61363763102842E-02 
410	 3,12373471071306E-02 
411	 0,029830011583767 
412	 2,37761365580269E-02 
413	 1,56308677147213E-02 
414	 1,49347260150926E-02 
415	 0,01969044095235 
416	 2,05235775304725E-02 
417	 2,05655248388489E-02 
418	 2,01214052947659E-02 
419	 1,32958841044918E-02 
420	 8,83208301126101E-03 
421	 1,82551346689837E-02 
422	 2,00963357928437E-02 
423	 1,31978558086707E-02 
424	 9,57548293407005E-03 
425	 1,22309090053666E-02 
426	 0,021183510306929 
427	 2,15539712981395E-02 
428	 1,82883985088359E-02 
429	 2,42961122765875E-02 
430	 0,023533202827214 
431	 1,51345412480572E-02 
432	 1,62634376053633E-02 
433	 2,02680196713243E-02 
434	 2,06249020751197E-02 
435	 1,83533744164016E-02 
436	 1,62506171766436E-02 
437	 2,19631064969592E-02 
438	 2,33206462735575E-02 
439	 1,72831258884067E-02 
440	 1,70843531018115E-02 
441	 2,01124405277296E-02 
442	 0,021502764555328 
443	 2,10052818029292E-02 
444	 1,97014637643359E-02 
445	 2,19345814833249E-02 
446	 2,38653809157981E-02 
447	 2,31555040894728E-02 
448	 2,17926012889044E-02 
449	 2,04366240534452E-02 
450	 0,019702645103014 
451	 1,86906298969367E-02 
452	 1,77145912388704E-02 
453	 1,95038991977699E-02 
454	 2,10227258085868E-02 
455	 1,94834550579105E-02 
456	 1,68687590176264E-02 
457	 1,54811771873112E-02 
458	 2,03806925989264E-02 
459	 2,45655537086969E-02 
460	 2,47296468766022E-02 
461	 2,12345473536805E-02 
462	 1,77549636417516E-02 
463	 1,89980822420393E-02 
464	 2,04857031993979E-02 
465	 2,07073340978654E-02 
466	 1,82965413820923E-02 
467	 1,77091125289872E-02 
468	 0,021367840027351 
469	 2,28408656185765E-02 
470	 2,21497050217268E-02 
471	 2,11367487979581E-02 
472	 2,11908499894478E-02 
473	 2,21834764931418E-02 
474	 2,06724469176748E-02 
475	 1,85974825767645E-02 
476	 1,80550590975112E-02 
477	 1,85438840943411E-02 
478	 1,91946685477008E-02 
479	 1,74220645223757E-02 
480	 0,01820011865353 
481	 2,27669779114588E-02 
482	 2,30881804136071E-02 
483	 0,020758768950129 
484	 1,94335054518882E-02 
485	 0,017012828997448 
486	 1,45364039748268E-02 
487	 0,017232662692625 
488	 0,020989777029168 
489	 2,24790201069836E-02 
490	 2,17578318291563E-02 
491	 1,98953511834396E-02 
492	 1,93085799323771E-02 
493	 1,88450791921236E-02 
494	 0,018233988658713 
495	 1,77125398700114E-02 
496	 1,77204686237105E-02 
497	 1,87056965073326E-02 
498	 1,97658119010437E-02 
499	 2,05116893798934E-02 
500	 2,05523167111322E-02 
501	 2,06555941214856E-02 
502	 2,12423891816422E-02 
503	 2,20204241104177E-02 
504	 2,22362642883979E-02 
505	 2,06014176968594E-02 
506	 1,96314205420884E-02 
507	 1,99084879119595E-02 
508	 2,00903792378554E-02 
509	 2,03207113996065E-02 
510	 2,07584209544092E-02 
511	 2,11995334615776E-02 
512	 2,12902656619645E-02 
513	 0,020086878690505 
514	 1,95604529599099E-02 
515	 2,04521869987094E-02 
516	 2,14421128610511E-02 
517	 2,17554353186088E-02 
518	 2,05354086674131E-02 
519	 2,01411069289351E-02 
520	 2,05902188409311E-02 
521	 0,019197303215397 
522	 1,88772144492598E-02 
523	 2,13683430609253E-02 
524	 2,13600378640032E-02 
525	 1,97409093172238E-02 
526	 2,05325005738235E-02 
527	 2,08511533355543E-02 
528	 2,00833538574581E-02 
529	 2,02972547902565E-02 
530	 2,05820759549845E-02 
531	 1,97638807251285E-02 
532	 0,020046833313024 
533	 2,11886890149919E-02 
534	 2,08383622432289E-02 
535	 2,03349008831053E-02 
536	 2,04568772223491E-02 
537	 2,07609479498244E-02 
538	 2,09499816402245E-02 
539	 2,06379565050091E-02 
540	 1,97347347132402E-02 
541	 1,86807589705023E-02 
542	 1,95139039879066E-02 
543	 2,05079167842889E-02 
544	 1,99630427274839E-02 
545	 1,96699766317521E-02 
546	 1,99573586183335E-02 
547	 2,07892551550131E-02 
548	 2,11555389397505E-02 
549	 2,06931732078453E-02 
550	 2,08585555462579E-02 
551	 2,11587203710819E-02 
552	 2,05666383330564E-02 
553	 1,99356442609992E-02 
554	 1,97127590899365E-02 
555	 2,06187121072729E-02 
556	 2,14242270569633E-02 
557	 2,11315119675927E-02 
558	 0,020734029387682 
559	 0,020427472924572 
560	 2,00951571536486E-02 
561	 2,04658768959294E-02 
562	 2,14620361980169E-02 
563	 2,07097652135605E-02 
564	 1,95131067165625E-02 
565	 1,98485732658293E-02 
566	 2,02093559905239E-02 
567	 2,02010511707226E-02 
568	 1,96917408084999E-02 
569	 0,019725713760563 
570	 2,09155609240101E-02 
571	 2,16434979110395E-02 
572	 2,17991317696242E-02 
573	 2,17223388765873E-02 
574	 2,17998742234094E-02 
575	 2,21243864835429E-02 
576	 2,22213227556059E-02 
577	 2,21423016049686E-02 
578	 2,19900356461796E-02 
579	 2,18570931936893E-02 
580	 2,20876550834424E-02 
581	 2,37912149642458E-02 
582	 2,47977005967707E-02 
583	 0,023960323809735 
584	 2,29536380573094E-02 
585	 2,24652890967514E-02 
586	 2,32923639994809E-02 
587	 2,36484631313535E-02 
588	 2,33277175058606E-02 
589	 2,42771182569855E-02 
590	 2,49612878811397E-02 
591	 2,39833237150421E-02 
592	 2,36276592566476E-02 
593	 2,39357266237109E-02 
594	 2,37153951001455E-02 
595	 2,34339061788762E-02 
596	 2,33092259884055E-02 
597	 2,34405569059954E-02 
598	 2,35194024529911E-02 
599	 2,30737305310343E-02 
600	 2,27073448628465E-02 
601	 2,25911037137017E-02 
602	 0,022654437226402 
603	 0,02268119547073 
604	 2,24993781361897E-02 
605	 2,21659807381677E-02 
606	 2,18963987135638E-02 
607	 2,21960864663103E-02 
608	 0,022462686035693 
609	 2,24662148805972E-02 
610	 2,24384116665855E-02 
611	 2,22514688000013E-02 
612	 2,17346960241744E-02 
613	 2,13870300268513E-02 
614	 2,12605170187007E-02 
615	 2,10760590736144E-02 
616	 2,07385567720583E-02 
617	 2,02894859781337E-02 
618	 2,06553562595576E-02 
619	 0,021471230576564 
620	 2,18572749108699E-02 
621	 2,15379046993122E-02 
622	 2,07783083571583E-02 
623	 2,14414897376731E-02 
624	 2,23760225062205E-02 
625	 2,22969434757123E-02 
626	 2,16832975848059E-02 
627	 2,10381703976894E-02 
628	 2,14950456384208E-02 
629	 2,20083906312623E-02 
630	 2,20748577511574E-02 
631	 2,22969067736947E-02 
632	 2,26227526629189E-02 
633	 2,28611025105628E-02 
634	 2,31326549660337E-02 
635	 2,35089821404867E-02 
636	 2,42177483593307E-02 
637	 2,45957174374215E-02 
638	 2,41831192686172E-02 
639	 2,47391930215715E-02 
640	 2,58000493889382E-02 
641	 2,53193834106685E-02 
642	 2,49729923213806E-02 
643	 2,53581967600081E-02 
644	 2,57275283246955E-02 
645	 2,59593897846781E-02 
646	 2,59827746287724E-02 
647	 0,026283672676585 
648	 2,68792564356109E-02 
649	 2,74073974810164E-02 
650	 2,77083394342435E-02 
651	 2,77042053571514E-02 
652	 2,77534682531537E-02 
653	 2,79188604639902E-02 
654	 0,028292132626781 
655	 2,79399352766307E-02 
656	 2,68261853082784E-02 
657	 2,64458270610762E-02 
658	 2,63366409763999E-02 
659	 2,59353057255286E-02 
660	 2,57128079302298E-02 
661	 2,56705003859311E-02 
662	 0,02559352218005 
663	 2,53422926860967E-02 
664	 2,48514022891654E-02 
665	 2,42451089702541E-02 
666	 2,37437096830732E-02 
667	 2,36500595456549E-02 
668	 2,35696374485555E-02 
669	 0,023406802855049 
670	 2,32907233137976E-02 
671	 2,32001380291755E-02 
672	 2,31181546731753E-02 
673	 2,30959567886033E-02 
674	 2,30497860769389E-02 
675	 2,27772190493017E-02 
676	 2,23518636548162E-02 
677	 2,19791295399681E-02 
678	 2,25982945883612E-02 
679	 2,33119350770309E-02 
680	 2,29923131384647E-02 
681	 2,26260752633702E-02 
682	 2,25049444227703E-02 
683	 2,27260587961997E-02 
684	 2,31023489034814E-02 
685	 2,34860024331834E-02 
686	 2,36729652994475E-02 
687	 2,38954469492767E-02 
688	 2,46006230966249E-02 
689	 2,55175342267146E-02 
690	 2,64779713784479E-02 
691	 2,71274395316122E-02 
692	 2,79271388205474E-02 
693	 2,93041677109215E-02 
694	 0,031144834696882 
695	 3,31990390122023E-02 
696	 3,47829773761089E-02 
697	 3,69882275004448E-02 
698	 4,02642447661104E-02 
699	 4,42110534200339E-02 
700	 4,83462939871527E-02 
701	 5,21147654470205E-02 
702	 5,64735137617658E-02 
703	 6,13955843013446E-02 
704	 6,59385454754039E-02 
705	 7,07430521169027E-02 
706	 7,60966072201726E-02 
707	 8,09304742747212E-02 
708	 8,53939159067467E-02 
709	 9,00419377881574E-02 
710	 9,47801578864829E-02 
711	 9,94488433174284E-02 
712	 0,103456229443412 
713	 0,107247741078037 
714	 0,111234930493323 
715	 0,114743990926498 
716	 0,118070269122331 
717	 0,122445842282946 
718	 0,126047570777305 
719	 0,128279963841021 
720	 0,130690039451258 
721	 0,133232952886045 
722	 0,135655132038854 
723	 0,137896134235606 
724	 0,139930416339066 
725	 0,141774631783108 
726	 0,143405360307263 
727	 0,144864738242886 
728	 0,146639042674069 
729	 0,14828957741191 
730	 0,148906814268613 
731	 0,149562049822787 
732	 0,150597983471703 
733	 0,151910185310032 
734	 0,153040903064148 
735	 0,153622986646081 
736	 0,154219164215328 
737	 0,154854429444294 
738	 0,155304745154286 
739	 0,155736507258701 
740	 0,156198138133008 
741	 0,156566513607181 
742	 0,15693281183995 
743	 0,157409590856481 
744	 0,157981709270936 
745	 0,158497481729585 
746	 0,15852100174518 
747	 0,158527759793729 
748	 0,158756945417487 
749	 0,158935309689568 
750	 0,158945657805265 
751	 0,158635189577123 
752	 0,158902971524999 
753	 0,1596104563326 
754	 0,159200777465715 
755	 0,15879268368812 
756	 0,159184487747793 
757	 0,159665420154631 
758	 0,159965555179226 
759	 0,159754784333093 
760	 0,159682026209149 
761	 0,159903060085793 
762	 0,160050339590856 
763	 0,159949259155312 
764	 0,159506795465218 
765	 0,15962163533209 
766	 0,16011099041404 
767	 0,159993159774673 
768	 0,160076820970283 
769	 0,160510103677454 
770	 0,160248445558309 
771	 0,159893946327598 
772	 0,160232607168558 
773	 0,160368153513611 
774	 0,160230529171258 
775	 0,160241882760791 
776	 0,160317569002882 
777	 0,160413273249428 
778	 0,160482909606335 
779	 0,160535574437149 
780	 0,160598086601896 
781	 0,160572515483654 
782	 0,160471286316811 
783	 0,160432654189806 
784	 0,160390883004546 
785	 0,160322490861053 
786	 0,160452954713577 
787	 0,160522598956091 
788	 0,160006089484305 
789	 0,159678695420154 
790	 0,159712622737336 
791	 0,159741220355241 
792	 0,159690030110292 
793	 0,159519260701335 
794	 0,159427448334538 
795	 0,159377302103915 
796	 0,159187008984611 
797	 0,159195484653008 
798	 0,159426570273381 
799	 0,159462696408325 
800	 0,159257719269776 
801	 0,158830929651938 
802	 0,158773156239077 
803	 0,15896359023628 
804	 0,158745204754144 
805	 0,15873714584625 
806	 0,159085620389823 
807	 0,159269081759673 
808	 0,159486054284099 
809	 0,159966490388639 
810	 0,16027531961283 
811	 0,160300154896684 
812	 0,159917056920124 
813	 0,160019519220622 
814	 0,160764822203844 
815	 0,16049874911274 
816	 0,160001071187119 
817	 0,160346305839327 
818	 0,160603011007969 
819	 0,160642032818907 
820	 0,160725001810992 
821	 0,160736242436225 
822	 0,160685703412875 
823	 0,160951726512678 
824	 0,161281987741997 
825	 0,161312441803822 
826	 0,16124004144637 
827	 0,161260841638551 
828	 0,161881698843188 
829	 0,16222742763271 
830	 0,161938854145065 
831	 0,161963555358633 
832	 0,16221810926362 
833	 0,162444513459052 
834	 0,162319869771374 
835	 0,162077952934221 
836	 0,162906887326004 
837	 0,163053264181152 
838	 0,161836856283742 
839	 0,161622342375546 
840	 0,162184969541375 
841	 0,162809197005425 
842	 0,162911825727971 
843	 0,162543892542261 
844	 0,162549214562603 
845	 0,162443665642061 
846	 0,162062124970922 
847	 0,16211806789327 
848	 0,162425011688431 
849	 0,162609860929804 
850	 0,162383931943866 
851	 0,161881749333358 
852	 0,161840999203056 
853	 0,161704555748627 
854	 0,161283081379464 
855	 0,161447075297164 
856	 0,161822161285048 
857	 0,161776930233784 
858	 0,161634129175878 
859	 0,161491048390573 
860	 0,161468880068776 
861	 0,161163259781613 
862	 0,160512742256524 
863	 0,16059701200471 
864	 0,160836827915666 
865	 0,160353468804203 
866	 0,160561656639111 
867	 0,161355713919454 
868	 0,161459128849053 
869	 0,161207026280931 
870	 0,160797107811225 
871	 0,160384946724015 
872	 0,160489553985634 
873	 0,16163234177392 
874	 0,162231466191833 
875	 0,162039782774496 
876	 0,161419740543621 
877	 0,161118235641771 
878	 0,161470246787645 
879	 0,162089523883548 
880	 0,162643430422183 
881	 0,162815371402936 
882	 0,162767446832945 
883	 0,162627847840637 
884	 0,162572721436882 
885	 0,162760158336972 
886	 0,163273497235667 
887	 0,164232166303003 
888	 0,16478383968999 
889	 0,164208625135185 
890	 0,163743967432607 
891	 0,163620884234656 
892	 0,163811407196271 
893	 0,163825313639947 
894	 0,16357624493991 
895	 0,163477906288772 
896	 0,163696668379079 
897	 0,1642562137438 
898	 0,164161784003568 
899	 0,163911041335823 
900	 0,164683742688004 
901	 0,165097949840004 
902	 0,165006029827827 
903	 0,165517764624291 
904	 0,16565457559545 
905	 0,164956481206035 
906	 0,164850323705309 
907	 0,165006545749057 
908	 0,164707910169347 
909	 0,164361162107684 
910	 0,164123650236389 
911	 0,164087631740575 
912	 0,164605669521871 
913	 0,165520375384379 
914	 0,164884367157556 
915	 0,164083722596353 
916	 0,164778152084783 
917	 0,165429168686476 
918	 0,16562327194008 
919	 0,165098804632885 
920	 0,164852540436231 
921	 0,164989960980414 
922	 0,164074090081637 
923	 0,16316182883426 
924	 0,163095923829817 
925	 0,162451562523022 
926	 0,161950998430895 
927	 0,163302743051671 
928	 0,163800471505046 
929	 0,163034941716599 
930	 0,16259976357283 
931	 0,162321306593403 
932	 0,16201124101801 
933	 0,160981119794238 
934	 0,159788672233773 
935	 0,159246152459906 
936	 0,159278030321497 
937	 0,159690815204754 
938	 0,160064550123005 
939	 0,160083173499173 
940	 0,159638349532509 
941	 0,158939121995454 
942	 0,158785606663694 
943	 0,159628670548921 
944	 0,158769834640785 
945	 0,156842041143111 
946	 0,155809591735253 
947	 0,15598527193588 
948	 0,156861097992879 
949	 0,156101379710659 
950	 0,155240643033159 
951	 0,154966433891279 
952	 0,153419237285475 
953	 0,152231516331422 
954	 0,153394210909074 
955	 0,152767335748444 
956	 0,150621272528527 
957	 0,149929031676655 
958	 0,149486298893568 
959	 0,149180233275182 
960	 0,150183814643749 
961	 0,15064787900444 
962	 0,149368577335273 
963	 0,14899975818007 
964	 0,149011927345017 
965	 0,148026715574939 
966	 0,148023320529444 
967	 0,14869085354114 
968	 0,147584209564451 
969	 0,146210701251611 
970	 0,145423001813155 
971	 0,145942459163277 
972	 0,146581070733714 
973	 0,146331335868286 
974	 0,147020136205567 
975	 0,14820948675875 
976	 0,148652372914483 
977	 0,148404306278617 
978	 0,147462897807521 
979	 0,145548940134787 
980	 0,145481531031453 
981	 0,147782436026093 
982	 0,146351644033118 
983	 0,144572399634 
984	 0,146158515895065 
985	 0,14758578151766 
986	 0,147805985518916 
987	 0,145999752146571 
988	 0,146245968859029 
989	 0,148403096092716 
990	 0,147114461641581 
991	 0,146384056622017 
992	 0,147979065676577 
993	 0,149213659870707 
994	 0,148994177308519 
995	 0,146822464070006 
996	 0,147723633928773 
997	 0,150630712483111 
998	 0,151669951173733 
999	 0,151532421905063 
1000	 0,150713729052507 
1001	 0,150754889536251 
1002	 0,149693174513752 
1003	 0,147522770032796 
1004	 0,149997726770448 
1005	 0,152906181956551 
1006	 0,151965000305245 
1007	 0,150911971959499 
1008	 0,151074460702786 
1009	 0,153668859063471 
1010	 0,15304331402555 
1011	 0,150376483023506 
1012	 0,155229963984731 
1013	 0,157480308298652 
1014	 0,153990121417157 
1015	 0,153501057487324 
1016	 0,153859124140505 
1017	 0,153168734836981 
1018	 0,154919532446936 
1019	 0,157019639497718 
1020	 0,155795905688623 
1021	 0,15447651883829 
1022	 0,154083105723233 
1023	 0,155252118265205 
1024	 0,156044781017233 
1025	 0,156251872996926 
1026	 0,159200574693815 
1027	 0,158139477648059 
1028	 0,150501383772011 
1029	 0,150511697870403 
1030	 0,154919891426069 
1031	 0,157753725125588 
1032	 0,157539398028401 
1033	 0,156195309634487 
1034	 0,158449306063149 
1035	 0,159673093580035 
1036	 0,158788331912908 
1037	 0,156459933763405 
1038	 0,156710248030248 
1039	 0,160610567514677 
1040	 0,162653301625846 
1041	 0,164296808386841 
1042	 0,166454393031187 
1043	 0,164005795620854 
1044	 0,161232289585688 
1045	 0,164523622593711 
1046	 0,168689832205871 
1047	 0,169687110011381 
1048	 0,160315388792197 
1049	 0,160646631904152 
1050	 0,170404545483573 
1051	 0,162753022903963 
1052	 0,157595595643547 
1053	 0,163174655602499 
1054	 0,163933221116022 
1055	 0,162748362129616 
1056	 0,162214947700103 
1057	 0,15512914792357 
1058	 0,149162762586252 
1059	 0,155518200216802 
1060	 0,158665199970544 
1061	 0,159594472042337 
1062	 0,168605123083886 
1063	 0,165968867463631 
1064	 0,15666247578196 
1065	 0,182586180709454 
1066	 0,194072984535068 
1067	 0,175330663114527 
1068	 0,162442517070977 
1069	 0,157610835614699 
1070	 0,159899299627165 
1071	 0,159381515674834 
1072	 0,153023710914193 
1073	 0,140265026083413 
1074	 0,15008572579699 
1075	 0,170769217234671 
