Wavelength	MORB100173.asd
325	 0,131543830280537 
326	 0,047416786682945 
327	 1,23937346246069E-02 
328	 0,107145728314044 
329	 8,68386328079328E-02 
330	 4,11216116684129E-02 
331	 4,27555620716197E-02 
332	 1,95731090538466E-02 
333	 4,5894828377497E-04 
334	 7,15428149606299E-02 
335	 9,74251722982019E-02 
336	 4,89514231832125E-02 
337	-2,97061990463006E-02 
338	-6,72257025004047E-02 
339	-2,45512647843867E-02 
340	 4,10398161007045E-02 
341	 0,101583849896687 
342	 0,11844897086475 
343	 0,09724783057327 
344	 5,21166993207781E-02 
345	 7,11680832641628E-02 
346	 9,54825169125438E-02 
347	 0,071733464323265 
348	 1,44814502965594E-05 
349	-0,064078846676293 
350	 1,31797468623659E-02 
351	 6,73613640248842E-02 
352	 6,18147120055517E-02 
353	 8,71395333878253E-02 
354	 0,111114288857111 
355	 9,58494242076332E-02 
356	 8,35389788412726E-02 
357	 7,50587968622896E-02 
358	 4,36203692880407E-02 
359	 1,70947491772896E-02 
360	 9,11536311113872E-03 
361	 0,025884462082258 
362	 4,78049400161771E-02 
363	 5,21168337362405E-02 
364	 2,44102217501851E-02 
365	-2,06690978278104E-02 
366	 0,016780139603579 
367	 0,053315979928542 
368	 0,043541039134828 
369	 1,76426664852854E-02 
370	 1,59708888107622E-03 
371	 3,72846524152036E-02 
372	 5,30187703631526E-02 
373	 3,75053147447804E-02 
374	 3,50061587483421E-02 
375	 3,76481160315661E-02 
376	 3,78691094033994E-02 
377	 2,80417254007603E-02 
378	 1,91804531871148E-02 
379	 3,62598277721774E-02 
380	 4,73931903371676E-02 
381	 4,30988400220695E-02 
382	 3,36438720337477E-02 
383	 1,96077388370467E-02 
384	 2,82651366901264E-03 
385	 0,012074413287326 
386	 3,46769226425962E-02 
387	 2,97533035692285E-02 
388	 2,26502774683779E-02 
389	 2,22889795624991E-02 
390	 0,019350541667508 
391	 0,016636178842877 
392	 1,82448215528418E-02 
393	 1,86740251807843E-02 
394	 0,02019178238936 
395	 3,46964369543719E-02 
396	 4,18538313629887E-02 
397	 0,03377864083531 
398	 0,035140584774999 
399	 3,74788439302142E-02 
400	 2,41010040268261E-02 
401	 1,82852982777452E-02 
402	 2,29011154763212E-02 
403	 2,18869020392481E-02 
404	 2,23565289068439E-02 
405	 2,78789331015912E-02 
406	 0,021939889454616 
407	 1,15662355245945E-02 
408	 1,56414075023993E-02 
409	 1,96781229735306E-02 
410	 2,11467200563574E-02 
411	 2,93388882570949E-02 
412	 3,49198775435712E-02 
413	 2,94471155504356E-02 
414	 2,55851325623693E-02 
415	 2,46268070385924E-02 
416	 2,26767055311875E-02 
417	 2,38537507629554E-02 
418	 2,76331205831773E-02 
419	 2,10150637929904E-02 
420	 1,29267012070979E-02 
421	 1,60264532535372E-02 
422	 1,97860228030775E-02 
423	 2,09225175435978E-02 
424	 1,66465866991214E-02 
425	 1,43336097773776E-02 
426	 1,80270219553722E-02 
427	 2,14077668387474E-02 
428	 2,37364334575293E-02 
429	 2,56152309099155E-02 
430	 2,34929529754542E-02 
431	 1,84740256854359E-02 
432	 1,97303754923164E-02 
433	 2,27722461691775E-02 
434	 2,31790281141821E-02 
435	 0,019847851667921 
436	 1,57162657287625E-02 
437	 1,92292483771785E-02 
438	 2,02825481942534E-02 
439	 1,65188689436169E-02 
440	 0,019804686780859 
441	 2,49104102111526E-02 
442	 2,39756329863153E-02 
443	 2,26993834612934E-02 
444	 2,27511592845151E-02 
445	 2,54571140293501E-02 
446	 2,62133541254996E-02 
447	 2,28401030411181E-02 
448	 2,31319628315931E-02 
449	 2,52894491118262E-02 
450	 2,42772461212437E-02 
451	 2,05726066751079E-02 
452	 1,61257434009829E-02 
453	 1,93153189144394E-02 
454	 2,22734150510233E-02 
455	 1,79511511175878E-02 
456	 1,73429797258309E-02 
457	 2,07059038003848E-02 
458	 0,023418376383185 
459	 2,37931260962983E-02 
460	 2,14260713987738E-02 
461	 2,01082402635415E-02 
462	 1,94753698511477E-02 
463	 1,84517540511777E-02 
464	 1,94481880175429E-02 
465	 2,19811292724439E-02 
466	 2,25492658618963E-02 
467	 2,24234185829619E-02 
468	 2,23396207277831E-02 
469	 0,020791394963381 
470	 0,018937523141271 
471	 1,92127949745148E-02 
472	 0,020682544666526 
473	 2,27108341513603E-02 
474	 2,43407024923583E-02 
475	 2,39748879134564E-02 
476	 2,03874042027657E-02 
477	 1,94881222475932E-02 
478	 0,021083970163035 
479	 2,07972293306082E-02 
480	 2,13631734365015E-02 
481	 2,35013008958686E-02 
482	 2,37309823123561E-02 
483	 2,29040345500811E-02 
484	 2,28703300186205E-02 
485	 0,021210868064559 
486	 1,85305391100687E-02 
487	 1,89986211125623E-02 
488	 2,12649467171422E-02 
489	 2,38679861241408E-02 
490	 0,023533881971565 
491	 2,10426148409837E-02 
492	 1,92335426965827E-02 
493	 1,87707514495856E-02 
494	 1,97307400916792E-02 
495	 2,04238962607019E-02 
496	 0,02034321949172 
497	 0,019142146973465 
498	 1,95963480906994E-02 
499	 2,11819099782361E-02 
500	 2,01119084447974E-02 
501	 1,95542564688405E-02 
502	 0,021076168815325 
503	 2,21000225005958E-02 
504	 0,022117982371642 
505	 2,08092832800994E-02 
506	 1,99404583619675E-02 
507	 2,01282483414537E-02 
508	 0,021205788207609 
509	 2,20704540284738E-02 
510	 2,17716916488765E-02 
511	 2,11150013146936E-02 
512	 0,020609447762292 
513	 2,11585243373518E-02 
514	 2,14215352437932E-02 
515	 0,020854447411185 
516	 1,99335726899792E-02 
517	 1,97278177797623E-02 
518	 2,16296962220536E-02 
519	 2,27083374363454E-02 
520	 2,22777491513094E-02 
521	 2,09489213233353E-02 
522	 1,99069490855862E-02 
523	 1,99820571984732E-02 
524	 2,01985891017215E-02 
525	 2,05400652861221E-02 
526	 2,16322122057504E-02 
527	 2,12750818094418E-02 
528	 1,93556747636725E-02 
529	 1,97154668232569E-02 
530	 2,07579931602284E-02 
531	 2,03572500412076E-02 
532	 0,019890743956661 
533	 1,97277659236905E-02 
534	 2,00094730196975E-02 
535	 2,05361278784043E-02 
536	 2,10893044132307E-02 
537	 0,021096811869776 
538	 2,06345597859495E-02 
539	 1,99157815952473E-02 
540	 1,97843102248393E-02 
541	 2,03324997526069E-02 
542	 2,05033046270495E-02 
543	 2,06258125124172E-02 
544	 2,10298552839359E-02 
545	 2,05531449240976E-02 
546	 1,96855217245537E-02 
547	 0,020521370476559 
548	 2,09037959473551E-02 
549	 2,00569854042116E-02 
550	 2,04838336008252E-02 
551	 2,12888583586526E-02 
552	 2,06501544332871E-02 
553	 2,02140780886417E-02 
554	 2,03690641627016E-02 
555	 2,06907110498556E-02 
556	 2,09543636899082E-02 
557	 2,09735489743117E-02 
558	 2,07252467566831E-02 
559	 2,04838587411293E-02 
560	 2,09770186540785E-02 
561	 2,12571535012243E-02 
562	 2,09844148005782E-02 
563	 2,05938237475325E-02 
564	 2,05459289957887E-02 
565	 2,13772639139093E-02 
566	 2,14937508391763E-02 
567	 2,07909713160596E-02 
568	 2,03424953400451E-02 
569	 0,020622617190811 
570	 2,18215442773449E-02 
571	 2,23455965544991E-02 
572	 2,21991760643265E-02 
573	 2,19474747614173E-02 
574	 2,19880832739332E-02 
575	 2,23948712145858E-02 
576	 2,24827609046018E-02 
577	 2,24753146714917E-02 
578	 2,26774000908644E-02 
579	 2,30326451142391E-02 
580	 2,34432783919382E-02 
581	 2,36715121760643E-02 
582	 2,38287693932486E-02 
583	 2,38920449040836E-02 
584	 2,31277057845674E-02 
585	 2,22778607527847E-02 
586	 2,28179733156787E-02 
587	 2,29580780364553E-02 
588	 2,25132515727899E-02 
589	 2,32620784669515E-02 
590	 0,024149082738222 
591	 2,41350807521056E-02 
592	 2,37136826575553E-02 
593	 2,31595049039059E-02 
594	 2,28445701723754E-02 
595	 2,29295768261801E-02 
596	 2,33978821747532E-02 
597	 0,023485289576166 
598	 2,34062456138748E-02 
599	 2,36192235042344E-02 
600	 2,37847735938029E-02 
601	 2,36921200364611E-02 
602	 2,29038305368975E-02 
603	 0,022148211686635 
604	 2,19951054455821E-02 
605	 2,19098235957701E-02 
606	 2,17918961869272E-02 
607	 2,16036540018014E-02 
608	 2,15924126280192E-02 
609	 2,17890629007285E-02 
610	 2,18501448002677E-02 
611	 2,15981546868775E-02 
612	 2,08656963642711E-02 
613	 2,09135310205701E-02 
614	 2,15182023112863E-02 
615	 2,07988284856242E-02 
616	 0,020073551701542 
617	 2,02175141775894E-02 
618	 2,10281273935057E-02 
619	 2,17801279202953E-02 
620	 2,10653074395378E-02 
621	 2,09826564401486E-02 
622	 2,18375817866369E-02 
623	 2,14268155320415E-02 
624	 2,08887203643225E-02 
625	 0,021469364951999 
626	 2,16294710560575E-02 
627	 2,13613873996502E-02 
628	 2,16338525813534E-02 
629	 0,021838249490388 
630	 2,17535742429047E-02 
631	 2,21564472467397E-02 
632	 2,26380402793059E-02 
633	 2,23726530520853E-02 
634	 2,26180952455973E-02 
635	 2,34638090616579E-02 
636	 2,37174369348275E-02 
637	 2,36370130306183E-02 
638	 2,35464198487735E-02 
639	 2,43962459922091E-02 
640	 2,56577269922723E-02 
641	 2,55573145730946E-02 
642	 2,53972045199095E-02 
643	 2,55938987876748E-02 
644	 2,53154310647856E-02 
645	 2,50123465421666E-02 
646	 2,53401978825793E-02 
647	 2,58256565603028E-02 
648	 0,026307862986956 
649	 2,67070441445286E-02 
650	 0,027083175148057 
651	 2,74227531800886E-02 
652	 2,72331965470986E-02 
653	 2,67906171916884E-02 
654	 2,67827184726626E-02 
655	 2,67818952343431E-02 
656	 2,66822754105355E-02 
657	 2,66603732271633E-02 
658	 2,65830905238064E-02 
659	 2,63100664193604E-02 
660	 2,59692304738202E-02 
661	 2,56807776493341E-02 
662	 2,57600302220063E-02 
663	 2,54843283921057E-02 
664	 2,45972973603334E-02 
665	 2,40188594985555E-02 
666	 2,39768579922996E-02 
667	 2,46695303227631E-02 
668	 2,47996256754445E-02 
669	 2,42101105845182E-02 
670	 2,39370859379411E-02 
671	 2,39474463850393E-02 
672	 2,41702149194043E-02 
673	 2,43685926978744E-02 
674	 2,43241650873646E-02 
675	 2,36463766634216E-02 
676	 2,28429654345523E-02 
677	 2,23089824921077E-02 
678	 2,29208523767504E-02 
679	 2,37086557504948E-02 
680	 2,34623748356428E-02 
681	 2,30882060876266E-02 
682	 2,29845502846556E-02 
683	 2,37657631708762E-02 
684	 2,42588053900649E-02 
685	 2,38351399705784E-02 
686	 2,35137785091041E-02 
687	 2,35050186463683E-02 
688	 2,38645550598518E-02 
689	 2,48324732706974E-02 
690	 2,61295187144143E-02 
691	 2,62632176755495E-02 
692	 2,65565152252721E-02 
693	 0,028192537699674 
694	 2,99558970797127E-02 
695	 3,14657993338415E-02 
696	 3,22400340396185E-02 
697	 3,36464486082241E-02 
698	 3,62845065726132E-02 
699	 0,039599042737834 
700	 4,34480468193777E-02 
701	 4,77157296636284E-02 
702	 5,19890096731228E-02 
703	 5,61841118721397E-02 
704	 6,04010255210948E-02 
705	 6,51116061118004E-02 
706	 7,05411527815974E-02 
707	 7,59361227246385E-02 
708	 8,11796912172723E-02 
709	 8,62453141354018E-02 
710	 9,17667511788876E-02 
711	 9,76166245293583E-02 
712	 0,102300844200903 
713	 0,106746440937656 
714	 0,111827996391771 
715	 0,116473944143931 
716	 0,120761465030821 
717	 0,125531387199918 
718	 0,129670384244239 
719	 0,132891917638841 
720	 0,136563658359257 
721	 0,140248136246055 
722	 0,143230047061253 
723	 0,146177265628152 
724	 0,149085331609689 
725	 0,151392005595428 
726	 0,153444771336659 
727	 0,155492155626762 
728	 0,157666621253593 
729	 0,159705411710864 
730	 0,161106734719929 
731	 0,162411807686654 
732	 0,163749197191488 
733	 0,164845963544074 
734	 0,165931239255256 
735	 0,167180671466242 
736	 0,168059768735807 
737	 0,168731430690847 
738	 0,169890103934352 
739	 0,17075648307876 
740	 0,171114953069425 
741	 0,171519395869762 
742	 0,172050015219496 
743	 0,172735830163775 
744	 0,17334137100084 
745	 0,173779436494662 
746	 0,173974666662412 
747	 0,174222696212257 
748	 0,174640677271676 
749	 0,174778161674067 
750	 0,174820141799346 
751	 0,175125609640056 
752	 0,175487891211522 
753	 0,175782440175371 
754	 0,175753263685997 
755	 0,175780934053855 
756	 0,176128026109072 
757	 0,176510166670961 
758	 0,17670097383212 
759	 0,176280646963461 
760	 0,176368967523671 
761	 0,17708992187675 
762	 0,177126325303434 
763	 0,176901675368365 
764	 0,176884778962903 
765	 0,177067469428107 
766	 0,177331248671924 
767	 0,177346051522266 
768	 0,177377674992496 
769	 0,177499740217168 
770	 0,17749997134645 
771	 0,177478362602041 
772	 0,177569972503816 
773	 0,177726217002709 
774	 0,177898553562017 
775	 0,178039224040052 
776	 0,177855460053774 
777	 0,177337965291764 
778	 0,177562290411502 
779	 0,178029259821296 
780	 0,177835396259506 
781	 0,17755924729304 
782	 0,17747384844691 
783	 0,178046339170414 
784	 0,178332742237841 
785	 0,177820735211027 
786	 0,177850748653377 
787	 0,178215766325154 
788	 0,178216147801118 
789	 0,178027847132676 
790	 0,177709839520472 
791	 0,177293717697872 
792	 0,177120426967047 
793	 0,177400765038926 
794	 0,177353587054612 
795	 0,177077961282969 
796	 0,1770895389781 
797	 0,177054581512421 
798	 0,176915314908054 
799	 0,176933027046529 
800	 0,17689242858603 
801	 0,176594762077531 
802	 0,176263289093864 
803	 0,176064665832585 
804	 0,176284006760916 
805	 0,176593245122203 
806	 0,176865068505059 
807	 0,177221295893355 
808	 0,177456216867699 
809	 0,177360973218409 
810	 0,177191304234687 
811	 0,177192277535849 
812	 0,177865263571917 
813	 0,178535565026915 
814	 0,178815751481076 
815	 0,178353372403769 
816	 0,178068598309962 
817	 0,179030309150257 
818	 0,179281838754923 
819	 0,178847338151057 
820	 0,179218084217135 
821	 0,179538205294088 
822	 0,179479075537981 
823	 0,179631963323725 
824	 0,179793403095029 
825	 0,179643447688644 
826	 0,179845938284686 
827	 0,180419969562949 
828	 0,180949621248477 
829	 0,181218644311509 
830	 0,181150532367986 
831	 0,181179959846622 
832	 0,181271420280988 
833	 0,181304737210831 
834	 0,181467163775938 
835	 0,181688169220479 
836	 0,181635320331018 
837	 0,181351824850872 
838	 0,180984169106403 
839	 0,181299757650816 
840	 0,181929514358839 
841	 0,182234127593502 
842	 0,1823190425727 
843	 0,18227998947582 
844	 0,182415430232961 
845	 0,182458886244082 
846	 0,182269734839864 
847	 0,181934806511907 
848	 0,181682464483312 
849	 0,181803727788229 
850	 0,181901857573146 
851	 0,181930767420991 
852	 0,182154001151387 
853	 0,18214561595665 
854	 0,181776555789722 
855	 0,181911063754928 
856	 0,182103087250573 
857	 0,181625613625436 
858	 0,181312362461527 
859	 0,181436766626776 
860	 0,18233666831473 
861	 0,182321085575197 
862	 0,180813194070869 
863	 0,180375836605979 
864	 0,180732560253144 
865	 0,181135576522448 
866	 0,181673013772526 
867	 0,182238161936098 
868	 0,182735110060789 
869	 0,182488787016986 
870	 0,181437285447746 
871	 0,181196080958608 
872	 0,181782571199741 
873	 0,182949933463438 
874	 0,183023605134626 
875	 0,182239752730972 
876	 0,182404185974018 
877	 0,182944482120889 
878	 0,183587829320749 
879	 0,184115809822246 
880	 0,184292021870175 
881	 0,183942382518375 
882	 0,183926368728979 
883	 0,184202403418083 
884	 0,184131163439402 
885	 0,184151129350016 
886	 0,184403558925393 
887	 0,184790487996438 
888	 0,185167061202284 
889	 0,185391490620232 
890	 0,185414172279454 
891	 0,185275533109283 
892	 0,18505080383874 
893	 0,185093270218895 
894	 0,185375809511243 
895	 0,185147147439714 
896	 0,185023640547292 
897	 0,185466883315931 
898	 0,185926983698073 
899	 0,186150763962832 
900	 0,185864205002148 
901	 0,185515809133154 
902	 0,185371854451409 
903	 0,185802586886934 
904	 0,186276953156055 
905	 0,186458300030509 
906	 0,186681041386142 
907	 0,186640770391142 
908	 0,185881390131796 
909	 0,185420444196913 
910	 0,185466050750882 
911	 0,185885552173692 
912	 0,185581599837843 
913	 0,184411751389245 
914	 0,184951099709451 
915	 0,186066060178184 
916	 0,186242278505952 
917	 0,185795180625338 
918	 0,185165183697352 
919	 0,185365748250701 
920	 0,185348247378899 
921	 0,184886850089714 
922	 0,184787163063135 
923	 0,184592035943494 
924	 0,183944080610669 
925	 0,183394383376917 
926	 0,183187647949962 
927	 0,183610878321459 
928	 0,183437358339434 
929	 0,182630919197646 
930	 0,182467948787664 
931	 0,182529637856978 
932	 0,182471462709737 
933	 0,181740539856452 
934	 0,180942972183643 
935	 0,180899005218739 
936	 0,180128221366266 
937	 0,178927354154046 
938	 0,179039573645038 
939	 0,179417160746857 
940	 0,179399316676332 
941	 0,177867921706242 
942	 0,176346583511485 
943	 0,176166821286859 
944	 0,175960872104122 
945	 0,175753667099765 
946	 0,176063747843166 
947	 0,175399469386012 
948	 0,1736526260372 
949	 0,172122464994691 
950	 0,170844059255605 
951	 0,169737793878772 
952	 0,167671150048285 
953	 0,166483322246835 
954	 0,168303612000381 
955	 0,168739327113179 
956	 0,167049132332641 
957	 0,163637680760021 
958	 0,16227016557672 
959	 0,163731029585292 
960	 0,164480378936631 
961	 0,164205779207642 
962	 0,162783916944257 
963	 0,160513904319769 
964	 0,158769067020435 
965	 0,159395485997521 
966	 0,161377630855564 
967	 0,163136080369676 
968	 0,160875451211009 
969	 0,158462834089525 
970	 0,157763642107048 
971	 0,158568590332065 
972	 0,159613498437864 
973	 0,159746468424403 
974	 0,15960451162312 
975	 0,159410705761721 
976	 0,15935978475458 
977	 0,160231196394296 
978	 0,161235932415883 
979	 0,158750671553993 
980	 0,157489032000143 
981	 0,159280793594277 
982	 0,159785080979277 
983	 0,159052637658687 
984	 0,157724514405823 
985	 0,158706417323568 
986	 0,160423480820014 
987	 0,158755715598839 
988	 0,157566441214915 
989	 0,157772310461098 
990	 0,158365999713937 
991	 0,158770450635134 
992	 0,158873379453598 
993	 0,160410512819863 
994	 0,161153731177473 
995	 0,159090259319512 
996	 0,159946449008678 
997	 0,163081512973287 
998	 0,165271966911107 
999	 0,165329141196662 
1000	 0,163479055077101 
1001	 0,161942823779103 
1002	 0,162267387771187 
1003	 0,164758468599233 
1004	 0,166072364949777 
1005	 0,166396582661871 
1006	 0,166275067883976 
1007	 0,166161352388317 
1008	 0,167188347908379 
1009	 0,171150068882926 
1010	 0,169647243260815 
1011	 0,164266003748931 
1012	 0,168137614558409 
1013	 0,171012974379999 
1014	 0,16942614189209 
1015	 0,170454260920858 
1016	 0,171124654863571 
1017	 0,169236157865704 
1018	 0,170739186442942 
1019	 0,173284897256062 
1020	 0,172195930170438 
1021	 0,171127931035981 
1022	 0,170484230918486 
1023	 0,168868054987877 
1024	 0,167777057500751 
1025	 0,168373476491519 
1026	 0,173443903826684 
1027	 0,175470665285933 
1028	 0,170834555658978 
1029	 0,170727991876488 
1030	 0,17235025739843 
1031	 0,171317440934831 
1032	 0,173836381471134 
1033	 0,178501867612824 
1034	 0,18047049385709 
1035	 0,17971838369107 
1036	 0,177451745193317 
1037	 0,178108049754046 
1038	 0,179393512707863 
1039	 0,179811968853065 
1040	 0,177233376792406 
1041	 0,175219312181547 
1042	 0,176945610768602 
1043	 0,183117539544205 
1044	 0,186302888602559 
1045	 0,177592444658013 
1046	 0,18161511152545 
1047	 0,192989384233881 
1048	 0,185523663357836 
1049	 0,187835823517164 
1050	 0,200624847242469 
1051	 0,193354881336414 
1052	 0,184220594827015 
1053	 0,181623828333701 
1054	 0,172952480586318 
1055	 0,172407426645282 
1056	 0,189207573684958 
1057	 0,188979283761425 
1058	 0,175591870159436 
1059	 0,163484300618949 
1060	 0,174697436840065 
1061	 0,198318870377649 
1062	 0,198066503997849 
1063	 0,186679542160108 
1064	 0,175484778580868 
1065	 0,191935484221434 
1066	 0,198080101343779 
1067	 0,182805747313541 
1068	 0,17963975141075 
1069	 0,185243673348701 
1070	 0,192624183022803 
1071	 0,184167356475368 
1072	 0,168543905226418 
1073	 0,158826862555905 
1074	 0,171576391702141 
1075	 0,193337460810048 
