Wavelength	MORB100300.asd
325	 0,359568131533016 
326	 0,172031455230882 
327	 5,19217649040462E-02 
328	 0,142173166076623 
329	 0,105824318380482 
330	 5,17702833075718E-02 
331	 7,00409988428168E-02 
332	 0,118463007748117 
333	 0,168675571873717 
334	 0,197423808352081 
335	 0,152290738589527 
336	 3,85844587579764E-02 
337	 1,64077321437728E-05 
338	-8,5083343721452E-03 
339	-3,23252605888451E-02 
340	 3,64185433772166E-02 
341	 0,151902952742785 
342	 0,206732613494155 
343	 0,190383960137161 
344	 0,115591867036719 
345	 0,102908965619078 
346	 0,119704132366126 
347	 0,123839034793686 
348	 5,99459635026077E-02 
349	-1,50255700392183E-02 
350	 7,72555428137944E-02 
351	 0,135354496332028 
352	 0,115712468193384 
353	 0,144126243522544 
354	 0,163548564514355 
355	 0,106770273081574 
356	 7,44811268244485E-02 
357	 0,078718385998467 
358	 8,86843179374956E-02 
359	 7,67680980772597E-02 
360	 4,02832825992421E-02 
361	 7,12919252948706E-02 
362	 0,129251746565467 
363	 0,152601008913957 
364	 0,137435228991664 
365	 9,45437248655895E-02 
366	 9,38065113237401E-02 
367	 0,111124336383 
368	 0,124781061347127 
369	 9,98989232652037E-02 
370	 6,61582425111105E-02 
371	 0,086555934580929 
372	 0,106323787439167 
373	 0,108049892181505 
374	 8,75144700464246E-02 
375	 0,073903451062205 
376	 8,67106439679112E-02 
377	 8,84727033710414E-02 
378	 8,66284179512886E-02 
379	 0,113048868998459 
380	 0,117133152048781 
381	 9,31676218285301E-02 
382	 9,68046898497614E-02 
383	 0,100278883856652 
384	 7,70559153106309E-02 
385	 9,54265244018767E-02 
386	 0,135706571304728 
387	 0,125383232257566 
388	 0,105665048238844 
389	 9,37278191570606E-02 
390	 8,60761666296468E-02 
391	 8,52880587599303E-02 
392	 9,41881869605691E-02 
393	 8,88066771101498E-02 
394	 7,60712879461807E-02 
395	 9,29906611595964E-02 
396	 0,107505488062469 
397	 0,104872306333998 
398	 0,106406069722182 
399	 0,109268820695013 
400	 0,106337096125145 
401	 0,100695904745493 
402	 9,48304838805429E-02 
403	 9,19598690461928E-02 
404	 0,088191335568326 
405	 8,21599647020506E-02 
406	 8,58264792854974E-02 
407	 9,46455000588209E-02 
408	 9,60334619740101E-02 
409	 9,75593939751223E-02 
410	 0,100804014085057 
411	 0,10442426548521 
412	 0,102587009343281 
413	 9,08221871184477E-02 
414	 8,40711492282033E-02 
415	 0,084637238450142 
416	 9,08680347403296E-02 
417	 9,59617703541601E-02 
418	 9,64468009473795E-02 
419	 9,24961126233318E-02 
420	 8,86252168512133E-02 
421	 9,04335538636972E-02 
422	 9,11112523351404E-02 
423	 8,96452517213698E-02 
424	 8,77624150494825E-02 
425	 8,78982559712238E-02 
426	 9,07947918165487E-02 
427	 8,93628364566976E-02 
428	 8,73787599525791E-02 
429	 9,35615199655078E-02 
430	 9,58002016678573E-02 
431	 9,25528997064231E-02 
432	 9,37167610783987E-02 
433	 9,59477902493225E-02 
434	 9,57878241884651E-02 
435	 9,04528497949784E-02 
436	 8,45399099147512E-02 
437	 9,13950245310147E-02 
438	 9,56455734308493E-02 
439	 9,27137705823147E-02 
440	 9,56330030468906E-02 
441	 9,89951373799701E-02 
442	 9,46709503750666E-02 
443	 9,13138930035976E-02 
444	 9,09932857530843E-02 
445	 9,32190139480485E-02 
446	 9,56197581636644E-02 
447	 9,65942246732074E-02 
448	 9,67220987160913E-02 
449	 9,66233178975283E-02 
450	 9,73828480050712E-02 
451	 0,096945375408478 
452	 9,55209014171746E-02 
453	 9,72823063145229E-02 
454	 9,83105867098897E-02 
455	 9,51747919075724E-02 
456	 9,42446909876778E-02 
457	 9,60303167265142E-02 
458	 9,87182847376114E-02 
459	 0,100093691587809 
460	 0,099120823678792 
461	 9,66741658153602E-02 
462	 9,50822904556748E-02 
463	 9,72431482349445E-02 
464	 9,57279483067471E-02 
465	 9,11350308251891E-02 
466	 0,092090199702808 
467	 9,45845920200496E-02 
468	 9,58362508959518E-02 
469	 9,65495886508372E-02 
470	 0,097188449895955 
471	 9,87297159657678E-02 
472	 9,91363184796652E-02 
473	 9,80221085104798E-02 
474	 9,71743716659657E-02 
475	 9,56919507829078E-02 
476	 9,27855768516067E-02 
477	 9,30591808496928E-02 
478	 9,57011852449269E-02 
479	 9,59857139723342E-02 
480	 9,57410568205955E-02 
481	 9,57455253333674E-02 
482	 0,095803939561658 
483	 0,095511910871582 
484	 9,42417319264512E-02 
485	 9,40247003995137E-02 
486	 9,49283682542498E-02 
487	 9,48890114190175E-02 
488	 9,50503643913747E-02 
489	 9,60761463569955E-02 
490	 9,51779426910504E-02 
491	 9,32398923209332E-02 
492	 9,32819641417738E-02 
493	 9,34454605595984E-02 
494	 9,32266038125703E-02 
495	 9,33638409674646E-02 
496	 9,35502447920544E-02 
497	 9,34047711784301E-02 
498	 9,37740815344397E-02 
499	 9,47734957425312E-02 
500	 9,62938380751797E-02 
501	 9,73495021181632E-02 
502	 9,73022141059725E-02 
503	 9,60961694941196E-02 
504	 0,094710404520315 
505	 9,47523506146171E-02 
506	 9,46067799927297E-02 
507	 9,40542696312016E-02 
508	 0,09423542742873 
509	 9,48221500983756E-02 
510	 9,54730962455479E-02 
511	 9,64916251927587E-02 
512	 9,72213602640413E-02 
513	 0,095847133699901 
514	 9,46953936722563E-02 
515	 9,47541291977783E-02 
516	 9,50166401303093E-02 
517	 9,52045474312258E-02 
518	 9,50664989561408E-02 
519	 9,55050151357701E-02 
520	 9,62906964188288E-02 
521	 9,56905445244566E-02 
522	 9,52547398616004E-02 
523	 9,60085721747715E-02 
524	 9,61265217862189E-02 
525	 9,56884086533674E-02 
526	 9,55148443025546E-02 
527	 9,53645234643785E-02 
528	 9,52593976626227E-02 
529	 9,56652395976215E-02 
530	 9,58502227678783E-02 
531	 0,094981017313392 
532	 9,49646534246047E-02 
533	 9,57314168653304E-02 
534	 9,56083058427835E-02 
535	 9,54513495940328E-02 
536	 9,56900508943456E-02 
537	 9,54855941994292E-02 
538	 9,51674220332854E-02 
539	 0,095557206887798 
540	 9,56870770530584E-02 
541	 9,54636922185442E-02 
542	 9,59673087498319E-02 
543	 9,63983076572791E-02 
544	 9,59791077612612E-02 
545	 9,57428203370479E-02 
546	 9,59186370481015E-02 
547	 0,096600950463674 
548	 9,68769771210367E-02 
549	 9,63754784144709E-02 
550	 9,60095065016655E-02 
551	 9,59327924414902E-02 
552	 0,096199457623018 
553	 9,64041395694444E-02 
554	 9,65048103393144E-02 
555	 9,69853517375208E-02 
556	 9,71522898364045E-02 
557	 9,65212022161208E-02 
558	 0,096574295124835 
559	 9,72510861581126E-02 
560	 9,77918664231245E-02 
561	 9,79203131772419E-02 
562	 9,75040790261139E-02 
563	 9,67381618388988E-02 
564	 9,62048913287973E-02 
565	 9,66035839447278E-02 
566	 9,70627550242479E-02 
567	 9,72937494993816E-02 
568	 9,70639788664013E-02 
569	 9,73923608230927E-02 
570	 9,88306674402135E-02 
571	 0,099349036603131 
572	 9,91702846696961E-02 
573	 9,94496015240507E-02 
574	 0,100064728624492 
575	 0,100909630970735 
576	 0,101443323130363 
577	 0,101866550634647 
578	 0,102444287183555 
579	 0,102833900781876 
580	 0,103132123705598 
581	 0,103798760431828 
582	 0,104907234933812 
583	 0,106174370296848 
584	 0,105035003082769 
585	 0,103228637908897 
586	 0,104420690466712 
587	 0,105050134695441 
588	 0,104564544895469 
589	 0,105617905202742 
590	 0,10666492085225 
591	 0,106232721959379 
592	 0,105829798993399 
593	 0,105763353747748 
594	 0,106068807046625 
595	 0,106033106309643 
596	 0,105430798558521 
597	 0,105311416953987 
598	 0,105404518570595 
599	 0,105147944746332 
600	 0,104577169649888 
601	 0,103944774525995 
602	 0,104144055865751 
603	 0,104602339773372 
604	 0,104785242020182 
605	 0,104174465177489 
606	 0,103263640316363 
607	 0,10350731795501 
608	 0,103622116278253 
609	 0,103226066580259 
610	 0,103136790456977 
611	 0,102970175179717 
612	 0,102186774195326 
613	 0,101581926478767 
614	 0,101173766975689 
615	 0,100166311228926 
616	 9,97304210654595E-02 
617	 0,100493381966883 
618	 0,100934552402102 
619	 0,100857968554986 
620	 0,100316083721514 
621	 0,100131286768037 
622	 0,100484070656115 
623	 0,100629910706926 
624	 0,100698150145484 
625	 0,100856569978344 
626	 0,100717526245614 
627	 0,1005361399343 
628	 0,101259629993237 
629	 0,10209275226096 
630	 0,102574357948554 
631	 0,10267881883243 
632	 0,102605239721319 
633	 0,102652169751638 
634	 0,103078098033759 
635	 0,10391497121539 
636	 0,104961735430492 
637	 0,105674717073635 
638	 0,10568511060907 
639	 0,106440768946224 
640	 0,107576757814631 
641	 0,107466546896574 
642	 0,107328191307378 
643	 0,107635952893725 
644	 0,10809249170514 
645	 0,108492806719725 
646	 0,108605256441519 
647	 0,108839800783984 
648	 0,109202207398805 
649	 0,109340662266508 
650	 0,109421000680204 
651	 0,109523678712066 
652	 0,109369726498043 
653	 0,108931094472663 
654	 0,108181916293994 
655	 0,107727687259271 
656	 0,107648536705983 
657	 0,10721736202854 
658	 0,106429464681402 
659	 0,105347840283514 
660	 0,104462931309498 
661	 0,103824232506109 
662	 0,103186915394212 
663	 0,102554670018802 
664	 0,101899774818488 
665	 0,101032146790567 
666	 0,100292943513708 
667	 0,100253491235089 
668	 9,99040139264835E-02 
669	 0,099189487806645 
670	 9,91064871325085E-02 
671	 9,92076088959067E-02 
672	 9,91175661965433E-02 
673	 9,90947004433562E-02 
674	 9,90451118506673E-02 
675	 9,86639499695715E-02 
676	 9,81899438130306E-02 
677	 0,097837134458681 
678	 9,82372571807943E-02 
679	 9,86243187060728E-02 
680	 9,80552746030141E-02 
681	 9,75759139366171E-02 
682	 0,097574345155991 
683	 9,84410825910881E-02 
684	 9,91788394823334E-02 
685	 9,92708247898522E-02 
686	 0,099804454238603 
687	 0,100633646640373 
688	 0,101197623999854 
689	 0,102268442392425 
690	 0,10395525619371 
691	 0,105551024479299 
692	 0,1075651416021 
693	 0,110436768572107 
694	 0,113425062843121 
695	 0,11656666005125 
696	 0,120175666948562 
697	 0,124790157188699 
698	 0,130615339205888 
699	 0,137165014289668 
700	 0,144148442791916 
701	 0,15126553843031 
702	 0,158920337612242 
703	 0,167260799709896 
704	 0,176436999662729 
705	 0,185949428113656 
706	 0,19539277879838 
707	 0,204545535946533 
708	 0,213721426775993 
709	 0,223581034807978 
710	 0,233342069213596 
711	 0,242703104893172 
712	 0,251642862254916 
713	 0,260365597717368 
714	 0,269036176419583 
715	 0,277084802502353 
716	 0,284671135199185 
717	 0,292560221711463 
718	 0,299961421345863 
719	 0,306561359993748 
720	 0,312732059212643 
721	 0,318541080341971 
722	 0,324030413706183 
723	 0,329299125829343 
724	 0,334174898228773 
725	 0,337986223653467 
726	 0,341423308217089 
727	 0,344942766118427 
728	 0,348424321177767 
729	 0,351633376525563 
730	 0,354164177926014 
731	 0,356658567862542 
732	 0,359192024556948 
733	 0,361123280573359 
734	 0,36289268177579 
735	 0,364872978943081 
736	 0,366484532086046 
737	 0,367734593085677 
738	 0,368851711925385 
739	 0,370074119768762 
740	 0,371408301710024 
741	 0,372220250984807 
742	 0,372883943001055 
743	 0,373878952232954 
744	 0,374624102681607 
745	 0,375068351952782 
746	 0,375444506048825 
747	 0,375889798269348 
748	 0,376454191214301 
749	 0,3768537651659 
750	 0,377128565440096 
751	 0,377399354152708 
752	 0,377574184498198 
753	 0,377622625869817 
754	 0,377462714089016 
755	 0,377480519057532 
756	 0,377928128496741 
757	 0,378362610831242 
758	 0,378675113298077 
759	 0,378823192458378 
760	 0,378836919125136 
761	 0,378761259407794 
762	 0,378707096218556 
763	 0,378716320322621 
764	 0,378816072985846 
765	 0,378930832961916 
766	 0,378998480804428 
767	 0,378858425127614 
768	 0,378978864873122 
769	 0,379441804360495 
770	 0,379570093920445 
771	 0,379408489949788 
772	 0,379095033216428 
773	 0,379131065228765 
774	 0,379445487944455 
775	 0,379429877673176 
776	 0,379334448581347 
777	 0,379270077702209 
778	 0,37908392220645 
779	 0,378955623516981 
780	 0,379164921136003 
781	 0,379168150859084 
782	 0,378924888903589 
783	 0,378902575051225 
784	 0,378693442086131 
785	 0,378134052484533 
786	 0,378215083807513 
787	 0,378618470489459 
788	 0,378561542684174 
789	 0,378082189948304 
790	 0,377330801529774 
791	 0,376912334231622 
792	 0,376659317342279 
793	 0,376427380835672 
794	 0,376316238277552 
795	 0,376220100838131 
796	 0,37590267475534 
797	 0,375561975563629 
798	 0,375263682303475 
799	 0,374963967621374 
800	 0,374706465306795 
801	 0,374520310528829 
802	 0,374145005151219 
803	 0,37383093012703 
804	 0,374334409885057 
805	 0,374921947176804 
806	 0,375249946501808 
807	 0,375148249921996 
808	 0,375045969337874 
809	 0,375404503978968 
810	 0,375896456585828 
811	 0,376276793407254 
812	 0,376041998255761 
813	 0,376006996359631 
814	 0,376437966980551 
815	 0,376585989553315 
816	 0,37664760766072 
817	 0,376925938473855 
818	 0,377116961464139 
819	 0,377343097291156 
820	 0,378260362998021 
821	 0,378695123641258 
822	 0,378251362230287 
823	 0,37835278748413 
824	 0,378754541984174 
825	 0,378956357829271 
826	 0,379232182998697 
827	 0,37961529177395 
828	 0,380120298541785 
829	 0,380228234379102 
830	 0,3798113284144 
831	 0,379970641844406 
832	 0,380457622683941 
833	 0,380764786179103 
834	 0,380852800545305 
835	 0,380806685605789 
836	 0,381026202989248 
837	 0,381063722907038 
838	 0,380751054553379 
839	 0,380697490495808 
840	 0,380828606772826 
841	 0,380936917230733 
842	 0,381093205338072 
843	 0,381162644099862 
844	 0,38068516330802 
845	 0,380202143724089 
846	 0,380065443463651 
847	 0,380416547116189 
848	 0,380680149117678 
849	 0,380048235433717 
850	 0,379844048114825 
851	 0,380115951860486 
852	 0,379877481374996 
853	 0,379468990109447 
854	 0,379096129309499 
855	 0,378821656449237 
856	 0,378722667371078 
857	 0,3788767101587 
858	 0,378632439402323 
859	 0,378065849893567 
860	 0,377994955184814 
861	 0,377876523539526 
862	 0,377505952616369 
863	 0,377517817198492 
864	 0,377502581884525 
865	 0,376871279684801 
866	 0,37683739795828 
867	 0,377452879952335 
868	 0,378016993603064 
869	 0,378274131999001 
870	 0,378117892546765 
871	 0,377900859704659 
872	 0,377886462462977 
873	 0,378317853749282 
874	 0,378588222263712 
875	 0,37869366922537 
876	 0,379057125536191 
877	 0,379389972558357 
878	 0,379603249845943 
879	 0,379862807102231 
880	 0,380329473506381 
881	 0,381128254880843 
882	 0,381724290383626 
883	 0,382004090571724 
884	 0,382002023281923 
885	 0,381848843204531 
886	 0,38179620346761 
887	 0,382733179225807 
888	 0,383530497611821 
889	 0,383143540160043 
890	 0,38269719926398 
891	 0,382518316307494 
892	 0,382808655108067 
893	 0,383379786157051 
894	 0,383983130611456 
895	 0,383941385078007 
896	 0,383771754588436 
897	 0,38389852112297 
898	 0,384060353957633 
899	 0,384273581496819 
900	 0,384622637226197 
901	 0,385040255312142 
902	 0,385399685317636 
903	 0,385390713331263 
904	 0,385161225733694 
905	 0,384874953514704 
906	 0,384946491303597 
907	 0,385096749209409 
908	 0,384860096804477 
909	 0,384407328135665 
910	 0,383972216204638 
911	 0,384149894289803 
912	 0,384276143014313 
913	 0,384053016235972 
914	 0,383755293806118 
915	 0,383675288633833 
916	 0,38404444900986 
917	 0,38357989603006 
918	 0,38259711131821 
919	 0,382499810818937 
920	 0,382898491830947 
921	 0,38333154249622 
922	 0,382256426883212 
923	 0,38111318364125 
924	 0,381089861632719 
925	 0,380909572457058 
926	 0,380472248153278 
927	 0,379944666776544 
928	 0,379898099749577 
929	 0,380046138538848 
930	 0,378649866001852 
931	 0,377616568821159 
932	 0,377834213370052 
933	 0,376956075582785 
934	 0,375793418323082 
935	 0,375685836340422 
936	 0,375797081984916 
937	 0,375735253431223 
938	 0,375042349423999 
939	 0,373755291132731 
940	 0,37221309922183 
941	 0,372053596400682 
942	 0,371545293884253 
943	 0,369308521293149 
944	 0,368452350756397 
945	 0,36823990659963 
946	 0,366329068738885 
947	 0,365153300619953 
948	 0,36489196785621 
949	 0,36362978419929 
950	 0,362267700688163 
951	 0,36126597471125 
952	 0,360075967710272 
953	 0,35857913562838 
954	 0,356756201746191 
955	 0,3558598174187 
956	 0,355493928600412 
957	 0,35392386132854 
958	 0,352358772168707 
959	 0,351292322022616 
960	 0,350999346603505 
961	 0,3503081032577 
962	 0,348520793095641 
963	 0,347836059570339 
964	 0,347485508282413 
965	 0,345836697839781 
966	 0,34586835526994 
967	 0,347319599528474 
968	 0,347323289996124 
969	 0,345738632339819 
970	 0,343155045584827 
971	 0,343137098825433 
972	 0,343948169499248 
973	 0,343820446842228 
974	 0,343827452401899 
975	 0,344276039312794 
976	 0,345466584447291 
977	 0,346040820594824 
978	 0,345358729838254 
979	 0,342396818704224 
980	 0,341562529936761 
981	 0,344236194032053 
982	 0,344123535730312 
983	 0,343050771178736 
984	 0,343382107772099 
985	 0,344438564110756 
986	 0,345303936151389 
987	 0,344416800573366 
988	 0,343883311433068 
989	 0,34412493536951 
990	 0,344288315234851 
991	 0,343883235043062 
992	 0,343105618271699 
993	 0,344901931452168 
994	 0,346470490161384 
995	 0,345004528489352 
996	 0,34543305290434 
997	 0,347501741923101 
998	 0,349007931446872 
999	 0,34937485943397 
1000	 0,348449408690309 
1001	 0,346386318790674 
1002	 0,345855828432755 
1003	 0,348063298866281 
1004	 0,351098622280178 
1005	 0,353693397902029 
1006	 0,354752437133054 
1007	 0,354265090443558 
1008	 0,353818066841456 
1009	 0,356149424934894 
1010	 0,356610766714823 
1011	 0,355180242074371 
1012	 0,356104333179163 
1013	 0,356659534689883 
1014	 0,355994672433556 
1015	 0,355845648246838 
1016	 0,356953165444425 
1017	 0,359548218787127 
1018	 0,360987767760183 
1019	 0,36055182318799 
1020	 0,358046753148143 
1021	 0,358843164897355 
1022	 0,361892038947541 
1023	 0,360205116714279 
1024	 0,35995285319897 
1025	 0,36243798167975 
1026	 0,363445653798117 
1027	 0,36388705548935 
1028	 0,364225019226171 
1029	 0,362649827189377 
1030	 0,362102834350023 
1031	 0,365626767439944 
1032	 0,365006394509087 
1033	 0,362419063873107 
1034	 0,36542780676583 
1035	 0,366253028538638 
1036	 0,36434116048021 
1037	 0,365337391294794 
1038	 0,369006560143591 
1039	 0,373807014902905 
1040	 0,372237796273438 
1041	 0,369690395081973 
1042	 0,370933631933428 
1043	 0,374302055468406 
1044	 0,374752460155651 
1045	 0,366609835191266 
1046	 0,36657618239957 
1047	 0,372573254600722 
1048	 0,37058294579175 
1049	 0,371669968791422 
1050	 0,375505877790492 
1051	 0,368117307224373 
1052	 0,364254948259885 
1053	 0,369728997414532 
1054	 0,369240259180169 
1055	 0,372866545552518 
1056	 0,386666868318228 
1057	 0,378912962979266 
1058	 0,365960233945765 
1059	 0,37585386621245 
1060	 0,38040023602619 
1061	 0,378095277054976 
1062	 0,378984115193136 
1063	 0,372856126530112 
1064	 0,363234677172744 
1065	 0,372932846112946 
1066	 0,380333832367992 
1067	 0,377695801398082 
1068	 0,376709003451358 
1069	 0,37599866427963 
1070	 0,373451787767618 
1071	 0,363094513682351 
1072	 0,356036498464031 
1073	 0,364563608463447 
1074	 0,368141382814108 
1075	 0,368736893153704 
