Wavelength	MORB100416.asd
325	 0,112993470498288 
326	-3,58854764463485E-02 
327	-0,242645997231368 
328	-0,33407076352311 
329	-0,102430835871254 
330	 0,057299501021816 
331	-9,87035359538383E-02 
332	-0,140125900481112 
333	-5,89772699823667E-02 
334	-1,63961438413948E-02 
335	-2,25605758101547E-02 
336	-7,01926761238727E-02 
337	-8,13864533661488E-02 
338	-6,80945833558151E-02 
339	-4,97392070916081E-02 
340	-1,38653050664494E-02 
341	 3,89102735008554E-02 
342	 0,120250036159656 
343	 9,44422561554689E-02 
344	-3,86895909181418E-02 
345	 1,10725048829545E-02 
346	 7,78027956638683E-02 
347	 1,18745668424527E-02 
348	-3,31687275149624E-02 
349	-2,54287297974797E-02 
350	 2,23697666957935E-02 
351	 2,53871748561179E-02 
352	-2,32741812894485E-02 
353	 1,85942017844284E-02 
354	 7,09646903530965E-02 
355	 4,16562825944489E-02 
356	 2,73851364105599E-02 
357	 3,75917663603485E-02 
358	 4,39327189817272E-02 
359	 1,40825925525933E-02 
360	-5,22221531962477E-02 
361	-2,27423276209237E-02 
362	 4,56509971822246E-02 
363	 6,38316864053307E-02 
364	 0,035173741860041 
365	-2,51161047609438E-02 
366	-2,33474377838555E-02 
367	 2,8395063011779E-03 
368	 2,34301488153525E-02 
369	 1,45328439372214E-02 
370	-8,98556560184058E-03 
371	-1,44419294162655E-02 
372	-3,18919317460616E-03 
373	 0,017078602040005 
374	 1,39097810562647E-02 
375	 1,35985248750687E-02 
376	 3,36543805325066E-02 
377	 2,59025563617398E-02 
378	 7,15427958865732E-03 
379	 2,82995528345709E-02 
380	 3,53124475696965E-02 
381	 1,88153285614938E-02 
382	 0,020630015869243 
383	 0,021591841697316 
384	 3,48889613253026E-03 
385	 1,75310085360314E-02 
386	 4,72622059689807E-02 
387	 0,033487149420329 
388	 1,59983077568855E-02 
389	 9,45248855420372E-03 
390	-1,87444470246148E-03 
391	-9,9927486742604E-03 
392	-4,10055930885705E-03 
393	 0,003443800825458 
394	 8,81564054039198E-03 
395	 8,95083816870521E-03 
396	 1,48233134824597E-02 
397	 3,01866669349747E-02 
398	 0,040686070695995 
399	 4,25859374145094E-02 
400	 3,35644541983727E-02 
401	 2,01951244633153E-02 
402	 9,98689195867068E-03 
403	 1,34585857284831E-02 
404	 2,24320642807974E-02 
405	 2,94394289125683E-02 
406	 2,29951842224023E-02 
407	 1,15753932724367E-02 
408	 0,016002257488223 
409	 1,83607884250459E-02 
410	 1,57816255923946E-02 
411	 2,09698273407957E-02 
412	 2,21979452905136E-02 
413	 9,30846330544193E-03 
414	 7,42338106592029E-03 
415	 0,015831381709047 
416	 2,16587418220759E-02 
417	 2,38610155866196E-02 
418	 2,13347948755135E-02 
419	 1,22843325660465E-02 
420	 5,86285203234937E-03 
421	 1,35504869071461E-02 
422	 1,80308338087913E-02 
423	 1,63723554999788E-02 
424	 1,23261065874804E-02 
425	 0,012051345653328 
426	 1,82785335480828E-02 
427	 0,020796760539295 
428	 2,09963736768695E-02 
429	 2,42702036614548E-02 
430	 2,22643665003382E-02 
431	 1,52781869343058E-02 
432	 1,50697858241452E-02 
433	 1,80790756684049E-02 
434	 2,03665178295159E-02 
435	 1,73142405592685E-02 
436	 1,30331116847182E-02 
437	 2,14044226988318E-02 
438	 2,40799796918094E-02 
439	 1,62699007385028E-02 
440	 1,64739695710393E-02 
441	 0,020669024903421 
442	 2,16328286538207E-02 
443	 2,04099846051252E-02 
444	 1,82227999248344E-02 
445	 1,88859973946979E-02 
446	 1,92368943740118E-02 
447	 1,76538660510955E-02 
448	 0,018233563970625 
449	 1,97074322154572E-02 
450	 1,88162405854812E-02 
451	 1,73808464548104E-02 
452	 1,67903045891243E-02 
453	 2,10920676357709E-02 
454	 2,32353131358507E-02 
455	 1,72264038925117E-02 
456	 1,51638240777344E-02 
457	 1,75828667082898E-02 
458	 1,94562768438477E-02 
459	 2,01431111734123E-02 
460	 1,94903163781527E-02 
461	 0,020045339240826 
462	 2,07498461328045E-02 
463	 1,98801223693968E-02 
464	 1,88590080644495E-02 
465	 1,80173363417937E-02 
466	 1,70174963202917E-02 
467	 1,66332238431911E-02 
468	 0,017269750184294 
469	 1,76200098517333E-02 
470	 0,017922723871363 
471	 1,92691951569101E-02 
472	 1,89334596161072E-02 
473	 1,70544881281928E-02 
474	 1,88367840426579E-02 
475	 2,07326493177605E-02 
476	 1,90759991884924E-02 
477	 1,70653963344203E-02 
478	 1,57231283019565E-02 
479	 1,54177959607894E-02 
480	 1,72904850256229E-02 
481	 0,021072596969549 
482	 2,17776073094265E-02 
483	 2,09572648656423E-02 
484	 2,17674506644833E-02 
485	 2,05466774742283E-02 
486	 1,76955615144845E-02 
487	 1,77995057010389E-02 
488	 2,00358137518136E-02 
489	 2,31716958496302E-02 
490	 2,18598654228038E-02 
491	 1,77532196007248E-02 
492	 1,63612027507693E-02 
493	 1,70211697863564E-02 
494	 1,90004055925861E-02 
495	 1,88765327862895E-02 
496	 1,78626639538427E-02 
497	 1,76400521132275E-02 
498	 1,74421665353668E-02 
499	 1,76152282669967E-02 
500	 1,98546928925715E-02 
501	 0,020967111659733 
502	 1,95303594295306E-02 
503	 0,019941226587666 
504	 2,12585503168586E-02 
505	 2,08978822421141E-02 
506	 2,02783008507206E-02 
507	 1,97354843734029E-02 
508	 1,87531006804837E-02 
509	 0,01830266376191 
510	 1,91717550383774E-02 
511	 1,94406156446622E-02 
512	 1,92422806805026E-02 
513	 2,01062220829811E-02 
514	 2,02284341126713E-02 
515	 1,91665316828734E-02 
516	 1,95106270784792E-02 
517	 2,01070231352678E-02 
518	 0,018974837415986 
519	 1,90858846344998E-02 
520	 2,05259513669981E-02 
521	 2,08345338250547E-02 
522	 2,05496669138565E-02 
523	 2,01427944226823E-02 
524	 2,00701106453126E-02 
525	 2,00917893763623E-02 
526	 1,93606735715701E-02 
527	 1,90969148011313E-02 
528	 0,019571341721359 
529	 0,019735379508043 
530	 1,98606870067651E-02 
531	 2,03388621428549E-02 
532	 2,02428204636763E-02 
533	 1,96317063629943E-02 
534	 1,92796165392841E-02 
535	 1,93410915165766E-02 
536	 1,98218766288469E-02 
537	 1,99023687386865E-02 
538	 1,96508953288291E-02 
539	 1,93986746648818E-02 
540	 1,92270501169737E-02 
541	 1,93266588493353E-02 
542	 2,04928022470307E-02 
543	 0,020971541530046 
544	 1,91903753815407E-02 
545	 1,86188434224346E-02 
546	 1,94701579882845E-02 
547	 0,020363652977707 
548	 2,03838365588279E-02 
549	 1,93042926026518E-02 
550	 1,94265278903076E-02 
551	 2,00373185632913E-02 
552	 1,95799009331715E-02 
553	 1,96347953683034E-02 
554	 2,03669303748013E-02 
555	 2,07142330924573E-02 
556	 2,05777610820716E-02 
557	 1,99410942335274E-02 
558	 1,93259298397613E-02 
559	 1,89877921197663E-02 
560	 1,92900672178346E-02 
561	 1,94519241687406E-02 
562	 1,91904067181728E-02 
563	 0,018959275282703 
564	 0,018988870187651 
565	 1,95202453783194E-02 
566	 1,95739573163655E-02 
567	 1,90812424765228E-02 
568	 0,018732837118469 
569	 1,86608436713993E-02 
570	 0,018943458232604 
571	 1,93053230654859E-02 
572	 1,96681692080216E-02 
573	 2,00261615280604E-02 
574	 0,020145503220746 
575	 2,01170879361801E-02 
576	 2,09430737642508E-02 
577	 2,16787468496581E-02 
578	 2,12188677011871E-02 
579	 2,09155946693351E-02 
580	 2,10225133862689E-02 
581	 2,11831168963146E-02 
582	 2,17953975711585E-02 
583	 2,28098165494067E-02 
584	 2,20175327592954E-02 
585	 2,06970759903224E-02 
586	 2,16147374128174E-02 
587	 2,22776002289975E-02 
588	 2,22008752398449E-02 
589	 2,28147652615403E-02 
590	 0,023380500653543 
591	 0,023195087172821 
592	 2,30355200368841E-02 
593	 2,30784939973697E-02 
594	 2,34494216251528E-02 
595	 2,32981050619745E-02 
596	 2,24514937065859E-02 
597	 2,27516841973962E-02 
598	 2,33605416703694E-02 
599	 0,022745436577938 
600	 2,21478063968944E-02 
601	 2,19528919828939E-02 
602	 2,22220523798643E-02 
603	 2,25194835497373E-02 
604	 2,24797881466104E-02 
605	 2,21017116465195E-02 
606	 0,021687878472403 
607	 2,20457320187959E-02 
608	 2,20273967237065E-02 
609	 2,13268661264454E-02 
610	 2,08876456359063E-02 
611	 2,07809713890665E-02 
612	 2,09823259909511E-02 
613	 0,021130327658073 
614	 2,10250064616436E-02 
615	 2,03488435171786E-02 
616	 1,98443547383723E-02 
617	 2,00201354858759E-02 
618	 2,07844713647934E-02 
619	 2,15480417223378E-02 
620	 2,12358796943914E-02 
621	 2,08189362823082E-02 
622	 2,06573311497544E-02 
623	 0,020741059938599 
624	 2,09763640915455E-02 
625	 2,12507832510949E-02 
626	 2,13528914529327E-02 
627	 0,021263251290582 
628	 0,021047387434777 
629	 2,10191656031783E-02 
630	 2,13011786722406E-02 
631	 2,14471646724165E-02 
632	 2,14061112763757E-02 
633	 2,11644111104116E-02 
634	 0,021359506579568 
635	 2,19601500537003E-02 
636	 2,19744610011401E-02 
637	 2,18934901685738E-02 
638	 2,21687707729759E-02 
639	 2,28073221213422E-02 
640	 2,34506813662192E-02 
641	 2,31647195095988E-02 
642	 2,30251075926064E-02 
643	 2,33802996507458E-02 
644	 2,34632316587862E-02 
645	 2,33253123485906E-02 
646	 2,31202216914768E-02 
647	 2,32539039888494E-02 
648	 2,36901956689342E-02 
649	 2,39435112267775E-02 
650	 2,39610800215547E-02 
651	 2,37273312970541E-02 
652	 2,34985397309908E-02 
653	 2,32755047867114E-02 
654	 0,02297554350411 
655	 2,25184034902247E-02 
656	 2,19744240774763E-02 
657	 2,18189783090222E-02 
658	 2,16684792482753E-02 
659	 0,021111349860245 
660	 2,05532174786567E-02 
661	 2,01951156248647E-02 
662	 2,03583964541379E-02 
663	 2,04270325414174E-02 
664	 2,01121382996723E-02 
665	 1,98549818861072E-02 
666	 1,97067385567794E-02 
667	 1,96710850787248E-02 
668	 1,95020074663661E-02 
669	 1,92042689650507E-02 
670	 1,90333378110967E-02 
671	 1,92181815792251E-02 
672	 0,019842261445784 
673	 0,019677859240861 
674	 1,91096009490897E-02 
675	 1,97112919891593E-02 
676	 1,96962158673426E-02 
677	 1,87430262849968E-02 
678	 1,89476849993502E-02 
679	 1,95449438341916E-02 
680	 0,019435734915658 
681	 1,92101827754042E-02 
682	 1,90952067291093E-02 
683	 0,019381393600229 
684	 1,96971163281667E-02 
685	 1,98489243502737E-02 
686	 2,02668611544345E-02 
687	 2,06454344216855E-02 
688	 0,020271363690084 
689	 2,08428233168523E-02 
690	 2,24251907235461E-02 
691	 2,28120213359991E-02 
692	 2,31830005083757E-02 
693	 2,46270817323731E-02 
694	 2,60560335583092E-02 
695	 2,74037359487632E-02 
696	 2,89079597080458E-02 
697	 3,10801515006939E-02 
698	 3,40833667383478E-02 
699	 3,72987760174508E-02 
700	 4,07078200417598E-02 
701	 4,43652538201207E-02 
702	 4,86321997176312E-02 
703	 5,32488185915155E-02 
704	 0,05703066092678 
705	 6,11145508422416E-02 
706	 6,61164309361877E-02 
707	 7,07750966517161E-02 
708	 7,51194966596857E-02 
709	 7,95302343819752E-02 
710	 8,41093152823553E-02 
711	 8,87740480867234E-02 
712	 9,30191462150985E-02 
713	 9,69142337489879E-02 
714	 0,100569332489287 
715	 0,104256657574428 
716	 0,107994648333734 
717	 0,111740207948716 
718	 0,115026045262447 
719	 0,117707907834877 
720	 0,120301151058986 
721	 0,122955881575529 
722	 0,125787757920987 
723	 0,128252424576802 
724	 0,130258617891514 
725	 0,131970023132975 
726	 0,133720513172954 
727	 0,135678564319345 
728	 0,137324718152248 
729	 0,138698527292633 
730	 0,140006579945859 
731	 0,141197702769163 
732	 0,142281605544633 
733	 0,143303892128484 
734	 0,144273247974651 
735	 0,14520110150088 
736	 0,146165991067424 
737	 0,147057243808371 
738	 0,14755001072819 
739	 0,148062917809851 
740	 0,148724295708991 
741	 0,149233662553954 
742	 0,149707392209608 
743	 0,150302454922939 
744	 0,15092258036914 
745	 0,151495956482948 
746	 0,151872734970802 
747	 0,152273304002269 
748	 0,152775374508586 
749	 0,15301438073699 
750	 0,153145199383725 
751	 0,15346498634356 
752	 0,153858542909393 
753	 0,154184808376287 
754	 0,154003579312636 
755	 0,153944690679818 
756	 0,154444707894291 
757	 0,154991270662823 
758	 0,155409497373936 
759	 0,155522347407365 
760	 0,155630359783038 
761	 0,15588201997632 
762	 0,15644888155274 
763	 0,156880840269505 
764	 0,156781096129335 
765	 0,156788637364887 
766	 0,157009929637314 
767	 0,157363445758685 
768	 0,157774918193966 
769	 0,158165603788866 
770	 0,158384920434716 
771	 0,158478313754804 
772	 0,158519615495012 
773	 0,158483827254079 
774	 0,158556885435499 
775	 0,159369622150612 
776	 0,159772185217416 
777	 0,159298333050765 
778	 0,159259672341493 
779	 0,159605709986178 
780	 0,160037356344905 
781	 0,160113494752541 
782	 0,159934975755772 
783	 0,160407186854631 
784	 0,16075116064177 
785	 0,16053539023157 
786	 0,160793362045984 
787	 0,161155093072766 
788	 0,160700046226742 
789	 0,160344707747186 
790	 0,160300642445992 
791	 0,160141593846311 
792	 0,160200771340971 
793	 0,160670485529131 
794	 0,160584502330051 
795	 0,160202543003358 
796	 0,160442497871452 
797	 0,160638723441829 
798	 0,160600570610119 
799	 0,160517135887021 
800	 0,160421802893229 
801	 0,160351052574083 
802	 0,160461013857327 
803	 0,16065852282441 
804	 0,160611598405771 
805	 0,160665833425301 
806	 0,160958824169596 
807	 0,161475560222285 
808	 0,162005362622931 
809	 0,162319600506718 
810	 0,162295817431082 
811	 0,16214124736341 
812	 0,162479462013632 
813	 0,162894026257191 
814	 0,163160043215494 
815	 0,163069861728759 
816	 0,162955976133694 
817	 0,163227719249009 
818	 0,163598087700293 
819	 0,16395032222594 
820	 0,16417520559873 
821	 0,164258386305171 
822	 0,164231509702537 
823	 0,164303419843907 
824	 0,164547763155826 
825	 0,165017830485446 
826	 0,165325660181363 
827	 0,165518369744961 
828	 0,166131485685873 
829	 0,166522641659686 
830	 0,166432753679724 
831	 0,166565232696574 
832	 0,166769157822941 
833	 0,166737290277848 
834	 0,166979141862478 
835	 0,167449312897753 
836	 0,16765535697902 
837	 0,167488008300873 
838	 0,166987393489025 
839	 0,166845225486215 
840	 0,167084643382743 
841	 0,167601620015643 
842	 0,167893881904322 
843	 0,167928661646849 
844	 0,1681290747802 
845	 0,168290124610205 
846	 0,168337538791637 
847	 0,168599366398304 
848	 0,168739514789602 
849	 0,168245685410976 
850	 0,168630895308934 
851	 0,169654894120638 
852	 0,169238038907263 
853	 0,168677148786534 
854	 0,168688364088152 
855	 0,1690045759579 
856	 0,169186383895814 
857	 0,1686852671292 
858	 0,168571890599912 
859	 0,1688701754485 
860	 0,168734424484179 
861	 0,168595013267647 
862	 0,168686411654703 
863	 0,16911765807709 
864	 0,169208138057422 
865	 0,168115299665605 
866	 0,168051725310786 
867	 0,169108110938914 
868	 0,16995499793634 
869	 0,170186886711685 
870	 0,169644515293891 
871	 0,168844122789766 
872	 0,16881652371663 
873	 0,170599429841934 
874	 0,171140421899115 
875	 0,170463418494972 
876	 0,170724011332929 
877	 0,171122558304231 
878	 0,171426849426296 
879	 0,172119004178299 
880	 0,172558424599518 
881	 0,172098079476412 
882	 0,172184056657046 
883	 0,172597106144675 
884	 0,171769411734653 
885	 0,171980210207865 
886	 0,173619862656141 
887	 0,174212784049296 
888	 0,174196089464424 
889	 0,174142332930819 
890	 0,174144049427749 
891	 0,174333726777269 
892	 0,174939405571163 
893	 0,17518937182921 
894	 0,174895106158525 
895	 0,174433815744341 
896	 0,174392668619794 
897	 0,175121061618467 
898	 0,175463464917429 
899	 0,175443334052688 
900	 0,175429003337184 
901	 0,175915242605869 
902	 0,176706469094177 
903	 0,176387750117193 
904	 0,176435867462465 
905	 0,177532558723007 
906	 0,177373483924263 
907	 0,176726465853044 
908	 0,177063709293961 
909	 0,176937582042353 
910	 0,176379286943076 
911	 0,176578100428988 
912	 0,176802104723541 
913	 0,176754151627577 
914	 0,176866184437825 
915	 0,176938631589164 
916	 0,176743568319795 
917	 0,176857459851154 
918	 0,177214241701111 
919	 0,177334487552157 
920	 0,177605073170225 
921	 0,177900828950948 
922	 0,177088821295798 
923	 0,176197236836891 
924	 0,176032519050829 
925	 0,17507681262269 
926	 0,174303337371957 
927	 0,175882876070774 
928	 0,176502977347513 
929	 0,175595952419456 
930	 0,174884270917846 
931	 0,17424906470332 
932	 0,173696733366417 
933	 0,173547101995648 
934	 0,173314322365437 
935	 0,172385079559304 
936	 0,172129003293238 
937	 0,172478057272546 
938	 0,172475046791842 
939	 0,171813022475209 
940	 0,170510850361388 
941	 0,169440319554861 
942	 0,168818244959803 
943	 0,168725781487143 
944	 0,168537592320542 
945	 0,168203952456282 
946	 0,167914052385879 
947	 0,166826939407142 
948	 0,165107198218743 
949	 0,164295751366888 
950	 0,163298278038126 
951	 0,161799808428761 
952	 0,161967283216747 
953	 0,162741688931399 
954	 0,162525798826222 
955	 0,159987106510595 
956	 0,156402927153324 
957	 0,155562871537679 
958	 0,155964976137407 
959	 0,156724183156987 
960	 0,156274559665768 
961	 0,155131867159488 
962	 0,153945382585413 
963	 0,154200109906288 
964	 0,154948943860938 
965	 0,154427473059976 
966	 0,153803918071387 
967	 0,153740577447649 
968	 0,155783241781587 
969	 0,155345491414354 
970	 0,151677123094642 
971	 0,152324818275114 
972	 0,153717267606815 
973	 0,152361680906631 
974	 0,151642793921907 
975	 0,151874359463482 
976	 0,152629465454245 
977	 0,152803105124462 
978	 0,152351683276804 
979	 0,152147646670792 
980	 0,153674371533643 
981	 0,156502963515223 
982	 0,153533768232476 
983	 0,150046082975992 
984	 0,151757200849716 
985	 0,154677628466159 
986	 0,15650874118605 
987	 0,154257006103429 
988	 0,153570380910975 
989	 0,15552246962188 
990	 0,157570851418094 
991	 0,158140812525806 
992	 0,156927524631506 
993	 0,158008896191102 
994	 0,159027034795522 
995	 0,157409092073513 
996	 0,15640857918209 
997	 0,156709161946758 
998	 0,158435748233587 
999	 0,159209708825641 
1000	 0,158363559043595 
1001	 0,156242529754098 
1002	 0,155257696849344 
1003	 0,156855385174422 
1004	 0,161441449761831 
1005	 0,164658825767734 
1006	 0,162573752949248 
1007	 0,159130125182502 
1008	 0,157374543641143 
1009	 0,161220334485006 
1010	 0,163797532060333 
1011	 0,164338071797881 
1012	 0,167323339832623 
1013	 0,168132041729195 
1014	 0,165726112964828 
1015	 0,165632498713765 
1016	 0,167087977097721 
1017	 0,168844716430564 
1018	 0,168080170382353 
1019	 0,166614532673282 
1020	 0,167776013446295 
1021	 0,170047189484296 
1022	 0,171673943044027 
1023	 0,168627604373703 
1024	 0,166933680908578 
1025	 0,168372296650936 
1026	 0,170194550477087 
1027	 0,17093696409736 
1028	 0,170000840685694 
1029	 0,169900450471862 
1030	 0,171262865195809 
1031	 0,174154312353936 
1032	 0,174747097943525 
1033	 0,173692109616522 
1034	 0,173945615750655 
1035	 0,172727944947673 
1036	 0,170783071436346 
1037	 0,172564251373174 
1038	 0,17824145062531 
1039	 0,18535568541048 
1040	 0,181858527408027 
1041	 0,174507945269497 
1042	 0,170403205122116 
1043	 0,174646033503285 
1044	 0,179058393583842 
1045	 0,172270616549626 
1046	 0,172183595581025 
1047	 0,178447082144861 
1048	 0,180680415612565 
1049	 0,186570429508514 
1050	 0,193295969058944 
1051	 0,183839268721045 
1052	 0,172653840016399 
1053	 0,169219828458592 
1054	 0,176988938579318 
1055	 0,18367053573163 
1056	 0,179039989069095 
1057	 0,17543502519931 
1058	 0,174330466669448 
1059	 0,175251232326209 
1060	 0,178366079969189 
1061	 0,17962542357775 
1062	 0,169180285260762 
1063	 0,170827049891972 
1064	 0,18692647981528 
1065	 0,197688651048931 
1066	 0,199202323255008 
1067	 0,192055831569873 
1068	 0,189730828383084 
1069	 0,188810007507298 
1070	 0,187029911445396 
1071	 0,193861976570979 
1072	 0,193815520864141 
1073	 0,170182402992744 
1074	 0,167974967403167 
1075	 0,183508219580295 
