Wavelength	MORB100268.asd
325	 7,97966100228608E-02 
326	 9,13220310896991E-02 
327	 3,76964299363328E-02 
328	-0,085127035500862 
329	 0,02029129943377 
330	 7,73571791653267E-02 
331	-0,102552086333195 
332	-0,112571050077789 
333	 2,04932486291939E-02 
334	 8,29386072834646E-02 
335	 4,66960278122714E-02 
336	-6,30987012931413E-02 
337	-3,80392760088192E-02 
338	 6,12179588556076E-02 
339	 0,149441274661051 
340	 0,127972676799367 
341	 6,30943255793286E-02 
342	 0,119062741719439 
343	 0,113929036607792 
344	 2,43467743719717E-02 
345	 6,60345487210351E-02 
346	 0,11077818078083 
347	 4,38270479791817E-02 
348	-1,92572257265033E-02 
349	-3,69404719137575E-02 
350	 1,90048192215867E-02 
351	 3,87765332355538E-02 
352	 3,26245001817521E-03 
353	 2,40075744858433E-02 
354	 5,24049426172405E-02 
355	 0,029273498356654 
356	 3,05436301519991E-02 
357	 5,59205606943898E-02 
358	 5,94167045127185E-02 
359	 4,57825462499178E-02 
360	 0,02206498105237 
361	 2,77915240758349E-02 
362	 5,17783799674323E-02 
363	 7,42778701785168E-02 
364	 5,59326488794481E-02 
365	 4,66206379635902E-03 
366	 1,84394215235578E-02 
367	 3,95467393236538E-02 
368	 3,31387156035356E-02 
369	 1,50609836301702E-02 
370	-2,23662557004905E-03 
371	 1,14230781492553E-03 
372	 9,12327065301357E-03 
373	 0,01642107348084 
374	 2,23077372230301E-02 
375	 2,75806873136448E-02 
376	 3,25046226566652E-02 
377	 2,85440031669336E-02 
378	 2,06348692140474E-02 
379	 1,99683837343216E-02 
380	 2,39520646377799E-02 
381	 3,06095633848849E-02 
382	 3,48365652588964E-02 
383	 3,50998510593027E-02 
384	 3,08769548030383E-02 
385	 3,56858233631114E-02 
386	 4,48694356470447E-02 
387	 4,43636378365296E-02 
388	 2,86689780768582E-02 
389	 2,98899894366242E-03 
390	 6,49950528037478E-03 
391	 2,30553699819926E-02 
392	 2,89874357807816E-02 
393	 2,28157958985436E-02 
394	 1,29556318128125E-02 
395	 2,66709597643847E-02 
396	 3,49177240738136E-02 
397	 2,62022925245187E-02 
398	 3,25776413378097E-02 
399	 4,28155081286727E-02 
400	 3,66869930700075E-02 
401	 3,23462230095102E-02 
402	 3,15602416579221E-02 
403	 1,97926731388893E-02 
404	 1,33058765161687E-02 
405	 2,22721415256972E-02 
406	 2,61811538685637E-02 
407	 2,45135298679946E-02 
408	 2,25134573947635E-02 
409	 0,020012714477137 
410	 1,85139233294201E-02 
411	 2,45551311444209E-02 
412	 2,77057384144398E-02 
413	 1,89019569971097E-02 
414	 1,70461249650536E-02 
415	 2,03363899894278E-02 
416	 1,40528196321361E-02 
417	 1,32250755511887E-02 
418	 2,09177887098612E-02 
419	 1,71784814389573E-02 
420	 1,02951729282285E-02 
421	 1,29470285546559E-02 
422	 1,49705403769891E-02 
423	 1,35906917997917E-02 
424	 5,8076168052861E-03 
425	 5,94377894647073E-03 
426	 1,96625618295611E-02 
427	 1,85088255116549E-02 
428	 0,010612133774041 
429	 1,73365647545122E-02 
430	 1,92005477843825E-02 
431	 0,013744828755295 
432	 1,56647877459098E-02 
433	 1,86176548498495E-02 
434	 1,66686069010584E-02 
435	 1,31723346373832E-02 
436	 1,06554352840022E-02 
437	 1,42685069136589E-02 
438	 1,62332100762926E-02 
439	 1,40363198658452E-02 
440	 1,32387670239092E-02 
441	 1,35345029893729E-02 
442	 1,38726235407567E-02 
443	 1,51166345412767E-02 
444	 1,66343195438222E-02 
445	 1,55582646080211E-02 
446	 1,55350097017369E-02 
447	 1,84446431987732E-02 
448	 1,99195683668881E-02 
449	 1,93471866412697E-02 
450	 0,016566287891691 
451	 1,55187417469763E-02 
452	 1,72541826633894E-02 
453	 2,02945717017502E-02 
454	 2,03976208978127E-02 
455	 1,43455053134199E-02 
456	 1,28913108732892E-02 
457	 1,58799508135845E-02 
458	 1,71954558123533E-02 
459	 1,68519533663292E-02 
460	 1,53059028382419E-02 
461	 1,71043146887662E-02 
462	 1,88871982493332E-02 
463	 1,56444581147072E-02 
464	 0,015220109811974 
465	 1,75355126045799E-02 
466	 1,47273012803537E-02 
467	 1,36714821139493E-02 
468	 1,80677933212788E-02 
469	 1,76450215291598E-02 
470	 0,014682315159459 
471	 1,67196883879517E-02 
472	 1,77537794752745E-02 
473	 0,016485296075547 
474	 1,61556150084666E-02 
475	 1,59988614568691E-02 
476	 1,51472553159566E-02 
477	 1,51784276963556E-02 
478	 1,54936330755817E-02 
479	 1,29838724318093E-02 
480	 1,35546393548852E-02 
481	 1,86240020876379E-02 
482	 1,79824079065265E-02 
483	 1,48466815583269E-02 
484	 1,56012043896835E-02 
485	 1,46878360707932E-02 
486	 1,22990128927003E-02 
487	 1,44183093891393E-02 
488	 1,73788419525374E-02 
489	 1,82549056590754E-02 
490	 1,75498592796834E-02 
491	 1,61146443065139E-02 
492	 0,015885624107672 
493	 1,46861890493054E-02 
494	 1,24112479242078E-02 
495	 1,22725601780049E-02 
496	 1,33348730735548E-02 
497	 1,42666590312424E-02 
498	 1,57319858931047E-02 
499	 1,72899617449726E-02 
500	 1,76088386030758E-02 
501	 1,70083758251805E-02 
502	 0,015892221167003 
503	 1,57683888129103E-02 
504	 1,62976543953445E-02 
505	 1,66326506748114E-02 
506	 1,58190032431143E-02 
507	 0,014141084735533 
508	 1,39850990581575E-02 
509	 1,50116549843232E-02 
510	 1,67039278580048E-02 
511	 1,76107698527487E-02 
512	 1,74542659739289E-02 
513	 1,63513793168185E-02 
514	 1,54094120115205E-02 
515	 1,51457824966951E-02 
516	 1,49948437012306E-02 
517	 1,49396063435133E-02 
518	 1,50221072518461E-02 
519	 1,55599250220404E-02 
520	 1,62129502985572E-02 
521	 1,55302579678572E-02 
522	 1,47941141710527E-02 
523	 1,49203556672331E-02 
524	 1,50031453706263E-02 
525	 1,50495065680287E-02 
526	 1,54730033765363E-02 
527	 1,55157196179592E-02 
528	 1,50889342374313E-02 
529	 1,52272963645667E-02 
530	 1,56208749341471E-02 
531	 1,58255466609443E-02 
532	 1,55307091696115E-02 
533	 1,48599881969971E-02 
534	 1,42695611922207E-02 
535	 1,45206641498806E-02 
536	 1,58126773083404E-02 
537	 1,58441727716377E-02 
538	 1,49649679514588E-02 
539	 1,43479736010282E-02 
540	 1,42777302984463E-02 
541	 1,48050060381442E-02 
542	 1,55274697393529E-02 
543	 1,58229850364806E-02 
544	 1,51696488675669E-02 
545	 1,45979256075139E-02 
546	 1,44885873810761E-02 
547	 1,53485299567958E-02 
548	 1,54830458354485E-02 
549	 1,43807488328066E-02 
550	 1,49166374323837E-02 
551	 1,60536306188571E-02 
552	 1,57044496343759E-02 
553	 1,50798030765448E-02 
554	 1,46629697038182E-02 
555	 1,49245867792031E-02 
556	 1,54376071282544E-02 
557	 1,57803348260684E-02 
558	 1,53825872679226E-02 
559	 1,47392612218011E-02 
560	 1,53898970891366E-02 
561	 1,59055470493667E-02 
562	 1,57550287168528E-02 
563	 1,54367121829973E-02 
564	 1,53532846953231E-02 
565	 1,59684241197644E-02 
566	 0,015770184607402 
567	 1,48581396709581E-02 
568	 1,48883601632391E-02 
569	 1,57054350373294E-02 
570	 1,70500923713301E-02 
571	 1,76209028173536E-02 
572	 1,74550293573812E-02 
573	 1,70677721947862E-02 
574	 1,71350361078249E-02 
575	 0,017737888796164 
576	 1,75980722103122E-02 
577	 1,74348952016876E-02 
578	 0,018125125358018 
579	 0,01820671600486 
580	 1,79070039947944E-02 
581	 1,91809991971826E-02 
582	 1,97303017737527E-02 
583	 1,84326584907822E-02 
584	 1,74968308245654E-02 
585	 1,73601362933789E-02 
586	 1,82569410688245E-02 
587	 1,88635162256805E-02 
588	 1,88372263152422E-02 
589	 1,88841400733355E-02 
590	 0,018928566840695 
591	 1,88752707873855E-02 
592	 1,87306288437735E-02 
593	 1,85595446889402E-02 
594	 1,85905957154883E-02 
595	 1,82298895758251E-02 
596	 1,74377056457931E-02 
597	 1,79859043022287E-02 
598	 1,87827246464316E-02 
599	 0,017955935679119 
600	 0,016879367235271 
601	 1,61795839422244E-02 
602	 1,65854413490861E-02 
603	 1,73069016273467E-02 
604	 1,76214195487367E-02 
605	 1,68978813414341E-02 
606	 1,59405839791541E-02 
607	 0,017075343063553 
608	 0,01783416988034 
609	 1,73490290674583E-02 
610	 1,65595551312453E-02 
611	 1,58746025169542E-02 
612	 1,56873860187699E-02 
613	 1,56282330743884E-02 
614	 1,55342074655372E-02 
615	 1,51671860969563E-02 
616	 0,014953518384513 
617	 1,51847913247904E-02 
618	 1,59195123323325E-02 
619	 1,64803398210984E-02 
620	 1,54548087814576E-02 
621	 1,52497268264111E-02 
622	 1,63082915709907E-02 
623	 1,65609958050959E-02 
624	 1,63512325728944E-02 
625	 1,61666551499964E-02 
626	 1,60031176063168E-02 
627	 1,61179753254051E-02 
628	 1,72769653761078E-02 
629	 1,79952018297255E-02 
630	 0,017601742359318 
631	 1,74851478976807E-02 
632	 1,75423099151572E-02 
633	 1,72850106604995E-02 
634	 1,76077271111031E-02 
635	 1,85285730636896E-02 
636	 1,90411656025683E-02 
637	 1,92682194897489E-02 
638	 1,94042694041901E-02 
639	 2,03809182148512E-02 
640	 0,021596961461927 
641	 2,10737936025516E-02 
642	 2,05682760675885E-02 
643	 0,020790410384228 
644	 2,13365798314164E-02 
645	 2,17985494093254E-02 
646	 2,16939827970229E-02 
647	 2,21457400834043E-02 
648	 2,31727247645806E-02 
649	 2,38523913585358E-02 
650	 2,42689823646725E-02 
651	 2,44645246224907E-02 
652	 2,43656519866736E-02 
653	 2,41225360294167E-02 
654	 2,40024696123873E-02 
655	 2,40572673997457E-02 
656	 2,42302556649143E-02 
657	 2,41277219491923E-02 
658	 2,38988354481534E-02 
659	 2,37127494237445E-02 
660	 2,31762901934284E-02 
661	 2,24876256306493E-02 
662	 2,24027827972835E-02 
663	 2,24236449033167E-02 
664	 2,22724422679288E-02 
665	 2,19036661902528E-02 
666	 2,14782784850577E-02 
667	 2,12408256641084E-02 
668	 2,13264170498798E-02 
669	 2,15688140371774E-02 
670	 2,11638221986593E-02 
671	 2,07069593258881E-02 
672	 2,06881818588611E-02 
673	 2,08286327883437E-02 
674	 2,08999226819714E-02 
675	 2,04699576580426E-02 
676	 2,00101389125779E-02 
677	 0,019761361313425 
678	 1,99732676903797E-02 
679	 2,01428217025344E-02 
680	 1,96667715556155E-02 
681	 1,93608213331538E-02 
682	 1,93876590347086E-02 
683	 1,95893712609544E-02 
684	 1,98144858212607E-02 
685	 1,99565085911792E-02 
686	 2,00647343957926E-02 
687	 2,00482111245871E-02 
688	 1,96374316726178E-02 
689	 2,03136333451977E-02 
690	 0,022066422345454 
691	 2,27555657757708E-02 
692	 2,30481796521758E-02 
693	 2,36380652184858E-02 
694	 2,44600626533958E-02 
695	 2,56200004525738E-02 
696	 2,72642434503071E-02 
697	 2,94739714777431E-02 
698	 3,21945873380664E-02 
699	 3,48325410244459E-02 
700	 0,037776502080669 
701	 4,15853290042875E-02 
702	 4,57515141405884E-02 
703	 5,00802306742592E-02 
704	 5,43851094191363E-02 
705	 5,89910753021101E-02 
706	 6,40722207629934E-02 
707	 6,93356261420099E-02 
708	 0,074597370755389 
709	 7,95965323700283E-02 
710	 8,48013052405716E-02 
711	 9,02060312863726E-02 
712	 0,095113747747916 
713	 9,99228236991819E-02 
714	 0,104975211122841 
715	 0,109204959663561 
716	 0,1129178621667 
717	 0,117500427018391 
718	 0,121699170031576 
719	 0,125058138970433 
720	 0,128222548003004 
721	 0,131410832340848 
722	 0,134815979702507 
723	 0,137844908717123 
724	 0,140345545802715 
725	 0,142330002157094 
726	 0,144273402605481 
727	 0,146467745406222 
728	 0,148623542366498 
729	 0,150522029179191 
730	 0,151869425363151 
731	 0,152973058101783 
732	 0,153943127337024 
733	 0,154690985724187 
734	 0,155581845455465 
735	 0,156908735985443 
736	 0,158287640401461 
737	 0,159392954050459 
738	 0,159575794665107 
739	 0,159966248230888 
740	 0,160856281768034 
741	 0,161117596463766 
742	 0,161256607549002 
743	 0,161945310709464 
744	 0,16240040485321 
745	 0,162572056587322 
746	 0,162901557348721 
747	 0,163076280072574 
748	 0,163006324624252 
749	 0,163310370765084 
750	 0,163630897476176 
751	 0,163295809486957 
752	 0,163354859523 
753	 0,163812314758009 
754	 0,16350963014603 
755	 0,163167108623727 
756	 0,163327887076939 
757	 0,163847512601705 
758	 0,164274400964221 
759	 0,163724030424731 
760	 0,163391682680348 
761	 0,163572923650164 
762	 0,16361305377099 
763	 0,163523625732539 
764	 0,163354383846515 
765	 0,16326899682645 
766	 0,163248440874996 
767	 0,163113329307654 
768	 0,163137570721271 
769	 0,163389408037949 
770	 0,163614193286886 
771	 0,163692943802325 
772	 0,163522792336395 
773	 0,163259734300561 
774	 0,163080913011076 
775	 0,163418744331057 
776	 0,163505766084376 
777	 0,163040265595106 
778	 0,162959561532684 
779	 0,163149859488232 
780	 0,163288870482022 
781	 0,163200352050079 
782	 0,162921471274637 
783	 0,162795262430084 
784	 0,162782023283679 
785	 0,162838326901265 
786	 0,162861102112048 
787	 0,16273087391948 
788	 0,162249864431189 
789	 0,162094970584816 
790	 0,162288155212375 
791	 0,161943344723232 
792	 0,161643711109794 
793	 0,161828904717047 
794	 0,16180900008045 
795	 0,161592447140163 
796	 0,161422298905093 
797	 0,161436210613773 
798	 0,161639760269944 
799	 0,161821282066789 
800	 0,161719120883675 
801	 0,161145398454841 
802	 0,160778945732377 
803	 0,16068887867897 
804	 0,160633555803247 
805	 0,160838463330651 
806	 0,161310314962823 
807	 0,161744007061554 
808	 0,16187741818188 
809	 0,161503179731176 
810	 0,161545110289219 
811	 0,161940081429166 
812	 0,161889293218743 
813	 0,162024048322642 
814	 0,162432889817431 
815	 0,161984710981754 
816	 0,161562727306548 
817	 0,162281014583652 
818	 0,16253517845079 
819	 0,162264874525598 
820	 0,162448083244675 
821	 0,162574528289227 
822	 0,162466752107406 
823	 0,162585869119652 
824	 0,162632653592404 
825	 0,162185704767285 
826	 0,162169182781218 
827	 0,16262645110095 
828	 0,162968441401263 
829	 0,163153378050026 
830	 0,163170258213157 
831	 0,163259285049694 
832	 0,163368009458051 
833	 0,163388091609669 
834	 0,163125689213998 
835	 0,162831345526284 
836	 0,163557236432668 
837	 0,16378980122531 
838	 0,162908972473918 
839	 0,162809585386722 
840	 0,163161145342219 
841	 0,163191444846133 
842	 0,163355790692129 
843	 0,163576905597953 
844	 0,163299711406053 
845	 0,162944754134117 
846	 0,162834615469911 
847	 0,163456696758551 
848	 0,164020039132828 
849	 0,163367305342362 
850	 0,163011738561269 
851	 0,163095490732116 
852	 0,16275557997908 
853	 0,162233362705779 
854	 0,161795346225467 
855	 0,162350573735161 
856	 0,162972259609136 
857	 0,162292981900002 
858	 0,161561094068878 
859	 0,161225201131317 
860	 0,161670042052762 
861	 0,16195198677854 
862	 0,161617384404793 
863	 0,161372058927101 
864	 0,161156013279176 
865	 0,160803332587692 
866	 0,160864424327129 
867	 0,161318774827701 
868	 0,161803792312415 
869	 0,16174530621817 
870	 0,161009969047234 
871	 0,160626590511026 
872	 0,160863705848286 
873	 0,161850584320166 
874	 0,162022261032754 
875	 0,161459197864534 
876	 0,161447231407092 
877	 0,161720815558352 
878	 0,162173304950292 
879	 0,162718392033863 
880	 0,162997327374917 
881	 0,162699298129976 
882	 0,162976255245499 
883	 0,163547991824448 
884	 0,162992302517557 
885	 0,162648426985625 
886	 0,162950055425319 
887	 0,163475042202549 
888	 0,16371667821889 
889	 0,163289506049348 
890	 0,163244204305124 
891	 0,16344697996417 
892	 0,163150459592749 
893	 0,162967207828434 
894	 0,16299029129058 
895	 0,162663737254553 
896	 0,162604991793758 
897	 0,163221192239777 
898	 0,163519689586288 
899	 0,163443922739246 
900	 0,163178365252221 
901	 0,16323305995107 
902	 0,163556703564298 
903	 0,163226579984644 
904	 0,16325089733435 
905	 0,164059221405021 
906	 0,163868761225849 
907	 0,163217964292279 
908	 0,163177021738335 
909	 0,162882367554175 
910	 0,162410718214172 
911	 0,162614677934132 
912	 0,162894632494815 
913	 0,162872400575826 
914	 0,162041329264542 
915	 0,161704802441191 
916	 0,163192971825722 
917	 0,163403740597602 
918	 0,162542617527157 
919	 0,162829004144114 
920	 0,163043813289304 
921	 0,16268777099326 
922	 0,161293147979348 
923	 0,160330002205789 
924	 0,160864636560572 
925	 0,160580008076429 
926	 0,15978097537282 
927	 0,159689347401667 
928	 0,159947340779025 
929	 0,160090723703884 
930	 0,158694425045529 
931	 0,157844297285825 
932	 0,158462992110542 
933	 0,157665483434714 
934	 0,156412210066108 
935	 0,156309457625733 
936	 0,156118538726973 
937	 0,155740910822233 
938	 0,155790878951108 
939	 0,155078443416405 
940	 0,153542443468204 
941	 0,153284669696951 
942	 0,153526890216717 
943	 0,153375141174959 
944	 0,152150358565937 
945	 0,150416133814435 
946	 0,149425530618423 
947	 0,148897655190416 
948	 0,148526590870138 
949	 0,147457022817496 
950	 0,146324471323596 
951	 0,145506014371957 
952	 0,144798234588108 
953	 0,144229853404554 
954	 0,143804876096844 
955	 0,142324021074659 
956	 0,140151141608051 
957	 0,138751017856338 
958	 0,137976118871583 
959	 0,137936706363954 
960	 0,139253461167913 
961	 0,139637188179884 
962	 0,137614195000292 
963	 0,136376572998413 
964	 0,135821259013195 
965	 0,135037574317404 
966	 0,135620937749228 
967	 0,137138452687767 
968	 0,137332159981003 
969	 0,136242841360295 
970	 0,134352341174947 
971	 0,134133716199619 
972	 0,134672000635499 
973	 0,134933080950883 
974	 0,13481457463362 
975	 0,134870355857684 
976	 0,136216540719228 
977	 0,135728995379461 
978	 0,133393238455366 
979	 0,132044618387318 
980	 0,132432662763708 
981	 0,134279585200606 
982	 0,133296149832161 
983	 0,131880075406137 
984	 0,132827982253986 
985	 0,135864723509277 
986	 0,138115610732768 
987	 0,134206574258184 
988	 0,131937094053972 
989	 0,132924063885699 
990	 0,133895272568538 
991	 0,134298423215997 
992	 0,134208689036627 
993	 0,136730045478248 
994	 0,138345456571575 
995	 0,135714616078616 
996	 0,136782876057521 
997	 0,139508224278445 
998	 0,137054735810205 
999	 0,136613556057172 
1000	 0,139000655593657 
1001	 0,139657518404168 
1002	 0,139052947732996 
1003	 0,138320905354713 
1004	 0,142918655487678 
1005	 0,146859343400534 
1006	 0,144299248528895 
1007	 0,140391992962313 
1008	 0,138921308825327 
1009	 0,14482692293754 
1010	 0,145282820128886 
1011	 0,140479195660227 
1012	 0,143450963020072 
1013	 0,145077207617154 
1014	 0,142575702027538 
1015	 0,143039111240067 
1016	 0,144871680587393 
1017	 0,146199566695348 
1018	 0,145239816360192 
1019	 0,144560585810212 
1020	 0,148203402567506 
1021	 0,149096175384437 
1022	 0,146893572389929 
1023	 0,145405609522114 
1024	 0,144272051319546 
1025	 0,144484850925569 
1026	 0,150385273391085 
1027	 0,152708033212914 
1028	 0,147073972866428 
1029	 0,148061538079994 
1030	 0,150652615557182 
1031	 0,147598559423511 
1032	 0,146899820821957 
1033	 0,148472880315585 
1034	 0,149073505299443 
1035	 0,15103559849201 
1036	 0,154424476961463 
1037	 0,157994418679089 
1038	 0,15809649070798 
1039	 0,154207764837902 
1040	 0,153169024565665 
1041	 0,153982910816987 
1042	 0,155408524826872 
1043	 0,157717873247698 
1044	 0,15756207394061 
1045	 0,151193988967798 
1046	 0,15191851454342 
1047	 0,159420348374579 
1048	 0,166139104664659 
1049	 0,166858929631755 
1050	 0,162180602507633 
1051	 0,162812348674114 
1052	 0,160540242259513 
1053	 0,153425383988613 
1054	 0,153690396533112 
1055	 0,155754653477555 
1056	 0,153913683049291 
1057	 0,147623524769994 
1058	 0,144494665110573 
1059	 0,154121281697391 
1060	 0,156821364289983 
1061	 0,15257356029018 
1062	 0,151191606485763 
1063	 0,145828522325267 
1064	 0,142968635210507 
1065	 0,173446995878675 
1066	 0,183951829968835 
1067	 0,160407548450257 
1068	 0,157981336748482 
1069	 0,163252341801232 
1070	 0,162545982189524 
1071	 0,154438026345831 
1072	 0,142994052949463 
1073	 0,133358232970838 
1074	 0,132319621633229 
1075	 0,142950262439339 
