Wavelength	MORB100546.asd
325	 0,368446437106775 
326	 0,180433813154759 
327	 7,64431283847097E-02 
328	 0,208062503907983 
329	 0,208168855680951 
330	 0,124690083716298 
331	 1,62005644540556E-02 
332	 2,85560981120062E-02 
333	 0,119121234812435 
334	 0,13773375984252 
335	 0,108548394237682 
336	 4,63634281408606E-02 
337	 2,62462185304825E-02 
338	 3,03680370920958E-02 
339	 3,57094464986818E-02 
340	 7,49856514537382E-02 
341	 0,135478459863583 
342	 0,19374658055428 
343	 0,183378481896675 
344	 0,108154350289708 
345	 0,131176406100729 
346	 0,173049963322194 
347	 0,159442139419834 
348	 8,29404377949303E-02 
349	 5,45832516491904E-03 
350	 8,54999742998481E-02 
351	 0,143852399109083 
352	 0,133944681272926 
353	 0,115868610596436 
354	 0,106651266820665 
355	 0,115559635815499 
356	 0,108065706073393 
357	 8,87334683073679E-02 
358	 0,09536438561965 
359	 9,03777330061112E-02 
360	 6,55376778281667E-02 
361	 9,90062573414706E-02 
362	 0,152131768239798 
363	 0,169444938872026 
364	 0,131576604121743 
365	 5,64648226357438E-02 
366	 7,59440144757661E-02 
367	 0,1178855111891 
368	 0,133631746066908 
369	 0,107514437568737 
370	 7,23808293243347E-02 
371	 9,33548486773213E-02 
372	 0,107776706360508 
373	 0,100916588145727 
374	 8,83620509883192E-02 
375	 8,33797971114401E-02 
376	 9,37378921045609E-02 
377	 9,30400591698097E-02 
378	 8,99882578098607E-02 
379	 0,113115334545304 
380	 0,126885438760805 
381	 0,123487844772954 
382	 0,128844714495934 
383	 0,12134677345816 
384	 0,082253041302571 
385	 7,49197474826375E-02 
386	 9,64434481645042E-02 
387	 0,114288356726408 
388	 0,112310407625671 
389	 8,94886710041111E-02 
390	 8,94994497506209E-02 
391	 9,76702092091217E-02 
392	 9,20396041740469E-02 
393	 9,59517456632466E-02 
394	 0,106986606867416 
395	 0,104562543714513 
396	 9,93500432756525E-02 
397	 9,75200790837951E-02 
398	 0,101596910910864 
399	 0,105355859684191 
400	 9,98229123045745E-02 
401	 9,40880998109761E-02 
402	 9,23205742468047E-02 
403	 9,65509324028672E-02 
404	 0,104702902286547 
405	 0,113303920859851 
406	 0,10737642357129 
407	 9,36960881623429E-02 
408	 0,089053123611874 
409	 9,38838266433621E-02 
410	 0,103898954734235 
411	 9,95575453534868E-02 
412	 9,13079621279865E-02 
413	 0,089813405809598 
414	 9,16117268878219E-02 
415	 9,41235272605081E-02 
416	 9,21998932584568E-02 
417	 9,21504771262263E-02 
418	 9,49315794217179E-02 
419	 8,93772083578321E-02 
420	 8,43043097224845E-02 
421	 9,19873967806203E-02 
422	 9,34870673089589E-02 
423	 8,73644269091377E-02 
424	 8,21915644222292E-02 
425	 8,46281614169674E-02 
426	 9,64771139187641E-02 
427	 9,89207578767436E-02 
428	 9,55394261476556E-02 
429	 9,72836420900011E-02 
430	 9,67418066999259E-02 
431	 9,30389141719406E-02 
432	 9,07347660569799E-02 
433	 9,09494905471322E-02 
434	 9,40124911472937E-02 
435	 9,31045941698051E-02 
436	 0,090121242525806 
437	 9,36291938245139E-02 
438	 9,51868601615274E-02 
439	 9,27689139533648E-02 
440	 0,095744889710795 
441	 9,95060229660611E-02 
442	 9,72852387547703E-02 
443	 9,48453590760935E-02 
444	 9,39888838157207E-02 
445	 9,59074434981048E-02 
446	 9,76772525802288E-02 
447	 9,74781942380171E-02 
448	 9,69101263925663E-02 
449	 9,62954068010514E-02 
450	 9,56774921319477E-02 
451	 9,59001045087465E-02 
452	 9,71172360682276E-02 
453	 9,88195707567353E-02 
454	 9,95768571311969E-02 
455	 9,83148656826487E-02 
456	 9,85485337987654E-02 
457	 0,100395900753721 
458	 0,10273844559321 
459	 0,102398790109028 
460	 9,87929183527855E-02 
461	 9,78590695699085E-02 
462	 9,86908181175773E-02 
463	 9,92438899018188E-02 
464	 9,95824138216814E-02 
465	 9,94284191303314E-02 
466	 0,097945565830488 
467	 9,73401144944107E-02 
468	 9,87954840267274E-02 
469	 9,88223057856524E-02 
470	 9,80098138963477E-02 
471	 9,86122329290072E-02 
472	 9,87043490346059E-02 
473	 9,79155376808803E-02 
474	 9,77224734621089E-02 
475	 9,67348849734815E-02 
476	 9,37207526516446E-02 
477	 9,36212980052574E-02 
478	 0,095908511414383 
479	 9,62017706625839E-02 
480	 9,67021615828761E-02 
481	 9,83334481473354E-02 
482	 0,10094703081591 
483	 0,102455292636311 
484	 9,98574629460886E-02 
485	 9,64338087826269E-02 
486	 9,42521455323758E-02 
487	 0,096976780822962 
488	 0,099974400880543 
489	 9,97101063296696E-02 
490	 9,80616295893201E-02 
491	 9,63667347897537E-02 
492	 9,71457291154997E-02 
493	 9,68618904930537E-02 
494	 9,49308579431099E-02 
495	 9,53703387429298E-02 
496	 9,61499069569667E-02 
497	 0,094720606858855 
498	 9,46286704833508E-02 
499	 9,59218778158037E-02 
500	 9,63266028482082E-02 
501	 9,62670617938565E-02 
502	 9,61567810238774E-02 
503	 9,75120797745784E-02 
504	 9,92186864946757E-02 
505	 9,91845995777634E-02 
506	 9,78733658698967E-02 
507	 0,096078505337039 
508	 9,62106668902381E-02 
509	 9,75552673728446E-02 
510	 9,92921237106091E-02 
511	 0,10082844890877 
512	 0,101630843315915 
513	 0,100713828154495 
514	 0,100242485944175 
515	 0,101013736995836 
516	 0,101266936012915 
517	 0,101038027897141 
518	 0,100590801575786 
519	 0,101193696537753 
520	 0,102585830466477 
521	 0,102701989315469 
522	 0,10202919824781 
523	 0,101072644725461 
524	 0,100848138024982 
525	 0,101357530032584 
526	 0,10236049719992 
527	 0,102508864565315 
528	 0,101568888645236 
529	 0,101233075423543 
530	 0,101479909168643 
531	 0,102108038427209 
532	 0,101776575107512 
533	 0,100791916676528 
534	 0,101158219458042 
535	 0,101652683520846 
536	 0,101579597718504 
537	 0,101515419994602 
538	 0,101549483814718 
539	 0,101721624931184 
540	 0,101776292796073 
541	 0,101756942653225 
542	 0,102335307226854 
543	 0,102701142910888 
544	 0,102095066484226 
545	 0,10168267936502 
546	 0,101794653134209 
547	 0,102726327687267 
548	 0,103110706899699 
549	 0,102461571523041 
550	 0,102665149135542 
551	 0,103178710985604 
552	 0,10282415549706 
553	 0,102468579281752 
554	 0,102415282609689 
555	 0,102868220562253 
556	 0,10322874443728 
557	 0,10298877314838 
558	 0,102251105818425 
559	 0,101464492903751 
560	 0,101672971006866 
561	 0,101857384751515 
562	 0,101659966414688 
563	 0,101652137795229 
564	 0,101627577687539 
565	 0,101262257669614 
566	 0,100715703576768 
567	 0,100243889899751 
568	 0,100388932675222 
569	 0,101316899400635 
570	 0,102920366023166 
571	 0,102939589483684 
572	 0,102374450720845 
573	 0,104213957129398 
574	 0,105984274868397 
575	 0,106816305746899 
576	 0,107081289955895 
577	 0,107435214826226 
578	 0,108568589728109 
579	 0,109545037263216 
580	 0,110435261065501 
581	 0,112244405401347 
582	 0,113797400906451 
583	 0,114391835293303 
584	 0,114272940426191 
585	 0,114148823344177 
586	 0,115192241707339 
587	 0,115932375639798 
588	 0,116096881055819 
589	 0,116565580321894 
590	 0,117361134156694 
591	 0,118416876128125 
592	 0,118722715114651 
593	 0,118500148983153 
594	 0,118953572207769 
595	 0,119337165416153 
596	 0,119322792082311 
597	 0,119123673325574 
598	 0,1188452152513 
599	 0,118609046845402 
600	 0,118211809311776 
601	 0,117782431588891 
602	 0,118006844022644 
603	 0,118277802732528 
604	 0,118052412115033 
605	 0,116973793939555 
606	 0,11559823007856 
607	 0,115463281346067 
608	 0,115020876794863 
609	 0,11392732334595 
610	 0,113765608770055 
611	 0,113787678847882 
612	 0,112928846160589 
613	 0,112226901770354 
614	 0,111854457523216 
615	 0,111484632800035 
616	 0,111155113905686 
617	 0,11090952218447 
618	 0,111006672254732 
619	 0,111084286256405 
620	 0,110337206694449 
621	 0,109835305382839 
622	 0,10990972651512 
623	 0,110218432242454 
624	 0,110590064783489 
625	 0,110855014052688 
626	 0,110610882040351 
627	 0,110239694705493 
628	 0,111213994362532 
629	 0,111620377952119 
630	 0,11070404564984 
631	 0,110730402449625 
632	 0,111389917897454 
633	 0,111703912954824 
634	 0,112557803529095 
635	 0,113922436600904 
636	 0,114789443370782 
637	 0,11523141526786 
638	 0,115438095352947 
639	 0,116797136447674 
640	 0,118693891221495 
641	 0,118912999056561 
642	 0,119103256100195 
643	 0,11983653662941 
644	 0,120415623111151 
645	 0,120688540716647 
646	 0,120538142223505 
647	 0,120653627475232 
648	 0,121011145214571 
649	 0,120906174217139 
650	 0,120486502799288 
651	 0,119830912074506 
652	 0,118682211356278 
653	 0,11742192968313 
654	 0,116933288469025 
655	 0,115881975630373 
656	 0,114015274340192 
657	 0,112447226035997 
658	 0,111058254759831 
659	 0,109642447858628 
660	 0,108019328183463 
661	 0,106439848370386 
662	 0,10576194263284 
663	 0,104926911859245 
664	 0,103489470747213 
665	 0,10238199984983 
666	 0,101697519416118 
667	 0,101423203114793 
668	 0,100897966371165 
669	 0,100045538215478 
670	 9,94099106785739E-02 
671	 9,90619910451257E-02 
672	 9,90267742318799E-02 
673	 9,90362807802631E-02 
674	 9,89654728816967E-02 
675	 9,86941622337971E-02 
676	 9,82527629486255E-02 
677	 9,77693573694203E-02 
678	 9,77939048984428E-02 
679	 9,80922376319166E-02 
680	 9,83282668225017E-02 
681	 9,83308852976917E-02 
682	 9,83045781456477E-02 
683	 9,90294896964841E-02 
684	 9,99338760329539E-02 
685	 0,100693041738141 
686	 0,101551245645667 
687	 0,10270681940325 
688	 0,104396803528873 
689	 0,106833653492453 
690	 0,109935868500668 
691	 0,11296202502032 
692	 0,116528474853987 
693	 0,121214757782672 
694	 0,126857848749764 
695	 0,133317085911563 
696	 0,140216978432487 
697	 0,148115313324802 
698	 0,157250640817846 
699	 0,167427404774867 
700	 0,178427032195475 
701	 0,189996327077243 
702	 0,201775064240151 
703	 0,213487060832692 
704	 0,224715794577891 
705	 0,236017544170633 
706	 0,247654411202898 
707	 0,258923386833979 
708	 0,269587753383273 
709	 0,279405380289752 
710	 0,288905933417426 
711	 0,29819984261562 
712	 0,306900229953729 
713	 0,315240130797576 
714	 0,32338702235456 
715	 0,330207627451006 
716	 0,336097242319358 
717	 0,342673851926442 
718	 0,34870486678672 
719	 0,353764121155112 
720	 0,358519892492342 
721	 0,363105767443713 
722	 0,36760698407669 
723	 0,371617942900466 
724	 0,375104030474507 
725	 0,378326614496602 
726	 0,381139642059967 
727	 0,383530853812843 
728	 0,386084717629309 
729	 0,388620853214776 
730	 0,390689874358132 
731	 0,392323486070707 
732	 0,393657761854702 
733	 0,395204235393752 
734	 0,396768486578199 
735	 0,398166686180931 
736	 0,399501985886191 
737	 0,400745198542063 
738	 0,401795463934139 
739	 0,402714653046492 
740	 0,40353821537177 
741	 0,404292652525094 
742	 0,405042698587892 
743	 0,405849016630964 
744	 0,40633028065162 
745	 0,406639905557838 
746	 0,407560621663144 
747	 0,408258502779337 
748	 0,408350059904037 
749	 0,408525336862969 
750	 0,408928455784736 
751	 0,40966254976071 
752	 0,409914573360393 
753	 0,409649467541912 
754	 0,409664894315633 
755	 0,409842306825862 
756	 0,410092861192179 
757	 0,410500720886169 
758	 0,410852053646225 
759	 0,410680326166558 
760	 0,410742494389009 
761	 0,411173500009479 
762	 0,411302726061942 
763	 0,411408725715343 
764	 0,41176649896022 
765	 0,412037607286225 
766	 0,412195392599373 
767	 0,412308729315071 
768	 0,412605145901085 
769	 0,413091769222858 
770	 0,413232016523297 
771	 0,41318399790214 
772	 0,413191308659294 
773	 0,413217564297057 
774	 0,413290450363972 
775	 0,41347884102664 
776	 0,413686454851205 
777	 0,41387103122328 
778	 0,414143956871048 
779	 0,414403178577585 
780	 0,414484852771223 
781	 0,414703525266159 
782	 0,415020128838979 
783	 0,415016350521569 
784	 0,414826100583616 
785	 0,41458407974577 
786	 0,414582255652638 
787	 0,414734067289356 
788	 0,414831672430193 
789	 0,414505504624281 
790	 0,41385658056432 
791	 0,413810547474052 
792	 0,413879612702175 
793	 0,413654703279712 
794	 0,413325371140643 
795	 0,413013216838428 
796	 0,412883038599272 
797	 0,413016746254635 
798	 0,413336714171381 
799	 0,413396554516757 
800	 0,413188933433572 
801	 0,412774237344912 
802	 0,412714018382617 
803	 0,412996573896968 
804	 0,413308507945932 
805	 0,41352133005181 
806	 0,413637674326348 
807	 0,414089208010595 
808	 0,414579052292966 
809	 0,414763655482134 
810	 0,414809715926633 
811	 0,414815539942023 
812	 0,41496949203556 
813	 0,414998606038999 
814	 0,414865926282337 
815	 0,415042909393383 
816	 0,415420027222264 
817	 0,415804725131002 
818	 0,415810801112541 
819	 0,415620749074326 
820	 0,416134012885291 
821	 0,416310011109238 
822	 0,415802112182852 
823	 0,415799278357346 
824	 0,416075743296625 
825	 0,416188040438225 
826	 0,416387988541233 
827	 0,41661836599929 
828	 0,416576241582853 
829	 0,416417120244607 
830	 0,416269234810333 
831	 0,41636608437828 
832	 0,416577531704939 
833	 0,416689730385607 
834	 0,416778987062523 
835	 0,416855640414098 
836	 0,41690966632485 
837	 0,416969352107026 
838	 0,417044752882281 
839	 0,41704956693464 
840	 0,41715743548388 
841	 0,417617079198748 
842	 0,41776121395982 
843	 0,417469521157536 
844	 0,416845947548054 
845	 0,416824663494304 
846	 0,417735070124962 
847	 0,417940710563702 
848	 0,417519214664966 
849	 0,416869452798762 
850	 0,416917950729438 
851	 0,41755748517296 
852	 0,417556091684806 
853	 0,417389791565442 
854	 0,417299452633645 
855	 0,417091038092546 
856	 0,417018033769817 
857	 0,417431142304693 
858	 0,417199183332781 
859	 0,416488979002835 
860	 0,416833346815925 
861	 0,416921884967882 
862	 0,416236502707071 
863	 0,41622992460773 
864	 0,416215938916642 
865	 0,415151531935482 
866	 0,415289882818997 
867	 0,416495105107192 
868	 0,416734629010207 
869	 0,416686705515335 
870	 0,416556094779479 
871	 0,415632961814402 
872	 0,41510389172915 
873	 0,416351526366905 
874	 0,416688703572375 
875	 0,416082178252347 
876	 0,416221569666151 
877	 0,41659315510777 
878	 0,416987881224891 
879	 0,417275275454282 
880	 0,417656072328835 
881	 0,418317776738788 
882	 0,418437777869898 
883	 0,418098298537445 
884	 0,417946303477605 
885	 0,417765826683887 
886	 0,417700818899911 
887	 0,418779867150054 
888	 0,419499152865685 
889	 0,418562537301953 
890	 0,418548238756553 
891	 0,419287200953347 
892	 0,41937720867681 
893	 0,419177278242551 
894	 0,418935048774131 
895	 0,419299403500358 
896	 0,419850454718746 
897	 0,420232133109165 
898	 0,420601945000719 
899	 0,420839538099461 
900	 0,420696140598402 
901	 0,420883903532597 
902	 0,421332567607793 
903	 0,420891108920983 
904	 0,42069566600023 
905	 0,42129624952653 
906	 0,421027390698117 
907	 0,420661069612786 
908	 0,421547408590483 
909	 0,421563199800179 
910	 0,420606103301666 
911	 0,419917296817994 
912	 0,420202438013056 
913	 0,421440959130628 
914	 0,421128923367403 
915	 0,42046162237104 
916	 0,42095330736355 
917	 0,421056753400314 
918	 0,420643337270495 
919	 0,420129041113952 
920	 0,41990695397172 
921	 0,419842406334053 
922	 0,4183944642843 
923	 0,417259582120412 
924	 0,417716786238347 
925	 0,41729613274068 
926	 0,416235557104397 
927	 0,415680767537183 
928	 0,41538149511404 
929	 0,415166845323192 
930	 0,414605141799674 
931	 0,414014324215301 
932	 0,413543459432179 
933	 0,412909264302666 
934	 0,41185219187694 
935	 0,410156997720204 
936	 0,409927525183609 
937	 0,410700652251112 
938	 0,409909472309091 
939	 0,408450292041919 
940	 0,406845747744456 
941	 0,406086073366695 
942	 0,405454055549399 
943	 0,404303075973321 
944	 0,403526313920046 
945	 0,402650224127852 
946	 0,400545338288838 
947	 0,399069539959509 
948	 0,398288746050489 
949	 0,396394114030185 
950	 0,394312400332712 
951	 0,392653156942176 
952	 0,391450781464839 
953	 0,390764122170945 
954	 0,390550072346197 
955	 0,388601555394801 
956	 0,385658854548525 
957	 0,384750274177508 
958	 0,384576837427822 
959	 0,384405628846252 
960	 0,383112867577199 
961	 0,380853391696454 
962	 0,378164376477288 
963	 0,377981784348379 
964	 0,378964583218136 
965	 0,378415099481236 
966	 0,377651285497787 
967	 0,377222040299117 
968	 0,3781613871632 
969	 0,377694139003904 
970	 0,375240489072093 
971	 0,374578836391732 
972	 0,374890689183176 
973	 0,375231771029198 
974	 0,376236376795703 
975	 0,377644424027382 
976	 0,37896374337441 
977	 0,379054163960852 
978	 0,3777641295734 
979	 0,375469645759519 
980	 0,375331334715418 
981	 0,377971173066423 
982	 0,376722862092464 
983	 0,374599406704302 
984	 0,375164284940042 
985	 0,377049364217275 
986	 0,378658777347789 
987	 0,377368497242746 
988	 0,377187994901976 
989	 0,378750973930394 
990	 0,379744939092173 
991	 0,380645706546015 
992	 0,381688704199089 
993	 0,383262550889408 
994	 0,383543337249927 
995	 0,38101683842635 
996	 0,380697604829279 
997	 0,382376495891698 
998	 0,383730697824555 
999	 0,384688221743519 
1000	 0,385217762171789 
1001	 0,385847814068025 
1002	 0,385482645708479 
1003	 0,384464769367813 
1004	 0,388002924005223 
1005	 0,391296283016811 
1006	 0,389685600162038 
1007	 0,388569938521442 
1008	 0,389121178832865 
1009	 0,391635811985016 
1010	 0,394274450799658 
1011	 0,395793663025122 
1012	 0,393955388583092 
1013	 0,393368083489333 
1014	 0,395483077551361 
1015	 0,395798021368177 
1016	 0,396116208162574 
1017	 0,397950593917145 
1018	 0,399191773605234 
1019	 0,398961614191775 
1020	 0,396605960651973 
1021	 0,395425753546904 
1022	 0,396259888078393 
1023	 0,399041817390809 
1024	 0,400562737216458 
1025	 0,400961743118501 
1026	 0,407490357177959 
1027	 0,410107712075747 
1028	 0,403995163495731 
1029	 0,404159166265382 
1030	 0,406507877043443 
1031	 0,404740978439508 
1032	 0,406866313484516 
1033	 0,410370678104392 
1034	 0,407429053354955 
1035	 0,406315153518983 
1036	 0,408505838500378 
1037	 0,410325143090926 
1038	 0,412255884026957 
1039	 0,413855404869103 
1040	 0,412365942689513 
1041	 0,41117538043079 
1042	 0,413029001890395 
1043	 0,415732685631394 
1044	 0,416372501504059 
1045	 0,41201114848562 
1046	 0,413397938838903 
1047	 0,419593566580849 
1048	 0,422901756396805 
1049	 0,421975414141281 
1050	 0,41807131026339 
1051	 0,418179523996521 
1052	 0,418636426272475 
1053	 0,417762144906321 
1054	 0,416713605390613 
1055	 0,417543984114959 
1056	 0,420940680195053 
1057	 0,417752114824985 
1058	 0,411273288336568 
1059	 0,408415331836515 
1060	 0,41239944292948 
1061	 0,420314025084933 
1062	 0,423744482050677 
1063	 0,423682405248388 
1064	 0,422573784855041 
1065	 0,429272682985232 
1066	 0,431326388281288 
1067	 0,425327109446109 
1068	 0,423728752994448 
1069	 0,421834860046025 
1070	 0,415853962059405 
1071	 0,407667387152158 
1072	 0,404166542147183 
1073	 0,41220823967633 
1074	 0,418774115568779 
1075	 0,42086983822564 
