Wavelength	MORB100534.asd
325	 0,272104385515277 
326	 0,14480908273447 
327	 4,72762376041422E-02 
328	 7,73825297527773E-02 
329	 8,40102667460985E-02 
330	 4,59895017479797E-02 
331	-4,07736895293249E-02 
332	-4,39316686948351E-02 
333	 0,030466919490809 
334	 0,120263287401575 
335	 0,122884616600924 
336	 3,47185207542646E-02 
337	 3,1482336050864E-03 
338	 2,71753185741423E-02 
339	 7,63082498714401E-02 
340	 3,17184651664877E-02 
341	-3,37501944055633E-02 
342	 7,39656766257696E-02 
343	 0,110272848757549 
344	 3,16626064126611E-02 
345	 3,00472298601898E-02 
346	 4,65604368734208E-02 
347	 1,65158531800586E-02 
348	 4,16755451748842E-03 
349	 2,31210076356844E-02 
350	 6,75878546399409E-02 
351	 8,78149653931374E-02 
352	 7,71595452893163E-02 
353	 8,51109894368241E-02 
354	 8,17475158581747E-02 
355	 3,18068569667717E-02 
356	 9,67046704635892E-03 
357	 2,31297836369355E-02 
358	 4,89648066849222E-02 
359	 4,11882780990828E-02 
360	-8,83953531713984E-03 
361	 1,63114536814913E-02 
362	 6,97738078977529E-02 
363	 7,71785902352636E-02 
364	 4,70706875650392E-02 
365	-3,11745967683815E-03 
366	 1,99911881821885E-02 
367	 0,055819194709152 
368	 6,54789564650023E-02 
369	 3,81525913604148E-02 
370	 4,49478604818411E-03 
371	 2,37084049625893E-02 
372	 4,13771069131473E-02 
373	 4,31512044294857E-02 
374	 3,70187579996534E-02 
375	 3,59373733192077E-02 
376	 4,72732738219257E-02 
377	 3,93957427689737E-02 
378	 2,23307763602913E-02 
379	 2,38759014389791E-02 
380	 3,83720748645671E-02 
381	 5,78704309298293E-02 
382	 5,70677362059509E-02 
383	 4,01714337821818E-02 
384	 1,50548257773566E-02 
385	 1,95388512893317E-02 
386	 4,43547318152038E-02 
387	 5,41843072487308E-02 
388	 4,69055417656838E-02 
389	 0,025598537813163 
390	 0,017875532580821 
391	 1,92941712119267E-02 
392	 2,14588544448301E-02 
393	 2,44860002009922E-02 
394	 2,82583430836176E-02 
395	 3,50895800836342E-02 
396	 3,56264167003052E-02 
397	 2,78156623142072E-02 
398	 3,44944786207364E-02 
399	 4,08049975743472E-02 
400	 2,11976106105461E-02 
401	 1,91141073829373E-02 
402	 3,65705458567357E-02 
403	 0,037738920797107 
404	 3,28037119131324E-02 
405	 2,94589933376611E-02 
406	 2,81748503280063E-02 
407	 2,89471125973275E-02 
408	 3,19825894902944E-02 
409	 3,01847741746345E-02 
410	 2,39514239130318E-02 
411	 2,55041038596437E-02 
412	 2,66650532900582E-02 
413	 1,99391585671222E-02 
414	 1,99937123097349E-02 
415	 0,024948885827484 
416	 0,023030038088953 
417	 2,31490628675212E-02 
418	 2,72173725271855E-02 
419	 2,46374653081503E-02 
420	 1,98038511953399E-02 
421	 1,93965935981256E-02 
422	 2,21417267600609E-02 
423	 2,48611868222327E-02 
424	 1,79131373538713E-02 
425	 1,18700191469284E-02 
426	 1,32266874163731E-02 
427	 0,017961382598166 
428	 2,30508894125519E-02 
429	 2,45358697785299E-02 
430	 2,26936714192082E-02 
431	 1,94203412450097E-02 
432	 2,27290578882694E-02 
433	 2,60179661771062E-02 
434	 2,34852557911168E-02 
435	 2,02402881837255E-02 
436	 1,86090344201533E-02 
437	 2,25161313049815E-02 
438	 0,023559766461368 
439	 1,95946893641537E-02 
440	 1,97834914929791E-02 
441	 2,27908600270268E-02 
442	 2,58192420656608E-02 
443	 2,52499302279065E-02 
444	 2,20387463634217E-02 
445	 2,26544405280192E-02 
446	 2,38541057521171E-02 
447	 2,36394728455619E-02 
448	 2,32017160413648E-02 
449	 2,27384192587111E-02 
450	 2,23592194509141E-02 
451	 0,021547866742421 
452	 2,06986036667367E-02 
453	 2,24240253334031E-02 
454	 2,35094819563656E-02 
455	 2,11636458815443E-02 
456	 2,03704404050552E-02 
457	 2,17268375832734E-02 
458	 2,43080841135225E-02 
459	 2,58269785356448E-02 
460	 2,54256162664121E-02 
461	 2,55129073357744E-02 
462	 2,49125236499578E-02 
463	 2,17676634370295E-02 
464	 0,020536746846519 
465	 2,14507462170296E-02 
466	 2,09174262892616E-02 
467	 2,08462685254447E-02 
468	 2,23794825929896E-02 
469	 2,40882101856047E-02 
470	 2,51896348972365E-02 
471	 2,45312177090745E-02 
472	 2,44946029556346E-02 
473	 2,54496128639032E-02 
474	 2,53611079850127E-02 
475	 2,37584730933536E-02 
476	 2,04692745977408E-02 
477	 1,90618411549713E-02 
478	 1,97343390456082E-02 
479	 2,05779105152758E-02 
480	 2,23286062417267E-02 
481	 2,47690755860875E-02 
482	 2,52372985553859E-02 
483	 2,42692969608775E-02 
484	 2,30822867556753E-02 
485	 2,15658387666589E-02 
486	 2,01635016229517E-02 
487	 1,98267158594077E-02 
488	 2,13744308990544E-02 
489	 2,49277422221025E-02 
490	 2,55524749762003E-02 
491	 2,36749741075797E-02 
492	 2,20511375004143E-02 
493	 0,021318519671557 
494	 2,16223703442945E-02 
495	 2,13350173398906E-02 
496	 2,12732058116634E-02 
497	 2,24559793750289E-02 
498	 2,20894572667206E-02 
499	 2,06434202119323E-02 
500	 2,16116995305281E-02 
501	 2,22567440561456E-02 
502	 0,021403740331771 
503	 0,022984394598367 
504	 2,50148972489854E-02 
505	 2,32737275490199E-02 
506	 2,16429724235448E-02 
507	 2,11634708519306E-02 
508	 2,04914821903601E-02 
509	 2,09111113977304E-02 
510	 2,33857580393049E-02 
511	 2,38436820814541E-02 
512	 2,25747953840342E-02 
513	 2,24413466560565E-02 
514	 2,24034861747336E-02 
515	 2,21653142161448E-02 
516	 2,25206882142299E-02 
517	 2,26669040874335E-02 
518	 2,13865130061797E-02 
519	 2,11273020793872E-02 
520	 2,19630895368574E-02 
521	 2,17402932111961E-02 
522	 2,12040572566016E-02 
523	 2,09516923128955E-02 
524	 2,10827081271876E-02 
525	 2,14221816877994E-02 
526	 2,15474018129171E-02 
527	 2,15939452176033E-02 
528	 0,021605214300501 
529	 2,16018470934071E-02 
530	 2,17079658234257E-02 
531	 2,20506083167726E-02 
532	 2,18732720523624E-02 
533	 2,13131443697189E-02 
534	 2,13364561411057E-02 
535	 2,15388116841085E-02 
536	 2,16153223055413E-02 
537	 2,10344807512561E-02 
538	 2,04798516258399E-02 
539	 2,13869604802686E-02 
540	 2,18158325471806E-02 
541	 2,13601833316234E-02 
542	 2,12012143676015E-02 
543	 2,12215920520985E-02 
544	 2,12395296068268E-02 
545	 2,09735241435399E-02 
546	 0,020703649799549 
547	 2,14680067758101E-02 
548	 2,18038001985561E-02 
549	 2,12051832407258E-02 
550	 2,16079531884772E-02 
551	 2,23062201460519E-02 
552	 2,18772173980983E-02 
553	 2,13907480049382E-02 
554	 2,12567800359198E-02 
555	 2,18117095116096E-02 
556	 2,23697974200704E-02 
557	 2,23508782718819E-02 
558	 2,19479711064952E-02 
559	 0,02156331957574 
560	 2,21392892038834E-02 
561	 2,25296796143091E-02 
562	 2,23243977233795E-02 
563	 2,20625501255574E-02 
564	 2,21371153953854E-02 
565	 2,29867199397515E-02 
566	 2,31641241047838E-02 
567	 2,27158595325971E-02 
568	 2,32080187750353E-02 
569	 2,39408581716615E-02 
570	 2,43817091284762E-02 
571	 2,43501847565496E-02 
572	 2,43044449880578E-02 
573	 2,53877869800152E-02 
574	 0,025930960248663 
575	 0,025596882558452 
576	 2,60751330754569E-02 
577	 2,66077510990777E-02 
578	 2,62400196876574E-02 
579	 2,61136231970138E-02 
580	 2,64481624908225E-02 
581	 2,71133237206015E-02 
582	 2,75478711412621E-02 
583	 2,73922173303707E-02 
584	 2,66461176625366E-02 
585	 2,60436001321687E-02 
586	 2,68813139366852E-02 
587	 2,72728108879506E-02 
588	 2,68393191715493E-02 
589	 0,02679262353405 
590	 2,66650760754021E-02 
591	 2,60230698390198E-02 
592	 2,58256789810083E-02 
593	 2,60407458387446E-02 
594	 2,61181332751532E-02 
595	 2,58279980619512E-02 
596	 2,51388990442367E-02 
597	 2,47293705992267E-02 
598	 2,46967786012735E-02 
599	 2,50745671264364E-02 
600	 2,50369512885127E-02 
601	 2,45123531685417E-02 
602	 2,42334642053192E-02 
603	 2,42083362456726E-02 
604	 2,44096260423256E-02 
605	 2,45813827481024E-02 
606	 2,46135281971828E-02 
607	 2,43554195099381E-02 
608	 0,024222448760542 
609	 0,024281448488907 
610	 2,39281710289191E-02 
611	 2,32894788062186E-02 
612	 2,25867659809135E-02 
613	 2,24686086542238E-02 
614	 2,28369301167298E-02 
615	 0,022811974290124 
616	 2,25129060770681E-02 
617	 2,21396011476777E-02 
618	 0,022854296658247 
619	 2,38654654772323E-02 
620	 2,33047088455341E-02 
621	 2,27137913091419E-02 
622	 2,26233565329072E-02 
623	 2,29238332218141E-02 
624	 0,023362058654347 
625	 2,36695895505725E-02 
626	 2,36162401978812E-02 
627	 2,34923079205521E-02 
628	 2,43823811812569E-02 
629	 2,48713937914039E-02 
630	 2,43681628562093E-02 
631	 2,43247177139266E-02 
632	 2,46975580734017E-02 
633	 2,50914038951889E-02 
634	 2,60279378609887E-02 
635	 2,73023208700584E-02 
636	 2,76316830252343E-02 
637	 2,75386643739078E-02 
638	 2,75496379826113E-02 
639	 2,80436882198159E-02 
640	 2,88474555542398E-02 
641	 0,029354396935461 
642	 2,96035027438148E-02 
643	 2,96909081836855E-02 
644	 3,02519018877415E-02 
645	 3,08467612648559E-02 
646	 3,08319202206429E-02 
647	 3,11834845732293E-02 
648	 3,19331449677401E-02 
649	 3,23578292408828E-02 
650	 3,24653615891838E-02 
651	 3,23205647927849E-02 
652	 3,24709088767589E-02 
653	 3,28508150712379E-02 
654	 3,32010147566215E-02 
655	 3,30808260033182E-02 
656	 3,24819471742218E-02 
657	 3,21808373616805E-02 
658	 3,21858779092572E-02 
659	 3,24196821401489E-02 
660	 3,20840838554564E-02 
661	 3,13236964557716E-02 
662	 3,11053038971192E-02 
663	 3,08470595490266E-02 
664	 3,02730697729732E-02 
665	 2,95347419020292E-02 
666	 2,89152306171012E-02 
667	 2,88053269770449E-02 
668	 2,89660592278047E-02 
669	 2,91233748430528E-02 
670	 2,85477223804746E-02 
671	 2,79595279361028E-02 
672	 2,79561002566633E-02 
673	 2,82709538764153E-02 
674	 2,86217633766643E-02 
675	 2,85678290235265E-02 
676	 2,78581766806315E-02 
677	 2,67385195377713E-02 
678	 0,027111734177125 
679	 2,79240483318182E-02 
680	 2,77525669697208E-02 
681	 2,74242071180439E-02 
682	 2,72756524857317E-02 
683	 2,78540439170834E-02 
684	 2,80198025304208E-02 
685	 2,73012302758287E-02 
686	 2,77518648627713E-02 
687	 2,88534565454833E-02 
688	 2,91781794570806E-02 
689	 2,98223485724913E-02 
690	 3,09195425749869E-02 
691	 3,16196228180206E-02 
692	 3,23694921233782E-02 
693	 3,35966515242801E-02 
694	 3,51890201752403E-02 
695	 3,68841313341786E-02 
696	 3,79507531676908E-02 
697	 3,96310178241958E-02 
698	 4,24069258249895E-02 
699	 4,55982771422539E-02 
700	 4,90166144115107E-02 
701	 5,25079268681738E-02 
702	 5,63151068623032E-02 
703	 6,04333195004772E-02 
704	 6,46323048249724E-02 
705	 6,90809077595116E-02 
706	 7,38277136874774E-02 
707	 7,84594093492383E-02 
708	 8,29761809559745E-02 
709	 8,74764540109001E-02 
710	 9,21774392897751E-02 
711	 9,70686455117727E-02 
712	 0,101832301808824 
713	 0,106243748253905 
714	 0,110143541493128 
715	 0,114042188135562 
716	 0,118056200534984 
717	 0,122255524472804 
718	 0,126070292465494 
719	 0,129301040277804 
720	 0,13244287910752 
721	 0,135622828544119 
722	 0,138934708699754 
723	 0,141807805138714 
724	 0,144223483145779 
725	 0,146658950638807 
726	 0,148832403564868 
727	 0,150645493908907 
728	 0,152739876210385 
729	 0,154898068544562 
730	 0,156600052038856 
731	 0,157916188776353 
732	 0,159017052455887 
733	 0,160533361036867 
734	 0,162050378102633 
735	 0,163190517860034 
736	 0,164138409202994 
737	 0,165018015053446 
738	 0,166051409399319 
739	 0,167044165975787 
740	 0,167877033107059 
741	 0,168310308026407 
742	 0,168782880244785 
743	 0,169800676614068 
744	 0,170347975722921 
745	 0,170489787103147 
746	 0,171156724698874 
747	 0,171946869986118 
748	 0,172561070681936 
749	 0,172462386246166 
750	 0,172233630677597 
751	 0,172860834318287 
752	 0,173371178012798 
753	 0,173496949557554 
754	 0,173286418073632 
755	 0,173226168924402 
756	 0,173647423552655 
757	 0,174076999931365 
758	 0,174426850268595 
759	 0,174691350158179 
760	 0,174950362441018 
761	 0,175151005106534 
762	 0,174910370211679 
763	 0,174668652864461 
764	 0,174853625813376 
765	 0,175306475359548 
766	 0,175791002324756 
767	 0,175766861927126 
768	 0,175885021520349 
769	 0,176312532673717 
770	 0,176398496754437 
771	 0,176369765981027 
772	 0,176549208565639 
773	 0,176534894297254 
774	 0,176473227546784 
775	 0,177116927565024 
776	 0,177554146458661 
777	 0,177382854802709 
778	 0,17740106537547 
779	 0,177629973520871 
780	 0,17797408052387 
781	 0,177756553312445 
782	 0,177185552865452 
783	 0,177710914397147 
784	 0,17824128145116 
785	 0,178101485259028 
786	 0,178130632996538 
787	 0,178264773267306 
788	 0,178194534576714 
789	 0,177983841129354 
790	 0,177738358378483 
791	 0,17778811510728 
792	 0,177937674919292 
793	 0,178016794491647 
794	 0,178057923958961 
795	 0,178070784527402 
796	 0,178073828086498 
797	 0,178095861735669 
798	 0,178112638991076 
799	 0,177946944581738 
800	 0,177803503697152 
801	 0,177869528440542 
802	 0,177882134597607 
803	 0,177850399964247 
804	 0,177882689638178 
805	 0,178142906576775 
806	 0,178676336508773 
807	 0,179398148568229 
808	 0,179826269368272 
809	 0,179507106441567 
810	 0,179480362110404 
811	 0,179824153274577 
812	 0,180083403535073 
813	 0,180371145804554 
814	 0,180601753372829 
815	 0,180039294134366 
816	 0,179672749127977 
817	 0,180687438026652 
818	 0,181194714290762 
819	 0,181084118277956 
820	 0,181409137216989 
821	 0,181746566546672 
822	 0,18191032977467 
823	 0,181975756669013 
824	 0,181996716161032 
825	 0,182036345368532 
826	 0,182213072519991 
827	 0,182500932949703 
828	 0,182750037406437 
829	 0,182830659795862 
830	 0,182733505547704 
831	 0,182887729761222 
832	 0,183232323674377 
833	 0,183615021270142 
834	 0,183530932862465 
835	 0,183175545564194 
836	 0,183705051757103 
837	 0,183864343959258 
838	 0,183147047960524 
839	 0,183089900150089 
840	 0,183447633226028 
841	 0,183621679821142 
842	 0,184171101650528 
843	 0,184854169897605 
844	 0,184508136243427 
845	 0,184064370021498 
846	 0,184077573365364 
847	 0,184458924831093 
848	 0,184877561440493 
849	 0,184886637263714 
850	 0,184924368622058 
851	 0,184940116245747 
852	 0,184324789069788 
853	 0,184054632748355 
854	 0,184589774481613 
855	 0,185079384136179 
856	 0,185321806982897 
857	 0,185197548251095 
858	 0,184937938221267 
859	 0,184749198245891 
860	 0,185090864480488 
861	 0,185129347841563 
862	 0,184546529282533 
863	 0,184417292790695 
864	 0,184365659639988 
865	 0,183778389457728 
866	 0,184397406257939 
867	 0,185859887381633 
868	 0,185934100982597 
869	 0,185350627523373 
870	 0,184558652059214 
871	 0,184032820221652 
872	 0,18409007785881 
873	 0,184980638882208 
874	 0,185619612377511 
875	 0,185818632799261 
876	 0,18584592255513 
877	 0,185953557403043 
878	 0,186239519225538 
879	 0,18650665812267 
880	 0,186520058700936 
881	 0,186100024757042 
882	 0,186264145269961 
883	 0,186809735992068 
884	 0,186569500759862 
885	 0,186710316583809 
886	 0,187466506222807 
887	 0,187869651082454 
888	 0,187815850651747 
889	 0,187337271125546 
890	 0,187393415259725 
891	 0,187778354246579 
892	 0,187588913125948 
893	 0,187680714377863 
894	 0,188132504411471 
895	 0,187973831671263 
896	 0,188110225966775 
897	 0,18910281934708 
898	 0,189071333076436 
899	 0,188397522084516 
900	 0,188275290055731 
901	 0,188377681483522 
902	 0,188614683569658 
903	 0,18886973597876 
904	 0,189234991181242 
905	 0,189665057474188 
906	 0,189425276054711 
907	 0,189015729912482 
908	 0,18925720242377 
909	 0,189207170658686 
910	 0,188925365029178 
911	 0,189416446684341 
912	 0,189485030810773 
913	 0,18870104983362 
914	 0,188076392040942 
915	 0,187993296953417 
916	 0,188705036245806 
917	 0,189228380124762 
918	 0,189201918280002 
919	 0,188257680311213 
920	 0,187712225841886 
921	 0,187843797676733 
922	 0,18734592302902 
923	 0,186854670750007 
924	 0,186870680491642 
925	 0,186389106518892 
926	 0,185841078041743 
927	 0,186287130959708 
928	 0,186444486662451 
929	 0,185971377289438 
930	 0,184994078820207 
931	 0,184544134680598 
932	 0,184962993412863 
933	 0,184022387612908 
934	 0,182606373174577 
935	 0,182158992048409 
936	 0,182196193570578 
937	 0,182379498336651 
938	 0,182222859023039 
939	 0,181004212848135 
940	 0,178930940811596 
941	 0,178474079260927 
942	 0,17881733975045 
943	 0,178982415684709 
944	 0,178049672839532 
945	 0,176682934008416 
946	 0,176475339716513 
947	 0,175528962449864 
948	 0,173808794990956 
949	 0,173355130746956 
950	 0,172283841881852 
951	 0,16986561400976 
952	 0,168697178450264 
953	 0,168410592457422 
954	 0,168184827431988 
955	 0,167307240029579 
956	 0,165853246086087 
957	 0,164485709980946 
958	 0,163150233004255 
959	 0,162224494161738 
960	 0,163302686968074 
961	 0,163760574567144 
962	 0,161880176940071 
963	 0,161402271802557 
964	 0,161454382895048 
965	 0,159916524560172 
966	 0,159974379789025 
967	 0,161250709366251 
968	 0,160209329315067 
969	 0,15856472519794 
970	 0,15730057542748 
971	 0,157436074715825 
972	 0,157839632122638 
973	 0,157437339060704 
974	 0,156875701179767 
975	 0,156926492032364 
976	 0,158747949363455 
977	 0,160003060710532 
978	 0,159915413414293 
979	 0,158125395281781 
980	 0,158059808965967 
981	 0,160576585040143 
982	 0,159456974487403 
983	 0,157831731925189 
984	 0,15922899921532 
985	 0,160990362359922 
986	 0,161797073008472 
987	 0,160048419386521 
988	 0,159563491459994 
989	 0,16053855905537 
990	 0,158826372092918 
991	 0,159241552082122 
992	 0,163213517574566 
993	 0,163493162204626 
994	 0,161631157194469 
995	 0,160100480966749 
996	 0,160700801638018 
997	 0,162855365403015 
998	 0,164716393106591 
999	 0,164743620637223 
1000	 0,163411335145797 
1001	 0,164604555934683 
1002	 0,164223546211447 
1003	 0,161574083172536 
1004	 0,164904455040616 
1005	 0,169863495488744 
1006	 0,171395322134283 
1007	 0,168086412994269 
1008	 0,165333998394004 
1009	 0,173067361424335 
1010	 0,175075627699692 
1011	 0,170250379024554 
1012	 0,169914773288618 
1013	 0,170409060890048 
1014	 0,170596535844282 
1015	 0,172230140043306 
1016	 0,172999835292532 
1017	 0,171630715463651 
1018	 0,175198964289863 
1019	 0,179722765927049 
1020	 0,177980421945616 
1021	 0,177344901798332 
1022	 0,177939181764475 
1023	 0,174818964620403 
1024	 0,174089140614835 
1025	 0,176967513954761 
1026	 0,178565327072857 
1027	 0,179017386766877 
1028	 0,178596075047617 
1029	 0,178408712796804 
1030	 0,177118764100689 
1031	 0,17373588839182 
1032	 0,178850767514979 
1033	 0,188068985650446 
1034	 0,188771814230399 
1035	 0,188684344821998 
1036	 0,188997769663851 
1037	 0,185945905156933 
1038	 0,185707979565401 
1039	 0,189900291489333 
1040	 0,191070188367953 
1041	 0,18941078221412 
1042	 0,186051330401163 
1043	 0,185482145061439 
1044	 0,187098002447557 
1045	 0,18909398007476 
1046	 0,195331899686504 
1047	 0,200546885851711 
1048	 0,190453320518724 
1049	 0,188298796926039 
1050	 0,196049668476245 
1051	 0,191703245872492 
1052	 0,185178969751622 
1053	 0,182493945238424 
1054	 0,184660152747974 
1055	 0,191577414660555 
1056	 0,200585067667137 
1057	 0,193958238371405 
1058	 0,179351528212573 
1059	 0,172081051411401 
1060	 0,175887272186871 
1061	 0,186064338957849 
1062	 0,189368149707786 
1063	 0,191970556418771 
1064	 0,196345227328909 
1065	 0,206274182932757 
1066	 0,209253173659874 
1067	 0,20175000974393 
1068	 0,194060986695787 
1069	 0,194116602896316 
1070	 0,204533258998571 
1071	 0,203160815781348 
1072	 0,192923617859495 
1073	 0,180781433321428 
1074	 0,179793948168268 
1075	 0,189179009691506 
