Wavelength	MORB100308.asd
325	 0,263492104688308 
326	 0,14915891130005 
327	 4,96740204335259E-02 
328	 5,55811952324096E-02 
329	 6,87660417907789E-02 
330	 9,48058549539923E-02 
331	 0,14448295903781 
332	 0,162903002202745 
333	 0,158622188941762 
334	 0,184617547806524 
335	 0,175506985746 
336	 0,118769492911377 
337	 4,63662000717838E-02 
338	 3,95815231648846E-02 
339	 0,131702459370995 
340	 0,143475054346048 
341	 0,1082963962763 
342	 0,139544828540345 
343	 0,152999258129762 
344	 0,1372124123317 
345	 0,167613426614731 
346	 0,182766525389192 
347	 0,131969266796215 
348	 8,94529528711544E-02 
349	 0,0734759231635 
350	 7,04538646824968E-02 
351	 0,091467659657755 
352	 0,133070618948482 
353	 0,141796477267914 
354	 0,132443075569244 
355	 0,128734094618956 
356	 0,122183509316105 
357	 0,113028794535228 
358	 0,108636373217643 
359	 8,08149270888031E-02 
360	 3,08057402000373E-02 
361	 0,083892776082678 
362	 0,158403609090853 
363	 0,13905234341948 
364	 9,92045101005225E-02 
365	 6,01795984259913E-02 
366	 6,80754491117521E-02 
367	 8,63676669476893E-02 
368	 0,092447868812513 
369	 0,101867443938922 
370	 0,108055658221978 
371	 9,43514864960971E-02 
372	 0,106144521821011 
373	 0,138891838218455 
374	 0,117625142151697 
375	 9,80517824652722E-02 
376	 0,118936714716496 
377	 0,109446193877466 
378	 8,44949659198813E-02 
379	 9,46243732442531E-02 
380	 0,114658141407557 
381	 0,132808043117583 
382	 0,137266644051265 
383	 0,12326248518192 
384	 9,02180597421189E-02 
385	 9,67144522203257E-02 
386	 0,127424143155833 
387	 0,120774487794456 
388	 0,107239627574308 
389	 9,93027915292765E-02 
390	 9,53796089695697E-02 
391	 9,85774003035756E-02 
392	 0,111983151802214 
393	 0,116338548413769 
394	 0,110578880828155 
395	 0,103778963189844 
396	 0,102779478912611 
397	 0,110738442421514 
398	 0,123478595436347 
399	 0,130245018292705 
400	 0,117465824663651 
401	 0,105573466136458 
402	 0,100549453845401 
403	 9,45045041621574E-02 
404	 0,096076335388711 
405	 0,108933228294109 
406	 0,106623675588781 
407	 9,60552648949008E-02 
408	 9,97179478682235E-02 
409	 9,86337513602738E-02 
410	 9,15851689611344E-02 
411	 9,85052016038334E-02 
412	 0,104572549598458 
413	 9,60101264425697E-02 
414	 9,16215597086083E-02 
415	 9,35192936327186E-02 
416	 0,098031240383958 
417	 0,102410790049573 
418	 0,103715243576893 
419	 9,36960588280407E-02 
420	 8,38718512360113E-02 
421	 8,95102875206828E-02 
422	 9,43712481641155E-02 
423	 9,47845204749928E-02 
424	 9,11971043486852E-02 
425	 9,07411103845059E-02 
426	 9,67777488694259E-02 
427	 9,95915120246664E-02 
428	 9,88737708376437E-02 
429	 9,63702605946085E-02 
430	 9,27338874610925E-02 
431	 9,01048915086194E-02 
432	 0,096317663034873 
433	 0,101090584957002 
434	 9,58293528811886E-02 
435	 9,15913180022443E-02 
436	 9,14948460114971E-02 
437	 9,87884951033466E-02 
438	 0,101808842415766 
439	 9,73585707990473E-02 
440	 0,098157891715584 
441	 0,10053370809925 
442	 9,84190411727477E-02 
443	 9,77414717886538E-02 
444	 0,098934649817233 
445	 9,86874225060198E-02 
446	 0,098545694989623 
447	 9,91333547475819E-02 
448	 9,70674301843433E-02 
449	 9,46188888145662E-02 
450	 9,67366111150904E-02 
451	 9,78953826602551E-02 
452	 9,71802348619377E-02 
453	 9,90607457972804E-02 
454	 0,10054600645696 
455	 9,89705353445472E-02 
456	 9,90560540175146E-02 
457	 0,100884584650608 
458	 0,102343722289915 
459	 0,103019435956682 
460	 0,10239854985413 
461	 9,89262060811974E-02 
462	 9,62287150379539E-02 
463	 9,91481091159067E-02 
464	 0,101443384776841 
465	 0,101314859949605 
466	 9,82488723332562E-02 
467	 9,68954015011064E-02 
468	 9,99132816404092E-02 
469	 0,101378647908015 
470	 0,10122488679306 
471	 0,101099772338895 
472	 0,101289937356195 
473	 0,10142591159283 
474	 0,098870165404942 
475	 9,63755547061409E-02 
476	 9,66616299040169E-02 
477	 9,59040539258957E-02 
478	 9,46712577841879E-02 
479	 0,096550250720315 
480	 9,93801032512817E-02 
481	 0,101583931392627 
482	 0,100624683376571 
483	 9,85590733045773E-02 
484	 9,88771795447442E-02 
485	 9,70601995552308E-02 
486	 9,37454188799975E-02 
487	 9,55159054835338E-02 
488	 9,89170822006904E-02 
489	 0,100920153019563 
490	 9,91391108320227E-02 
491	 9,58742990539019E-02 
492	 9,75045787745015E-02 
493	 9,83763474335526E-02 
494	 9,68845132506333E-02 
495	 9,52964935456363E-02 
496	 9,47944816815562E-02 
497	 9,64425480226656E-02 
498	 9,75388855340721E-02 
499	 9,79818639656092E-02 
500	 0,100044800389338 
501	 0,100350411429104 
502	 9,75187274723712E-02 
503	 9,67040058053236E-02 
504	 9,75259045718393E-02 
505	 9,82155897989721E-02 
506	 9,77728440868077E-02 
507	 9,63238193048464E-02 
508	 9,59765856673978E-02 
509	 9,66712356393943E-02 
510	 9,81371879583895E-02 
511	 9,82351042502933E-02 
512	 9,75766068790347E-02 
513	 9,90431884508715E-02 
514	 9,99080427699626E-02 
515	 9,91549317852869E-02 
516	 9,83918280862118E-02 
517	 9,80102854211397E-02 
518	 9,82915991458537E-02 
519	 9,85458056404155E-02 
520	 9,85816637366634E-02 
521	 9,85294131314896E-02 
522	 9,83257738603522E-02 
523	 9,79782406624109E-02 
524	 9,80155243116579E-02 
525	 9,83454763722464E-02 
526	 9,85787391575379E-02 
527	 9,88182274737665E-02 
528	 0,099010791734819 
529	 9,88329639607331E-02 
530	 9,85089332752066E-02 
531	 9,83185569270673E-02 
532	 9,84856289867177E-02 
533	 9,87863671547904E-02 
534	 0,098242706627924 
535	 9,81941538846744E-02 
536	 9,92196255530026E-02 
537	 9,91254333539069E-02 
538	 0,098374762413719 
539	 9,83349992445046E-02 
540	 9,85420743566551E-02 
541	 9,88807826421022E-02 
542	 0,09944346359453 
543	 9,96638962619982E-02 
544	 9,90471118462792E-02 
545	 9,86037626459936E-02 
546	 9,86623072366937E-02 
547	 9,96536367853561E-02 
548	 9,97295017092329E-02 
549	 9,83477537973081E-02 
550	 9,87041684397884E-02 
551	 9,98992704134291E-02 
552	 0,099985551258288 
553	 9,98821348725052E-02 
554	 9,98500788599923E-02 
555	 0,100063216982007 
556	 9,99871024878791E-02 
557	 0,099248092610873 
558	 9,89840552068548E-02 
559	 9,91178134843756E-02 
560	 9,88184950805655E-02 
561	 9,90099314217277E-02 
562	 9,98067074850736E-02 
563	 9,96214115633595E-02 
564	 9,90475948927794E-02 
565	 9,90475251513006E-02 
566	 9,93299248553203E-02 
567	 9,98482806848516E-02 
568	 0,100650544674765 
569	 0,101412030458256 
570	 0,101888828580631 
571	 0,102151775248799 
572	 0,102292880479295 
573	 0,102457871771063 
574	 0,102722305537228 
575	 0,103124824962164 
576	 0,103595542318929 
577	 0,104226728500036 
578	 0,105115114517561 
579	 0,105970462826954 
580	 0,106654273388397 
581	 0,107009465567488 
582	 0,107417731969757 
583	 0,107924337508413 
584	 0,106873821663223 
585	 0,105698012924143 
586	 0,10730948489934 
587	 0,108309168285676 
588	 0,108018512150875 
589	 0,108471047547361 
590	 0,108996238782451 
591	 0,108908854388018 
592	 0,108563584535789 
593	 0,10825310562442 
594	 0,108626619857995 
595	 0,108638629078628 
596	 0,107954222593618 
597	 0,107920488661407 
598	 0,108178729773994 
599	 0,107995060281122 
600	 0,107444590674179 
601	 0,106802342585722 
602	 0,107052974283954 
603	 0,107423060279256 
604	 0,107271775981624 
605	 0,106777529360276 
606	 0,10624115217895 
607	 0,106391441769279 
608	 0,106174385841219 
609	 0,105372121369153 
610	 0,105292864322785 
611	 0,105199967932788 
612	 0,104070754639014 
613	 0,103266513970868 
614	 0,10309390086253 
615	 0,103325576071501 
616	 0,103668062208416 
617	 0,103903916644289 
618	 0,104113011411681 
619	 0,104180813654302 
620	 0,103898977156927 
621	 0,103349392078845 
622	 0,10276896563738 
623	 0,102985718811995 
624	 0,103553192019211 
625	 0,10394872543365 
626	 0,104042382847151 
627	 0,103935913458461 
628	 0,104021934659085 
629	 0,104292670953015 
630	 0,104694461499108 
631	 0,104786749104014 
632	 0,104791161964594 
633	 0,105131926548727 
634	 0,105787144703967 
635	 0,106614111242472 
636	 0,107068902865206 
637	 0,107417784975053 
638	 0,107916097397058 
639	 0,108716988043251 
640	 0,109520906104828 
641	 0,109432270760259 
642	 0,109657960253217 
643	 0,110550308973568 
644	 0,111036238123918 
645	 0,111152801874626 
646	 0,111078277704592 
647	 0,111470571082426 
648	 0,112202456438579 
649	 0,112184323897179 
650	 0,112083883584288 
651	 0,112297628045346 
652	 0,112146474875181 
653	 0,11164634983423 
654	 0,111028439024753 
655	 0,110271910674446 
656	 0,109528689297631 
657	 0,109439890565888 
658	 0,109326284216192 
659	 0,10846472221362 
660	 0,10739739982193 
661	 0,106372407753921 
662	 0,105641995192272 
663	 0,105282348209842 
664	 0,10516980217273 
665	 0,104121582763063 
666	 0,102856046407926 
667	 0,102685880410229 
668	 0,102783817506717 
669	 0,10280474782175 
670	 0,10237025109901 
671	 0,101952021441788 
672	 0,101910706869511 
673	 0,101684964588576 
674	 0,101354467005558 
675	 0,101355853059593 
676	 0,101343713778295 
677	 0,101159489925612 
678	 0,100657999690948 
679	 0,100252466828886 
680	 0,100429567070864 
681	 0,100735794440395 
682	 0,101024889932866 
683	 0,101202886139519 
684	 0,101508643571709 
685	 0,102033550286857 
686	 0,102218811311844 
687	 0,10244948329609 
688	 0,103500836286051 
689	 0,104877020453252 
690	 0,106477505541591 
691	 0,108539561899249 
692	 0,110797744421145 
693	 0,113032156755513 
694	 0,115652566902971 
695	 0,118871214317685 
696	 0,122928995360107 
697	 0,127613550624899 
698	 0,132894516585371 
699	 0,139056935482846 
700	 0,145992749264413 
701	 0,153523476786698 
702	 0,161434835597923 
703	 0,169772838968103 
704	 0,178971244073214 
705	 0,188497488782426 
706	 0,197956201440803 
707	 0,207350445592121 
708	 0,21685729956126 
709	 0,226829620403442 
710	 0,236699598701204 
711	 0,246224602305292 
712	 0,255303171743385 
713	 0,26429318892803 
714	 0,273488503032416 
715	 0,282086636074274 
716	 0,290117840558324 
717	 0,298195743533996 
718	 0,305578439637183 
719	 0,312038843574302 
720	 0,31822117733996 
721	 0,324332360287201 
722	 0,330543005573701 
723	 0,336216740651915 
724	 0,341181543335873 
725	 0,34548726849592 
726	 0,349308985108432 
727	 0,352845169241062 
728	 0,356615417554859 
729	 0,360280605242352 
730	 0,363111271679918 
731	 0,365681677639996 
732	 0,368118893254237 
733	 0,370125059356662 
734	 0,372042484578132 
735	 0,374151311554667 
736	 0,37596818379161 
737	 0,377470363006116 
738	 0,378819942459507 
739	 0,380044209610266 
740	 0,381180394512208 
741	 0,38223812931524 
742	 0,383356962051619 
743	 0,384677282424329 
744	 0,385562863506159 
745	 0,386007417749404 
746	 0,386467881958867 
747	 0,386919060132565 
748	 0,387367791696562 
749	 0,387842756892933 
750	 0,388275693528583 
751	 0,388552286286085 
752	 0,388973456820087 
753	 0,38953618095016 
754	 0,389973347325426 
755	 0,390010368122637 
756	 0,389558788724824 
757	 0,38973256303126 
758	 0,390331807341216 
759	 0,390594448412167 
760	 0,390719836836279 
761	 0,390743863068022 
762	 0,390600008732828 
763	 0,390630499650332 
764	 0,391124706513718 
765	 0,39152272782383 
766	 0,391684321607792 
767	 0,391532107580389 
768	 0,391535847357965 
769	 0,391804467621953 
770	 0,391685029039703 
771	 0,39151607041972 
772	 0,391745914425497 
773	 0,391806194063085 
774	 0,391713654562078 
775	 0,39194039996068 
776	 0,392084443235764 
777	 0,392011912873741 
778	 0,392407593734287 
779	 0,392708343365766 
780	 0,391993269826752 
781	 0,391570305677996 
782	 0,391681777350447 
783	 0,39187018103856 
784	 0,391750620869597 
785	 0,39115981550774 
786	 0,391066288176379 
787	 0,391248666983486 
788	 0,391073821662563 
789	 0,390665342900686 
790	 0,390174800468649 
791	 0,390089014548503 
792	 0,390110987044618 
793	 0,389986841529476 
794	 0,389886063598369 
795	 0,38954502567878 
796	 0,388259316499947 
797	 0,387700475506965 
798	 0,38814153275934 
799	 0,387863240555172 
800	 0,387303108243115 
801	 0,386980745285096 
802	 0,387179653582699 
803	 0,387632616954871 
804	 0,387490949449165 
805	 0,387426938101173 
806	 0,387691246636923 
807	 0,388248262105015 
808	 0,388728099306913 
809	 0,388759430053572 
810	 0,388851716061923 
811	 0,389048123928762 
812	 0,389137487554295 
813	 0,389294605512176 
814	 0,389531342484304 
815	 0,389441648140427 
816	 0,389382867933532 
817	 0,389804345764311 
818	 0,390267275219516 
819	 0,390635748631727 
820	 0,390820862998087 
821	 0,391114722510217 
822	 0,391560119977424 
823	 0,391418387101466 
824	 0,391263943166161 
825	 0,391902481262599 
826	 0,392409606709871 
827	 0,392602575912279 
828	 0,392704997402156 
829	 0,392584194130139 
830	 0,392316837788786 
831	 0,392791002004104 
832	 0,393466747487786 
833	 0,393494225644063 
834	 0,393359711777088 
835	 0,393295542001756 
836	 0,393702704604803 
837	 0,393877097471759 
838	 0,39350927832093 
839	 0,393319423510957 
840	 0,393420541377706 
841	 0,393839368755996 
842	 0,394099265764706 
843	 0,394053375491778 
844	 0,393701941451598 
845	 0,393391664972797 
846	 0,39331853519507 
847	 0,393318181299962 
848	 0,393193805549942 
849	 0,392701351967274 
850	 0,392947622183698 
851	 0,393656834255881 
852	 0,392988918575227 
853	 0,392213186306401 
854	 0,392025951823272 
855	 0,39202085839751 
856	 0,392110047505839 
857	 0,392224092538609 
858	 0,392012717500971 
859	 0,391478339125395 
860	 0,390870140591981 
861	 0,390619177714936 
862	 0,390849683267959 
863	 0,390670101897813 
864	 0,390289966312132 
865	 0,390116566600655 
866	 0,390686104785073 
867	 0,39174098842051 
868	 0,392174304057263 
869	 0,392264009718239 
870	 0,39210631760737 
871	 0,391465897925072 
872	 0,391212311671926 
873	 0,392321930109523 
874	 0,392878986584737 
875	 0,392763672534718 
876	 0,392942354288862 
877	 0,393187039478425 
878	 0,393497529955234 
879	 0,394292489484125 
880	 0,394944197657842 
881	 0,394792230073341 
882	 0,394681568906379 
883	 0,39483632970092 
884	 0,395352636677883 
885	 0,395872710216221 
886	 0,396254248662696 
887	 0,396631823669872 
888	 0,39689544555952 
889	 0,396954511732237 
890	 0,397115432575938 
891	 0,397150728244356 
892	 0,396334557717809 
893	 0,396417690004225 
894	 0,397533525772086 
895	 0,397461008508974 
896	 0,397365207052905 
897	 0,398117880838308 
898	 0,39844289859509 
899	 0,398374333356608 
900	 0,398318848323662 
901	 0,398368675553315 
902	 0,398533107023532 
903	 0,398652109650252 
904	 0,398765432825801 
905	 0,398886682368367 
906	 0,398925518030054 
907	 0,398988065190381 
908	 0,399236415064435 
909	 0,398779842848173 
910	 0,397891185237936 
911	 0,398121009023278 
912	 0,398427700501367 
913	 0,398309115492457 
914	 0,397932405427793 
915	 0,397609378473233 
916	 0,397640714278053 
917	 0,397179758302543 
918	 0,396735809261487 
919	 0,398242518075083 
920	 0,398363448942747 
921	 0,396388019299714 
922	 0,394945233058812 
923	 0,394590661270373 
924	 0,395509261796207 
925	 0,395888695473552 
926	 0,395231871784825 
927	 0,393226938804841 
928	 0,39262825920161 
929	 0,393368747290401 
930	 0,391867571383237 
931	 0,390765288103078 
932	 0,391333914832221 
933	 0,390894194805506 
934	 0,389813948446544 
935	 0,388948324049455 
936	 0,387870190563633 
937	 0,386715577647088 
938	 0,386074557442417 
939	 0,385367504578003 
940	 0,384374755188874 
941	 0,383142926082649 
942	 0,382333570492544 
943	 0,382399550427832 
944	 0,38205349421276 
945	 0,380776357799834 
946	 0,378009106960713 
947	 0,376826063935963 
948	 0,377254206465205 
949	 0,3759804671719 
950	 0,373620790827758 
951	 0,370782870718587 
952	 0,368671485186041 
953	 0,367736289588204 
954	 0,3681765725827 
955	 0,366994568990119 
956	 0,364424333656033 
957	 0,362771265754646 
958	 0,361601389694855 
959	 0,361089229023239 
960	 0,362671620756673 
961	 0,362010187781589 
962	 0,356787762824317 
963	 0,357024727610073 
964	 0,35942552040318 
965	 0,356839721045342 
966	 0,356053087084529 
967	 0,357320602336566 
968	 0,356351817124658 
969	 0,354818065503029 
970	 0,353537834216268 
971	 0,352770276233449 
972	 0,353217174264816 
973	 0,355188348093468 
974	 0,35547210186798 
975	 0,354682027698245 
976	 0,354972165162146 
977	 0,355364185321869 
978	 0,355320327276637 
979	 0,353547199194815 
980	 0,353463831001359 
981	 0,355997166457352 
982	 0,355721123456021 
983	 0,354279036291845 
984	 0,353828376655662 
985	 0,354196827057691 
986	 0,354783228358573 
987	 0,354364504425866 
988	 0,354928429952414 
989	 0,356163422776683 
990	 0,354597234101151 
991	 0,35452896372191 
992	 0,357533606737303 
993	 0,358629584272521 
994	 0,35812308473698 
995	 0,357066248839681 
996	 0,358907655076783 
997	 0,361780546036694 
998	 0,360848122178892 
999	 0,359888731479842 
1000	 0,35952444903673 
1001	 0,35757740094914 
1002	 0,357881704395301 
1003	 0,361665658631396 
1004	 0,364096296450337 
1005	 0,365466766921407 
1006	 0,366266643343659 
1007	 0,363546250064194 
1008	 0,361906095837339 
1009	 0,370151029508431 
1010	 0,371276842555456 
1011	 0,365307311622708 
1012	 0,367919066629609 
1013	 0,372044069186379 
1014	 0,374278001822263 
1015	 0,373381856917291 
1016	 0,371671173708487 
1017	 0,371642117180621 
1018	 0,376966253218873 
1019	 0,38139463971185 
1020	 0,375371266235341 
1021	 0,37232565082232 
1022	 0,374477495730351 
1023	 0,378840899400474 
1024	 0,381248668670905 
1025	 0,380350872004444 
1026	 0,378985160402062 
1027	 0,378394051750139 
1028	 0,378820280295192 
1029	 0,375795249206215 
1030	 0,37314450737256 
1031	 0,375592898055835 
1032	 0,379375690175922 
1033	 0,383204677640296 
1034	 0,386200774527677 
1035	 0,387497771088116 
1036	 0,387107789945973 
1037	 0,386289267405764 
1038	 0,384463756774073 
1039	 0,382511515881379 
1040	 0,385513762283029 
1041	 0,390166759489592 
1042	 0,392473092743353 
1043	 0,385198669958091 
1044	 0,376652520940175 
1045	 0,378980572846514 
1046	 0,383292269405481 
1047	 0,385650895378874 
1048	 0,381247261379005 
1049	 0,3814146879385 
1050	 0,386648396720815 
1051	 0,384203023024422 
1052	 0,383332239440068 
1053	 0,387138150632293 
1054	 0,383845771332833 
1055	 0,385876434852159 
1056	 0,401412986395299 
1057	 0,401455704605982 
1058	 0,389527600424 
1059	 0,378025610358888 
1060	 0,380741412225905 
1061	 0,392941421521692 
1062	 0,396551363663197 
1063	 0,392804313827017 
1064	 0,386289317758261 
1065	 0,393487972280848 
1066	 0,399730948839507 
1067	 0,398539327645935 
1068	 0,391107369440141 
1069	 0,384189023065694 
1070	 0,383212705270965 
1071	 0,385381704764558 
1072	 0,385887167829249 
1073	 0,379786572204007 
1074	 0,371875076096172 
1075	 0,370018023803737 
