Wavelength	MORB100407.asd
325	 0,318846880048793 
326	 0,271385438674728 
327	 0,149245703382657 
328	 4,70148964868349E-02 
329	 9,76510085797482E-02 
330	 0,112072989823335 
331	-4,35723972541771E-02 
332	-8,20817736974794E-02 
333	-9,52196912968912E-03 
334	 3,38973741563555E-02 
335	 6,46310636422859E-02 
336	 7,42469876294265E-02 
337	-9,16166743577911E-03 
338	-4,99522766725026E-02 
339	 4,05726832692575E-02 
340	 0,100383321785108 
341	 0,119221988935546 
342	 0,111708811007628 
343	 9,97271754076057E-02 
344	 9,15806474609687E-02 
345	 9,68749091088077E-02 
346	 8,99767707229603E-02 
347	 4,82222132973317E-02 
348	 0,048573887462581 
349	 7,66285164401569E-02 
350	 0,039221976642993 
351	 2,81248374125744E-02 
352	 6,23797957767423E-02 
353	 0,07486943111344 
354	 6,72173944927217E-02 
355	 5,07161637225603E-02 
356	 5,24242200048539E-02 
357	 6,99788284352155E-02 
358	 8,30281695988574E-02 
359	 6,02425118146304E-02 
360	 5,95141951916506E-04 
361	 2,39403000436225E-02 
362	 7,87768617525068E-02 
363	 8,37659501310659E-02 
364	 5,86060957162628E-02 
365	 1,59211265981521E-02 
366	 0,016094037059513 
367	 3,17163965765835E-02 
368	 4,17406950757871E-02 
369	 3,56564311260328E-02 
370	 2,20707767290778E-02 
371	 1,88502860674251E-02 
372	 3,20793896102081E-02 
373	 5,41339787048354E-02 
374	 0,046281904772497 
375	 3,66928720865399E-02 
376	 4,54345612267444E-02 
377	 3,99094060817211E-02 
378	 2,75804735497806E-02 
379	 3,21775302961861E-02 
380	 4,40188310630053E-02 
381	 0,05598366573643 
382	 5,17527321174862E-02 
383	 4,01782728958327E-02 
384	 3,12555657489272E-02 
385	 2,75057899158635E-02 
386	 3,07665506546034E-02 
387	 4,70089234932892E-02 
388	 4,75517010017947E-02 
389	 2,58799497373275E-02 
390	 1,82358449609272E-02 
391	 2,07540510346941E-02 
392	 2,48853779485695E-02 
393	 3,36687933027327E-02 
394	 4,10824442158472E-02 
395	 2,88076777903895E-02 
396	 1,88638529969009E-02 
397	 2,27733157591566E-02 
398	 3,59065081769305E-02 
399	 4,52167676443446E-02 
400	 0,033685268065988 
401	 3,09447741561211E-02 
402	 3,81868664334647E-02 
403	 2,77393828034827E-02 
404	 1,89638449641304E-02 
405	 2,47014841386548E-02 
406	 2,70898799186019E-02 
407	 2,67924001963985E-02 
408	 3,09087427792345E-02 
409	 0,030578476843878 
410	 2,72103116111403E-02 
411	 4,02755141230121E-02 
412	 4,78399061266546E-02 
413	 3,04959059648058E-02 
414	 0,026614256846035 
415	 3,42761186447662E-02 
416	 3,00640511073662E-02 
417	 2,59442335462165E-02 
418	 2,57177058118719E-02 
419	 2,22255689907937E-02 
420	 1,86692696384072E-02 
421	 1,98395245479647E-02 
422	 2,17481541605973E-02 
423	 2,28336778953024E-02 
424	 2,10025865244908E-02 
425	 0,020515600157793 
426	 2,36839785418455E-02 
427	 2,67765749584887E-02 
428	 2,97158539298486E-02 
429	 3,36312741824022E-02 
430	 3,38439268528174E-02 
431	 3,03983636137382E-02 
432	 2,96771373344535E-02 
433	 3,04691245921255E-02 
434	 3,12348515921276E-02 
435	 2,89457224090613E-02 
436	 2,57411259105272E-02 
437	 2,89818104495799E-02 
438	 2,97796710036995E-02 
439	 2,60919364822439E-02 
440	 2,84360601682593E-02 
441	 3,27395537271261E-02 
442	 3,27269661433248E-02 
443	 3,00462315958571E-02 
444	 2,69771826134923E-02 
445	 2,98709679825058E-02 
446	 3,28408571162845E-02 
447	 0,032331576977442 
448	 3,20230928710596E-02 
449	 3,14795269688056E-02 
450	 2,87396502513658E-02 
451	 2,80891408490767E-02 
452	 3,02192735405188E-02 
453	 3,17014144306246E-02 
454	 3,15230021048375E-02 
455	 2,92020771270994E-02 
456	 2,99162208100058E-02 
457	 3,26164432584617E-02 
458	 3,17474829073221E-02 
459	 0,03049560227422 
460	 3,01991400260178E-02 
461	 3,05774153189243E-02 
462	 0,031112288860015 
463	 3,11464007339548E-02 
464	 3,07754658095802E-02 
465	 0,029867140375011 
466	 2,74461592466913E-02 
467	 2,70909728977065E-02 
468	 3,06248180832331E-02 
469	 3,17927626932404E-02 
470	 3,12561959734767E-02 
471	 0,032260904330098 
472	 3,28315823609045E-02 
473	 3,26680816395663E-02 
474	 3,32071675810421E-02 
475	 3,37095213159136E-02 
476	 3,33906508247863E-02 
477	 0,032761100208885 
478	 3,21613164225405E-02 
479	 3,19701022926782E-02 
480	 0,032846448668573 
481	 3,45297408564334E-02 
482	 3,33817996289759E-02 
483	 3,10680947295404E-02 
484	 3,06362663919813E-02 
485	 2,93614211758229E-02 
486	 2,78014370516947E-02 
487	 3,05657334613971E-02 
488	 3,38939012390974E-02 
489	 3,47745895781217E-02 
490	 3,32450530347405E-02 
491	 3,10817439306874E-02 
492	 3,23181458548236E-02 
493	 3,35746196054014E-02 
494	 3,37365025674776E-02 
495	 3,35567548681026E-02 
496	 3,34978600768351E-02 
497	 0,034002554952833 
498	 3,34308550050879E-02 
499	 3,20264125415908E-02 
500	 3,12681582959059E-02 
501	 3,23904618228845E-02 
502	 3,55600525768626E-02 
503	 3,61990997539704E-02 
504	 3,51465306851326E-02 
505	 3,49571286296183E-02 
506	 3,43873485677475E-02 
507	 0,033586688553475 
508	 3,42928692888063E-02 
509	 3,54617554704557E-02 
510	 3,60785960733739E-02 
511	 3,64876308724158E-02 
512	 3,65669487067585E-02 
513	 3,57227423927836E-02 
514	 3,56500130188435E-02 
515	 3,67901202313709E-02 
516	 3,66514778554798E-02 
517	 3,60838137488317E-02 
518	 3,65806278985219E-02 
519	 3,76780803773304E-02 
520	 3,86526705337658E-02 
521	 3,73946975132627E-02 
522	 3,60349216099461E-02 
523	 3,61027079099982E-02 
524	 3,61408623203236E-02 
525	 0,036206145719233 
526	 3,69596898644214E-02 
527	 3,76974956456668E-02 
528	 3,82324555553828E-02 
529	 3,91971052783444E-02 
530	 3,97934595701765E-02 
531	 0,039100174782222 
532	 3,76384309944589E-02 
533	 3,64778362065782E-02 
534	 3,85161334353086E-02 
535	 3,99819962097745E-02 
536	 3,88865790250914E-02 
537	 3,87441500683442E-02 
538	 3,94181369369619E-02 
539	 3,97984671039056E-02 
540	 3,99151888937766E-02 
541	 3,98017843697787E-02 
542	 3,97478026262464E-02 
543	 3,98654272360693E-02 
544	 4,02152914175758E-02 
545	 4,00811113403884E-02 
546	 0,039658003663034 
547	 3,99369041656288E-02 
548	 4,01204434002606E-02 
549	 3,99151931836453E-02 
550	 4,00918720101407E-02 
551	 4,05372105917483E-02 
552	 4,09601899286946E-02 
553	 0,041103542354672 
554	 4,11030511363773E-02 
555	 4,20428153711892E-02 
556	 4,23560023028051E-02 
557	 4,08613200005052E-02 
558	 0,039749365447567 
559	 3,95250828561498E-02 
560	 4,03836913270225E-02 
561	 4,11755971211206E-02 
562	 4,13991799844681E-02 
563	 0,041518528042764 
564	 4,15774768339786E-02 
565	 0,041587019264034 
566	 0,041312406268277 
567	 4,09170504504003E-02 
568	 4,10074753253801E-02 
569	 4,17851697083675E-02 
570	 4,32100926341639E-02 
571	 4,35563028419229E-02 
572	 4,30702169288434E-02 
573	 4,28022364751869E-02 
574	 4,32592592340924E-02 
575	 4,43572469200413E-02 
576	 4,42885253659964E-02 
577	 4,40770314406271E-02 
578	 4,49936216933404E-02 
579	 4,60408774915302E-02 
580	 4,68399404715069E-02 
581	 4,69012771684821E-02 
582	 4,74013423741413E-02 
583	 4,87407084967575E-02 
584	 4,83134384187682E-02 
585	 4,71415618298706E-02 
586	 4,75869571911519E-02 
587	 4,82399335409333E-02 
588	 4,87861851295407E-02 
589	 4,98021141237538E-02 
590	 5,04538270000503E-02 
591	 5,00165524081837E-02 
592	 4,97851825115697E-02 
593	 4,99834527551663E-02 
594	 5,05141716379094E-02 
595	 5,06319051759244E-02 
596	 5,01274351073275E-02 
597	 5,03416940867393E-02 
598	 5,07531651732732E-02 
599	 5,03798280017099E-02 
600	 4,98981696955624E-02 
601	 0,049547827318144 
602	 4,93705441728525E-02 
603	 4,96566351996974E-02 
604	 0,050502494108928 
605	 5,03395895051152E-02 
606	 4,95428094198483E-02 
607	 4,97659074164291E-02 
608	 4,97076536547871E-02 
609	 4,90755253553882E-02 
610	 4,91236094821908E-02 
611	 4,90631480647166E-02 
612	 4,78185601638074E-02 
613	 4,75897461581857E-02 
614	 4,83206317108926E-02 
615	 4,79122783536148E-02 
616	 4,74188533258257E-02 
617	 4,75748020396686E-02 
618	 4,87229713297668E-02 
619	 4,97362001001404E-02 
620	 4,82645914225042E-02 
621	 4,73953787210582E-02 
622	 4,78361988364104E-02 
623	 4,75093692256586E-02 
624	 4,70793379364783E-02 
625	 4,73246892496819E-02 
626	 4,76547909053048E-02 
627	 4,78525733914402E-02 
628	 4,76526908923301E-02 
629	 4,75752673434539E-02 
630	 4,78684799203645E-02 
631	 4,81489748828951E-02 
632	 4,83723631160622E-02 
633	 4,85325501746406E-02 
634	 4,89116481427305E-02 
635	 4,95401716544998E-02 
636	 0,050273628872313 
637	 5,05093193224872E-02 
638	 0,049888815615765 
639	 5,06583724183716E-02 
640	 5,22055439353658E-02 
641	 5,19308289442449E-02 
642	 5,15168605111477E-02 
643	 5,16023505121281E-02 
644	 0,051803689926568 
645	 5,19421923540058E-02 
646	 5,18211425000551E-02 
647	 0,052006959460771 
648	 5,24881471997337E-02 
649	 5,27744668618537E-02 
650	 5,27154917468056E-02 
651	 5,22544823808622E-02 
652	 5,18764384949005E-02 
653	 5,16301815255379E-02 
654	 5,14976078710744E-02 
655	 5,08992723185977E-02 
656	 4,97826861946296E-02 
657	 4,89307280094551E-02 
658	 4,83376886231002E-02 
659	 4,79166656090066E-02 
660	 4,69429691334548E-02 
661	 4,58124400684838E-02 
662	 4,62113500145878E-02 
663	 4,62502822271961E-02 
664	 4,50977528248235E-02 
665	 4,42006279613977E-02 
666	 4,37533474309257E-02 
667	 4,37760899511574E-02 
668	 4,38800953923867E-02 
669	 4,38734039610943E-02 
670	 4,35757379968536E-02 
671	 4,33872018436404E-02 
672	 4,35926372553129E-02 
673	 4,34980517658022E-02 
674	 4,32726414541263E-02 
675	 4,37387389335275E-02 
676	 4,35422926042063E-02 
677	 4,25577169700478E-02 
678	 4,30621424122823E-02 
679	 4,40658090739947E-02 
680	 4,41869889005016E-02 
681	 4,38736731664204E-02 
682	 4,35723299950443E-02 
683	 0,044406766598944 
684	 4,51761312002462E-02 
685	 4,52516113369014E-02 
686	 4,57216815876884E-02 
687	 4,65626963942218E-02 
688	 4,74640060856617E-02 
689	 4,85340927968241E-02 
690	 4,98148474680287E-02 
691	 5,13435652849017E-02 
692	 5,31789181182315E-02 
693	 5,53369910606254E-02 
694	 5,73313216935389E-02 
695	 5,92713483396866E-02 
696	 6,16157002675212E-02 
697	 6,44372716404034E-02 
698	 6,77411475365938E-02 
699	 7,12306882028346E-02 
700	 7,48231730767951E-02 
701	 7,84606469964187E-02 
702	 8,20172301226862E-02 
703	 8,54682017629146E-02 
704	 8,88832532602932E-02 
705	 9,22261021584296E-02 
706	 9,54626277643417E-02 
707	 9,85950476176832E-02 
708	 0,101560462682312 
709	 0,104215517468848 
710	 0,107015089106608 
711	 0,109896649067003 
712	 0,111912490003703 
713	 0,113666592377057 
714	 0,115735228726902 
715	 0,117507835006816 
716	 0,119116643144922 
717	 0,121289863052975 
718	 0,122895780317317 
719	 0,123611204501031 
720	 0,124587273989583 
721	 0,125886243210644 
722	 0,127434604142767 
723	 0,128347017320148 
724	 0,128747753303697 
725	 0,129878565829956 
726	 0,130895774528602 
727	 0,131355294721544 
728	 0,132175122213919 
729	 0,133093347741908 
730	 0,133437698317077 
731	 0,133571571484829 
732	 0,133745013764532 
733	 0,134490837090146 
734	 0,13526929278515 
735	 0,135621791700817 
736	 0,136182765914923 
737	 0,13683597377499 
738	 0,137008033455929 
739	 0,137186135693903 
740	 0,137500652298267 
741	 0,137562171426624 
742	 0,137600460276453 
743	 0,137908167591149 
744	 0,138245721728365 
745	 0,138520016260193 
746	 0,138644254763101 
747	 0,138681003851694 
748	 0,138712656259892 
749	 0,139042630600817 
750	 0,139436200905597 
751	 0,139479876511393 
752	 0,139589681609466 
753	 0,139762748144504 
754	 0,139513035825961 
755	 0,139357583521742 
756	 0,1396644261504 
757	 0,140118040644599 
758	 0,140484534478712 
759	 0,140383609550512 
760	 0,140497026061364 
761	 0,14091623336671 
762	 0,140906383654211 
763	 0,140838039704837 
764	 0,141088629502918 
765	 0,141525222415662 
766	 0,141908130233129 
767	 0,141659638340503 
768	 0,141554353207956 
769	 0,141849487718967 
770	 0,142040507121773 
771	 0,142134159365826 
772	 0,142191023236601 
773	 0,142279179041985 
774	 0,14248759913265 
775	 0,143093532136064 
776	 0,14333764669059 
777	 0,142922844113243 
778	 0,142746455127615 
779	 0,14303109460664 
780	 0,14394474779857 
781	 0,14410291638642 
782	 0,143472654001528 
783	 0,143412883331265 
784	 0,143538465402051 
785	 0,143615306233091 
786	 0,143909406629745 
787	 0,144187366885239 
788	 0,143982383833086 
789	 0,143871803126895 
790	 0,143980809828202 
791	 0,143980257559298 
792	 0,144164770169827 
793	 0,144703119146632 
794	 0,144798550397548 
795	 0,144469577604222 
796	 0,143979181965189 
797	 0,144054767866417 
798	 0,144730447838993 
799	 0,144743064230553 
800	 0,144680080944098 
801	 0,145102629277263 
802	 0,145066271616399 
803	 0,144768341379753 
804	 0,145195572770234 
805	 0,145369902639963 
806	 0,145082705467801 
807	 0,145265520857946 
808	 0,145578990959952 
809	 0,145600082288402 
810	 0,145527794432068 
811	 0,145582876239541 
812	 0,146322086039236 
813	 0,14679490668434 
814	 0,14661261400893 
815	 0,146183265744077 
816	 0,14595362272918 
817	 0,146374877345426 
818	 0,14633412450756 
819	 0,145984990155691 
820	 0,146664891520585 
821	 0,14695632332997 
822	 0,146374457643543 
823	 0,146483742705872 
824	 0,146897840398702 
825	 0,146925946959046 
826	 0,146833254665299 
827	 0,146773624089941 
828	 0,147110137961645 
829	 0,147149516599363 
830	 0,146683457579571 
831	 0,146943846947993 
832	 0,147436873327531 
833	 0,147322824053677 
834	 0,147070475945131 
835	 0,146952478809208 
836	 0,147554604453252 
837	 0,147718654532248 
838	 0,146970693497859 
839	 0,146767530192776 
840	 0,147018862210578 
841	 0,147347211803847 
842	 0,14771599641392 
843	 0,147898115292235 
844	 0,147252613349182 
845	 0,146768844721413 
846	 0,146991207307573 
847	 0,14746278259041 
848	 0,147833385348347 
849	 0,147702843830302 
850	 0,147617795205305 
851	 0,147701583526402 
852	 0,147865204165957 
853	 0,147966733646822 
854	 0,147926582183205 
855	 0,147796405515661 
856	 0,147773074713728 
857	 0,148103239381601 
858	 0,148294607939386 
859	 0,148334228400194 
860	 0,148710902746925 
861	 0,148603749842424 
862	 0,147778098221758 
863	 0,147704339707445 
864	 0,147917730987691 
865	 0,147618502468835 
866	 0,147898072899504 
867	 0,148589270104332 
868	 0,148434989079479 
869	 0,148293937277229 
870	 0,148413033439184 
871	 0,14762803440152 
872	 0,14687437247271 
873	 0,147343500364878 
874	 0,147755506954338 
875	 0,147775902776042 
876	 0,1472063425964 
877	 0,147295505017916 
878	 0,148302087433215 
879	 0,148302857115585 
880	 0,148055041534754 
881	 0,148493885838499 
882	 0,148649399815896 
883	 0,148415217993243 
884	 0,147964596790325 
885	 0,147659386431069 
886	 0,147785887995993 
887	 0,148846366081662 
888	 0,149951095011044 
889	 0,150205136610072 
890	 0,149505624643665 
891	 0,148448857186111 
892	 0,148278070487977 
893	 0,148780607997597 
894	 0,149561264492316 
895	 0,149078535274262 
896	 0,148860899588459 
897	 0,149941479562169 
898	 0,149815428714166 
899	 0,149049336844932 
900	 0,149346061304068 
901	 0,149508043013206 
902	 0,149291703874947 
903	 0,148947327167359 
904	 0,149172185137964 
905	 0,150198759179843 
906	 0,150284438615706 
907	 0,149998740563209 
908	 0,150457139025372 
909	 0,150345113644285 
910	 0,14978933820626 
911	 0,150169044007956 
912	 0,150704440450232 
913	 0,150887206205823 
914	 0,150015292553234 
915	 0,149287814345542 
916	 0,150024769058471 
917	 0,15063683380154 
918	 0,15081921129596 
919	 0,150699689039127 
920	 0,150436850781565 
921	 0,150173470125737 
922	 0,150097982495869 
923	 0,150325538024966 
924	 0,150804268048428 
925	 0,150083045892458 
926	 0,149123630644669 
927	 0,150060002027828 
928	 0,150813984364341 
929	 0,150816377646454 
930	 0,150302730583057 
931	 0,149890284510231 
932	 0,14990739734918 
933	 0,149771009725087 
934	 0,149434308261788 
935	 0,148941899844579 
936	 0,148840109794782 
937	 0,149053083709009 
938	 0,148984866813706 
939	 0,149029379453257 
940	 0,149155801933334 
941	 0,148450081122828 
942	 0,147966070723076 
943	 0,148534685969465 
944	 0,148373492263098 
945	 0,147578911435436 
946	 0,146834155238434 
947	 0,147314853224404 
948	 0,148669975382496 
949	 0,148345232261576 
950	 0,147349012159687 
951	 0,146391077612533 
952	 0,145814026347275 
953	 0,145897901536006 
954	 0,146792002795022 
955	 0,146083592789645 
956	 0,144222502305162 
957	 0,143612865985736 
958	 0,143823452251492 
959	 0,144777961550712 
960	 0,146794424502702 
961	 0,147292384960071 
962	 0,144718229304247 
963	 0,143210595583785 
964	 0,143275216293553 
965	 0,14462733756542 
966	 0,144883525075187 
967	 0,144024755361868 
968	 0,144020442870662 
969	 0,145089899059049 
970	 0,146688914759011 
971	 0,145269620373768 
972	 0,143638111995543 
973	 0,14436547489608 
974	 0,14416611140913 
975	 0,143802973949559 
976	 0,145589621015002 
977	 0,146242852545292 
978	 0,145145663434611 
979	 0,143211864233884 
980	 0,143381378681418 
981	 0,146218268776541 
982	 0,14551430229174 
983	 0,143411205625322 
984	 0,142709084434359 
985	 0,143957822527641 
986	 0,145716366623884 
987	 0,144892861265664 
988	 0,145456163904401 
989	 0,147294020182685 
990	 0,145758568729839 
991	 0,144199177134062 
992	 0,144521836176795 
993	 0,146704158119951 
994	 0,148253827864612 
995	 0,14681070459867 
996	 0,145357142031652 
997	 0,145334029440532 
998	 0,14837802728083 
999	 0,149374569895968 
1000	 0,147833228699774 
1001	 0,148030973939908 
1002	 0,147486423613989 
1003	 0,145945091222513 
1004	 0,149225695200489 
1005	 0,152320798451081 
1006	 0,150347889230896 
1007	 0,148856639642285 
1008	 0,14929805829256 
1009	 0,152436270052291 
1010	 0,154216491128983 
1011	 0,153707338268157 
1012	 0,151807217796482 
1013	 0,151005688498847 
1014	 0,151984394747304 
1015	 0,151586583292367 
1016	 0,15022102307672 
1017	 0,148608245083322 
1018	 0,14836679398491 
1019	 0,149919777604264 
1020	 0,153289380984846 
1021	 0,154311757751482 
1022	 0,153183748689866 
1023	 0,153723630177532 
1024	 0,152585225211948 
1025	 0,150537590428881 
1026	 0,156378006614732 
1027	 0,158807161963525 
1028	 0,151993033982599 
1029	 0,150281519080125 
1030	 0,151729809061912 
1031	 0,152382994410821 
1032	 0,157504986472415 
1033	 0,163369057510498 
1034	 0,161159778783675 
1035	 0,157696192737888 
1036	 0,1554736010525 
1037	 0,155656516269386 
1038	 0,156042939779715 
1039	 0,155532248573344 
1040	 0,154555581278294 
1041	 0,153158057354765 
1042	 0,151901438220179 
1043	 0,155507994543293 
1044	 0,158052331929545 
1045	 0,151638131973449 
1046	 0,159056456698774 
1047	 0,172557345487788 
1048	 0,161892360627187 
1049	 0,159010659241575 
1050	 0,167981034553826 
1051	 0,165151952269557 
1052	 0,159365214256364 
1053	 0,155567234598891 
1054	 0,153241320365612 
1055	 0,154330675409858 
1056	 0,158873268425868 
1057	 0,152068865956488 
1058	 0,144857228619183 
1059	 0,154681611778689 
1060	 0,167043711083698 
1061	 0,177445456861223 
1062	 0,183175829906137 
1063	 0,170392946896217 
1064	 0,148338870900567 
1065	 0,165280180332674 
1066	 0,175953464375295 
1067	 0,164592394232511 
1068	 0,157945127029412 
1069	 0,155143871892452 
1070	 0,154425490186318 
1071	 0,153909480335172 
1072	 0,153397011738495 
1073	 0,153316117582508 
1074	 0,15836415920094 
1075	 0,166366911419438 
