Wavelength	MORB100531.asd
325	 0,282293349597611 
326	 0,209281583776236 
327	 0,122145378677001 
328	 9,78231418099098E-02 
329	 0,128206270287124 
330	 9,42767928462504E-02 
331	-7,90968735109775E-02 
332	-7,30191982829885E-02 
333	 5,98541027561052E-02 
334	 8,49642329865017E-02 
335	 0,025225426555322 
336	-8,29143093221337E-02 
337	-3,33876839460596E-02 
338	 6,99235124369038E-02 
339	 0,117765751646791 
340	 0,085341881993987 
341	 0,028913661712102 
342	 7,06729469176252E-02 
343	 8,21905229097746E-02 
344	 4,20082647269223E-02 
345	 0,059246514812188 
346	 0,08294074496699 
347	 6,66349489788037E-02 
348	 3,82289600043031E-02 
349	 2,04311529555064E-02 
350	 5,62496565927979E-02 
351	 5,77023289538991E-02 
352	 1,17056607514623E-02 
353	 2,87486880356697E-02 
354	 6,49770835624977E-02 
355	 0,065194932998771 
356	 0,050097527482975 
357	 3,35894889249982E-02 
358	 4,44041179059412E-02 
359	 5,10974230636978E-02 
360	 4,34298316456483E-02 
361	 6,27200197228627E-02 
362	 8,29020669869476E-02 
363	 6,78991381819161E-02 
364	 5,03304260135389E-02 
365	 3,49677847125128E-02 
366	 2,01181005267694E-02 
367	 2,30632571107205E-02 
368	 4,48827384965013E-02 
369	 3,27901730007587E-02 
370	 8,57890640728621E-03 
371	 2,42018191583021E-02 
372	 4,08161790111766E-02 
373	 4,65731144618669E-02 
374	 4,08451526618861E-02 
375	 3,11579830357009E-02 
376	 2,42884663759947E-02 
377	 3,13352137001406E-02 
378	 4,49573162343036E-02 
379	 4,88349451228443E-02 
380	 4,49706350258252E-02 
381	 3,64221434074308E-02 
382	 3,96550305038696E-02 
383	 2,91186662208578E-02 
384	-1,59505729757663E-02 
385	-3,91237771344938E-03 
386	 4,51954721211272E-02 
387	 4,71665537601907E-02 
388	 3,60523802126541E-02 
389	 2,57317030908463E-02 
390	 2,12751524544151E-02 
391	 0,017756443537977 
392	 8,84518395573002E-03 
393	 1,39628732147827E-02 
394	 2,87505314512574E-02 
395	 2,79150561913279E-02 
396	 3,04028093034955E-02 
397	 4,39428202025893E-02 
398	 0,052327199422204 
399	 5,29708775756603E-02 
400	 4,54337354103629E-02 
401	 3,03056712242364E-02 
402	 1,49270742384273E-02 
403	 1,40395937463937E-02 
404	 2,06310601846053E-02 
405	 2,81237679070388E-02 
406	 2,34368808150234E-02 
407	 0,014506577024056 
408	 2,13619509464948E-02 
409	 2,86553723445783E-02 
410	 3,15663127543303E-02 
411	 2,97436472288207E-02 
412	 2,70503756821808E-02 
413	 2,69468223802659E-02 
414	 2,50585451464665E-02 
415	 2,16052550155102E-02 
416	 1,81855000873441E-02 
417	 1,89875098625936E-02 
418	 2,35923011008688E-02 
419	 1,77692293157661E-02 
420	 1,24272862916285E-02 
421	 2,27885532013268E-02 
422	 2,73440445949732E-02 
423	 2,34398686998965E-02 
424	 0,018744547580332 
425	 0,016844155992391 
426	 1,95236766993534E-02 
427	 2,14463557974838E-02 
428	 2,31186141885437E-02 
429	 2,72779882544321E-02 
430	 2,69812466280687E-02 
431	 2,19327122337238E-02 
432	 2,01092953177866E-02 
433	 2,04999542344083E-02 
434	 2,16179504394055E-02 
435	 1,99316055934748E-02 
436	 1,74507439841281E-02 
437	 2,14588904785935E-02 
438	 2,38247374802931E-02 
439	 2,18779267052693E-02 
440	 2,00110691032281E-02 
441	 2,12955687496623E-02 
442	 2,89145035202475E-02 
443	 3,00201363762273E-02 
444	 2,44638562496931E-02 
445	 2,25200736973136E-02 
446	 2,27369727268442E-02 
447	 2,40561535174167E-02 
448	 2,49781435779587E-02 
449	 2,50067075529144E-02 
450	 2,39403485726537E-02 
451	 2,10209817267447E-02 
452	 1,76939568513653E-02 
453	 2,13107797030854E-02 
454	 2,41707232165977E-02 
455	 1,94917539181367E-02 
456	 1,91547109531129E-02 
457	 2,31146832989042E-02 
458	 2,52636375906286E-02 
459	 2,60317910851654E-02 
460	 0,025375994837525 
461	 2,32729192731948E-02 
462	 2,15286990813559E-02 
463	 2,24260083563239E-02 
464	 2,28169011882112E-02 
465	 2,22858999704653E-02 
466	 2,25475062882762E-02 
467	 2,20670930454312E-02 
468	 2,03407254709045E-02 
469	 2,24280932860161E-02 
470	 2,60722884422637E-02 
471	 2,54343490430388E-02 
472	 2,52253787196368E-02 
473	 2,61625279455791E-02 
474	 2,44113165254151E-02 
475	 2,19847778615905E-02 
476	 2,10889462447169E-02 
477	 2,19272379757363E-02 
478	 0,023459075777284 
479	 2,24701321718529E-02 
480	 2,30677242852353E-02 
481	 2,62090256579641E-02 
482	 2,48211133967091E-02 
483	 2,17762168483011E-02 
484	 2,23784935444537E-02 
485	 2,25511540154008E-02 
486	 2,20981198782756E-02 
487	 2,45428835687098E-02 
488	 2,62842085953004E-02 
489	 2,47421277960458E-02 
490	 2,27721610146928E-02 
491	 2,15447258591069E-02 
492	 0,022751471849249 
493	 2,30931626259875E-02 
494	 2,16216050752642E-02 
495	 2,02016459165299E-02 
496	 1,94687718630408E-02 
497	 1,99271458128514E-02 
498	 1,97794205755853E-02 
499	 1,92691234531295E-02 
500	 2,06638343263925E-02 
501	 2,14107069344645E-02 
502	 0,020472986322305 
503	 2,21023098106584E-02 
504	 2,43815961530215E-02 
505	 2,31222173354286E-02 
506	 2,19788925339663E-02 
507	 0,021777911764849 
508	 2,05714400366313E-02 
509	 2,08947838668752E-02 
510	 2,47145371374863E-02 
511	 2,51875315337366E-02 
512	 2,28423711722834E-02 
513	 2,24795179789372E-02 
514	 2,26344974327054E-02 
515	 2,27481829439704E-02 
516	 0,022925470988749 
517	 2,26323555494493E-02 
518	 2,11111629586948E-02 
519	 2,08828349670079E-02 
520	 2,21534529204049E-02 
521	 2,33498505503983E-02 
522	 0,02324631412998 
523	 2,12641524137828E-02 
524	 0,020970932309655 
525	 2,19529858321992E-02 
526	 2,18811874966511E-02 
527	 2,20437179052381E-02 
528	 2,27049050885374E-02 
529	 2,32917930482507E-02 
530	 0,023184741868121 
531	 2,17764809061308E-02 
532	 0,021611783630798 
533	 2,25175631848813E-02 
534	 2,18484962230321E-02 
535	 2,15796231482186E-02 
536	 2,25982001442113E-02 
537	 2,20774621040288E-02 
538	 2,07955886393365E-02 
539	 2,08191994455465E-02 
540	 2,11825986920791E-02 
541	 2,16817438949806E-02 
542	 0,02291365069443 
543	 2,32195677570132E-02 
544	 2,11402572230327E-02 
545	 2,00775234088222E-02 
546	 2,05825356154189E-02 
547	 2,22131931658043E-02 
548	 2,29678946802472E-02 
549	 2,19919686260008E-02 
550	 2,12678868950515E-02 
551	 0,021079707475137 
552	 2,14581004440988E-02 
553	 2,19945632728584E-02 
554	 2,24062305404554E-02 
555	 0,022254911957711 
556	 2,20347231401301E-02 
557	 2,21329082270715E-02 
558	 0,021813367740098 
559	 2,14422275251926E-02 
560	 2,22945060259929E-02 
561	 2,30143506706873E-02 
562	 2,29941000151988E-02 
563	 2,22077399047502E-02 
564	 2,15539481620965E-02 
565	 2,21815066780508E-02 
566	 2,26999316142452E-02 
567	 2,28895066416788E-02 
568	 2,33072470012033E-02 
569	 2,39243278047401E-02 
570	 2,46839254399604E-02 
571	 2,52672652297743E-02 
572	 2,56199592470669E-02 
573	 2,57506999733327E-02 
574	 2,59056769568815E-02 
575	 0,026142434829347 
576	 2,61745257090517E-02 
577	 2,62113656672468E-02 
578	 0,026495894606405 
579	 2,64390507897145E-02 
580	 2,62019621306853E-02 
581	 2,67029524711759E-02 
582	 2,73083101290828E-02 
583	 2,75648956207755E-02 
584	 0,026971271717353 
585	 2,62568080161618E-02 
586	 2,68310966261886E-02 
587	 2,71186747837646E-02 
588	 2,68103120224946E-02 
589	 2,68104740294019E-02 
590	 2,69713741745072E-02 
591	 2,71138751360461E-02 
592	 2,72445751227952E-02 
593	 2,71441325608687E-02 
594	 2,61766799874764E-02 
595	 0,025449888484704 
596	 2,54802449469891E-02 
597	 2,58371191462804E-02 
598	 2,59235181229502E-02 
599	 2,49340067578905E-02 
600	 2,42303070682888E-02 
601	 2,42364531637877E-02 
602	 2,49006783085612E-02 
603	 2,55053079952964E-02 
604	 2,54447477843223E-02 
605	 2,46278546379712E-02 
606	 2,36752381448129E-02 
607	 2,41197873131384E-02 
608	 2,45386401291268E-02 
609	 2,43930062364886E-02 
610	 2,40290788101637E-02 
611	 0,023504672629277 
612	 2,28631258543114E-02 
613	 2,28423744794688E-02 
614	 2,32921563773251E-02 
615	 2,31291755961728E-02 
616	 2,25989654123714E-02 
617	 2,20029524812113E-02 
618	 2,25400772995168E-02 
619	 2,35863298888997E-02 
620	 2,36154424572044E-02 
621	 2,33897597372334E-02 
622	 0,023232704697671 
623	 2,35753016277638E-02 
624	 0,023819803459207 
625	 2,33598381273236E-02 
626	 0,023159071829717 
627	 0,023423598648087 
628	 2,41090686830704E-02 
629	 2,48058202504633E-02 
630	 2,52134668988629E-02 
631	 0,024995537015523 
632	 2,47661224581752E-02 
633	 2,55682449075628E-02 
634	 2,62081745909764E-02 
635	 2,64797777278826E-02 
636	 2,71082896029833E-02 
637	 2,77327960733622E-02 
638	 2,80543868426817E-02 
639	 2,85452044637759E-02 
640	 0,02912883090088 
641	 2,93845886168401E-02 
642	 2,96711623596223E-02 
643	 3,00975666870227E-02 
644	 3,03836301192717E-02 
645	 3,06612736732978E-02 
646	 3,11302312569804E-02 
647	 3,14989585315548E-02 
648	 3,17907907759343E-02 
649	 3,23621200822997E-02 
650	 3,29496934873492E-02 
651	 3,33219156933576E-02 
652	 3,31097684070545E-02 
653	 3,26595149611525E-02 
654	 3,27790714748614E-02 
655	 3,28075385016364E-02 
656	 3,25869966840279E-02 
657	 0,032434322132208 
658	 3,23647907508248E-02 
659	 3,23611723848847E-02 
660	 3,20285105486327E-02 
661	 3,15205238415347E-02 
662	 3,15664319287548E-02 
663	 3,14449377641373E-02 
664	 3,08303369431768E-02 
665	 3,01924238385321E-02 
666	 2,96539174214775E-02 
667	 2,92989488326938E-02 
668	 2,92029704464726E-02 
669	 2,91570256931195E-02 
670	 0,028205221257915 
671	 2,75935138955097E-02 
672	 2,82564726334774E-02 
673	 2,87237991035934E-02 
674	 2,87820715477897E-02 
675	 0,028649093257557 
676	 2,80955562875184E-02 
677	 0,027305830752539 
678	 2,76044752478671E-02 
679	 2,83204864943581E-02 
680	 2,85298596361103E-02 
681	 2,80006321660635E-02 
682	 2,72380755390663E-02 
683	 2,81149103475117E-02 
684	 2,87460199850422E-02 
685	 2,81729471069083E-02 
686	 2,83323221877049E-02 
687	 2,89920228319478E-02 
688	 2,92586732383896E-02 
689	 2,97989679248369E-02 
690	 3,07172717718299E-02 
691	 3,15770535044614E-02 
692	 3,25887261153724E-02 
693	 3,39416532642438E-02 
694	 3,53947021640251E-02 
695	 3,69194331150975E-02 
696	 3,85394676485951E-02 
697	 4,03133112769581E-02 
698	 4,24548551245042E-02 
699	 4,59097604401907E-02 
700	 4,98692013078871E-02 
701	 5,31953188252333E-02 
702	 5,69531378466336E-02 
703	 6,11427136351066E-02 
704	 6,48323194187864E-02 
705	 6,89258853437716E-02 
706	 7,39112584660638E-02 
707	 7,88075486801853E-02 
708	 8,35029669946065E-02 
709	 8,80643562843437E-02 
710	 9,27135804728439E-02 
711	 9,74973095456868E-02 
712	 0,102331432092081 
713	 0,106770516465247 
714	 0,110484929523733 
715	 0,114800078816957 
716	 0,119538015606875 
717	 0,123662715941186 
718	 0,127076299730287 
719	 0,129868271670816 
720	 0,133051930251129 
721	 0,136380023032604 
722	 0,139402769192396 
723	 0,142469045360417 
724	 0,145415221701668 
725	 0,147444965044848 
726	 0,149379579711332 
727	 0,15169132778366 
728	 0,153728728677071 
729	 0,155470447425525 
730	 0,157046759653981 
731	 0,158382585525731 
732	 0,159581280643306 
733	 0,161080902284392 
734	 0,162641914896008 
735	 0,164023534203277 
736	 0,165062663394638 
737	 0,165903541380243 
738	 0,167002757278476 
739	 0,167949442627822 
740	 0,168611512646166 
741	 0,16917681346835 
742	 0,169661648617325 
743	 0,170071872028884 
744	 0,170760178172462 
745	 0,171584134219061 
746	 0,171825897547648 
747	 0,1721556815483 
748	 0,172864540946568 
749	 0,173316567054234 
750	 0,173481283107736 
751	 0,173424249174392 
752	 0,173534799234035 
753	 0,173847152067382 
754	 0,173983150560539 
755	 0,174078634881947 
756	 0,174255363887661 
757	 0,174670954274014 
758	 0,17514400025859 
759	 0,175273026741031 
760	 0,175312274883449 
761	 0,175367511465143 
762	 0,175536778541506 
763	 0,175629180137034 
764	 0,175495445092909 
765	 0,17573747645159 
766	 0,176282437367642 
767	 0,176659429875472 
768	 0,176938676594444 
769	 0,177099139020774 
770	 0,176990205948863 
771	 0,176845946204195 
772	 0,176945295520203 
773	 0,176970936959035 
774	 0,176993034659779 
775	 0,177462429906863 
776	 0,177865855735445 
777	 0,177938870772711 
778	 0,177897264912951 
779	 0,177880572409741 
780	 0,178054378550225 
781	 0,178083166309554 
782	 0,177991246774141 
783	 0,178202726662566 
784	 0,17841946000411 
785	 0,178468203325057 
786	 0,178690622368326 
787	 0,178915568846558 
788	 0,17877309114669 
789	 0,178432735806684 
790	 0,178087518671464 
791	 0,178270527975456 
792	 0,178469067811605 
793	 0,178285091827173 
794	 0,178214314041271 
795	 0,178210249029272 
796	 0,177980236005268 
797	 0,177873138282817 
798	 0,178006024388162 
799	 0,178325863856002 
800	 0,178604597883663 
801	 0,178628961232085 
802	 0,178446987585932 
803	 0,178213665253962 
804	 0,178241589766717 
805	 0,178481167877798 
806	 0,178894961676524 
807	 0,179353263760672 
808	 0,179754622915134 
809	 0,180003458906464 
810	 0,180039372775912 
811	 0,179992703993362 
812	 0,180189782411834 
813	 0,180699547447626 
814	 0,181375287195172 
815	 0,18117006540066 
816	 0,180763147057956 
817	 0,181053043629495 
818	 0,18120823163874 
819	 0,181271313802666 
820	 0,181990023643837 
821	 0,182374841037984 
822	 0,182057652160206 
823	 0,181980554108655 
824	 0,18218795938364 
825	 0,182599422320834 
826	 0,182688661762391 
827	 0,18255604287823 
828	 0,183021225341265 
829	 0,183264634202276 
830	 0,182970600823446 
831	 0,183051636741774 
832	 0,183416488498379 
833	 0,183802119069458 
834	 0,18371075944055 
835	 0,183328582439819 
836	 0,183768133778101 
837	 0,183958791756571 
838	 0,183447110454237 
839	 0,183324729086675 
840	 0,183727509571157 
841	 0,184650944988792 
842	 0,185010558596664 
843	 0,184717178100139 
844	 0,184495285170359 
845	 0,184506886176561 
846	 0,184832114057125 
847	 0,185247522534077 
848	 0,185381349767686 
849	 0,184780313441265 
850	 0,184378258581672 
851	 0,18441623589083 
852	 0,184835521816133 
853	 0,184924997323539 
854	 0,18449815577195 
855	 0,18531099588885 
856	 0,186287835905693 
857	 0,18573523841017 
858	 0,185283372815215 
859	 0,185304541688135 
860	 0,185707703797551 
861	 0,185608544149612 
862	 0,184732072763494 
863	 0,184692859643059 
864	 0,184879462648501 
865	 0,184295968427214 
866	 0,184700106549424 
867	 0,185787500317428 
868	 0,185386073567444 
869	 0,184943381976094 
870	 0,185062414448281 
871	 0,184856409099714 
872	 0,184853733435027 
873	 0,185725719028819 
874	 0,186304635448571 
875	 0,186359953047731 
876	 0,18599824584386 
877	 0,185899896931487 
878	 0,186334237993561 
879	 0,186891659064536 
880	 0,187146152043107 
881	 0,186727007685721 
882	 0,186562407583311 
883	 0,186605337214547 
884	 0,186043515848086 
885	 0,186289671972146 
886	 0,187573181609072 
887	 0,188347402219206 
888	 0,188468219133692 
889	 0,187969323666733 
890	 0,187860925421251 
891	 0,188046199179878 
892	 0,187802518233332 
893	 0,187919873613315 
894	 0,188451415110616 
895	 0,188510187117825 
896	 0,188348598821709 
897	 0,188222426824705 
898	 0,188349004910754 
899	 0,188603596329411 
900	 0,188694377323303 
901	 0,188701461462852 
902	 0,188745608031981 
903	 0,189183731304107 
904	 0,189698101096235 
905	 0,190038782018103 
906	 0,190049163206302 
907	 0,189857861232295 
908	 0,189684166250107 
909	 0,188851843672876 
910	 0,187803926491135 
911	 0,188368889371982 
912	 0,189120075495932 
913	 0,189272930676707 
914	 0,188550102393196 
915	 0,188097917912465 
916	 0,18910588831721 
917	 0,189263787618222 
918	 0,188732766436501 
919	 0,189209474268871 
920	 0,189394416240498 
921	 0,188888062348683 
922	 0,18796542727831 
923	 0,187403172338771 
924	 0,187717041821131 
925	 0,187368727624779 
926	 0,186709087264973 
927	 0,186842965248647 
928	 0,186622438006769 
929	 0,185900974977484 
930	 0,185300657101324 
931	 0,185180305542509 
932	 0,185489130909413 
933	 0,184254162281924 
934	 0,182931101481705 
935	 0,183564316453397 
936	 0,182749580558632 
937	 0,180912716621333 
938	 0,18149238231091 
939	 0,181831278588887 
940	 0,18091385381539 
941	 0,17896982056395 
942	 0,177778167873189 
943	 0,178671736773308 
944	 0,178840124470746 
945	 0,177940236592946 
946	 0,176266920350116 
947	 0,175270199201788 
948	 0,174929398712937 
949	 0,173398559607919 
950	 0,171609872514752 
951	 0,170190447319966 
952	 0,169224992047098 
953	 0,168914869382417 
954	 0,16935470041001 
955	 0,167962404184816 
956	 0,165237494635179 
957	 0,163783469570521 
958	 0,163276822579262 
959	 0,163578821533924 
960	 0,164371279848719 
961	 0,164041925949203 
962	 0,1617422306233 
963	 0,160984876903435 
964	 0,161412003171402 
965	 0,161639419460684 
966	 0,162365416750308 
967	 0,162928462378519 
968	 0,161069787690743 
969	 0,158518338629035 
970	 0,156754350512352 
971	 0,159008594394945 
972	 0,160785997951203 
973	 0,158240445175433 
974	 0,157520575708263 
975	 0,158980089472745 
976	 0,161382910481391 
977	 0,161593482915176 
978	 0,159588028329772 
979	 0,158588852543745 
980	 0,159244423450985 
981	 0,161249421446402 
982	 0,160399122083421 
983	 0,159149877297834 
984	 0,16020690329589 
985	 0,161092327196523 
986	 0,161193681847718 
987	 0,160140554191624 
988	 0,1607165283012 
989	 0,162605860011352 
990	 0,161349440353142 
991	 0,160938976418778 
992	 0,162885419487561 
993	 0,162898251610248 
994	 0,161737142164435 
995	 0,160768235333513 
996	 0,162369969626761 
997	 0,164951721781974 
998	 0,164627024174204 
999	 0,16369572656853 
1000	 0,162990500744872 
1001	 0,1629756791071 
1002	 0,16336302766933 
1003	 0,164168888288168 
1004	 0,166611263067502 
1005	 0,168134702247151 
1006	 0,166475981045101 
1007	 0,164795867996644 
1008	 0,165574051288095 
1009	 0,172085772762727 
1010	 0,171495655521787 
1011	 0,165460464930596 
1012	 0,171808654195083 
1013	 0,176173827006977 
1014	 0,173521004750568 
1015	 0,172554828726562 
1016	 0,173190926693394 
1017	 0,174732560446669 
1018	 0,174964345225694 
1019	 0,17432753144228 
1020	 0,174089641826441 
1021	 0,176444022652263 
1022	 0,178810757459289 
1023	 0,171949637151422 
1024	 0,169227155544144 
1025	 0,174062667783163 
1026	 0,178595452151866 
1027	 0,179623950218605 
1028	 0,176314297863256 
1029	 0,177625691569721 
1030	 0,180517216413116 
1031	 0,180483311062525 
1032	 0,182120963574819 
1033	 0,184948126024567 
1034	 0,186522120913005 
1035	 0,185115230436751 
1036	 0,182403982810979 
1037	 0,186390163624146 
1038	 0,187882346391634 
1039	 0,184572359147702 
1040	 0,188876454359718 
1041	 0,19028961098679 
1042	 0,181776923880725 
1043	 0,18390200813734 
1044	 0,189658418345603 
1045	 0,186212075931533 
1046	 0,189614416898753 
1047	 0,194895920483508 
1048	 0,181797187624388 
1049	 0,181688644813141 
1050	 0,196254457907426 
1051	 0,193737035662919 
1052	 0,18667112311525 
1053	 0,18313329889847 
1054	 0,189169210723723 
1055	 0,194633477673696 
1056	 0,19122652302122 
1057	 0,193058821267711 
1058	 0,192709704407362 
1059	 0,178905656003838 
1060	 0,182396069223947 
1061	 0,196121315315753 
1062	 0,188592726145733 
1063	 0,187234829593918 
1064	 0,196197211618409 
1065	 0,199167956097147 
1066	 0,201361696838318 
1067	 0,2026680025403 
1068	 0,190639882909203 
1069	 0,179835574980055 
1070	 0,181238520008164 
1071	 0,181224396195273 
1072	 0,181527251217801 
1073	 0,185274521223767 
1074	 0,177333966453487 
1075	 0,175138807481803 
