Wavelength	MORB100269.asd
325	 0,211935211078741 
326	 0,192501236715965 
327	 0,167363542943526 
328	 0,13095986017609 
329	 6,59348919040805E-02 
330	-1,20517236013569E-02 
331	-0,102266717631597 
332	-5,49582299994352E-02 
333	 5,94217251624435E-02 
334	 3,57736044713161E-02 
335	 3,20056164259376E-02 
336	 6,74569791312128E-02 
337	 7,06352868789417E-03 
338	-2,59101387418531E-02 
339	 5,32099158442915E-02 
340	 4,55956654008225E-02 
341	 1,13074607300762E-02 
342	 0,145508970738978 
343	 0,14532198859888 
344	-1,91241651077094E-02 
345	 6,67683902246942E-02 
346	 0,153666761757274 
347	 2,08554095649425E-02 
348	-0,063159811079137 
349	-4,65972790970527E-02 
350	 2,33578932256172E-02 
351	 5,36672703563586E-02 
352	 3,09672515779386E-02 
353	 0,058284946886036 
354	 8,51809481905181E-02 
355	 5,26630441342595E-02 
356	 2,15701337035759E-02 
357	 1,08667733851233E-02 
358	 3,51217748616623E-02 
359	 0,048380709784016 
360	 3,25886811207057E-02 
361	 2,73122154291907E-02 
362	 3,42607316323256E-02 
363	 4,90032604051184E-02 
364	 3,51083003443726E-02 
365	 1,49905588307364E-04 
366	 3,13501201233655E-02 
367	 5,06469583549471E-02 
368	 2,11515254341392E-02 
369	 1,62773053472644E-02 
370	 2,87876648046483E-02 
371	 0,028411534905621 
372	 3,96152921282636E-02 
373	 5,73063992621968E-02 
374	 3,39685787981497E-02 
375	 1,41914192913983E-02 
376	 3,03365078050785E-02 
377	 0,049342331418372 
378	 5,85102690522399E-02 
379	 4,63954133849303E-02 
380	 0,03044251076035 
381	 0,020033213627349 
382	 0,025925019942323 
383	 0,03414959421259 
384	 3,11917171574607E-02 
385	 3,43133055398174E-02 
386	 4,07221966113552E-02 
387	 3,67528300033518E-02 
388	 3,25389926526241E-02 
389	 3,01877662503353E-02 
390	 1,58777234820185E-02 
391	 2,52958993721927E-03 
392	 6,8752251531341E-03 
393	 7,77237261397834E-03 
394	 5,62468940249734E-03 
395	 0,017635973272761 
396	 2,28691666260047E-02 
397	 1,34912829232832E-02 
398	 1,52010375887232E-02 
399	 2,13348020995575E-02 
400	 1,82547028841813E-02 
401	 0,02286025411384 
402	 3,22014745460537E-02 
403	 2,18191011035952E-02 
404	 1,25982906480799E-02 
405	 1,82444785465831E-02 
406	 1,84213354834904E-02 
407	 1,52101386130802E-02 
408	 1,88982627315942E-02 
409	 0,021460061724166 
410	 2,16373365753314E-02 
411	 2,49729039230565E-02 
412	 0,026467529079397 
413	 2,17351535176971E-02 
414	 2,12912460256801E-02 
415	 2,35130312028702E-02 
416	 1,91908536072003E-02 
417	 1,53855864707546E-02 
418	 1,40928869224762E-02 
419	 7,71095478861452E-03 
420	 3,1064970667892E-03 
421	 9,64754104748027E-03 
422	 1,58258619229873E-02 
423	 1,71028478203837E-02 
424	 6,69723723645521E-03 
425	 3,33134096890529E-03 
426	 1,58616643368798E-02 
427	 1,76959425921166E-02 
428	 1,32898867607883E-02 
429	 1,67891116042795E-02 
430	 1,91054776345259E-02 
431	 1,81506244857326E-02 
432	 1,56758091746719E-02 
433	 1,49867916259272E-02 
434	 1,82475887170628E-02 
435	 1,41122804394499E-02 
436	 6,90401113424534E-03 
437	 1,31340916097125E-02 
438	 1,84962696625278E-02 
439	 1,77942308648559E-02 
440	 1,64227476253295E-02 
441	 1,62714572618199E-02 
442	 1,90545224739538E-02 
443	 2,11114241087732E-02 
444	 2,11031327811717E-02 
445	 1,77703669577434E-02 
446	 1,47269563046001E-02 
447	 1,44054627057215E-02 
448	 1,64998501273917E-02 
449	 1,86753823305161E-02 
450	 1,69375564782133E-02 
451	 1,45798017097562E-02 
452	 1,35803486614978E-02 
453	 1,78795605421209E-02 
454	 2,09426025926243E-02 
455	 1,70643671539948E-02 
456	 1,53019575830835E-02 
457	 1,64150381045756E-02 
458	 1,76574881012346E-02 
459	 1,78145143285235E-02 
460	 1,64496767740901E-02 
461	 1,51501934091666E-02 
462	 1,49093323303472E-02 
463	 1,67800720943498E-02 
464	 1,65119496863776E-02 
465	 1,46272196486523E-02 
466	 1,70443848046741E-02 
467	 1,91910719090733E-02 
468	 1,82852607476345E-02 
469	 1,86642341084511E-02 
470	 1,95723903111638E-02 
471	 0,018272774591364 
472	 1,70978468443891E-02 
473	 1,66986922018653E-02 
474	 1,63654438778992E-02 
475	 1,57220436968711E-02 
476	 1,44911584902409E-02 
477	 1,39448631061374E-02 
478	 1,42717972344317E-02 
479	 1,50313050542704E-02 
480	 0,016761812253034 
481	 1,91964145183902E-02 
482	 1,98252238674121E-02 
483	 1,83571649030278E-02 
484	 1,46578978645854E-02 
485	 1,37755135735235E-02 
486	 1,61463803287287E-02 
487	 1,75816194643344E-02 
488	 1,83509831062489E-02 
489	 1,86026811282991E-02 
490	 1,71812558200546E-02 
491	 1,49607564930578E-02 
492	 1,41280044264454E-02 
493	 1,39987936334981E-02 
494	 1,41899627313982E-02 
495	 1,36667033322053E-02 
496	 1,32889916763745E-02 
497	 1,40896527033117E-02 
498	 1,45795460332397E-02 
499	 1,48909277851368E-02 
500	 1,68919149867039E-02 
501	 1,73064922059886E-02 
502	 1,48625820479603E-02 
503	 1,53241931987554E-02 
504	 1,71899532056768E-02 
505	 1,66189715750197E-02 
506	 1,54804786201144E-02 
507	 1,47707360879236E-02 
508	 1,64573729733164E-02 
509	 1,78009952465486E-02 
510	 1,64405148940574E-02 
511	 1,63799027657338E-02 
512	 1,72951309780026E-02 
513	 1,61813310923575E-02 
514	 0,01571667269243 
515	 1,67086074375199E-02 
516	 1,63940994399186E-02 
517	 1,56936231634288E-02 
518	 1,62543159421771E-02 
519	 1,66110201690557E-02 
520	 1,63334103722114E-02 
521	 1,51910454780343E-02 
522	 1,45282908921923E-02 
523	 1,52053253633677E-02 
524	 1,53697023624916E-02 
525	 1,51376317685686E-02 
526	 1,55134236488654E-02 
527	 1,56699512161287E-02 
528	 1,55109402449312E-02 
529	 0,016146756044816 
530	 1,66474570214809E-02 
531	 1,58983790659414E-02 
532	 1,52538739705795E-02 
533	 1,50974237647359E-02 
534	 0,015612029770652 
535	 1,58046640254193E-02 
536	 1,51740775503338E-02 
537	 1,48727160224057E-02 
538	 1,49373039753414E-02 
539	 1,51764979596099E-02 
540	 1,49993786444988E-02 
541	 1,44516161323368E-02 
542	 1,47325459251463E-02 
543	 1,51474925605088E-02 
544	 1,49915434876731E-02 
545	 1,49538850001919E-02 
546	 1,51378691637544E-02 
547	 1,55209511376453E-02 
548	 1,54659003668536E-02 
549	 1,48759688506547E-02 
550	 0,015552417567801 
551	 1,64487256940881E-02 
552	 1,56183322129905E-02 
553	 0,015264356803792 
554	 1,57763862408548E-02 
555	 1,61067783720908E-02 
556	 1,60112468204132E-02 
557	 0,015355342666675 
558	 1,47552459918011E-02 
559	 1,45520006494897E-02 
560	 1,53560593853012E-02 
561	 1,56952522939744E-02 
562	 1,51166434906886E-02 
563	 1,50233312209231E-02 
564	 1,51416190324485E-02 
565	 1,49324179752589E-02 
566	 1,53452484985856E-02 
567	 1,61626729867189E-02 
568	 1,57329344466406E-02 
569	 1,54384278252734E-02 
570	 1,61809000763917E-02 
571	 1,66794028742522E-02 
572	 1,68913363537758E-02 
573	 0,017202947066776 
574	 1,72944086155945E-02 
575	 1,72323653799912E-02 
576	 1,79575019006736E-02 
577	 1,85896805250728E-02 
578	 1,81041780261298E-02 
579	 0,018021587263732 
580	 1,84542149694121E-02 
581	 1,85450402029739E-02 
582	 1,88479084000587E-02 
583	 1,94667822073992E-02 
584	 1,86359640369665E-02 
585	 1,74595261221584E-02 
586	 1,82992126893494E-02 
587	 1,86961704049073E-02 
588	 1,82942038017871E-02 
589	 1,91095413093604E-02 
590	 1,98094849909917E-02 
591	 1,91395740811869E-02 
592	 1,85054530572844E-02 
593	 1,81853483181867E-02 
594	 1,80673631831185E-02 
595	 1,81611578490925E-02 
596	 1,83660233979213E-02 
597	 1,81266749046623E-02 
598	 0,017600002097035 
599	 1,71043547761851E-02 
600	 1,66968246075541E-02 
601	 1,65038894963446E-02 
602	 1,67903176314446E-02 
603	 1,73240929947619E-02 
604	 1,78303837027665E-02 
605	 1,74236009790759E-02 
606	 1,66720123581159E-02 
607	 0,017435622755198 
608	 1,77055212102437E-02 
609	 0,016933601903162 
610	 1,66836386300737E-02 
611	 1,66451510563823E-02 
612	 1,62749919734174E-02 
613	 1,64098646270016E-02 
614	 1,68625484524165E-02 
615	 1,63672199869963E-02 
616	 0,015760765015077 
617	 1,56150947129344E-02 
618	 1,58863682139816E-02 
619	 1,62604864646384E-02 
620	 1,61403621119478E-02 
621	 1,60151720305419E-02 
622	 1,60503091933254E-02 
623	 1,61932523951999E-02 
624	 1,64519291194415E-02 
625	 1,68167711863252E-02 
626	 1,67547570146142E-02 
627	 1,65262187399053E-02 
628	 1,72924038702631E-02 
629	 1,77923956299205E-02 
630	 1,74696245880871E-02 
631	 0,017398320258049 
632	 1,75703678637292E-02 
633	 1,77276113451867E-02 
634	 1,83526491112596E-02 
635	 1,93306723308276E-02 
636	 1,97362712975905E-02 
637	 1,97066081757153E-02 
638	 1,94645550103946E-02 
639	 2,00381180820748E-02 
640	 2,10429593570347E-02 
641	 2,10354967718091E-02 
642	 0,020759841637631 
643	 2,06578622868604E-02 
644	 2,16099159118416E-02 
645	 2,23965829580756E-02 
646	 2,13508056919545E-02 
647	 2,14582893682473E-02 
648	 2,29012899624249E-02 
649	 2,35166275165895E-02 
650	 2,39602580426363E-02 
651	 2,45949875002828E-02 
652	 2,46633294063766E-02 
653	 0,024345846041116 
654	 2,42199918919092E-02 
655	 2,39467486980649E-02 
656	 2,35585904049094E-02 
657	 2,36598296220678E-02 
658	 2,38083655522898E-02 
659	 2,35223917637218E-02 
660	 2,31210221766023E-02 
661	 2,28460949036411E-02 
662	 2,32570568417987E-02 
663	 2,33316518504987E-02 
664	 0,02257305995739 
665	 2,14382056245695E-02 
666	 2,07023266733894E-02 
667	 2,14564523749373E-02 
668	 0,0221180631723 
669	 2,21510948183495E-02 
670	 2,14602882241007E-02 
671	 2,10267267838592E-02 
672	 2,15407278440671E-02 
673	 2,13202941583464E-02 
674	 2,05835244642671E-02 
675	 2,06091271230921E-02 
676	 2,04360526519112E-02 
677	 1,98591163637815E-02 
678	 1,96868108221555E-02 
679	 1,97995520958807E-02 
680	 1,99694510936546E-02 
681	 1,94376351714968E-02 
682	 1,86058826913624E-02 
683	 1,93746618006424E-02 
684	 2,01086544814691E-02 
685	 1,99303691743638E-02 
686	 2,02120977914152E-02 
687	 0,020650764929694 
688	 2,03362904040779E-02 
689	 0,020717195559319 
690	 2,19038463395195E-02 
691	 2,23027655659747E-02 
692	 2,26267230773697E-02 
693	 2,35762398001891E-02 
694	 2,50122341987564E-02 
695	 0,026697871241937 
696	 2,80420886407492E-02 
697	 2,96596634305249E-02 
698	 3,18758604398374E-02 
699	 3,48432402896013E-02 
700	 3,82712764541727E-02 
701	 4,17640409952397E-02 
702	 4,57648803902215E-02 
703	 5,02025236672237E-02 
704	 5,44655900108595E-02 
705	 5,91211259275629E-02 
706	 6,44448439815731E-02 
707	 6,96670404584816E-02 
708	 0,074683797956679 
709	 7,94876492748794E-02 
710	 0,084705697224564 
711	 9,03057577099133E-02 
712	 9,52142397057588E-02 
713	 9,98132614813963E-02 
714	 0,104483290393321 
715	 0,108736019588145 
716	 0,112725439215511 
717	 0,117074681048012 
718	 0,121339811766785 
719	 0,1252501226754 
720	 0,128433153359316 
721	 0,131414180792193 
722	 0,134897359105039 
723	 0,137901969311839 
724	 0,140315334932593 
725	 0,142604810831216 
726	 0,144701870135087 
727	 0,146603071672984 
728	 0,14857116251504 
729	 0,150395969374775 
730	 0,151629638756592 
731	 0,152884786392104 
732	 0,154255866355655 
733	 0,155226323061681 
734	 0,156141667696664 
735	 0,157298311670632 
736	 0,158322934984639 
737	 0,159136853054611 
738	 0,159686693438176 
739	 0,160354350829427 
740	 0,161170049698757 
741	 0,161347008668429 
742	 0,161415240672505 
743	 0,162044725108423 
744	 0,162505130132807 
745	 0,162712229715866 
746	 0,162965374548094 
747	 0,163068037510909 
748	 0,162983858552957 
749	 0,163233684018175 
750	 0,163486690394698 
751	 0,163126148665486 
752	 0,163193065405402 
753	 0,163713874749027 
754	 0,163663257580041 
755	 0,163389344718364 
756	 0,163195077997959 
757	 0,163333695815266 
758	 0,163622979588346 
759	 0,163587440105726 
760	 0,163699470065256 
761	 0,163989052102848 
762	 0,163895123038233 
763	 0,163654637238029 
764	 0,163527295901254 
765	 0,163596512592807 
766	 0,16376741623159 
767	 0,163715787887421 
768	 0,163821108795544 
769	 0,164107506706147 
770	 0,163839699402303 
771	 0,163401815339018 
772	 0,163311324453469 
773	 0,163267589234462 
774	 0,163241881037709 
775	 0,163348908751324 
776	 0,163428295423031 
777	 0,163389202777365 
778	 0,16322918766443 
779	 0,163164225029632 
780	 0,163512842585929 
781	 0,163354002684711 
782	 0,162749077939908 
783	 0,162865701085374 
784	 0,16300963343087 
785	 0,162749829603526 
786	 0,162522625777475 
787	 0,162496803473745 
788	 0,16288106503747 
789	 0,163061486224588 
790	 0,162823079517734 
791	 0,162137342730261 
792	 0,16172319042421 
793	 0,162082813332334 
794	 0,16214375088152 
795	 0,161815425195319 
796	 0,16126435869471 
797	 0,161066344433854 
798	 0,161349496391594 
799	 0,161594457664041 
800	 0,161688155098074 
801	 0,161553244156999 
802	 0,161242161628724 
803	 0,160961342425153 
804	 0,161142976344405 
805	 0,161543189328529 
806	 0,162005385374385 
807	 0,162311554885953 
808	 0,16229654232696 
809	 0,161848212696159 
810	 0,161785012224485 
811	 0,162069270561249 
812	 0,162026103941334 
813	 0,162171275840619 
814	 0,16257918963617 
815	 0,162414842758518 
816	 0,162051833269404 
817	 0,162022331983584 
818	 0,162374743308652 
819	 0,162904006043198 
820	 0,162989418132537 
821	 0,162896471631184 
822	 0,162778156305171 
823	 0,162774450580379 
824	 0,162820880574216 
825	 0,162811679885303 
826	 0,162988964759429 
827	 0,163282169076845 
828	 0,163335502976519 
829	 0,16316544266515 
830	 0,162879902404457 
831	 0,163134576704296 
832	 0,163546972899217 
833	 0,163506251038228 
834	 0,163712334786832 
835	 0,164054413746088 
836	 0,163568401066057 
837	 0,163330469300775 
838	 0,163803218493476 
839	 0,163718300728282 
840	 0,163619496854631 
841	 0,164449795664292 
842	 0,164843842217068 
843	 0,16456620935865 
844	 0,164113522108738 
845	 0,163441524918876 
846	 0,162708848857826 
847	 0,162932416452426 
848	 0,163503795103095 
849	 0,163414961520845 
850	 0,163250855907334 
851	 0,163110124148197 
852	 0,162856250705717 
853	 0,162631681888182 
854	 0,162512069381703 
855	 0,162422796082443 
856	 0,162295290926091 
857	 0,162050905219432 
858	 0,161985471177376 
859	 0,162127302797911 
860	 0,162396723566648 
861	 0,162253812299861 
862	 0,161521418918943 
863	 0,161057751848711 
864	 0,160941248236881 
865	 0,1611304067628 
866	 0,161709554375028 
867	 0,162425366090122 
868	 0,162617930396311 
869	 0,162471052750335 
870	 0,162009786463277 
871	 0,160683072055265 
872	 0,160005819260027 
873	 0,161697903578128 
874	 0,162146392571901 
875	 0,161319218039872 
876	 0,161603618562596 
877	 0,161842495668438 
878	 0,161761179089426 
879	 0,162511731924217 
880	 0,163126210932187 
881	 0,162566938626189 
882	 0,162715033987524 
883	 0,163343468230868 
884	 0,162821734561463 
885	 0,162273558554165 
886	 0,162237917565952 
887	 0,163251009687121 
888	 0,164182640915992 
889	 0,163989392182836 
890	 0,163629240528414 
891	 0,163530046637216 
892	 0,164289188420211 
893	 0,164376770561104 
894	 0,163633294038269 
895	 0,16378469580902 
896	 0,164160187991343 
897	 0,164186531990876 
898	 0,164085421673795 
899	 0,163892312457443 
900	 0,163572042056684 
901	 0,164286990662442 
902	 0,165676300481552 
903	 0,165141828814842 
904	 0,164362796915349 
905	 0,164347522347111 
906	 0,164103157051734 
907	 0,163682778014329 
908	 0,163313084453981 
909	 0,162988873277218 
910	 0,162725150412477 
911	 0,162538100913756 
912	 0,162331322255036 
913	 0,16218870518044 
914	 0,162923778436601 
915	 0,163609536578722 
916	 0,163212483052706 
917	 0,163207157662965 
918	 0,163498831606359 
919	 0,163053043256605 
920	 0,162795455447891 
921	 0,162766877778811 
922	 0,161508277266074 
923	 0,160533397718534 
924	 0,160978728432459 
925	 0,16048996003698 
926	 0,159677475854025 
927	 0,160309042264499 
928	 0,161008117104601 
929	 0,161031311938 
930	 0,159146960839809 
931	 0,15779212043025 
932	 0,158164913921975 
933	 0,157529284351852 
934	 0,156615742474564 
935	 0,156703928422585 
936	 0,15632059228897 
937	 0,155578937397956 
938	 0,155803937707211 
939	 0,155640315430921 
940	 0,154638283488023 
941	 0,153286346481335 
942	 0,152486660851895 
943	 0,152835394783978 
944	 0,152297706735315 
945	 0,151062985034634 
946	 0,150155858180299 
947	 0,149220652347275 
948	 0,14827713615141 
949	 0,147747112964645 
950	 0,146757535643207 
951	 0,145085760108076 
952	 0,144652510185578 
953	 0,144921008580653 
954	 0,144931827734085 
955	 0,143341569533328 
956	 0,140758261724676 
957	 0,139332664417995 
958	 0,139071887602308 
959	 0,139781656340678 
960	 0,140409822949552 
961	 0,140082498412944 
962	 0,138323893556366 
963	 0,136579738708347 
964	 0,135783422924638 
965	 0,136891537232125 
966	 0,13750721688124 
967	 0,137306457464529 
968	 0,137694467434235 
969	 0,136537006567299 
970	 0,133744069032639 
971	 0,133690988215591 
972	 0,134689435116077 
973	 0,134933612374493 
974	 0,134939852402432 
975	 0,135480152395897 
976	 0,137898714300692 
977	 0,138087133721072 
978	 0,135622810877928 
979	 0,132841914489925 
980	 0,13307380191786 
981	 0,136816228333572 
982	 0,135976434795715 
983	 0,13388070769902 
984	 0,134580809044788 
985	 0,137081832932167 
986	 0,139340147663721 
987	 0,137794931690607 
988	 0,136417777110222 
989	 0,136139763762935 
990	 0,135668071474396 
991	 0,135151111096902 
992	 0,135026477682169 
993	 0,137552220540347 
994	 0,139742148741599 
995	 0,138582397041894 
996	 0,137880334452335 
997	 0,138180634220705 
998	 0,139070124516431 
999	 0,140568038068083 
1000	 0,141849556484419 
1001	 0,140265792559916 
1002	 0,138643012761887 
1003	 0,138691097618055 
1004	 0,141058531889231 
1005	 0,142751866201372 
1006	 0,14115501818446 
1007	 0,140800303263931 
1008	 0,141710968619749 
1009	 0,142470742179377 
1010	 0,142942935648693 
1011	 0,143406539461725 
1012	 0,145083417014792 
1013	 0,146600558697031 
1014	 0,147253750875939 
1015	 0,147119581690754 
1016	 0,145901806684664 
1017	 0,143906416073216 
1018	 0,145791090535882 
1019	 0,149558596952611 
1020	 0,151156294684285 
1021	 0,15058329912386 
1022	 0,148376702117405 
1023	 0,145904909148933 
1024	 0,145822169359262 
1025	 0,148298331658222 
1026	 0,149247152700589 
1027	 0,147880462911493 
1028	 0,144843006355869 
1029	 0,147809572819855 
1030	 0,152334345671325 
1031	 0,152496612747726 
1032	 0,153276666530607 
1033	 0,155637271413921 
1034	 0,159815527066689 
1035	 0,159874347954044 
1036	 0,156362744078503 
1037	 0,157756326822069 
1038	 0,15919799107112 
1039	 0,158696536340372 
1040	 0,158464538958099 
1041	 0,155759367455494 
1042	 0,149637357626652 
1043	 0,15159429485355 
1044	 0,157436398669335 
1045	 0,159222150509645 
1046	 0,158822607748744 
1047	 0,158004679594234 
1048	 0,16011664713628 
1049	 0,1647876877063 
1050	 0,168442137334028 
1051	 0,15910358460156 
1052	 0,15122898130749 
1053	 0,15246144027012 
1054	 0,156854349684127 
1055	 0,161828604053861 
1056	 0,164462667255628 
1057	 0,160189671723537 
1058	 0,151768457048593 
1059	 0,144876393453663 
1060	 0,148048778492161 
1061	 0,157927334047539 
1062	 0,162895316384292 
1063	 0,157809680263758 
1064	 0,148741030888188 
1065	 0,165640663158025 
1066	 0,170559878979871 
1067	 0,15291481054362 
1068	 0,14804915374075 
1069	 0,153165789671116 
1070	 0,162591031046378 
1071	 0,165311439827727 
1072	 0,163973868427046 
1073	 0,163389861676438 
1074	 0,160754132437225 
1075	 0,162583177269993 
