Wavelength	MORB100313.asd
325	 0,315888165791813 
326	 0,103808597795599 
327	-7,43765623097981E-02 
328	 1,32916084811419E-02 
329	 9,06914464197228E-02 
330	 8,98082927891947E-02 
331	-4,06323142092669E-03 
332	 6,18206277566403E-03 
333	 7,90792048117104E-02 
334	 4,22547279246344E-02 
335	 2,35873023235222E-02 
336	 3,05443352020841E-02 
337	-7,36584115264318E-02 
338	-0,12320618896205 
339	-1,11728742725143E-02 
340	 5,41378828385439E-03 
341	-2,27440622986514E-02 
342	 8,08781451039826E-02 
343	 0,1258968292901 
344	 0,080597066292353 
345	 7,88186046719751E-02 
346	 0,100786535169941 
347	 0,120054537946403 
348	 8,36748542028272E-02 
349	 1,82916089072702E-02 
350	 0,029481619074121 
351	 3,31021804677067E-02 
352	 9,9591883943029E-03 
353	 3,40467490739767E-02 
354	 5,25765409012577E-02 
355	 6,85526271880216E-03 
356	-5,97195937933662E-03 
357	 2,21386029986232E-02 
358	 0,05626829625059 
359	 5,21649914532461E-02 
360	 2,08983040318072E-03 
361	 2,09543448042284E-02 
362	 7,05832227414094E-02 
363	 8,70311087965445E-02 
364	 5,53216825979209E-02 
365	-8,7043256410626E-03 
366	 1,15706372496044E-02 
367	 4,49481944731762E-02 
368	 4,67183241898074E-02 
369	 2,15391971176376E-02 
370	-8,51880898937177E-03 
371	-3,31068173067727E-03 
372	 7,65059396192919E-03 
373	 1,61573002572503E-02 
374	 2,61503513128005E-02 
375	 0,031000360990718 
376	 2,76283892544664E-02 
377	 0,035850896633688 
378	 5,01241323253533E-02 
379	 5,41956786727241E-02 
380	 5,71486804281156E-02 
381	 5,62452825989253E-02 
382	 2,65196357843352E-02 
383	-4,64109851363263E-03 
384	-8,83350863692218E-03 
385	 1,18174036555841E-02 
386	 4,14686032383995E-02 
387	 5,14289841893804E-02 
388	 4,60174446467938E-02 
389	 2,98989740818655E-02 
390	 2,21428048583486E-02 
391	 2,00168225794746E-02 
392	 1,81752900691658E-02 
393	 1,95240424562632E-02 
394	 2,26846954377644E-02 
395	 2,22016285812079E-02 
396	 2,49229662074168E-02 
397	 3,27641849011327E-02 
398	 3,33552600487766E-02 
399	 3,10859720666927E-02 
400	 3,44562513001116E-02 
401	 0,032537689796955 
402	 0,024076226456152 
403	 1,17959627842864E-02 
404	 9,18754811981969E-03 
405	 2,31793718664312E-02 
406	 2,14124230197571E-02 
407	 1,24221327267617E-02 
408	 2,35765924179326E-02 
409	 3,12690099756067E-02 
410	 3,10978926145299E-02 
411	 3,68318833536994E-02 
412	 3,60788483466036E-02 
413	 1,84331606503549E-02 
414	 1,73031070650678E-02 
415	 2,88716698371231E-02 
416	 2,80551985072503E-02 
417	 2,58271626992988E-02 
418	 2,52654725757256E-02 
419	 1,77875686195617E-02 
420	 1,13951404992505E-02 
421	 0,016906288881789 
422	 2,29281680733988E-02 
423	 2,56218217692995E-02 
424	 2,13410290798269E-02 
425	 1,94532532564301E-02 
426	 2,47343252500401E-02 
427	 2,66190973201399E-02 
428	 2,52519446322866E-02 
429	 2,31335145784899E-02 
430	 2,20970076167209E-02 
431	 0,02321203182617 
432	 2,82984497351442E-02 
433	 3,08829849591838E-02 
434	 2,58498653809165E-02 
435	 2,21406610971647E-02 
436	 2,12626866091513E-02 
437	 2,26830715130824E-02 
438	 2,27765974649647E-02 
439	 2,09077051544306E-02 
440	 2,33661744808326E-02 
441	 2,73589916804009E-02 
442	 2,86782094042549E-02 
443	 2,66837320704639E-02 
444	 2,28864677934289E-02 
445	 2,29605268825597E-02 
446	 2,30008879987667E-02 
447	 2,10236406732903E-02 
448	 0,02217689963531 
449	 2,45113853151612E-02 
450	 2,33375664949158E-02 
451	 2,16933302972886E-02 
452	 2,10821354533716E-02 
453	 0,024014548760533 
454	 2,59096427061895E-02 
455	 2,27995363146183E-02 
456	 2,13565816244738E-02 
457	 2,22307725319808E-02 
458	 2,34743306355502E-02 
459	 2,48059908773125E-02 
460	 2,55649601626475E-02 
461	 2,30784196691957E-02 
462	 0,021102088034831 
463	 2,48472496595244E-02 
464	 2,65058936983099E-02 
465	 2,49512300363552E-02 
466	 2,34410947539192E-02 
467	 2,30149178867474E-02 
468	 2,41649933099756E-02 
469	 0,024304393919794 
470	 2,39305710356335E-02 
471	 2,48652483096074E-02 
472	 2,55844095679791E-02 
473	 2,54877829318114E-02 
474	 2,40031845267994E-02 
475	 2,35002293618641E-02 
476	 2,60603177300814E-02 
477	 2,48756538295994E-02 
478	 2,09466465016031E-02 
479	 2,03541476454832E-02 
480	 2,25614828750044E-02 
481	 2,64944791192869E-02 
482	 2,65491787171365E-02 
483	 2,50049467647712E-02 
484	 2,62251891763401E-02 
485	 2,48153630972284E-02 
486	 2,13836584994051E-02 
487	 2,33759111413766E-02 
488	 2,64491853309541E-02 
489	 2,71146572224426E-02 
490	 2,59108913109263E-02 
491	 0,023506800840216 
492	 2,08265709502182E-02 
493	 0,020410865081527 
494	 2,25953333894531E-02 
495	 0,023556843647861 
496	 2,34545702385729E-02 
497	 2,28644527142112E-02 
498	 2,36478653755425E-02 
499	 0,02533151907833 
500	 2,50607011440464E-02 
501	 2,46369931792519E-02 
502	 2,50056929808448E-02 
503	 0,024980856848569 
504	 2,49968157330311E-02 
505	 2,62499718695932E-02 
506	 2,53090409204893E-02 
507	 2,24566319949769E-02 
508	 2,33986575203012E-02 
509	 0,025545667839982 
510	 2,63201128346931E-02 
511	 2,63114845064288E-02 
512	 2,58289594717404E-02 
513	 2,54390841573763E-02 
514	 2,52005940213424E-02 
515	 0,025136455552014 
516	 0,024822475560353 
517	 2,50014411962793E-02 
518	 2,68037077060309E-02 
519	 2,68413738853806E-02 
520	 2,50822169010669E-02 
521	 2,47464096777911E-02 
522	 2,49649778969995E-02 
523	 2,50938409235631E-02 
524	 2,56740657598716E-02 
525	 2,62889704417964E-02 
526	 0,025759410726776 
527	 2,58794160674977E-02 
528	 2,69736093848572E-02 
529	 2,71771778047228E-02 
530	 2,70553549908452E-02 
531	 0,027402361425999 
532	 2,73198280671051E-02 
533	 2,67950777106395E-02 
534	 2,63874413128997E-02 
535	 0,026034189890794 
536	 2,57369595251637E-02 
537	 2,57046469055723E-02 
538	 2,58390466447554E-02 
539	 2,59314312619315E-02 
540	 2,58679020700102E-02 
541	 2,58236170756979E-02 
542	 2,69244630940716E-02 
543	 2,75916697126482E-02 
544	 2,63766073839936E-02 
545	 2,62677841228328E-02 
546	 2,71889059662583E-02 
547	 0,027107783857894 
548	 2,69850920385009E-02 
549	 2,72870516646624E-02 
550	 2,81733801303854E-02 
551	 2,86078848659265E-02 
552	 2,69340031740378E-02 
553	 2,61447836543901E-02 
554	 2,68022693886187E-02 
555	 2,73621354575927E-02 
556	 2,74727390257834E-02 
557	 2,69326903544072E-02 
558	 2,66277328815947E-02 
559	 2,67657007885475E-02 
560	 2,74747601292475E-02 
561	 2,79063097647401E-02 
562	 2,77218057923212E-02 
563	 2,74093146685103E-02 
564	 2,70508860607251E-02 
565	 2,66808332669209E-02 
566	 2,67375927076435E-02 
567	 2,72145225620525E-02 
568	 2,76130969234315E-02 
569	 2,81779580829556E-02 
570	 2,90182321644369E-02 
571	 2,95254297317665E-02 
572	 2,97270449086391E-02 
573	 2,99433838193613E-02 
574	 2,98216709690732E-02 
575	 2,94945331617137E-02 
576	 3,01644967191798E-02 
577	 3,11424525765591E-02 
578	 3,15575381539068E-02 
579	 3,15346535046262E-02 
580	 3,14067144472075E-02 
581	 3,21332191397998E-02 
582	 3,29679882589792E-02 
583	 3,33522923848062E-02 
584	 0,032523126340001 
585	 3,14843027549181E-02 
586	 0,032190340790368 
587	 3,23683225974364E-02 
588	 3,18685591375721E-02 
589	 0,033353953686681 
590	 3,46828469852988E-02 
591	 0,033874040008257 
592	 0,033505028766988 
593	 3,38025547555233E-02 
594	 3,40071616763852E-02 
595	 3,37531679946336E-02 
596	 3,29393116415104E-02 
597	 3,22932265184327E-02 
598	 3,20870880987243E-02 
599	 3,25871383542332E-02 
600	 3,28542292770618E-02 
601	 3,26740946211578E-02 
602	 3,23565974287253E-02 
603	 3,25039547854188E-02 
604	 3,34178479519952E-02 
605	 3,28682271688967E-02 
606	 0,031411857075348 
607	 3,12794858874565E-02 
608	 3,15775129856818E-02 
609	 3,18986479870036E-02 
610	 3,17600740653521E-02 
611	 0,031229206731821 
612	 3,04625715818403E-02 
613	 3,00053971785165E-02 
614	 0,029962638915427 
615	 3,01135222640598E-02 
616	 3,02383486388263E-02 
617	 3,02537923640192E-02 
618	 3,09354861213468E-02 
619	 3,16708990207164E-02 
620	 3,10591638140748E-02 
621	 0,030434159143401 
622	 3,02807128133651E-02 
623	 0,030549126066373 
624	 3,09215747939989E-02 
625	 3,10701783579673E-02 
626	 3,10365497703245E-02 
627	 3,10349671529789E-02 
628	 3,17523555793974E-02 
629	 3,20806696666282E-02 
630	 3,15654197634406E-02 
631	 3,14093828347162E-02 
632	 3,16737342198465E-02 
633	 3,21866421564804E-02 
634	 3,30251692086511E-02 
635	 3,40516565183987E-02 
636	 3,48601459019464E-02 
637	 3,51348576091528E-02 
638	 3,47240218113527E-02 
639	 3,51009956966984E-02 
640	 3,60049282512032E-02 
641	 0,036024856061553 
642	 3,61013871086223E-02 
643	 3,65194699348173E-02 
644	 3,66929993634177E-02 
645	 3,67148979679083E-02 
646	 3,67646274714439E-02 
647	 3,73623093274288E-02 
648	 3,83015487376316E-02 
649	 3,84307781218666E-02 
650	 3,83734939811854E-02 
651	 3,85226230425764E-02 
652	 0,038370495349329 
653	 3,81318413978471E-02 
654	 3,84183173843659E-02 
655	 3,83585919618096E-02 
656	 3,77613548638888E-02 
657	 3,72130975476441E-02 
658	 0,036867644611751 
659	 3,68200239928072E-02 
660	 3,64415090471954E-02 
661	 3,58150803414078E-02 
662	 3,56187142667431E-02 
663	 3,53376838040877E-02 
664	 3,47573943854369E-02 
665	 3,42599243606857E-02 
666	 3,39370903091009E-02 
667	 3,38544060747179E-02 
668	 3,38873303212952E-02 
669	 0,03382634880572 
670	 3,30335116396234E-02 
671	 3,23689758011911E-02 
672	 3,25048602601959E-02 
673	 3,26882641561652E-02 
674	 3,27626301534402E-02 
675	 0,032760982418663 
676	 0,032364974919532 
677	 3,16711483861575E-02 
678	 3,18912344198323E-02 
679	 3,23331115685361E-02 
680	 3,20710510247276E-02 
681	 3,20319479266801E-02 
682	 3,22949885088586E-02 
683	 3,23889133514393E-02 
684	 0,032565240291118 
685	 3,29598686877853E-02 
686	 3,34498378794903E-02 
687	 3,38631289945607E-02 
688	 3,38586479599702E-02 
689	 3,47040894871813E-02 
690	 3,64384407869556E-02 
691	 3,73236219029642E-02 
692	 3,83203528014859E-02 
693	 4,03117806052418E-02 
694	 4,24212120349733E-02 
695	 4,45345425576257E-02 
696	 4,66619411325631E-02 
697	 4,95293955424734E-02 
698	 0,053425265413437 
699	 5,79006418889866E-02 
700	 6,25771850351525E-02 
701	 6,70395763212521E-02 
702	 7,21760885335685E-02 
703	 7,78495476564551E-02 
704	 8,28435994484527E-02 
705	 8,79739432307105E-02 
706	 9,37110494176048E-02 
707	 9,94865740346037E-02 
708	 0,105113998019268 
709	 0,110427659514288 
710	 0,115479521477239 
711	 0,120365889582854 
712	 0,125443571097399 
713	 0,13039862760828 
714	 0,134908663696253 
715	 0,13875576179081 
716	 0,142233189697726 
717	 0,146256692252223 
718	 0,149849699347466 
719	 0,152690151065137 
720	 0,155482771361486 
721	 0,158314305437553 
722	 0,161204153470325 
723	 0,163692581090553 
724	 0,165719845348367 
725	 0,167519247648349 
726	 0,169119920231512 
727	 0,170597291378101 
728	 0,172337595510803 
729	 0,174000096828545 
730	 0,174866569369706 
731	 0,175891773950018 
732	 0,177215200074925 
733	 0,178074861095265 
734	 0,178727653741137 
735	 0,179438748271027 
736	 0,180340746704833 
737	 0,181323255872322 
738	 0,182094700318463 
739	 0,182525884516966 
740	 0,182657059296488 
741	 0,18305719229113 
742	 0,183560048923439 
743	 0,183911532114439 
744	 0,184066105220816 
745	 0,184164720689554 
746	 0,184730450453702 
747	 0,18502432599749 
748	 0,184763055091635 
749	 0,185053939266726 
750	 0,185399876692416 
751	 0,184812526977218 
752	 0,18493712581872 
753	 0,185742004634956 
754	 0,18525188049547 
755	 0,184846418790729 
756	 0,185454801167462 
757	 0,185653940321148 
758	 0,185515770164766 
759	 0,18562519054876 
760	 0,185870949034746 
761	 0,186134636579536 
762	 0,185989527274385 
763	 0,18576467487289 
764	 0,185786180988797 
765	 0,185873298125075 
766	 0,18595614015987 
767	 0,185883953894609 
768	 0,186130218944291 
769	 0,186718897299544 
770	 0,186665759929098 
771	 0,186286612129155 
772	 0,186055884970046 
773	 0,185867869395558 
774	 0,185836567623145 
775	 0,186389445260281 
776	 0,186603896269256 
777	 0,186116463264492 
778	 0,186123520673244 
779	 0,186329188085572 
780	 0,186104004845759 
781	 0,185749650267329 
782	 0,185489442607074 
783	 0,185822246972861 
784	 0,186181700780224 
785	 0,186175743371803 
786	 0,185936636568111 
787	 0,185661803590586 
788	 0,185684072442639 
789	 0,185465976475656 
790	 0,184971635479338 
791	 0,184713467862569 
792	 0,184679949394695 
793	 0,184824637966795 
794	 0,18489613917055 
795	 0,184828064585789 
796	 0,184585338483166 
797	 0,184387576813613 
798	 0,184316438368802 
799	 0,184308078691007 
800	 0,184336877014377 
801	 0,184359240132111 
802	 0,184010398609036 
803	 0,183631490684684 
804	 0,184305191234214 
805	 0,184740676803739 
806	 0,184576538872415 
807	 0,184741194925524 
808	 0,1849399703119 
809	 0,184815480266651 
810	 0,184962280114815 
811	 0,185231331053773 
812	 0,184761516028146 
813	 0,184870632823139 
814	 0,185800106091863 
815	 0,185368012738344 
816	 0,184629811843096 
817	 0,185035020998256 
818	 0,185469904982966 
819	 0,185672112197803 
820	 0,185642966179377 
821	 0,185513772013358 
822	 0,185406794438841 
823	 0,185601796215268 
824	 0,185762272507663 
825	 0,185439132717316 
826	 0,18602112646473 
827	 0,187189750871215 
828	 0,186907425809869 
829	 0,186392394466626 
830	 0,186341193740175 
831	 0,186888414837142 
832	 0,187485637905841 
833	 0,187377777938277 
834	 0,187065534259854 
835	 0,186810711511977 
836	 0,187045745887785 
837	 0,187143776214688 
838	 0,186840170797216 
839	 0,18683048911416 
840	 0,187138980924226 
841	 0,18768056363991 
842	 0,187825404613263 
843	 0,187523677475555 
844	 0,187189467990423 
845	 0,187064258347222 
846	 0,187256399686254 
847	 0,187463620235478 
848	 0,18733809081383 
849	 0,186468016085324 
850	 0,186284660009879 
851	 0,18677077486394 
852	 0,186592691023164 
853	 0,186199713412776 
854	 0,185902340465321 
855	 0,186140896315806 
856	 0,18637806764865 
857	 0,185826880066257 
858	 0,186034909803662 
859	 0,18681396738792 
860	 0,186373476736413 
861	 0,185501409763502 
862	 0,184774969576294 
863	 0,185080812816659 
864	 0,185594673063658 
865	 0,185140777906339 
866	 0,185311505423758 
867	 0,186030100909013 
868	 0,185954410086706 
869	 0,1856908912929 
870	 0,185461885875088 
871	 0,184660043140789 
872	 0,184415565052944 
873	 0,186025105437815 
874	 0,186674742253112 
875	 0,186225008981227 
876	 0,186133094505461 
877	 0,186554020725497 
878	 0,187397150034722 
879	 0,187470341461818 
880	 0,187242551358419 
881	 0,187316588952683 
882	 0,187323856641298 
883	 0,187321057457625 
884	 0,187588810239227 
885	 0,187978200309475 
886	 0,188443713936837 
887	 0,189166261093513 
888	 0,189417615217255 
889	 0,188651129538889 
890	 0,188866370858388 
891	 0,189679048091997 
892	 0,18937457172176 
893	 0,189467240053467 
894	 0,190118317605542 
895	 0,189843708740049 
896	 0,189454796560024 
897	 0,189608443048264 
898	 0,18986138301437 
899	 0,190032026947857 
900	 0,189896568863097 
901	 0,190152391332045 
902	 0,19078360174297 
903	 0,190959533735632 
904	 0,19096673605856 
905	 0,190939993589219 
906	 0,190459955072935 
907	 0,18990488624628 
908	 0,189855098084637 
909	 0,189761899512789 
910	 0,189622094504908 
911	 0,189873962199272 
912	 0,190095941161952 
913	 0,190021434964948 
914	 0,189297113395624 
915	 0,188993522892944 
916	 0,19021059227333 
917	 0,190758700619986 
918	 0,190581520639836 
919	 0,190733989359564 
920	 0,191091266175979 
921	 0,191295601772929 
922	 0,189670792433175 
923	 0,188456410412868 
924	 0,189392064841282 
925	 0,189880130968043 
926	 0,189607723823126 
927	 0,188778166113427 
928	 0,188657545621121 
929	 0,189215741230315 
930	 0,188765235440494 
931	 0,188531151744174 
932	 0,188978392357309 
933	 0,188057590409354 
934	 0,18671275006682 
935	 0,186418243037565 
936	 0,186394112223727 
937	 0,186422148814674 
938	 0,186387341094059 
939	 0,186226827608952 
940	 0,185928416416881 
941	 0,185642584018635 
942	 0,18527363971145 
943	 0,184764222437042 
944	 0,184574560895974 
945	 0,184338483526946 
946	 0,183253179839326 
947	 0,182149111463618 
948	 0,181482215486774 
949	 0,181968323199322 
950	 0,182263393654031 
951	 0,181572236233295 
952	 0,180294751008912 
953	 0,179255178769903 
954	 0,17934292271659 
955	 0,179671882654345 
956	 0,179348783686262 
957	 0,176419522363873 
958	 0,175070887106745 
959	 0,176314625623785 
960	 0,177303649769478 
961	 0,177387875481872 
962	 0,176270950044083 
963	 0,175320917010749 
964	 0,174905139914221 
965	 0,175193781076388 
966	 0,176010832442667 
967	 0,176782933124174 
968	 0,176273314266358 
969	 0,174242323199894 
970	 0,171479787196251 
971	 0,172363162610466 
972	 0,174149834258865 
973	 0,174122821249167 
974	 0,173947722230745 
975	 0,173850414542342 
976	 0,173787445668166 
977	 0,174169956996424 
978	 0,174683155101872 
979	 0,173728229749672 
980	 0,173572148682907 
981	 0,174983237050586 
982	 0,175207012951865 
983	 0,175128155837035 
984	 0,175792875497494 
985	 0,176085794641847 
986	 0,175570021599924 
987	 0,173707982979291 
988	 0,173851161079917 
989	 0,175657521303212 
990	 0,173769485613071 
991	 0,173392629651881 
992	 0,176481088059861 
993	 0,177459489200078 
994	 0,176543830558665 
995	 0,174720389061016 
996	 0,174849836221337 
997	 0,176459157387695 
998	 0,17750784914304 
999	 0,177453498328899 
1000	 0,176486373969353 
1001	 0,175890317708953 
1002	 0,176866788182166 
1003	 0,179440672779318 
1004	 0,179872244499192 
1005	 0,180110038420391 
1006	 0,182048306250914 
1007	 0,181567758677361 
1008	 0,180889887677014 
1009	 0,185179271229238 
1010	 0,183700511131108 
1011	 0,177617683294232 
1012	 0,180646528452938 
1013	 0,182761880772622 
1014	 0,180674422885641 
1015	 0,181428939733226 
1016	 0,182902135331135 
1017	 0,183043991777891 
1018	 0,182532960048042 
1019	 0,182453102532205 
1020	 0,184186924938183 
1021	 0,183786540294272 
1022	 0,182164424399103 
1023	 0,184971066274696 
1024	 0,184414382153915 
1025	 0,180210895717666 
1026	 0,184564053349357 
1027	 0,185861945571626 
1028	 0,178306244245481 
1029	 0,177781210797271 
1030	 0,182650502668322 
1031	 0,188320734431799 
1032	 0,188654217127034 
1033	 0,186482637563345 
1034	 0,190187921823493 
1035	 0,19316412540353 
1036	 0,193182947089724 
1037	 0,188843950533696 
1038	 0,187940997986153 
1039	 0,192564148180587 
1040	 0,192805069154291 
1041	 0,190302758818822 
1042	 0,187586445202291 
1043	 0,189996491560389 
1044	 0,193202709857483 
1045	 0,190744217521422 
1046	 0,195964506142615 
1047	 0,203327481148643 
1048	 0,192977032934809 
1049	 0,188412898022181 
1050	 0,19266781267471 
1051	 0,18648814930098 
1052	 0,183949817361299 
1053	 0,19038316366582 
1054	 0,192238741894085 
1055	 0,194935840750942 
1056	 0,201721791423794 
1057	 0,194014115063224 
1058	 0,180612377888647 
1059	 0,178041906811452 
1060	 0,190745467142144 
1061	 0,206471364889196 
1062	 0,194114774985734 
1063	 0,187946894097937 
1064	 0,196108445598475 
1065	 0,20736410568861 
1066	 0,209470257042152 
1067	 0,197965696782669 
1068	 0,179652138946221 
1069	 0,173873623396486 
1070	 0,190525304515339 
1071	 0,190878281536495 
1072	 0,181051157412894 
1073	 0,173991068229813 
1074	 0,179456357876701 
1075	 0,194206760191037 
