Wavelength	MORB100544.asd
325	 0,105203054742702 
326	 4,85499353008692E-02 
327	 2,30068253298721E-02 
328	 5,93537014926262E-02 
329	-3,33168159724735E-02 
330	-0,102028590101352 
331	-4,75885035684178E-02 
332	-1,69082497676592E-02 
333	-9,59443464817991E-03 
334	 3,85945409167604E-02 
335	 9,43913746539805E-02 
336	 0,138287556431778 
337	 8,52935445828847E-02 
338	 1,32657826532682E-03 
339	-4,63533886753026E-02 
340	-3,04917759783032E-02 
341	 3,29795152080695E-02 
342	 0,124526308507895 
343	 0,141105169168163 
344	 0,077090334301075 
345	 0,099980311569414 
346	 0,122695411198957 
347	 6,37597611699296E-02 
348	 3,90564714498207E-02 
349	 5,61525823301525E-02 
350	 5,29706716956251E-02 
351	 6,31355361813282E-02 
352	 9,37956445590033E-02 
353	 0,110130482598921 
354	 0,116009239907601 
355	 0,122576073535562 
356	 0,121754817083247 
357	 0,11082445708047 
358	 8,25599644342925E-02 
359	 6,99778665762958E-02 
360	 8,80660992731565E-02 
361	 0,124250444452556 
362	 0,151434210030786 
363	 0,143939517979764 
364	 0,109861821848884 
365	 5,94577453622959E-02 
366	 5,17037566608198E-02 
367	 7,58740201026443E-02 
368	 0,112414771883419 
369	 9,29780927055206E-02 
370	 5,39264147182583E-02 
371	 7,77573687192076E-02 
372	 0,102944726916299 
373	 0,10948874178744 
374	 9,04404547742117E-02 
375	 7,00195170514894E-02 
376	 6,64956054948976E-02 
377	 0,073533114643258 
378	 8,83369465846046E-02 
379	 0,110928535997863 
380	 0,122040728560486 
381	 0,11556280620399 
382	 9,94566149666269E-02 
383	 8,07072403416517E-02 
384	 6,68819596364887E-02 
385	 7,28172359154042E-02 
386	 9,23278832107741E-02 
387	 0,109963819296983 
388	 0,109856655109616 
389	 0,088976546225358 
390	 7,39277709347172E-02 
391	 6,98239397960076E-02 
392	 7,95035571947403E-02 
393	 7,92427519012439E-02 
394	 7,13824575652297E-02 
395	 8,05432031289106E-02 
396	 0,085725975489568 
397	 7,96809482006173E-02 
398	 9,35784638283186E-02 
399	 0,107470782738106 
400	 8,87918340725991E-02 
401	 8,02049971070909E-02 
402	 8,73915618302607E-02 
403	 8,18901300837952E-02 
404	 0,08419300938561 
405	 0,105097296680905 
406	 0,104592884577316 
407	 9,09420716093615E-02 
408	 9,24539171471026E-02 
409	 9,37882290709031E-02 
410	 9,18290229750894E-02 
411	 9,19931222030482E-02 
412	 9,12016909559943E-02 
413	 8,68164478812419E-02 
414	 8,70000010630076E-02 
415	 9,18423597716043E-02 
416	 9,91987955538451E-02 
417	 0,100343292692004 
418	 9,30141059255135E-02 
419	 8,77828004005749E-02 
420	 8,45723517758814E-02 
421	 8,19968777679937E-02 
422	 8,41262939679619E-02 
423	 8,90407300524541E-02 
424	 8,75903694280005E-02 
425	 8,79094844805761E-02 
426	 9,35532916535038E-02 
427	 9,09100369101222E-02 
428	 8,51337682844197E-02 
429	 8,84242939573378E-02 
430	 9,02403286448696E-02 
431	 8,91496873761949E-02 
432	 9,31856368740372E-02 
433	 9,57623032155329E-02 
434	 9,14426154072342E-02 
435	 8,99310152928816E-02 
436	 9,15067477378605E-02 
437	 9,21642227610524E-02 
438	 9,25946889189509E-02 
439	 9,29305032347005E-02 
440	 9,28157280992385E-02 
441	 9,36599381023336E-02 
442	 9,71941938858254E-02 
443	 9,79645859164883E-02 
444	 9,56103156456918E-02 
445	 9,33074774691255E-02 
446	 9,25825985366494E-02 
447	 9,40374038349027E-02 
448	 9,34342059249638E-02 
449	 9,23905249613529E-02 
450	 9,51358414002466E-02 
451	 0,09632805718656 
452	 9,50873358059701E-02 
453	 0,096096056021206 
454	 9,56334405418319E-02 
455	 9,06831979962372E-02 
456	 9,21348696776084E-02 
457	 9,78971518719838E-02 
458	 9,66894748529533E-02 
459	 9,57492286747781E-02 
460	 9,72698289826303E-02 
461	 9,52921798418292E-02 
462	 9,32565137112768E-02 
463	 9,63631376004021E-02 
464	 9,75283258733657E-02 
465	 9,59320927868791E-02 
466	 9,51768767392285E-02 
467	 9,52521241290788E-02 
468	 9,59101189076216E-02 
469	 0,094469689776607 
470	 0,092904699699103 
471	 9,60580434880786E-02 
472	 9,76773921234551E-02 
473	 9,65048737578442E-02 
474	 9,73484657075506E-02 
475	 9,77605896362697E-02 
476	 0,095219804019723 
477	 9,30204191804606E-02 
478	 9,21151128519912E-02 
479	 9,28562959203202E-02 
480	 9,43027038820032E-02 
481	 9,58517777085346E-02 
482	 9,75444895354267E-02 
483	 9,85555893528649E-02 
484	 9,77723633066131E-02 
485	 9,50348679422092E-02 
486	 9,18084375616008E-02 
487	 9,30645688605206E-02 
488	 9,58977202608275E-02 
489	 9,77758799659971E-02 
490	 9,70822450832308E-02 
491	 9,50500533264624E-02 
492	 9,53826507423702E-02 
493	 9,45645406078531E-02 
494	 9,21870240983218E-02 
495	 9,24507637241092E-02 
496	 9,38251631638687E-02 
497	 0,094247618556354 
498	 0,09418842986193 
499	 9,42556075955428E-02 
500	 9,62518549729641E-02 
501	 9,76755404042183E-02 
502	 9,71540031693928E-02 
503	 9,59670345031574E-02 
504	 9,51499613727615E-02 
505	 9,61423551766284E-02 
506	 9,68605515439861E-02 
507	 9,67633401638347E-02 
508	 9,65245268155566E-02 
509	 9,66172404655428E-02 
510	 9,74288051056064E-02 
511	 9,88742745335434E-02 
512	 0,100037668033447 
513	 9,84912370905237E-02 
514	 9,80038838218639E-02 
515	 9,97538156870327E-02 
516	 9,96821836556396E-02 
517	 9,88236072168682E-02 
518	 9,91446723802048E-02 
519	 9,99087055682411E-02 
520	 0,100645989936954 
521	 0,100278452118504 
522	 0,100067645869042 
523	 0,100806822129789 
524	 0,100478328413967 
525	 9,96736428632677E-02 
526	 0,100410771017544 
527	 0,101312798521511 
528	 0,101809818686745 
529	 0,101604062203771 
530	 0,101233585571541 
531	 0,101327816186327 
532	 0,100915816075034 
533	 0,100162328975166 
534	 0,100153278206343 
535	 0,100655934268088 
536	 0,101354883882675 
537	 0,10087613557288 
538	 9,98750778880999E-02 
539	 9,98198516300884E-02 
540	 0,100468191199711 
541	 0,101485399628004 
542	 0,10171832563613 
543	 0,101359346770044 
544	 0,100727642201922 
545	 0,101203225828058 
546	 0,102412348235568 
547	 0,102536662810684 
548	 0,102201137446329 
549	 0,101829794787186 
550	 0,102368140331465 
551	 0,102946276921522 
552	 0,102008131699505 
553	 0,101880917380551 
554	 0,102798943684829 
555	 0,102997144041944 
556	 0,102430391996566 
557	 0,101208627889708 
558	 0,100668998558004 
559	 0,100908823549712 
560	 0,101553512996938 
561	 0,10191279644094 
562	 0,101632957975794 
563	 0,100776878421764 
564	 0,100096125332009 
565	 0,100538780283235 
566	 0,100454307278475 
567	 9,97606263168748E-02 
568	 9,95939157868563E-02 
569	 0,100277200230082 
570	 0,101881124833222 
571	 0,102770703468509 
572	 0,103049515762454 
573	 0,103515935474039 
574	 0,10437843193081 
575	 0,105624209677647 
576	 0,106561810245126 
577	 0,107382624121996 
578	 0,108351576503568 
579	 0,109157437244672 
580	 0,109929246230928 
581	 0,111286783095894 
582	 0,112649544232221 
583	 0,11356554433338 
584	 0,11331541462403 
585	 0,112911488582713 
586	 0,114302076986862 
587	 0,115260727054067 
588	 0,115415877856729 
589	 0,116366355321695 
590	 0,117348528966246 
591	 0,117628692843331 
592	 0,118044936527019 
593	 0,118582779844413 
594	 0,118795636512612 
595	 0,118751813517566 
596	 0,118507729670444 
597	 0,118248021871087 
598	 0,118071180946298 
599	 0,118090984079694 
600	 0,117725210219197 
601	 0,117074447140675 
602	 0,117245955987584 
603	 0,117300104741425 
604	 0,116509447723518 
605	 0,115528645834663 
606	 0,114811431053083 
607	 0,11526241789834 
608	 0,115284863458945 
609	 0,114371020084855 
610	 0,113620242994622 
611	 0,11294211737545 
612	 0,112110410214722 
613	 0,111343269524032 
614	 0,110753450933926 
615	 0,110538576945778 
616	 0,110181345959657 
617	 0,109466420377292 
618	 0,109682899325536 
619	 0,110311831778017 
620	 0,109997790349429 
621	 0,109591164851181 
622	 0,109392095898764 
623	 0,109460110984843 
624	 0,109624722129413 
625	 0,109703676074141 
626	 0,10977539408466 
627	 0,109848923110743 
628	 0,109896374688161 
629	 0,110024913540759 
630	 0,11030701030373 
631	 0,110740199807077 
632	 0,111402975590849 
633	 0,11246617032683 
634	 0,112905316248482 
635	 0,112795520841828 
636	 0,11383300019533 
637	 0,114897610655979 
638	 0,115091795971113 
639	 0,116247178229582 
640	 0,117822775335438 
641	 0,11751481576275 
642	 0,11775354618167 
643	 0,119225988985507 
644	 0,119805297189607 
645	 0,119625958777467 
646	 0,119115735662231 
647	 0,119577769875757 
648	 0,120722660154705 
649	 0,120324512155536 
650	 0,119472838397103 
651	 0,118879032033359 
652	 0,117916929240001 
653	 0,11679615834321 
654	 0,116135602284309 
655	 0,11504362694795 
656	 0,11339078597696 
657	 0,112086031029419 
658	 0,110906286559389 
659	 0,10955481014494 
660	 0,107962123154238 
661	 0,106283680015499 
662	 0,104922227237562 
663	 0,103900740405021 
664	 0,103131956052889 
665	 0,101789207995491 
666	 0,100476323626157 
667	 0,100285505681238 
668	 0,100039817265217 
669	 9,94757851965078E-02 
670	 9,89744634507407E-02 
671	 0,098665495627585 
672	 9,86188591857915E-02 
673	 9,84236267958818E-02 
674	 0,098129914892631 
675	 0,098117175554452 
676	 9,77296665679207E-02 
677	 9,69581306601881E-02 
678	 9,71190290461805E-02 
679	 9,77380442695371E-02 
680	 9,81216917838239E-02 
681	 0,098034171011722 
682	 9,78203353255656E-02 
683	 9,88244457025185E-02 
684	 9,97860970465554E-02 
685	 0,100071985190912 
686	 0,100935959436055 
687	 0,102432576432306 
688	 0,104354821512377 
689	 0,106379233714834 
690	 0,108652103873585 
691	 0,112193028144568 
692	 0,116570607459236 
693	 0,121345306925166 
694	 0,126490565007916 
695	 0,132279208425201 
696	 0,139267798070848 
697	 0,147641019880696 
698	 0,157354505855398 
699	 0,167520678274854 
700	 0,178194329295314 
701	 0,189567940640808 
702	 0,201196117501279 
703	 0,212821900681488 
704	 0,22412557105451 
705	 0,235390338194379 
706	 0,246733392725803 
707	 0,257788452295302 
708	 0,268424055810659 
709	 0,278504955216982 
710	 0,288199595177064 
711	 0,297524256332518 
712	 0,306363712741428 
713	 0,314562055012766 
714	 0,322009004074679 
715	 0,329164521274241 
716	 0,335985728971162 
717	 0,342133557780299 
718	 0,347672807931159 
719	 0,352716885552661 
720	 0,357777887033528 
721	 0,362592328360162 
722	 0,366763455553025 
723	 0,370709459649656 
724	 0,37440392639733 
725	 0,377391486312215 
726	 0,380034211453137 
727	 0,382606090724526 
728	 0,385340648507859 
729	 0,387862439065385 
730	 0,389419393586911 
731	 0,391128713026262 
732	 0,393119973468578 
733	 0,394266817269869 
734	 0,395421671517017 
735	 0,397288488245783 
736	 0,398622723205962 
737	 0,399434784669915 
738	 0,400284502928662 
739	 0,401242461255525 
740	 0,402333721000703 
741	 0,403371850464179 
742	 0,404220105296362 
743	 0,404747951102909 
744	 0,405197792118749 
745	 0,405675626770199 
746	 0,406298636545535 
747	 0,40684111187541 
748	 0,407183799235945 
749	 0,407454406442388 
750	 0,407676892561376 
751	 0,40786308535578 
752	 0,407991478606798 
753	 0,408094137178766 
754	 0,408281160166548 
755	 0,408523546766476 
756	 0,408797024035841 
757	 0,40912509383212 
758	 0,40938688932523 
759	 0,409309779067656 
760	 0,409480169679224 
761	 0,40995934096757 
762	 0,410044048083037 
763	 0,410019235786447 
764	 0,41018834104783 
765	 0,410502172601721 
766	 0,410873940234248 
767	 0,411097327767692 
768	 0,41132409115655 
769	 0,411592474118131 
770	 0,411783700082704 
771	 0,411910863218523 
772	 0,412003262157367 
773	 0,412129562121482 
774	 0,412297769501295 
775	 0,412500499017204 
776	 0,412533796710323 
777	 0,412371877741976 
778	 0,412665372403651 
779	 0,413021327120638 
780	 0,412762716376198 
781	 0,412624440966278 
782	 0,412782044719764 
783	 0,413155566409947 
784	 0,413305373090921 
785	 0,412984420296788 
786	 0,412768000430778 
787	 0,412676440219892 
788	 0,412591731191494 
789	 0,412414731749548 
790	 0,412173856103013 
791	 0,412133216904591 
792	 0,412140816045479 
793	 0,412069852176677 
794	 0,412030167371713 
795	 0,411894824289534 
796	 0,411292373428859 
797	 0,411219744889072 
798	 0,411788236528735 
799	 0,411773996811077 
800	 0,411515587780668 
801	 0,411386398187935 
802	 0,411198896793735 
803	 0,411029384467214 
804	 0,411081162628289 
805	 0,411398388966999 
806	 0,411932891338298 
807	 0,412340333790529 
808	 0,412656371806576 
809	 0,41294552412235 
810	 0,413080670748669 
811	 0,413100503809699 
812	 0,413156402904037 
813	 0,413304132031868 
814	 0,413503368972884 
815	 0,413306177928812 
816	 0,413114280912728 
817	 0,413435363074338 
818	 0,413816870287919 
819	 0,414128361091715 
820	 0,414382001760456 
821	 0,414290657039458 
822	 0,413868388790867 
823	 0,414115764204865 
824	 0,414569859661433 
825	 0,414516712155376 
826	 0,414819804290826 
827	 0,415423358008523 
828	 0,415558060028844 
829	 0,415471155932231 
830	 0,415294214584792 
831	 0,415024596207711 
832	 0,414841417729082 
833	 0,414966523902728 
834	 0,414928937045642 
835	 0,414797021614564 
836	 0,415244072519268 
837	 0,415516973825072 
838	 0,415244826332199 
839	 0,414901102352294 
840	 0,414826761998931 
841	 0,415397437870096 
842	 0,415978182862945 
843	 0,416282773291113 
844	 0,416028215520959 
845	 0,415681311157589 
846	 0,415584789384472 
847	 0,416076950287903 
848	 0,416570668076054 
849	 0,416209727620871 
850	 0,415640748129998 
851	 0,415169985495666 
852	 0,415134924937862 
853	 0,415386645694192 
854	 0,415774035311562 
855	 0,415946277412185 
856	 0,415945609378734 
857	 0,415901374747284 
858	 0,415439073378502 
859	 0,414893168446024 
860	 0,415726395924174 
861	 0,415754779982088 
862	 0,414214205639402 
863	 0,41424302259441 
864	 0,414776864468547 
865	 0,414032087350089 
866	 0,414135065705778 
867	 0,415030374100143 
868	 0,415071238333182 
869	 0,414967926094956 
870	 0,414927011511072 
871	 0,414081571201746 
872	 0,413469094324661 
873	 0,414347556480159 
874	 0,414995203140332 
875	 0,415140443969542 
876	 0,415168550069707 
877	 0,415382318953995 
878	 0,415843705611165 
879	 0,415970202373501 
880	 0,416025539767572 
881	 0,416325830267613 
882	 0,416524089181771 
883	 0,416513334299243 
884	 0,416105607713212 
885	 0,416165179497821 
886	 0,416879635090141 
887	 0,417380562729412 
888	 0,417663617535292 
889	 0,417753491264547 
890	 0,417321784210926 
891	 0,416846653298909 
892	 0,417471744316395 
893	 0,4179834994922 
894	 0,418037834376078 
895	 0,417980506523357 
896	 0,418231911024514 
897	 0,419002163971564 
898	 0,419079467544158 
899	 0,418763857813977 
900	 0,418929329138677 
901	 0,419234502831717 
902	 0,419453491504457 
903	 0,419008538733741 
904	 0,418956824893925 
905	 0,419745313468072 
906	 0,41939255171313 
907	 0,418665541851689 
908	 0,418976359712756 
909	 0,419237686288024 
910	 0,419164227081471 
911	 0,418615581662281 
912	 0,418643993886396 
913	 0,41947626345481 
914	 0,419119266593584 
915	 0,418633364589171 
916	 0,41930225614931 
917	 0,419300714282301 
918	 0,418584345192379 
919	 0,417907601938135 
920	 0,417794408777461 
921	 0,418040204293188 
922	 0,416459134538215 
923	 0,415252629500696 
924	 0,416081976797614 
925	 0,415646014934385 
926	 0,414508530765467 
927	 0,414660162101121 
928	 0,414435954386948 
929	 0,413556081947846 
930	 0,412674167402767 
931	 0,412234926595582 
932	 0,412326670712542 
933	 0,411583598392936 
934	 0,410500683463471 
935	 0,409894451150242 
936	 0,408516854365783 
937	 0,406925729103918 
938	 0,407564713662567 
939	 0,407437566031265 
940	 0,405718505440695 
941	 0,40461704256819 
942	 0,403951788719061 
943	 0,403321858737534 
944	 0,401405796599204 
945	 0,398891032290299 
946	 0,397412698652051 
947	 0,396983119186129 
948	 0,397026022707878 
949	 0,395457899448961 
950	 0,393571260861096 
951	 0,392094423077714 
952	 0,390402814022376 
953	 0,388853077271441 
954	 0,387867924542926 
955	 0,385777624364774 
956	 0,383118216341715 
957	 0,382036661133498 
958	 0,381760397607365 
959	 0,381882382759651 
960	 0,381991717532695 
961	 0,38083897831171 
962	 0,377863558630106 
963	 0,376390383047553 
964	 0,376284884928724 
965	 0,376505665416308 
966	 0,376769661791062 
967	 0,376975927786803 
968	 0,377520524935483 
969	 0,376729699679425 
970	 0,374539340453823 
971	 0,374708495038408 
972	 0,375100455451249 
973	 0,373806555429077 
974	 0,374517556929408 
975	 0,376059029998244 
976	 0,375336150345759 
977	 0,374291007372673 
978	 0,373573560325681 
979	 0,373364196481397 
980	 0,374119073005125 
981	 0,375488837393208 
982	 0,374087600868505 
983	 0,37280031052992 
984	 0,37465206349543 
985	 0,376708284921536 
986	 0,378143059055473 
987	 0,378534149140476 
988	 0,378395396977528 
989	 0,377797917733239 
990	 0,376198695540292 
991	 0,375111514639107 
992	 0,375611394963145 
993	 0,378903282023457 
994	 0,380897533439138 
995	 0,377953955156109 
996	 0,379507513656223 
997	 0,383622880464624 
998	 0,383217789886116 
999	 0,382521076498555 
1000	 0,382511439576308 
1001	 0,382497172687483 
1002	 0,38207358313023 
1003	 0,381425623240534 
1004	 0,382677450541457 
1005	 0,384906701330268 
1006	 0,386764003320471 
1007	 0,385080594585929 
1008	 0,383529546020234 
1009	 0,389528457206448 
1010	 0,390813941557256 
1011	 0,387565023716307 
1012	 0,391921949838926 
1013	 0,394520674110803 
1014	 0,39238257000939 
1015	 0,392413294406761 
1016	 0,393768230209296 
1017	 0,395331811309203 
1018	 0,396683123370995 
1019	 0,396607327561249 
1020	 0,393722787272778 
1021	 0,395750574366551 
1022	 0,401017788660868 
1023	 0,399565498635116 
1024	 0,397612799796122 
1025	 0,397520226793676 
1026	 0,400071357282638 
1027	 0,400515648204281 
1028	 0,396597465328434 
1029	 0,395066285980398 
1030	 0,397460576977266 
1031	 0,403887450948848 
1032	 0,405471364185734 
1033	 0,403655318766702 
1034	 0,405092346313088 
1035	 0,405883500301931 
1036	 0,405715720216463 
1037	 0,406790665845594 
1038	 0,409403032149057 
1039	 0,41240239212842 
1040	 0,40910589444983 
1041	 0,406078634876747 
1042	 0,408277246862799 
1043	 0,407054471385765 
1044	 0,40482729915754 
1045	 0,406287416122048 
1046	 0,407613343622165 
1047	 0,409810269695805 
1048	 0,417523467124841 
1049	 0,419507603074418 
1050	 0,413573344805025 
1051	 0,405398434281502 
1052	 0,402924489947639 
1053	 0,408740506572869 
1054	 0,410010298203565 
1055	 0,410627302034532 
1056	 0,41376570904774 
1057	 0,411226579625993 
1058	 0,406380711621342 
1059	 0,405668188971134 
1060	 0,40923504794829 
1061	 0,414588129368802 
1062	 0,416194402356074 
1063	 0,408662526339607 
1064	 0,398732186840969 
1065	 0,416262490599525 
1066	 0,42967126523468 
1067	 0,427132831540068 
1068	 0,423169646345391 
1069	 0,416895293547107 
1070	 0,40760529236957 
1071	 0,394356928981722 
1072	 0,385359548720781 
1073	 0,389196567767229 
1074	 0,395378554936456 
1075	 0,402969748821415 
