Wavelength	MORB100488.asd
325	 0,247271083542585 
326	 0,212537253783863 
327	 0,200938164379761 
328	 0,23966282667016 
329	 0,214657951438959 
330	 0,129060032988578 
331	-9,13179845115483E-03 
332	 5,88682306669337E-03 
333	 0,139534771371289 
334	 0,239660960348706 
335	 0,256059689283463 
336	 0,179588446710635 
337	 5,17971594113726E-02 
338	-8,01714690784467E-03 
339	 6,36416321799675E-02 
340	 0,115072367227623 
341	 0,147185840609656 
342	 0,211983624392361 
343	 0,210387874892163 
344	 0,135178188200763 
345	 0,136164514736119 
346	 0,158036514793382 
347	 0,1422558896554 
348	 0,120631515359647 
349	 0,10228612769396 
350	 0,088459036616513 
351	 9,63203007382192E-02 
352	 0,126993489970589 
353	 0,153254691302049 
354	 0,151516884831152 
355	 0,10536229939215 
356	 0,102257617757262 
357	 0,135098993998596 
358	 0,124552155053198 
359	 0,102533116343851 
360	 8,72522830341057E-02 
361	 0,105510732983197 
362	 0,130553555439015 
363	 0,126798227243846 
364	 0,10416304592707 
365	 7,35736627412543E-02 
366	 8,75163143325048E-02 
367	 0,116098020402032 
368	 0,135247826723933 
369	 0,100351542983119 
370	 5,43230576764936E-02 
371	 8,68085273351955E-02 
372	 0,106025011408907 
373	 9,50854858545657E-02 
374	 9,61001081604111E-02 
375	 0,106039324888476 
376	 0,119491118514162 
377	 0,104867014626486 
378	 8,30426534741274E-02 
379	 0,107235185055263 
380	 0,116848451746903 
381	 0,101229716395607 
382	 0,109394699534384 
383	 0,112074835101371 
384	 8,17340381321711E-02 
385	 8,24316998703433E-02 
386	 0,110356632948688 
387	 0,133476381956701 
388	 0,132336716717842 
389	 0,103776503099061 
390	 8,43888193364699E-02 
391	 8,48557085426076E-02 
392	 0,112758188081465 
393	 0,117406065850708 
394	 9,98780606824788E-02 
395	 0,096872036375886 
396	 0,104212259182149 
397	 0,117655507567544 
398	 0,123024626501952 
399	 0,119822234299825 
400	 0,109253206790648 
401	 0,10614104411901 
402	 0,10995654716361 
403	 9,94421723019778E-02 
404	 9,46646588626392E-02 
405	 0,107779486197205 
406	 0,111223219090557 
407	 0,107605298250236 
408	 0,110140420186042 
409	 0,114107493097059 
410	 0,116920575385256 
411	 0,112395961638255 
412	 0,106995618137786 
413	 0,106879358750612 
414	 0,108124222011274 
415	 0,108851498005466 
416	 0,106248262235562 
417	 0,104331680883688 
418	 0,104150320772214 
419	 0,100598639334806 
420	 9,76929994727857E-02 
421	 0,101029193648518 
422	 0,102793339794333 
423	 0,101678738117718 
424	 9,90537586558957E-02 
425	 9,96171078310872E-02 
426	 0,105133632056939 
427	 0,105653967517289 
428	 0,103509447098315 
429	 0,105102615388336 
430	 0,106306620472717 
431	 0,106973577447405 
432	 0,111952801585099 
433	 0,114897472951323 
434	 0,110599155028542 
435	 0,106601630707217 
436	 0,10457924331709 
437	 0,10483611635393 
438	 0,105060348834729 
439	 0,10482185570475 
440	 0,108251196497778 
441	 0,111736363145163 
442	 0,11037589316733 
443	 0,107957880749804 
444	 0,106495969512385 
445	 0,109197673152234 
446	 0,112672710664012 
447	 0,114528236607397 
448	 0,114221724034571 
449	 0,113029054379433 
450	 0,113446029829028 
451	 0,113171257135296 
452	 0,112161652348187 
453	 0,113587043357041 
454	 0,114428776903228 
455	 0,111983148179194 
456	 0,109797227387611 
457	 0,109390888359581 
458	 0,11301161120972 
459	 0,115361045651035 
460	 0,114385586890526 
461	 0,113314298504379 
462	 0,112956529667875 
463	 0,113920561817731 
464	 0,114331012131857 
465	 0,113936457803948 
466	 0,113690175596649 
467	 0,11365973703208 
468	 0,113854404913389 
469	 0,113960849237255 
470	 0,11366981818977 
471	 0,112237195441617 
472	 0,112763019050511 
473	 0,115268210379571 
474	 0,114959192839828 
475	 0,113000355944117 
476	 0,110919647534395 
477	 0,110395325255149 
478	 0,111253233546083 
479	 0,11168088511949 
480	 0,113035962965355 
481	 0,115363117149973 
482	 0,115425172306244 
483	 0,113744100173438 
484	 0,111567731512662 
485	 0,110024972210617 
486	 0,109736567447234 
487	 0,111426174468222 
488	 0,112790262328436 
489	 0,112168781551166 
490	 0,111347304494868 
491	 0,11083726359893 
492	 0,111107599440555 
493	 0,111480639763397 
494	 0,111351273790301 
495	 0,108816334091171 
496	 0,10697961874335 
497	 0,109348637113203 
498	 0,111136959634451 
499	 0,111302603826712 
500	 0,110229155234385 
501	 0,109916429025129 
502	 0,111258554979387 
503	 0,111283810282138 
504	 0,110612409744433 
505	 0,111016043819011 
506	 0,111032665672735 
507	 0,110636994952568 
508	 0,111417287758197 
509	 0,112864716586895 
510	 0,114381524666011 
511	 0,114922709675569 
512	 0,114670814022243 
513	 0,114780164107931 
514	 0,114284866140198 
515	 0,113132808377007 
516	 0,11344108344576 
517	 0,114603752372952 
518	 0,115537598571527 
519	 0,115361855735393 
520	 0,11428762559863 
521	 0,113991126894608 
522	 0,114120828945501 
523	 0,114398512180822 
524	 0,114918594854462 
525	 0,115429101871522 
526	 0,11537495449535 
527	 0,115356773534992 
528	 0,115567009971861 
529	 0,11585551645266 
530	 0,115962270866112 
531	 0,115616087894932 
532	 0,11499981400165 
533	 0,114403111741878 
534	 0,11446141395019 
535	 0,11480617275312 
536	 0,11516244864982 
537	 0,11525396523173 
538	 0,115179489830057 
539	 0,115219355406323 
540	 0,115121188863373 
541	 0,114892558623081 
542	 0,114874451026305 
543	 0,114958852832067 
544	 0,115037650716925 
545	 0,115514216736055 
546	 0,116156351392449 
547	 0,116150631586248 
548	 0,115997628705109 
549	 0,115926635493464 
550	 0,11566644514593 
551	 0,115585862036661 
552	 0,116294922154171 
553	 0,116806900476264 
554	 0,116841311696524 
555	 0,116667152231675 
556	 0,116198782816575 
557	 0,115419779056013 
558	 0,114996142691964 
559	 0,114988695345678 
560	 0,115316216762497 
561	 0,115090513878323 
562	 0,114196479857719 
563	 0,114498688522927 
564	 0,115087362043623 
565	 0,114554877298281 
566	 0,114244306117851 
567	 0,114428218571251 
568	 0,114718350648219 
569	 0,115439158730957 
570	 0,116655751136331 
571	 0,116699303257521 
572	 0,116239387115821 
573	 0,11728640531689 
574	 0,118445087181773 
575	 0,119235887353428 
576	 0,119815491721102 
577	 0,120507631772583 
578	 0,121652083468683 
579	 0,122647351766371 
580	 0,123541152835274 
581	 0,12501515868347 
582	 0,126287984960586 
583	 0,126843908457602 
584	 0,126399036258489 
585	 0,125980495698975 
586	 0,127471521987291 
587	 0,128292985837 
588	 0,128037053933 
589	 0,128667273125458 
590	 0,129586161695422 
591	 0,130138249888532 
592	 0,129951867682449 
593	 0,129553613705439 
594	 0,130664962035587 
595	 0,131395650133809 
596	 0,130977463832454 
597	 0,130725430375922 
598	 0,130670935447864 
599	 0,130654511714306 
600	 0,130219489255567 
601	 0,129511224093278 
602	 0,129603027199157 
603	 0,129888991049182 
604	 0,129811779994309 
605	 0,128826883528677 
606	 0,127668086910992 
607	 0,128491111231652 
608	 0,128613710112681 
609	 0,12732814075354 
610	 0,127005027767438 
611	 0,126908655421215 
612	 0,125902232967742 
613	 0,125059976956091 
614	 0,124507758035629 
615	 0,123666898879853 
616	 0,123136031638215 
617	 0,123282049006124 
618	 0,123758279714109 
619	 0,12414905748731 
620	 0,123807098321242 
621	 0,123264659519421 
622	 0,122820435031515 
623	 0,122940861932756 
624	 0,123083935736077 
625	 0,122694339110001 
626	 0,122699428167192 
627	 0,123147054031917 
628	 0,12364786459585 
629	 0,123867155355113 
630	 0,123678105575659 
631	 0,1237050775024 
632	 0,123823577688448 
633	 0,123634459025305 
634	 0,124519170263463 
635	 0,126326874912465 
636	 0,126795526252671 
637	 0,126708274787483 
638	 0,126875948883428 
639	 0,128208063239477 
640	 0,130009108002045 
641	 0,130130458232724 
642	 0,129929715779737 
643	 0,129952430047705 
644	 0,12999849472587 
645	 0,130187317863454 
646	 0,130672386299895 
647	 0,131187676859299 
648	 0,131514214393474 
649	 0,131268842294899 
650	 0,130817506476317 
651	 0,130358324062233 
652	 0,129228235924176 
653	 0,127860802247319 
654	 0,127332308407007 
655	 0,12653612920419 
656	 0,125217290227639 
657	 0,124053275858304 
658	 0,12292794754635 
659	 0,121671554325398 
660	 0,120071040350832 
661	 0,11847866821067 
662	 0,118045443646822 
663	 0,117412812932355 
664	 0,115979038084381 
665	 0,114699639558289 
666	 0,113975019707554 
667	 0,114281448007122 
668	 0,11386887571821 
669	 0,112560412431543 
670	 0,111784184598092 
671	 0,11162878979512 
672	 0,112048481021727 
673	 0,111938602478135 
674	 0,111426862463326 
675	 0,111422676024373 
676	 0,110943820396274 
677	 0,109991800364749 
678	 0,110609703123623 
679	 0,111559853555377 
680	 0,111208367515893 
681	 0,111002179505364 
682	 0,111244542179882 
683	 0,111717239770883 
684	 0,112444233723911 
685	 0,11343789790809 
686	 0,114712625933154 
687	 0,116161416469252 
688	 0,117583724237708 
689	 0,119340659707007 
690	 0,121691747858648 
691	 0,125050694431408 
692	 0,129104335297155 
693	 0,13354052628507 
694	 0,138302779285499 
695	 0,143631196389746 
696	 0,150049157837621 
697	 0,157536329078973 
698	 0,166106300071358 
699	 0,175726169750074 
700	 0,186057172153236 
701	 0,196685807079319 
702	 0,207441926890377 
703	 0,218353681401458 
704	 0,229779048095722 
705	 0,241391169379772 
706	 0,252871554308479 
707	 0,263768748245552 
708	 0,274231251198036 
709	 0,284648537138295 
710	 0,294994010221515 
711	 0,305064975817203 
712	 0,314061406047254 
713	 0,322475940873475 
714	 0,330789241970825 
715	 0,338602380392114 
716	 0,345975156823639 
717	 0,353390877457204 
718	 0,359692822062 
719	 0,364651038527866 
720	 0,370081763030238 
721	 0,375594068606627 
722	 0,380465371716003 
723	 0,384699538729893 
724	 0,388452798303007 
725	 0,392293595383075 
726	 0,395732500429249 
727	 0,398508410215011 
728	 0,40106727602754 
729	 0,40350989774997 
730	 0,405868262737289 
731	 0,408320060912867 
732	 0,410719888770725 
733	 0,412247432612996 
734	 0,413424104183287 
735	 0,41475502501654 
736	 0,416312770703585 
737	 0,417905122577659 
738	 0,418989002714544 
739	 0,420024994895432 
740	 0,421140518729741 
741	 0,422034785019687 
742	 0,422764789934487 
743	 0,423422512630762 
744	 0,424020334843024 
745	 0,424612958616135 
746	 0,425328100176279 
747	 0,426024904845121 
748	 0,426605621861402 
749	 0,427002789425643 
750	 0,427284297054883 
751	 0,427550568593171 
752	 0,428170774741028 
753	 0,428967284813298 
754	 0,428862452454864 
755	 0,428704201803836 
756	 0,429098219848788 
757	 0,42946103393199 
758	 0,429740219544382 
759	 0,430014808669335 
760	 0,430272659764117 
761	 0,430487213629948 
762	 0,43054952395333 
763	 0,430584524520338 
764	 0,430728436305092 
765	 0,431183519127672 
766	 0,431741721306613 
767	 0,431739813776955 
768	 0,431898954095422 
769	 0,432427164392719 
770	 0,432753546157977 
771	 0,432932207533058 
772	 0,433082472903065 
773	 0,432958970221919 
774	 0,432746340887263 
775	 0,433146396838227 
776	 0,433523510733985 
777	 0,433572598645441 
778	 0,433689948465212 
779	 0,43380867133297 
780	 0,433774168865258 
781	 0,433624394618132 
782	 0,433473665928844 
783	 0,4336830044956 
784	 0,433849012059006 
785	 0,433731441959959 
786	 0,433730912913984 
787	 0,433798543037454 
788	 0,4337514112491 
789	 0,433649648893964 
790	 0,43350959665164 
791	 0,433329632252528 
792	 0,433156995002354 
793	 0,43304091722353 
794	 0,433114546076155 
795	 0,433151515054877 
796	 0,432595749215759 
797	 0,432280846609764 
798	 0,432410464491398 
799	 0,432490181466474 
800	 0,432378349281489 
801	 0,431994419285967 
802	 0,431753690707924 
803	 0,431792611639197 
804	 0,432249758810551 
805	 0,432638177946978 
806	 0,43277904774361 
807	 0,432915662656433 
808	 0,433059882196803 
809	 0,433218018072327 
810	 0,43366210473759 
811	 0,434154269007568 
812	 0,433856858829553 
813	 0,433739455913888 
814	 0,434103799357937 
815	 0,434056351178544 
816	 0,433833701727626 
817	 0,43381042958626 
818	 0,434074673929359 
819	 0,434524155462837 
820	 0,434801943441893 
821	 0,434955021605282 
822	 0,43502293331849 
823	 0,43517366260176 
824	 0,435339659892755 
825	 0,435413696712766 
826	 0,435758712215068 
827	 0,436252275148717 
828	 0,436256358221083 
829	 0,436166226900307 
830	 0,436190480778775 
831	 0,436228508755574 
832	 0,43633188151379 
833	 0,436574929400464 
834	 0,436780357308319 
835	 0,436890287757665 
836	 0,436911383393879 
837	 0,436827534650269 
838	 0,436659946462573 
839	 0,436488841052389 
840	 0,436686180709479 
841	 0,437733994084108 
842	 0,437856678123522 
843	 0,437024974866191 
844	 0,436693245740005 
845	 0,436778254197378 
846	 0,437216292778539 
847	 0,43771629927459 
848	 0,438034095542612 
849	 0,437907970784677 
850	 0,437823800115574 
851	 0,437779486069556 
852	 0,437258119416045 
853	 0,436963946009602 
854	 0,437215631772448 
855	 0,437246721543145 
856	 0,437336612200573 
857	 0,437973566332684 
858	 0,437974005706811 
859	 0,437425161633765 
860	 0,43767777744179 
861	 0,437529279636722 
862	 0,436575935714893 
863	 0,436514289325759 
864	 0,436706640759658 
865	 0,436116260720976 
866	 0,436443857026255 
867	 0,437516724258514 
868	 0,437631582753754 
869	 0,437595913008543 
870	 0,437650385588972 
871	 0,436834374260416 
872	 0,436209215676499 
873	 0,437065729200037 
874	 0,437432185216049 
875	 0,437144426779174 
876	 0,437035404407335 
877	 0,437087318262734 
878	 0,437368920744252 
879	 0,438203538024973 
880	 0,438586654238709 
881	 0,437555043025216 
882	 0,437695953133296 
883	 0,438803485303708 
884	 0,438969055493017 
885	 0,438675970574018 
886	 0,438338618926666 
887	 0,43938857304744 
888	 0,440351857095455 
889	 0,439844805089565 
890	 0,4392934727363 
891	 0,439173235175331 
892	 0,439956245129804 
893	 0,440433103361012 
894	 0,440270706245593 
895	 0,440031245896215 
896	 0,439888268131795 
897	 0,439979319034096 
898	 0,440384501443198 
899	 0,440656049410742 
900	 0,439931490425474 
901	 0,440601854172924 
902	 0,442378718393826 
903	 0,441402725054222 
904	 0,440681473542255 
905	 0,441853179320868 
906	 0,442070407784626 
907	 0,441519819457773 
908	 0,440970666048939 
909	 0,440207643976401 
910	 0,439571296824182 
911	 0,440134195341291 
912	 0,440709909709371 
913	 0,440771684354307 
914	 0,440956230973604 
915	 0,44122829571675 
916	 0,441447136847535 
917	 0,440524038867406 
918	 0,439302551250001 
919	 0,440531829595445 
920	 0,441166904602227 
921	 0,440350039777247 
922	 0,439627155097237 
923	 0,438877859942551 
924	 0,437990518940667 
925	 0,43720139848396 
926	 0,436679853887281 
927	 0,436654820215028 
928	 0,436495539480112 
929	 0,435956399651718 
930	 0,4348559592105 
931	 0,434218598121648 
932	 0,434495651858159 
933	 0,43422974558538 
934	 0,433685102766061 
935	 0,433403750782511 
936	 0,432701666023823 
937	 0,431751398259144 
938	 0,43144746995347 
939	 0,431124026814653 
940	 0,430506371797559 
941	 0,429539130781804 
942	 0,428831721581291 
943	 0,428815689084202 
944	 0,428263435711648 
945	 0,427093841625057 
946	 0,425556808629047 
947	 0,4243677150122 
948	 0,42364060956578 
949	 0,422952624375407 
950	 0,421795759182352 
951	 0,420056175404751 
952	 0,418955813259426 
953	 0,418442444801157 
954	 0,418216243334355 
955	 0,416757683473658 
956	 0,414399114286208 
957	 0,412753795236271 
958	 0,411823435753092 
959	 0,411655605631564 
960	 0,412246621340063 
961	 0,412073099830165 
962	 0,410177677643338 
963	 0,408639093105675 
964	 0,408084492667069 
965	 0,408899423389937 
966	 0,409805967055304 
967	 0,410245807309851 
968	 0,409844635579814 
969	 0,408939624280595 
970	 0,407894972912722 
971	 0,40758579958163 
972	 0,407378554569832 
973	 0,406739751792664 
974	 0,406961042894461 
975	 0,407940221851254 
976	 0,40917136896365 
977	 0,408889827805691 
978	 0,407139953726272 
979	 0,40559089950832 
980	 0,406414211558503 
981	 0,409735276074395 
982	 0,409340440358553 
983	 0,407682669746682 
984	 0,407727238987975 
985	 0,407797576729194 
986	 0,407719506913524 
987	 0,407626138258384 
988	 0,407827566803389 
989	 0,408338657247593 
990	 0,408827381061926 
991	 0,40946806523218 
992	 0,410214501202638 
993	 0,410339899408639 
994	 0,410190079257355 
995	 0,410290402986154 
996	 0,411746120757939 
997	 0,413994363734488 
998	 0,415622377540248 
999	 0,416276444159514 
1000	 0,415929107939574 
1001	 0,414930389415565 
1002	 0,414792601974527 
1003	 0,415875262052405 
1004	 0,414939980623521 
1005	 0,415128096294291 
1006	 0,419117295855411 
1007	 0,419615302253518 
1008	 0,417993709701677 
1009	 0,418996968705241 
1010	 0,418597785492012 
1011	 0,417240928709961 
1012	 0,419701591148661 
1013	 0,422059443507589 
1014	 0,422558995373185 
1015	 0,42162193856193 
1016	 0,421916749212516 
1017	 0,425316422275198 
1018	 0,428229443738489 
1019	 0,428846418052043 
1020	 0,425657528301167 
1021	 0,425282414250687 
1022	 0,427906332701435 
1023	 0,429347270444267 
1024	 0,429806803278783 
1025	 0,42909378332558 
1026	 0,426608115872081 
1027	 0,426512388913849 
1028	 0,430540339181824 
1029	 0,430900637163825 
1030	 0,428961365486077 
1031	 0,42765054227871 
1032	 0,429714854498606 
1033	 0,434140355407843 
1034	 0,43782149868333 
1035	 0,438617957463057 
1036	 0,436503838686534 
1037	 0,433854360962803 
1038	 0,433751320858391 
1039	 0,436881365210132 
1040	 0,438102385261702 
1041	 0,43797885067419 
1042	 0,437617199745414 
1043	 0,440580156158431 
1044	 0,442212457156865 
1045	 0,436080747768375 
1046	 0,432086922346741 
1047	 0,430769381929617 
1048	 0,42769887266374 
1049	 0,42847446406044 
1050	 0,433047644094256 
1051	 0,435161600988723 
1052	 0,436089674777756 
1053	 0,436874128001012 
1054	 0,439912334581838 
1055	 0,445428785471708 
1056	 0,45199484675959 
1057	 0,449819766227014 
1058	 0,440153576290266 
1059	 0,428247891367401 
1060	 0,428992822360608 
1061	 0,438969923731796 
1062	 0,443074727628118 
1063	 0,439024100872909 
1064	 0,432454376110525 
1065	 0,447270966834928 
1066	 0,46110493898855 
1067	 0,462916438353024 
1068	 0,44694513846406 
1069	 0,436872747136464 
1070	 0,447641779454735 
1071	 0,442881576525517 
1072	 0,431321150003555 
1073	 0,427399920186959 
1074	 0,425316726104695 
1075	 0,4324923874447 
