Wavelength	MORB100429.asd
325	 0,475150477006162 
326	 0,310799515548505 
327	 0,168263773096707 
328	 0,177733578283227 
329	 0,156531688278427 
330	 0,138243410064629 
331	 0,151135453264984 
332	 0,181870228027747 
333	 0,218162274451074 
334	 0,253548140466817 
335	 0,241466258224881 
336	 0,179682633461556 
337	 0,134988463313336 
338	 0,130888435326054 
339	 0,166811143489156 
340	 0,173455338105278 
341	 0,164798984647515 
342	 0,192783161548765 
343	 0,188908677465269 
344	 0,14429839548267 
345	 0,143411199584753 
346	 0,153899054527671 
347	 0,140947020133523 
348	 0,112585000941294 
349	 9,34741916255261E-02 
350	 0,142354027568287 
351	 0,15733177414573 
352	 0,12154505799544 
353	 0,139153722213419 
354	 0,169374106258937 
355	 0,16132552593107 
356	 0,154602322267312 
357	 0,151243569564719 
358	 0,135730313825211 
359	 0,104652736140542 
360	 6,55302230229235E-02 
361	 9,76682621680668E-02 
362	 0,150209407986114 
363	 0,150744484697012 
364	 0,129578492270391 
365	 9,62307392940023E-02 
366	 7,73766276231091E-02 
367	 9,71794133454197E-02 
368	 0,152310315679456 
369	 0,137797447424844 
370	 8,71988493347717E-02 
371	 8,48338896096093E-02 
372	 0,109191555432833 
373	 0,13961078689647 
374	 0,112299145560557 
375	 0,092486093704494 
376	 0,125074306759001 
377	 0,126632238525449 
378	 0,10692755560922 
379	 0,113924819260895 
380	 0,118928645935733 
381	 0,115428483516381 
382	 0,116860859123738 
383	 0,108085352138363 
384	 0,077159342561135 
385	 8,58012617229148E-02 
386	 0,120214846675065 
387	 0,121770900102578 
388	 0,123251817012993 
389	 0,130213500841348 
390	 0,101420678270703 
391	 7,17803710520129E-02 
392	 8,65028600816755E-02 
393	 0,101825118864852 
394	 0,108457002087664 
395	 0,111275739984388 
396	 0,106947353479235 
397	 9,71208870263839E-02 
398	 0,104379678421964 
399	 0,114592946274526 
400	 0,104932067179777 
401	 0,094331724792242 
402	 8,94230289897252E-02 
403	 8,87752250981064E-02 
404	 9,45648511962842E-02 
405	 0,106023532463157 
406	 0,102414258204863 
407	 0,090141120894247 
408	 8,76204353564699E-02 
409	 0,090209055958039 
410	 0,095064948901639 
411	 9,56106647556088E-02 
412	 9,30094451185918E-02 
413	 8,90328143646485E-02 
414	 8,85153184717777E-02 
415	 9,09363932140546E-02 
416	 9,28699640992857E-02 
417	 0,093593676030548 
418	 9,22295029917848E-02 
419	 8,61889481797963E-02 
420	 8,03746488032539E-02 
421	 8,11513295461335E-02 
422	 8,52414498514701E-02 
423	 0,089572006120426 
424	 8,69041974919061E-02 
425	 8,51548805829471E-02 
426	 8,84126662166967E-02 
427	 8,74981659405005E-02 
428	 8,56141062581418E-02 
429	 9,08889023778187E-02 
430	 9,21025282863883E-02 
431	 8,78910813329812E-02 
432	 8,73601132319859E-02 
433	 8,89889198774816E-02 
434	 9,07883341964714E-02 
435	 8,85830525504314E-02 
436	 8,45407033631754E-02 
437	 8,63411926802661E-02 
438	 8,73990888137964E-02 
439	 8,60635074681888E-02 
440	 8,88429702940568E-02 
441	 9,30245905186839E-02 
442	 9,44977076367697E-02 
443	 9,32294126005204E-02 
444	 9,05075762062257E-02 
445	 0,090605225493901 
446	 9,13302272486944E-02 
447	 9,12325332137775E-02 
448	 0,090152557825848 
449	 8,93344231615566E-02 
450	 9,13074601662687E-02 
451	 9,07447391598162E-02 
452	 8,78833780939255E-02 
453	 9,23882765984247E-02 
454	 9,55401332514403E-02 
455	 8,95923456567228E-02 
456	 8,69439516909729E-02 
457	 8,92133330133371E-02 
458	 9,44440470938146E-02 
459	 9,71063293924227E-02 
460	 0,094984819881714 
461	 9,19257699062224E-02 
462	 9,04207412979553E-02 
463	 9,31244616911245E-02 
464	 9,40985725426281E-02 
465	 9,25374860197945E-02 
466	 9,12293832958398E-02 
467	 9,10447941530174E-02 
468	 9,23920675532905E-02 
469	 9,31394508816324E-02 
470	 9,35106041425004E-02 
471	 9,46864368383515E-02 
472	 0,095711241397415 
473	 9,58425976329265E-02 
474	 9,32021184008594E-02 
475	 9,05975379502758E-02 
476	 9,08170399253476E-02 
477	 9,17186690692093E-02 
478	 9,22938538659819E-02 
479	 9,07600259759711E-02 
480	 9,10167885251202E-02 
481	 9,43032029456863E-02 
482	 9,60971260959002E-02 
483	 9,55551029396066E-02 
484	 9,21603299746004E-02 
485	 0,089427460498756 
486	 0,088681933257131 
487	 9,03230136990942E-02 
488	 9,24117789303404E-02 
489	 9,33413011854679E-02 
490	 9,26267781606225E-02 
491	 9,11019761101624E-02 
492	 9,08855588407036E-02 
493	 9,05321243724948E-02 
494	 0,089570148385665 
495	 8,78842865696239E-02 
496	 8,70535499547032E-02 
497	 0,088770658813254 
498	 8,95088364346906E-02 
499	 0,089265550865152 
500	 9,09031870353418E-02 
501	 9,19930764531621E-02 
502	 9,12946018535305E-02 
503	 0,090583425484699 
504	 9,02726564595176E-02 
505	 9,06113340986485E-02 
506	 9,10608291354172E-02 
507	 9,13546599919202E-02 
508	 9,11116971103628E-02 
509	 0,091330638069353 
510	 9,28291231583399E-02 
511	 9,39962475065134E-02 
512	 9,41885027869367E-02 
513	 9,24009984554586E-02 
514	 9,16943239439695E-02 
515	 9,31382164373684E-02 
516	 9,39225405469325E-02 
517	 9,39415673747711E-02 
518	 9,34623905011026E-02 
519	 9,35293424252219E-02 
520	 9,41509731525824E-02 
521	 9,42605497663456E-02 
522	 9,39626244262686E-02 
523	 9,34444935846924E-02 
524	 9,37976684522667E-02 
525	 9,44480864340957E-02 
526	 9,36273831720386E-02 
527	 9,32151394070237E-02 
528	 0,093618156363556 
529	 9,33054960295995E-02 
530	 9,27358264465847E-02 
531	 9,25553308577702E-02 
532	 9,30026004559485E-02 
533	 9,36751807570353E-02 
534	 9,31736581805126E-02 
535	 9,24718753318785E-02 
536	 9,22407915916031E-02 
537	 9,29090756522298E-02 
538	 9,37963218397567E-02 
539	 9,35825427794111E-02 
540	 9,31695988306655E-02 
541	 9,29226665538549E-02 
542	 9,31317159978301E-02 
543	 9,34141756182642E-02 
544	 0,093398090772718 
545	 9,35397942893474E-02 
546	 9,37740609152021E-02 
547	 9,36591728162871E-02 
548	 9,35158713586588E-02 
549	 9,36080304048068E-02 
550	 9,46901559633836E-02 
551	 9,56113866440456E-02 
552	 9,44699441528294E-02 
553	 9,38655956399704E-02 
554	 9,42128967342827E-02 
555	 0,093862263276611 
556	 9,35061619732933E-02 
557	 9,37104170352863E-02 
558	 9,37449073958213E-02 
559	 9,36114811349084E-02 
560	 9,36701866805018E-02 
561	 9,36391440004537E-02 
562	 9,34380655434086E-02 
563	 9,32646725099513E-02 
564	 9,32048479484541E-02 
565	 9,33430546741788E-02 
566	 9,32449012218407E-02 
567	 9,30115524253219E-02 
568	 9,33271385880564E-02 
569	 9,40820096574738E-02 
570	 9,51195570617137E-02 
571	 9,57264994487732E-02 
572	 9,61200828024068E-02 
573	 9,70683288471153E-02 
574	 9,79480386167882E-02 
575	 9,85765003748285E-02 
576	 0,099260987535091 
577	 9,98674238216849E-02 
578	 0,100232260274369 
579	 0,100780312118046 
580	 0,101586030163896 
581	 0,102586856151151 
582	 0,103416433086711 
583	 0,103818923054195 
584	 0,103619382309033 
585	 0,103483217796642 
586	 0,104672918009277 
587	 0,104903463172839 
588	 0,103987766635125 
589	 0,104444191349119 
590	 0,105123822578867 
591	 0,104906638666042 
592	 0,10509777904953 
593	 0,10553924684064 
594	 0,105131718422258 
595	 0,104638445200643 
596	 0,104415809265159 
597	 0,1043024655263 
598	 0,104163504677011 
599	 0,103813042550319 
600	 0,103633152392593 
601	 0,103630002811062 
602	 0,103339449892231 
603	 0,103234097085742 
604	 0,103578237632843 
605	 0,102852773988815 
606	 0,10148899833735 
607	 0,101161115630255 
608	 0,100860798985054 
609	 0,100331115153749 
610	 0,100217483155444 
611	 0,100190924637124 
612	 9,97959795461137E-02 
613	 9,89245262144399E-02 
614	 9,79047897626951E-02 
615	 9,78432998917412E-02 
616	 9,79499465845381E-02 
617	 9,77760738070448E-02 
618	 0,098210929314927 
619	 9,87890741567881E-02 
620	 0,09833071052339 
621	 9,83465542468457E-02 
622	 9,90112591263006E-02 
623	 9,85396595337947E-02 
624	 9,81210260237608E-02 
625	 9,90073687886954E-02 
626	 9,91259377314295E-02 
627	 9,85602380758213E-02 
628	 9,88112336249659E-02 
629	 9,94956830191955E-02 
630	 0,100306819797048 
631	 0,100381511404447 
632	 0,100240969616495 
633	 0,100888259483733 
634	 0,101663797289987 
635	 0,102400158925131 
636	 0,103248535730066 
637	 0,103970025101088 
638	 0,104420733642392 
639	 0,105574915270049 
640	 0,107017547142941 
641	 0,107202499141755 
642	 0,107598178225246 
643	 0,10869161221038 
644	 0,109688100144892 
645	 0,110162584700174 
646	 0,109670533983309 
647	 0,110015125466791 
648	 0,111199053189472 
649	 0,111560413550856 
650	 0,111430837773189 
651	 0,111043463692997 
652	 0,110417538827991 
653	 0,109789016241028 
654	 0,10959596785059 
655	 0,109250530532834 
656	 0,108595632735425 
657	 0,107970864541082 
658	 0,107224899352904 
659	 0,106190139612822 
660	 0,105135221993411 
661	 0,104107893348547 
662	 0,102995986728177 
663	 0,10204125274726 
664	 0,101300702823781 
665	 0,100124751259808 
666	 9,90891523265511E-02 
667	 9,92256270437306E-02 
668	 9,88671349077773E-02 
669	 9,77876592336612E-02 
670	 9,70775586575724E-02 
671	 9,67607856373019E-02 
672	 9,68133219690681E-02 
673	 9,69629788594699E-02 
674	 9,70145611214411E-02 
675	 0,096650693484398 
676	 9,63712962700817E-02 
677	 9,63337344638239E-02 
678	 9,62423140771335E-02 
679	 9,60977858451179E-02 
680	 0,095930449261844 
681	 9,58302684776345E-02 
682	 9,59753442659171E-02 
683	 9,68721318579289E-02 
684	 9,75602354753219E-02 
685	 9,76516715120929E-02 
686	 9,89880709624796E-02 
687	 0,100914512363692 
688	 0,101768600834488 
689	 0,103565008804671 
690	 0,106673653867147 
691	 0,109768310863647 
692	 0,113288388755199 
693	 0,117648679411831 
694	 0,122396550818652 
695	 0,127640822743597 
696	 0,133728439609013 
697	 0,14096151119014 
698	 0,149374878810106 
699	 0,158242031264273 
700	 0,167517143727851 
701	 0,177238391861517 
702	 0,187592643636824 
703	 0,198437146532562 
704	 0,209246807017882 
705	 0,220021721575924 
706	 0,230695432139387 
707	 0,241015821096198 
708	 0,251157510568326 
709	 0,261510634222594 
710	 0,271622231882839 
711	 0,2812516388991 
712	 0,29013650974425 
713	 0,298582310391604 
714	 0,306878597910032 
715	 0,314788601005749 
716	 0,322278661686346 
717	 0,329426890119125 
718	 0,33600621549671 
719	 0,341951864498279 
720	 0,347490584140833 
721	 0,352875626308563 
722	 0,358387108866102 
723	 0,363356471902964 
724	 0,367677118596376 
725	 0,37157944847195 
726	 0,375223706735569 
727	 0,37871120551023 
728	 0,381843497834163 
729	 0,384785592140811 
730	 0,387900180964155 
731	 0,390522692152739 
732	 0,39257189194056 
733	 0,394607258446008 
734	 0,396627779588076 
735	 0,398623039866803 
736	 0,400689538227247 
737	 0,402653790272429 
738	 0,404064131207994 
739	 0,405314290935831 
740	 0,406558619483149 
741	 0,407716907662888 
742	 0,408826627728926 
743	 0,409926386977144 
744	 0,410734035170051 
745	 0,411358434281298 
746	 0,412340639925866 
747	 0,413219096191024 
748	 0,413785971362151 
749	 0,414479076787973 
750	 0,415143608702767 
751	 0,415457728618503 
752	 0,415972267293809 
753	 0,416631521187796 
754	 0,416584761028341 
755	 0,416617304993798 
756	 0,417261624236605 
757	 0,417745902943757 
758	 0,418032472313713 
759	 0,41828937081623 
760	 0,418587796075122 
761	 0,418970152498031 
762	 0,419475932455232 
763	 0,41989082786275 
764	 0,420028765009727 
765	 0,420199750819782 
766	 0,420431796721485 
767	 0,420586934633726 
768	 0,420928546958152 
769	 0,421501180538891 
770	 0,421950729390841 
771	 0,422181316231658 
772	 0,422133892074424 
773	 0,422237119490112 
774	 0,422556598149678 
775	 0,422985440716971 
776	 0,423161836641345 
777	 0,422968926010238 
778	 0,423052767040539 
779	 0,423389406379036 
780	 0,423837986406447 
781	 0,423763282388814 
782	 0,423298665816953 
783	 0,4235521478018 
784	 0,424089521028414 
785	 0,424529537478317 
786	 0,424255175515565 
787	 0,423745530262313 
788	 0,424034183342371 
789	 0,424017099857787 
790	 0,423592639092622 
791	 0,423735207090627 
792	 0,424055331577219 
793	 0,424199910829511 
794	 0,424118017238142 
795	 0,42388620881156 
796	 0,423662022014321 
797	 0,423693578686798 
798	 0,424015184364268 
799	 0,424283778269486 
800	 0,424534343268073 
801	 0,424790626730303 
802	 0,424648088182199 
803	 0,424347003300778 
804	 0,424653539918995 
805	 0,425136373737165 
806	 0,425536863457994 
807	 0,425347551775714 
808	 0,425203932273749 
809	 0,425795337129431 
810	 0,42639660016934 
811	 0,426785370542037 
812	 0,426797824854573 
813	 0,426868147862444 
814	 0,427146324849946 
815	 0,427191879713112 
816	 0,427357573806075 
817	 0,428074123547947 
818	 0,428405911352614 
819	 0,428309257490294 
820	 0,428317008454859 
821	 0,4284361671921 
822	 0,428686364691012 
823	 0,429019776359187 
824	 0,429334019454685 
825	 0,429512304500646 
826	 0,42947295952175 
827	 0,429474829086389 
828	 0,430483682341326 
829	 0,43091087351753 
830	 0,430161041289294 
831	 0,43028928271881 
832	 0,43086928164455 
833	 0,431017211119698 
834	 0,43114427597274 
835	 0,431263774783624 
836	 0,431092619661472 
837	 0,431191191271384 
838	 0,431762463205911 
839	 0,431857979795151 
840	 0,431921803170613 
841	 0,432716984026604 
842	 0,433112691783699 
843	 0,432917227017514 
844	 0,432456934151723 
845	 0,432254508252995 
846	 0,432591258550046 
847	 0,433041915189149 
848	 0,433469289817692 
849	 0,433763487841778 
850	 0,433918990247257 
851	 0,433908389376002 
852	 0,433687200987501 
853	 0,433233865056947 
854	 0,432712865430373 
855	 0,433181926946418 
856	 0,434009945617765 
857	 0,434186555643395 
858	 0,434008350269318 
859	 0,433689273156102 
860	 0,433704332891294 
861	 0,433745716795025 
862	 0,433683408659057 
863	 0,433858975176021 
864	 0,43372367214451 
865	 0,432575774901143 
866	 0,432802377462096 
867	 0,434379409251067 
868	 0,435609496455208 
869	 0,435767656025893 
870	 0,434652520827363 
871	 0,433667518889836 
872	 0,433416436777164 
873	 0,434367150977354 
874	 0,434937950268702 
875	 0,434992732830891 
876	 0,435300993878382 
877	 0,435632544635843 
878	 0,435917647234202 
879	 0,436239061648656 
880	 0,436486447554657 
881	 0,43657018187753 
882	 0,437249229079936 
883	 0,438036765219097 
884	 0,437165520612926 
885	 0,436788158876969 
886	 0,437545983846313 
887	 0,438367946237127 
888	 0,438717946461525 
889	 0,43823928831917 
890	 0,438243541356721 
891	 0,438603703330825 
892	 0,438399384304638 
893	 0,438884956849121 
894	 0,44003963433888 
895	 0,439945356858292 
896	 0,439697867435044 
897	 0,440119516718949 
898	 0,439956625523399 
899	 0,439541992352054 
900	 0,439739100993215 
901	 0,440775027447849 
902	 0,442164046322802 
903	 0,441874185297192 
904	 0,441524540879874 
905	 0,442035257871124 
906	 0,442069628861891 
907	 0,441813023591214 
908	 0,441745650504139 
909	 0,441809201848144 
910	 0,44191281319454 
911	 0,441796409614658 
912	 0,441597832426565 
913	 0,441406068635563 
914	 0,441342827753744 
915	 0,441196400673749 
916	 0,440783097078587 
917	 0,441468459920708 
918	 0,442654238439076 
919	 0,442188500688294 
920	 0,441464332595026 
921	 0,441013682684327 
922	 0,440977411007977 
923	 0,440647611312578 
924	 0,439553397049201 
925	 0,439181525546822 
926	 0,439252318898413 
927	 0,438819388186608 
928	 0,438531343936084 
929	 0,438352747540127 
930	 0,437424616432131 
931	 0,437170154868946 
932	 0,438013909089753 
933	 0,436682761936163 
934	 0,434904379684014 
935	 0,435277832264026 
936	 0,435209352662288 
937	 0,43439198390221 
938	 0,433725226197183 
939	 0,432387149629436 
940	 0,430539020203881 
941	 0,430404016166884 
942	 0,430698356325933 
943	 0,430201844298719 
944	 0,429930933030214 
945	 0,42928504303267 
946	 0,426878840844411 
947	 0,425390643352744 
948	 0,425248919398479 
949	 0,425047369034755 
950	 0,423982421523468 
951	 0,42186795797102 
952	 0,420801340475374 
953	 0,420352771766542 
954	 0,419668108552431 
955	 0,417427258691415 
956	 0,41450859333657 
957	 0,413831294737401 
958	 0,413512943198453 
959	 0,413003704672936 
960	 0,412929968646969 
961	 0,412448006222359 
962	 0,411064640030601 
963	 0,410307585382333 
964	 0,410181063582913 
965	 0,410312962096981 
966	 0,410562694070244 
967	 0,410829478335559 
968	 0,411140968737377 
969	 0,410963341627047 
970	 0,410051166386203 
971	 0,408379005420119 
972	 0,40729414467267 
973	 0,407883187838927 
974	 0,408222064627094 
975	 0,408612813257555 
976	 0,410262246831413 
977	 0,410334005806119 
978	 0,408528888545545 
979	 0,406239399647732 
980	 0,406882140846301 
981	 0,411012168805289 
982	 0,410727157278795 
983	 0,409395129636688 
984	 0,410993202977541 
985	 0,413360511991356 
986	 0,414582346333855 
987	 0,411734316557288 
988	 0,409902304066833 
989	 0,410277770753445 
990	 0,411024189103716 
991	 0,411538222869594 
992	 0,411736326720408 
993	 0,413672294610477 
994	 0,415279160719231 
995	 0,414468468835521 
996	 0,414191999479407 
997	 0,415100545841692 
998	 0,41733259061083 
999	 0,419147633746009 
1000	 0,419618059587448 
1001	 0,417616578454 
1002	 0,416161745361206 
1003	 0,416934200430835 
1004	 0,419386336075888 
1005	 0,422054875377251 
1006	 0,423410437383365 
1007	 0,422033188279551 
1008	 0,420986922476823 
1009	 0,425997882498162 
1010	 0,428797933864411 
1011	 0,428420528322627 
1012	 0,429644214478685 
1013	 0,429400923619599 
1014	 0,427353805172566 
1015	 0,428521997736931 
1016	 0,430168132255742 
1017	 0,43009253320865 
1018	 0,432440090001808 
1019	 0,434081516095357 
1020	 0,429859704823846 
1021	 0,428976182584632 
1022	 0,432099054399069 
1023	 0,434955565997935 
1024	 0,435558835822511 
1025	 0,433940411128823 
1026	 0,434831623182407 
1027	 0,435733897362097 
1028	 0,435266655675884 
1029	 0,436065924996676 
1030	 0,437538206652171 
1031	 0,438492350132078 
1032	 0,435863906689039 
1033	 0,433358409497504 
1034	 0,439411729661118 
1035	 0,443054119802081 
1036	 0,441870733480338 
1037	 0,439256879761125 
1038	 0,438785564980378 
1039	 0,441466697685876 
1040	 0,44217938319119 
1041	 0,441775229507518 
1042	 0,441290170895515 
1043	 0,44065806737811 
1044	 0,44210631754657 
1045	 0,448216373342717 
1046	 0,454166258638767 
1047	 0,4565864265925 
1048	 0,450282252175009 
1049	 0,448888135513831 
1050	 0,452855179764772 
1051	 0,445815997359552 
1052	 0,439141636988979 
1053	 0,438829117439948 
1054	 0,440939867900709 
1055	 0,444833687638671 
1056	 0,44862709185246 
1057	 0,440820384823316 
1058	 0,431820707545272 
1059	 0,438019995896122 
1060	 0,451365836978667 
1061	 0,461601381297739 
1062	 0,448363308998603 
1063	 0,443005391012606 
1064	 0,452304758705093 
1065	 0,461595107168133 
1066	 0,466047167260212 
1067	 0,464466525589852 
1068	 0,46367617267081 
1069	 0,462745709537701 
1070	 0,460227583838163 
1071	 0,451641057413876 
1072	 0,445924709165424 
1073	 0,452432216721512 
1074	 0,447000261217406 
1075	 0,437987503202827 
