Wavelength	MORB100056.asd
325	 0,140324809727422 
326	 6,63147813754231E-02 
327	-0,004373759706491 
328	-1,35476744151424E-02 
329	-5,3727819875396E-04 
330	-1,40953556645954E-02 
331	-8,17280253009462E-02 
332	-0,040707137612512 
333	 3,90444213628348E-02 
334	-5,81829126827897E-02 
335	-0,074548356288858 
336	 1,41579811498062E-02 
337	-5,47956724606471E-02 
338	-9,76309507640384E-02 
339	 2,05891715845924E-02 
340	 0,032604655173952 
341	-5,5586105001222E-03 
342	 0,099457290729922 
343	 0,109611931786602 
344	-4,89074188338426E-03 
345	 2,57717081727123E-02 
346	 8,32168473388214E-02 
347	 5,54853578589325E-02 
348	 4,58544779747485E-03 
349	-3,93785569919802E-02 
350	-4,31337170041067E-02 
351	-1,44827717202348E-02 
352	 3,63107630283203E-02 
353	 5,04665023540837E-02 
354	 0,041229787702123 
355	 3,26446829645124E-02 
356	 2,55389940529324E-02 
357	 2,20292914667931E-02 
358	 2,48474500703585E-02 
359	 2,02502827194194E-02 
360	 7,6306144001988E-03 
361	 3,69492513270746E-02 
362	 6,95045650435089E-02 
363	 0,053550292263919 
364	 1,51352279188525E-02 
365	-2,79337532611672E-02 
366	 3,92929486060425E-04 
367	 3,40548441052307E-02 
368	 3,35958499451489E-02 
369	 3,68847560179668E-03 
370	-3,14539869127856E-02 
371	-2,90324716568858E-02 
372	-6,3427259843104E-03 
373	 2,06923904281744E-02 
374	 1,05926764187133E-02 
375	-3,33316272709691E-03 
376	 3,85157638329823E-03 
377	 7,05553563084905E-03 
378	 1,07593970126623E-02 
379	 3,57248211481882E-02 
380	 4,21164244044618E-02 
381	 2,31464542910437E-02 
382	 1,14646242035571E-02 
383	 7,47477126964345E-03 
384	 1,01112272334032E-02 
385	 2,56138534670743E-02 
386	 4,06461099579527E-02 
387	 2,29225461574838E-02 
388	 9,22437755530363E-03 
389	 1,15205613606347E-02 
390	 8,95732790824465E-04 
391	-5,88138964927527E-03 
392	 1,33233711500687E-02 
393	 2,73928565532857E-02 
394	 3,08690448012008E-02 
395	 3,03759211332696E-02 
396	 2,56491413103351E-02 
397	 1,90452593742218E-02 
398	 2,69073258938438E-02 
399	 3,34083522704475E-02 
400	 1,32808958757052E-02 
401	 3,00844940732226E-03 
402	 7,78560150851071E-03 
403	 2,98824123772908E-03 
404	 4,06551188808337E-03 
405	 1,95197064069207E-02 
406	 2,19681175039601E-02 
407	 1,67079587168727E-02 
408	 0,023101763378145 
409	 2,37030994326284E-02 
410	 1,67475507826367E-02 
411	 1,65892024739838E-02 
412	 1,80878397745392E-02 
413	 1,58631964516062E-02 
414	 1,18672845575815E-02 
415	 8,45351252703504E-03 
416	 1,05513904155391E-02 
417	 1,26785464397898E-02 
418	 1,21453331680253E-02 
419	 7,76085992439761E-03 
420	 4,15822139494796E-03 
421	 7,23703247692743E-03 
422	 0,01045581820767 
423	 1,16459523656169E-02 
424	 8,51611465265741E-03 
425	 8,19495587520616E-03 
426	 1,39292407502727E-02 
427	 1,45417071200358E-02 
428	 1,30253368545702E-02 
429	 1,76084818390478E-02 
430	 1,83397644546475E-02 
431	 1,42563185055008E-02 
432	 1,42656872186819E-02 
433	 1,58520189293761E-02 
434	 0,016245073668112 
435	 1,21280804529237E-02 
436	 7,15445230960213E-03 
437	 1,23622053593749E-02 
438	 1,67866402348868E-02 
439	 1,61731254940356E-02 
440	 1,35321043734778E-02 
441	 1,17602474831392E-02 
442	 1,40906954784834E-02 
443	 1,55714742194235E-02 
444	 1,50065309382646E-02 
445	 0,012683393044067 
446	 1,07131254371515E-02 
447	 1,04640868646836E-02 
448	 1,09756706799221E-02 
449	 1,19725808565576E-02 
450	 1,35218118299834E-02 
451	 1,25776141922535E-02 
452	 9,40568946671125E-03 
453	 9,80309513202009E-03 
454	 1,14694256220141E-02 
455	 1,20488106718327E-02 
456	 1,22538631000037E-02 
457	 1,27958689274952E-02 
458	 1,54683657717771E-02 
459	 1,77394937544357E-02 
460	 1,80454096081627E-02 
461	 1,40579768368132E-02 
462	 1,04965351387084E-02 
463	 1,37724764919901E-02 
464	 1,46692963638829E-02 
465	 1,22796870385202E-02 
466	 1,18525978784821E-02 
467	 0,012604355977648 
468	 1,38574241004837E-02 
469	 1,45351300957708E-02 
470	 1,43947904517828E-02 
471	 1,32230851981988E-02 
472	 1,29351994358454E-02 
473	 1,39267818703781E-02 
474	 1,50420473096909E-02 
475	 1,42163024795979E-02 
476	 9,79891526902089E-03 
477	 8,71101643601771E-03 
478	 1,06766273883328E-02 
479	 1,02718172816608E-02 
480	 1,21343431976102E-02 
481	 1,71568616269251E-02 
482	 0,017111276571579 
483	 1,46815511803673E-02 
484	 1,51836738287354E-02 
485	 1,28038844656826E-02 
486	 8,45323515364808E-03 
487	 1,11272320105161E-02 
488	 1,41222920801161E-02 
489	 0,012561566156941 
490	 1,21859118637552E-02 
491	 1,26584809228726E-02 
492	 1,09888214692093E-02 
493	 9,72514301280305E-03 
494	 9,73219410283685E-03 
495	 0,01041202234421 
496	 1,13809545728287E-02 
497	 1,22579887447435E-02 
498	 1,28192281689822E-02 
499	 1,29476255508736E-02 
500	 1,24468504628879E-02 
501	 1,21799557632882E-02 
502	 1,27136568707375E-02 
503	 1,42772587072503E-02 
504	 0,015756265005258 
505	 0,015351921317818 
506	 0,013974791294826 
507	 1,24656548276718E-02 
508	 1,28568514499063E-02 
509	 1,38244646797693E-02 
510	 0,014094406837869 
511	 1,42852554372375E-02 
512	 1,43762455756655E-02 
513	 1,39698360277169E-02 
514	 1,40761919163897E-02 
515	 1,49280231579937E-02 
516	 0,015054839983613 
517	 1,43894911783723E-02 
518	 1,30079270689573E-02 
519	 1,32197358934584E-02 
520	 1,45268407871605E-02 
521	 1,26339516407856E-02 
522	 1,10767830768967E-02 
523	 1,23166407897481E-02 
524	 1,35349174819313E-02 
525	 1,40731925819586E-02 
526	 1,34292108986301E-02 
527	 1,31950759603126E-02 
528	 1,38884774972405E-02 
529	 1,48979835583514E-02 
530	 1,54378854819096E-02 
531	 1,47112516832896E-02 
532	 1,41273975416988E-02 
533	 1,39577292710704E-02 
534	 1,38142516648257E-02 
535	 1,39275740584731E-02 
536	 1,43454419064976E-02 
537	 1,43693105993712E-02 
538	 1,41394258793485E-02 
539	 1,41544728506431E-02 
540	 1,35456010518666E-02 
541	 1,25496866140201E-02 
542	 1,35197038275658E-02 
543	 1,44041177425375E-02 
544	 1,32344710370952E-02 
545	 1,32062576978553E-02 
546	 0,014192438314402 
547	 1,40640087247736E-02 
548	 1,33730903980374E-02 
549	 1,25381961193041E-02 
550	 1,27274423617001E-02 
551	 1,32704185691718E-02 
552	 1,28875687091064E-02 
553	 0,012971032476011 
554	 1,37122019008143E-02 
555	 1,44410565671692E-02 
556	 1,43607034281753E-02 
557	 1,29612427925142E-02 
558	 1,21288574695895E-02 
559	 1,22105562203441E-02 
560	 1,32425345729644E-02 
561	 1,36670278816775E-02 
562	 0,012973130593841 
563	 1,25818606975749E-02 
564	 1,27263639101251E-02 
565	 1,35200300420374E-02 
566	 1,36518476670331E-02 
567	 0,013089827832733 
568	 1,30190041762634E-02 
569	 0,013241985420868 
570	 1,36239073565463E-02 
571	 1,43222241100454E-02 
572	 1,48493838947986E-02 
573	 1,40604353586917E-02 
574	 1,37852547615828E-02 
575	 1,45285506159917E-02 
576	 1,51060952323803E-02 
577	 1,54880615701136E-02 
578	 1,57332745334074E-02 
579	 1,57211224950945E-02 
580	 1,56435513535147E-02 
581	 1,61136522998856E-02 
582	 1,67524526457795E-02 
583	 1,72110862878485E-02 
584	 1,65536457502946E-02 
585	 1,57767597169462E-02 
586	 1,68983792991956E-02 
587	 1,72380114725843E-02 
588	 1,64714206046381E-02 
589	 1,70288875711406E-02 
590	 1,79203121805213E-02 
591	 0,018131717226072 
592	 1,80090704896088E-02 
593	 0,017753966228659 
594	 1,77655083560766E-02 
595	 1,76530587882839E-02 
596	 1,73243589074006E-02 
597	 1,74143100605793E-02 
598	 1,76580598605908E-02 
599	 1,75892964737716E-02 
600	 0,016966392167435 
601	 0,016067412769247 
602	 1,61652748414812E-02 
603	 1,66252215090988E-02 
604	 1,68783946598533E-02 
605	 0,016696124397589 
606	 1,63056092251069E-02 
607	 1,63798916112287E-02 
608	 1,65016082355497E-02 
609	 1,65038562183333E-02 
610	 1,64058708384439E-02 
611	 1,61099012142791E-02 
612	 1,55056171052111E-02 
613	 1,49492002408049E-02 
614	 1,45407917019811E-02 
615	 1,41480807348339E-02 
616	 0,014141865064265 
617	 1,47095574934204E-02 
618	 1,53979995283795E-02 
619	 1,56890655865606E-02 
620	 1,46684218419278E-02 
621	 0,014219734316223 
622	 1,47476653671681E-02 
623	 1,47098785188958E-02 
624	 1,46883717797622E-02 
625	 0,015330133579273 
626	 1,54959632796522E-02 
627	 1,52472768687662E-02 
628	 1,54956444845887E-02 
629	 1,57780580569145E-02 
630	 1,58752755526566E-02 
631	 1,59429400979883E-02 
632	 1,60817678277745E-02 
633	 1,64306313214413E-02 
634	 1,66862321945529E-02 
635	 1,68191268552388E-02 
636	 1,71379043534929E-02 
637	 0,017381736624749 
638	 0,01738434457498 
639	 1,81216600236264E-02 
640	 1,91952822921446E-02 
641	 1,92341160686207E-02 
642	 1,88285600820534E-02 
643	 0,018379204060153 
644	 1,88202803605442E-02 
645	 1,94066378751389E-02 
646	 1,90595481037127E-02 
647	 1,93318564018823E-02 
648	 2,02168903209927E-02 
649	 0,020296461054827 
650	 2,03362735482713E-02 
651	 2,07683275394961E-02 
652	 2,06172299294515E-02 
653	 2,00759247531495E-02 
654	 0,019835787812232 
655	 1,94009470779824E-02 
656	 1,87239015949521E-02 
657	 1,82640927040741E-02 
658	 1,80470409499116E-02 
659	 1,80437548895625E-02 
660	 0,01762688652375 
661	 1,69968354401235E-02 
662	 0,017288052310164 
663	 0,016907646972817 
664	 1,53404956597568E-02 
665	 1,50217620002695E-02 
666	 0,015454951018475 
667	 1,54160695429098E-02 
668	 1,54050352690206E-02 
669	 1,54736774905732E-02 
670	 1,53845910367387E-02 
671	 1,54241507353969E-02 
672	 1,57615184883346E-02 
673	 1,55151015513167E-02 
674	 1,49301198662703E-02 
675	 1,49909587144873E-02 
676	 1,49021087971419E-02 
677	 1,44824169100194E-02 
678	 1,43482533789096E-02 
679	 1,44805776753238E-02 
680	 1,47882647996434E-02 
681	 1,47285064283377E-02 
682	 0,014446790340111 
683	 0,01490916116995 
684	 1,51923890824014E-02 
685	 1,48755003935091E-02 
686	 1,52455313529331E-02 
687	 1,60184727049991E-02 
688	 1,63727812513203E-02 
689	 0,01693554204587 
690	 1,78450489188603E-02 
691	 1,88565948919906E-02 
692	 0,019971994782727 
693	 2,12126104904595E-02 
694	 2,27780192882051E-02 
695	 2,46266368797457E-02 
696	 2,64625773935951E-02 
697	 2,88036985082901E-02 
698	 3,19109811197415E-02 
699	 3,57988795803144E-02 
700	 4,01152252804944E-02 
701	 4,44116612487475E-02 
702	 4,92680290087215E-02 
703	 5,45417516186827E-02 
704	 5,92602984916214E-02 
705	 6,43732562606413E-02 
706	 7,03872316566151E-02 
707	 7,62342788861307E-02 
708	 8,18602616889688E-02 
709	 8,74770076805689E-02 
710	 9,29836805911291E-02 
711	 9,84251533008226E-02 
712	 0,10415050922771 
713	 0,109708721084456 
714	 0,11468445477552 
715	 0,119426166384727 
716	 0,124058828254766 
717	 0,128790322184846 
718	 0,133069627147945 
719	 0,136696323309788 
720	 0,140064868118378 
721	 0,143321896050795 
722	 0,146593493278412 
723	 0,150119841909898 
724	 0,153612642119522 
725	 0,155985651372684 
726	 0,157963450704454 
727	 0,160003655162753 
728	 0,161859159610438 
729	 0,163538531823478 
730	 0,165104050406925 
731	 0,166431899269191 
732	 0,167563767710708 
733	 0,168788023776035 
734	 0,170053400676427 
735	 0,171286258017422 
736	 0,172242302595133 
737	 0,17298644130188 
738	 0,173827817218345 
739	 0,174421418466978 
740	 0,17474959779095 
741	 0,175463133840419 
742	 0,176150685606778 
743	 0,176288252739775 
744	 0,176631685464473 
745	 0,177156890267816 
746	 0,177226373029795 
747	 0,177279587581779 
748	 0,177544890173006 
749	 0,177845960207904 
750	 0,178122328080436 
751	 0,178310546381041 
752	 0,178591131293486 
753	 0,178882102626323 
754	 0,17867903456302 
755	 0,178476808789562 
756	 0,178640042078253 
757	 0,178977678077504 
758	 0,179221931043981 
759	 0,178852994473424 
760	 0,1788715570045 
761	 0,179407778631835 
762	 0,179383981799582 
763	 0,179206554151977 
764	 0,17930179110485 
765	 0,179471022070217 
766	 0,179585934199084 
767	 0,179346297607465 
768	 0,179426816246069 
769	 0,179917407806554 
770	 0,179683639637104 
771	 0,179094900862604 
772	 0,178706197048624 
773	 0,178726715750799 
774	 0,179042279397369 
775	 0,179136793600904 
776	 0,179069390933397 
777	 0,178904924285102 
778	 0,178949074050581 
779	 0,179093364981171 
780	 0,17912870702442 
781	 0,178994435067225 
782	 0,178741022692825 
783	 0,178629844784388 
784	 0,178499570441365 
785	 0,178281998852367 
786	 0,178370352584756 
787	 0,17850543334707 
788	 0,178144029638454 
789	 0,177697230782197 
790	 0,177267573543984 
791	 0,176660473624579 
792	 0,176320872389298 
793	 0,176532749236097 
794	 0,176350568638084 
795	 0,175841886662569 
796	 0,175481093027441 
797	 0,175330692227592 
798	 0,175396820820581 
799	 0,175517539658209 
800	 0,175489858938041 
801	 0,175149699373155 
802	 0,174733677312285 
803	 0,174490742853576 
804	 0,174924996979185 
805	 0,175264275987724 
806	 0,175338572716963 
807	 0,176083236153491 
808	 0,176555479484228 
809	 0,175765532701614 
810	 0,175520978146263 
811	 0,175885311564794 
812	 0,175918826490624 
813	 0,17585560359453 
814	 0,175747137276954 
815	 0,175440249153617 
816	 0,175212024492341 
817	 0,175385413815925 
818	 0,175422481376478 
819	 0,175341893919435 
820	 0,175607464137409 
821	 0,175790598111735 
822	 0,175753230856185 
823	 0,176019676437778 
824	 0,176369495326657 
825	 0,176460752672045 
826	 0,176396883285882 
827	 0,176396441889372 
828	 0,177057064130489 
829	 0,177745793846047 
830	 0,178075183822344 
831	 0,177955475484257 
832	 0,177700778578854 
833	 0,177745689997617 
834	 0,17790030632703 
835	 0,178149150273643 
836	 0,178674702746242 
837	 0,178692079930023 
838	 0,177960563044288 
839	 0,178033493780327 
840	 0,178464898330162 
841	 0,17837577473191 
842	 0,17862704266259 
843	 0,179095730685931 
844	 0,178756873382842 
845	 0,178116444931883 
846	 0,177586702877175 
847	 0,177891585609859 
848	 0,178340589527405 
849	 0,177856709103397 
850	 0,177821830842687 
851	 0,178251995624507 
852	 0,178169709300552 
853	 0,177309580083835 
854	 0,175831121165982 
855	 0,175885448062023 
856	 0,176498173981224 
857	 0,176011765260225 
858	 0,175524335544149 
859	 0,175329859721256 
860	 0,175563981528936 
861	 0,175580387948024 
862	 0,175128414813799 
863	 0,175074485687139 
864	 0,175075113402333 
865	 0,174587549303445 
866	 0,175172236331062 
867	 0,176431630417858 
868	 0,176015935073454 
869	 0,17573786137779 
870	 0,176212706260513 
871	 0,175471329227403 
872	 0,174884581570045 
873	 0,176197184788312 
874	 0,176460365221734 
875	 0,175809968444799 
876	 0,176622618335019 
877	 0,177242594013098 
878	 0,177169289687648 
879	 0,177704914687629 
880	 0,178303627808785 
881	 0,178300423156192 
882	 0,178212252883599 
883	 0,178220843443018 
884	 0,178504130590689 
885	 0,178804127168254 
886	 0,17910404808748 
887	 0,179937682803239 
888	 0,180443193859428 
889	 0,179862452781297 
890	 0,179331831141359 
891	 0,179150983809637 
892	 0,179434431349027 
893	 0,180089513500997 
894	 0,180704836591634 
895	 0,179659324493378 
896	 0,179162440285547 
897	 0,180695073538997 
898	 0,18067116821011 
899	 0,179749193724615 
900	 0,180146537092888 
901	 0,179711255986897 
902	 0,178513041212401 
903	 0,178981307115347 
904	 0,179938901762868 
905	 0,180508806148265 
906	 0,180229104543834 
907	 0,179655517157667 
908	 0,179667310810646 
909	 0,179656972747098 
910	 0,179550337996721 
911	 0,179581307370364 
912	 0,179500986672349 
913	 0,179235173092577 
914	 0,179097617173896 
915	 0,179011581096636 
916	 0,178861046437444 
917	 0,178679701358533 
918	 0,178515373108956 
919	 0,178528832615438 
920	 0,178187661617977 
921	 0,177445921885063 
922	 0,17696847119095 
923	 0,176939911003943 
924	 0,177347850010712 
925	 0,176784256484281 
926	 0,175721526347056 
927	 0,175394175391975 
928	 0,175937215303522 
929	 0,176696215618073 
930	 0,175114532770574 
931	 0,173520598444265 
932	 0,173309063185681 
933	 0,173578895981155 
934	 0,173999585969452 
935	 0,174231466421418 
936	 0,17304810205071 
937	 0,171179813294821 
938	 0,171507234306792 
939	 0,171531182211601 
940	 0,170535689734136 
941	 0,170157186798475 
942	 0,169442374118796 
943	 0,167693247324854 
944	 0,167487877048194 
945	 0,167984286099197 
946	 0,166850394929788 
947	 0,165661278952844 
948	 0,164767258566728 
949	 0,163854094952605 
950	 0,162744807487055 
951	 0,161396992683116 
952	 0,160081424100944 
953	 0,159434740793715 
954	 0,160028174033151 
955	 0,15852570712976 
956	 0,155484979791765 
957	 0,154036237898372 
958	 0,153723943476074 
959	 0,154419108807189 
960	 0,156185592732297 
961	 0,155976924435006 
962	 0,152133935983904 
963	 0,151016682095735 
964	 0,151861199603376 
965	 0,152015816023547 
966	 0,151439923221878 
967	 0,150489310685322 
968	 0,150607134168416 
969	 0,150603999159612 
970	 0,150111021178348 
971	 0,149994806390343 
972	 0,150241114569154 
973	 0,15066853402671 
974	 0,149971884637407 
975	 0,148943750550818 
976	 0,14938705637628 
977	 0,149253683122041 
978	 0,148153348632949 
979	 0,146455180996552 
980	 0,146614030496825 
981	 0,149209605155963 
982	 0,149975039095436 
983	 0,14877813164112 
984	 0,146244561144925 
985	 0,14677911140954 
986	 0,14922130862701 
987	 0,149644246991652 
988	 0,149793584573098 
989	 0,149979555214995 
990	 0,149587444680247 
991	 0,150126308798432 
992	 0,152061513561443 
993	 0,153227130086722 
994	 0,153286675907835 
995	 0,152260148533052 
996	 0,152022346013119 
997	 0,152319281007811 
998	 0,15183423769677 
999	 0,15256621267108 
1000	 0,154282850210555 
1001	 0,154249269586718 
1002	 0,15344989348096 
1003	 0,152728673937622 
1004	 0,153680001859359 
1005	 0,15533901052053 
1006	 0,156418408432469 
1007	 0,154813286724053 
1008	 0,15275686484214 
1009	 0,154823616780115 
1010	 0,155702031176364 
1011	 0,155097868642577 
1012	 0,157221635949152 
1013	 0,157119519392917 
1014	 0,154014500757214 
1015	 0,15593619115576 
1016	 0,158010815363441 
1017	 0,156314781176685 
1018	 0,157159096383353 
1019	 0,158518494662633 
1020	 0,156206262222152 
1021	 0,155769248714376 
1022	 0,157993128603097 
1023	 0,161725362917759 
1024	 0,162318329950078 
1025	 0,159252364911793 
1026	 0,158990018770242 
1027	 0,159401338253536 
1028	 0,159288438925612 
1029	 0,161279552958861 
1030	 0,162439408964357 
1031	 0,15958103440035 
1032	 0,159678588745481 
1033	 0,162384818066815 
1034	 0,164324986955137 
1035	 0,163892937005313 
1036	 0,161705889314326 
1037	 0,161831563848887 
1038	 0,163122219171961 
1039	 0,165292132525009 
1040	 0,170263188548012 
1041	 0,170759659821759 
1042	 0,16243112882235 
1043	 0,160737419955352 
1044	 0,162947445961189 
1045	 0,16238560391426 
1046	 0,165524057977827 
1047	 0,169997216578211 
1048	 0,167202776696886 
1049	 0,168082624616533 
1050	 0,172995980844133 
1051	 0,170094963392687 
1052	 0,167950150817294 
1053	 0,16896323114188 
1054	 0,159201013615062 
1055	 0,154594694119207 
1056	 0,166975836754022 
1057	 0,167377462504674 
1058	 0,159695380195098 
1059	 0,156090994479856 
1060	 0,167266531680389 
1061	 0,181201457895971 
1062	 0,16407146769253 
1063	 0,153594495684181 
1064	 0,160469214142923 
1065	 0,178502012424163 
1066	 0,179431206276156 
1067	 0,158607787348482 
1068	 0,16294135359553 
1069	 0,171788399141098 
1070	 0,16689655687356 
1071	 0,15418632579556 
1072	 0,145844690368993 
1073	 0,153943958405817 
1074	 0,157556156208009 
1075	 0,158360944539689 
