Wavelength	MORB100547.asd
325	 0,308625473924168 
326	 0,223761517298184 
327	 0,101023941026432 
328	 0,012463860461931 
329	-3,68133000016703E-02 
330	-3,63911739991908E-02 
331	 5,2308868421466E-03 
332	 2,10493075986999E-02 
333	 2,01526606922873E-02 
334	 6,56043482845894E-02 
335	 5,59133754846381E-02 
336	-1,99055135639624E-02 
337	-6,71342870327642E-02 
338	-4,78740327421098E-02 
339	 3,83132943164287E-02 
340	 9,18871981229425E-02 
341	 0,118947043924548 
342	 0,165198689448298 
343	 0,120533373286388 
344	-4,36344148932247E-03 
345	 9,60828972420536E-02 
346	 0,191216684326351 
347	 8,98702149285271E-02 
348	 4,98575645924403E-02 
349	 8,41995169606135E-02 
350	 5,53528099128145E-02 
351	 5,75470708662328E-02 
352	 0,111070354581805 
353	 0,145193072514563 
354	 0,14880064532688 
355	 0,124468282250798 
356	 0,104990185022185 
357	 9,87438562560063E-02 
358	 0,107734455492724 
359	 9,13466133875559E-02 
360	 4,17630614400199E-02 
361	 6,40592116719135E-02 
362	 0,109793188886509 
363	 0,103822221564942 
364	 8,94746440947078E-02 
365	 0,077027256871874 
366	 7,79784914057066E-02 
367	 8,91032191466824E-02 
368	 0,10328869896445 
369	 8,28144044099664E-02 
370	 5,93041319979687E-02 
371	 0,100290113813881 
372	 0,116528916459812 
373	 9,48193320062144E-02 
374	 8,80617598727655E-02 
375	 9,94187460622797E-02 
376	 0,125526109853852 
377	 0,107362638854404 
378	 7,26564317625612E-02 
379	 0,097465159950159 
380	 0,106723371812588 
381	 8,93847200914331E-02 
382	 0,113992779994446 
383	 0,130241800662634 
384	 9,01676529593822E-02 
385	 8,29586776026545E-02 
386	 0,106320597483356 
387	 0,116525221349011 
388	 0,109162571019676 
389	 8,75797547705257E-02 
390	 8,95597121539487E-02 
391	 9,92125891450941E-02 
392	 9,37257426531895E-02 
393	 8,86879353442396E-02 
394	 8,80551632382685E-02 
395	 9,32247071381318E-02 
396	 0,100511453761851 
397	 0,107221678618951 
398	 0,111894033817105 
399	 0,110225403333175 
400	 9,55383347852193E-02 
401	 9,04152386435436E-02 
402	 9,60949537660745E-02 
403	 9,00212422931437E-02 
404	 8,65685871875306E-02 
405	 0,094565859817354 
406	 9,61713355739649E-02 
407	 9,15383818823117E-02 
408	 8,48605020233374E-02 
409	 8,82088360836224E-02 
410	 0,100653997177539 
411	 0,101990979361433 
412	 9,65643087911289E-02 
413	 9,00066911779922E-02 
414	 9,13221901784471E-02 
415	 0,097147638511154 
416	 9,40205820541924E-02 
417	 9,40108674616289E-02 
418	 9,92551304568219E-02 
419	 9,16729557511501E-02 
420	 8,25530583728095E-02 
421	 8,80125512687639E-02 
422	 9,26603034068666E-02 
423	 9,31546585773152E-02 
424	 9,03645452366053E-02 
425	 8,94125271746166E-02 
426	 9,27140860693034E-02 
427	 9,21712454850918E-02 
428	 9,08651467646689E-02 
429	 9,67341327004722E-02 
430	 9,63336732030816E-02 
431	 8,91491318403917E-02 
432	 9,13572439349543E-02 
433	 0,094852598424815 
434	 9,22330720987881E-02 
435	 8,98733018891594E-02 
436	 8,97465184745449E-02 
437	 0,094492684977178 
438	 9,63440323113152E-02 
439	 0,093174053123505 
440	 9,31328422140571E-02 
441	 9,47171258364559E-02 
442	 9,50686032000522E-02 
443	 9,44447974547767E-02 
444	 9,35156283598072E-02 
445	 9,41912769053506E-02 
446	 9,64480686345331E-02 
447	 9,95772665596291E-02 
448	 9,76871534195933E-02 
449	 9,44385191993983E-02 
450	 9,82159160369555E-02 
451	 9,86327893318411E-02 
452	 9,48100193768464E-02 
453	 9,87075578122658E-02 
454	 0,101724662710925 
455	 9,60849201470534E-02 
456	 9,35072852193463E-02 
457	 9,52905816006345E-02 
458	 9,88923516272913E-02 
459	 0,100709985894043 
460	 9,92335104818345E-02 
461	 9,67781017205955E-02 
462	 9,59321502655634E-02 
463	 9,97029499016316E-02 
464	 0,100574302461197 
465	 9,80551771328627E-02 
466	 9,74957748238447E-02 
467	 9,78534583877954E-02 
468	 9,83852076593661E-02 
469	 9,88597436467684E-02 
470	 9,90732873672261E-02 
471	 9,88367410351286E-02 
472	 0,098072557689437 
473	 9,69335999605881E-02 
474	 9,61932744839438E-02 
475	 9,53512443403989E-02 
476	 9,39569494804951E-02 
477	 9,42859852491665E-02 
478	 9,55859348777489E-02 
479	 9,41104175444462E-02 
480	 0,09484747883587 
481	 9,91721074056856E-02 
482	 0,100097308182541 
483	 9,86062406508379E-02 
484	 9,72210116697261E-02 
485	 9,63497367742348E-02 
486	 9,62435202662304E-02 
487	 9,67359413617106E-02 
488	 9,77250137584844E-02 
489	 0,098860814564329 
490	 9,71515256498006E-02 
491	 9,43940210127861E-02 
492	 9,58867886286112E-02 
493	 0,097110012841966 
494	 9,65590060685834E-02 
495	 9,50502801904221E-02 
496	 9,41415227976522E-02 
497	 0,095446700731733 
498	 9,61028838715218E-02 
499	 9,60187687080106E-02 
500	 9,71359514354941E-02 
501	 9,82365908866837E-02 
502	 9,85897215782184E-02 
503	 9,82294455619225E-02 
504	 9,77582760538644E-02 
505	 9,82041800429246E-02 
506	 9,82532216270291E-02 
507	 9,78594348530793E-02 
508	 9,86271375138807E-02 
509	 9,93868821627148E-02 
510	 9,91107106957752E-02 
511	 9,97446310655837E-02 
512	 0,100716660609912 
513	 9,94348311069532E-02 
514	 9,90249711535441E-02 
515	 0,100403645084935 
516	 9,99261395041141E-02 
517	 9,89707146907414E-02 
518	 0,099906068913905 
519	 0,1011163668282 
520	 0,101983861617968 
521	 0,101997703420611 
522	 0,101550488367063 
523	 0,101051976593654 
524	 0,101549670834942 
525	 0,102415443027296 
526	 0,10178198205221 
527	 0,101468489067231 
528	 0,101973241177967 
529	 0,10236631013249 
530	 0,102680274934195 
531	 0,103026364280983 
532	 0,102194459055563 
533	 0,100743868053582 
534	 0,101169458005295 
535	 0,101983904615921 
536	 0,102283972207828 
537	 0,102443713509141 
538	 0,102381836827784 
539	 0,101829131102905 
540	 0,101717736090039 
541	 0,102223149895051 
542	 0,102656144965814 
543	 0,102814083244459 
544	 0,102558575905647 
545	 0,102194624581666 
546	 0,102067766257537 
547	 0,103037534587572 
548	 0,103304511649541 
549	 0,102308519896649 
550	 0,102919270028639 
551	 0,10405309997039 
552	 0,103517141367718 
553	 0,103370415090705 
554	 0,103945388854294 
555	 0,104233125889614 
556	 0,104118815156463 
557	 0,103532776096472 
558	 0,102471582167182 
559	 0,101524329719455 
560	 0,102173477946608 
561	 0,102426637648842 
562	 0,101636312342938 
563	 0,101282715751119 
564	 0,101215378354632 
565	 0,101046207786496 
566	 0,101516277744021 
567	 0,102312345518408 
568	 0,101600089886764 
569	 0,101308882101854 
570	 0,102682087982913 
571	 0,103806303916549 
572	 0,104436096929729 
573	 0,104699443947317 
574	 0,105243556526192 
575	 0,106277797422877 
576	 0,107489474825345 
577	 0,108329710166282 
578	 0,108262514911156 
579	 0,109580317422822 
580	 0,112073851333872 
581	 0,11343259777492 
582	 0,114423218192552 
583	 0,115311899497035 
584	 0,114775186443399 
585	 0,113975074788386 
586	 0,115199994941152 
587	 0,116299409252741 
588	 0,11673194496272 
589	 0,117216577783325 
590	 0,117743063398488 
591	 0,118286874749823 
592	 0,118940130785233 
593	 0,119651186080801 
594	 0,120394732145051 
595	 0,120363756413609 
596	 0,119486551417977 
597	 0,120195070884037 
598	 0,121075339304416 
599	 0,119656865215738 
600	 0,118087965143213 
601	 0,117258147944515 
602	 0,118037956965876 
603	 0,118717994247959 
604	 0,117977276635732 
605	 0,117152276637457 
606	 0,116639989242274 
607	 0,116927443330508 
608	 0,116713046826793 
609	 0,115666580096638 
610	 0,115270465168462 
611	 0,114658915212904 
612	 0,112637585143134 
613	 0,111870154749019 
614	 0,112383033844741 
615	 0,111960015572059 
616	 0,111265784418751 
617	 0,110807441977043 
618	 0,1112582469222 
619	 0,111931368306295 
620	 0,111257742417821 
621	 0,110912348172643 
622	 0,11125747947802 
623	 0,111211209169704 
624	 0,110983205796952 
625	 0,110849302724374 
626	 0,110592194387559 
627	 0,110506810603981 
628	 0,111609605775262 
629	 0,112476183949582 
630	 0,112374077163899 
631	 0,111922706272642 
632	 0,111611691785102 
633	 0,112039204337833 
634	 0,113163454815011 
635	 0,114662255756831 
636	 0,115429558258917 
637	 0,115739515295867 
638	 0,115949893968057 
639	 0,117244176657744 
640	 0,119019032057985 
641	 0,119154037192909 
642	 0,119389733855852 
643	 0,120275153590962 
644	 0,120742443086259 
645	 0,120730757207085 
646	 0,120280653866689 
647	 0,120758855628215 
648	 0,121897869044656 
649	 0,121482665264728 
650	 0,120923949019947 
651	 0,120998188521468 
652	 0,119583426588761 
653	 0,117506385492674 
654	 0,11709750843973 
655	 0,11618712137251 
656	 0,114343326318887 
657	 0,113109779398518 
658	 0,112099406729729 
659	 0,110809639209303 
660	 0,10913428936405 
661	 0,10735529927098 
662	 0,106331396179044 
663	 0,105318237894401 
664	 0,1039986283732 
665	 0,102899849960769 
666	 0,102157192503059 
667	 0,101903683050422 
668	 0,101396784028819 
669	 0,100539084016457 
670	 9,98388881089742E-02 
671	 9,96073107959574E-02 
672	 9,99891336684995E-02 
673	 9,97314923614678E-02 
674	 9,90467252347104E-02 
675	 9,90251071830749E-02 
676	 9,89289845688582E-02 
677	 0,098604753392498 
678	 9,86889309669277E-02 
679	 9,89221228880331E-02 
680	 9,89405560612701E-02 
681	 9,84709734761416E-02 
682	 9,80148099076673E-02 
683	 9,93564969774956E-02 
684	 0,100715620290048 
685	 0,101133630879151 
686	 0,102046166264713 
687	 0,103433222267323 
688	 0,104858052611085 
689	 0,107050117327051 
690	 0,110155625804599 
691	 0,11374618644792 
692	 0,117621416561883 
693	 0,121693524416753 
694	 0,127209734483345 
695	 0,133975744847923 
696	 0,140712432054867 
697	 0,148654358458184 
698	 0,158197250790854 
699	 0,168429789564946 
700	 0,179207216534631 
701	 0,190462269231519 
702	 0,202044656648239 
703	 0,213801028973635 
704	 0,225486749870483 
705	 0,237214152251065 
706	 0,248932569137646 
707	 0,25998496155773 
708	 0,270286550865032 
709	 0,279811552358769 
710	 0,289433106924154 
711	 0,29919056690044 
712	 0,307885763717098 
713	 0,315834994379695 
714	 0,323394317365222 
715	 0,330593292929234 
716	 0,337447674447286 
717	 0,343992534403686 
718	 0,349916830786164 
719	 0,35511438956673 
720	 0,359902384953695 
721	 0,364276658650929 
722	 0,368187175160183 
723	 0,372190894606912 
724	 0,376242907304994 
725	 0,379756648173304 
726	 0,382584913685183 
727	 0,384725837450431 
728	 0,386931797591639 
729	 0,389236879161173 
730	 0,391487494405311 
731	 0,393521917017674 
732	 0,395285096277072 
733	 0,396829582007344 
734	 0,398272975493556 
735	 0,39970162782581 
736	 0,400819762105008 
737	 0,401746344701037 
738	 0,402923259384496 
739	 0,403876962316354 
740	 0,404524778415248 
741	 0,405440709309124 
742	 0,406443953240227 
743	 0,407263836430912 
744	 0,407641069555228 
745	 0,407829133168933 
746	 0,408839771406792 
747	 0,409583522042203 
748	 0,409574913402759 
749	 0,409895948135219 
750	 0,410320862260441 
751	 0,410287771191024 
752	 0,410646451082982 
753	 0,411333782629215 
754	 0,411172737251641 
755	 0,411055105757565 
756	 0,411588996122734 
757	 0,411910503156678 
758	 0,412056087264249 
759	 0,41238874463372 
760	 0,412609229058538 
761	 0,412670086749035 
762	 0,412823496426424 
763	 0,41293107994618 
764	 0,41287947943919 
765	 0,413174658337484 
766	 0,413646957527419 
767	 0,413558769239607 
768	 0,413714050712564 
769	 0,414300268245861 
770	 0,414463369355398 
771	 0,41438021961118 
772	 0,41435025555138 
773	 0,414545879194441 
774	 0,414921371329583 
775	 0,415221645198553 
776	 0,415283790290251 
777	 0,415108064428916 
778	 0,415412163315536 
779	 0,415791577042101 
780	 0,415537649116771 
781	 0,415454941876595 
782	 0,415641639968487 
783	 0,415641243974554 
784	 0,415592660414434 
785	 0,415592547554307 
786	 0,415644194118467 
787	 0,415723675270366 
788	 0,415808990212376 
789	 0,415578816340513 
790	 0,415076796251884 
791	 0,414861650680542 
792	 0,41492002820121 
793	 0,415173292771277 
794	 0,415056697007421 
795	 0,414673351243711 
796	 0,414449462448707 
797	 0,414348034860942 
798	 0,414334705273185 
799	 0,414203517594344 
800	 0,414108361157915 
801	 0,41420266223709 
802	 0,414488670197689 
803	 0,414721921455246 
804	 0,414182373713299 
805	 0,414250610649877 
806	 0,415214434651499 
807	 0,415571132559839 
808	 0,415598470276731 
809	 0,415719572007191 
810	 0,416058217271792 
811	 0,416460351777819 
812	 0,416349360210606 
813	 0,416469217630992 
814	 0,416995728007367 
815	 0,416951044120932 
816	 0,416690025387776 
817	 0,416730497438112 
818	 0,416826537908207 
819	 0,416922305077336 
820	 0,41702133302475 
821	 0,416962335020646 
822	 0,416766163915088 
823	 0,417080177908588 
824	 0,417537433920603 
825	 0,417592948353739 
826	 0,417571314627558 
827	 0,417615408305958 
828	 0,417945505772047 
829	 0,418203421932865 
830	 0,418200571196633 
831	 0,418099451946395 
832	 0,41792738022991 
833	 0,417698996800451 
834	 0,417388797353302 
835	 0,417228363390913 
836	 0,418006969236829 
837	 0,418492385426829 
838	 0,418123557887698 
839	 0,41809359402921 
840	 0,418467428054614 
841	 0,419133870959625 
842	 0,419215518471849 
843	 0,41873828664193 
844	 0,418609262308028 
845	 0,418568392053762 
846	 0,418514992198027 
847	 0,418679152486872 
848	 0,418929798066158 
849	 0,419056261648787 
850	 0,418997228490536 
851	 0,418781374571775 
852	 0,418568399718506 
853	 0,41835068229171 
854	 0,418155209927663 
855	 0,41810119215855 
856	 0,418214317161222 
857	 0,418506184851248 
858	 0,418154483382335 
859	 0,417409020494936 
860	 0,41777850661306 
861	 0,418048792854189 
862	 0,417668000631399 
863	 0,417525408343578 
864	 0,417346944571759 
865	 0,416684325024317 
866	 0,41687900318552 
867	 0,417886274228768 
868	 0,418685667558205 
869	 0,418885410403096 
870	 0,418337852838435 
871	 0,41760222326173 
872	 0,41727243967701 
873	 0,417923978674559 
874	 0,418137290095525 
875	 0,417919232330023 
876	 0,418347736952119 
877	 0,418365658375743 
878	 0,417852304933062 
879	 0,418773299484614 
880	 0,41977592634475 
881	 0,41931875164587 
882	 0,419025376941085 
883	 0,419120641910017 
884	 0,419306271158196 
885	 0,419490586057649 
886	 0,419648454004734 
887	 0,419960120979613 
888	 0,420227745318243 
889	 0,420272413445119 
890	 0,420394970978644 
891	 0,420453794401815 
892	 0,419911168043992 
893	 0,420388917945814 
894	 0,421785007963544 
895	 0,42106152290285 
896	 0,420557114091955 
897	 0,421938529682758 
898	 0,422074094015101 
899	 0,421426583758656 
900	 0,421674971030361 
901	 0,421998548380197 
902	 0,42222539246042 
903	 0,422524340186367 
904	 0,422793558626335 
905	 0,422941196115832 
906	 0,422866247522352 
907	 0,422544184334672 
908	 0,421966935297058 
909	 0,421715922664098 
910	 0,421823629581258 
911	 0,421861392390637 
912	 0,421965416839436 
913	 0,422031667853656 
914	 0,421122199945139 
915	 0,42030136445559 
916	 0,420766486542617 
917	 0,421086685508187 
918	 0,421132307716205 
919	 0,421465356581599 
920	 0,421085184347606 
921	 0,419944828441248 
922	 0,419584832440274 
923	 0,419277966970673 
924	 0,418421939849264 
925	 0,417807883115785 
926	 0,417440210610326 
927	 0,417085481960406 
928	 0,417172268050765 
929	 0,417300268937573 
930	 0,415526489226033 
931	 0,414418315653747 
932	 0,415147113958103 
933	 0,414493077237234 
934	 0,413082895724958 
935	 0,412183320706375 
936	 0,411201860629324 
937	 0,410302564906762 
938	 0,410389635855162 
939	 0,40962261929854 
940	 0,407567834125493 
941	 0,406061676153913 
942	 0,404627184875052 
943	 0,402973322376607 
944	 0,403827837534686 
945	 0,405169898184403 
946	 0,402520494277087 
947	 0,400407798397709 
948	 0,399503855254464 
949	 0,397237796307018 
950	 0,395027245786847 
951	 0,393704002986148 
952	 0,392993370248921 
953	 0,392041901315456 
954	 0,389928391120185 
955	 0,388121970919652 
956	 0,386670208820747 
957	 0,38477989460158 
958	 0,383123348759677 
959	 0,382092550319251 
960	 0,382379723789966 
961	 0,382001394033007 
962	 0,379748333602061 
963	 0,378971517222167 
964	 0,379195289731913 
965	 0,378940876785363 
966	 0,378220384903347 
967	 0,377467005433751 
968	 0,37831282876855 
969	 0,378178837337765 
970	 0,376378629583376 
971	 0,375544678299464 
972	 0,375849094502804 
973	 0,377118387363172 
974	 0,377505515741401 
975	 0,377456167706812 
976	 0,378443816539861 
977	 0,378535056377536 
978	 0,377224903143419 
979	 0,374198895591206 
980	 0,37404096959372 
981	 0,378032927603449 
982	 0,378766219775453 
983	 0,378464094290387 
984	 0,379879063898373 
985	 0,380816118027047 
986	 0,380382112580006 
987	 0,377468888684488 
988	 0,377546876001955 
989	 0,380355146034292 
990	 0,378238588721954 
991	 0,378066083884584 
992	 0,38251719350559 
993	 0,384993445756983 
994	 0,384716254754729 
995	 0,381879607669064 
996	 0,38090971788963 
997	 0,382249112968882 
998	 0,38485010334315 
999	 0,387478340689467 
1000	 0,388761375330414 
1001	 0,385720153982472 
1002	 0,383513775342431 
1003	 0,384706417080342 
1004	 0,386936748763893 
1005	 0,389341999510056 
1006	 0,390996412242386 
1007	 0,388917257976424 
1008	 0,387468678236993 
1009	 0,395114692440942 
1010	 0,398242776833929 
1011	 0,395454212069924 
1012	 0,394700564727091 
1013	 0,395102166715658 
1014	 0,396522973970104 
1015	 0,399025971697414 
1016	 0,400739095942996 
1017	 0,400446492812813 
1018	 0,401591109630595 
1019	 0,402669009213156 
1020	 0,4008347266031 
1021	 0,401983216308797 
1022	 0,404567018724039 
1023	 0,399891359700731 
1024	 0,398149054358143 
1025	 0,401929133740593 
1026	 0,405702509650813 
1027	 0,405907486319725 
1028	 0,401849441338741 
1029	 0,405868499967966 
1030	 0,40923145689894 
1031	 0,401504156126481 
1032	 0,401948481141644 
1033	 0,409444357114519 
1034	 0,414537028944679 
1035	 0,412463159569611 
1036	 0,405541388354692 
1037	 0,40776822104958 
1038	 0,411511083288564 
1039	 0,412991501649036 
1040	 0,412104671552639 
1041	 0,409438482620238 
1042	 0,406534212351215 
1043	 0,411459255232043 
1044	 0,416145788291918 
1045	 0,409136368950905 
1046	 0,412764548969224 
1047	 0,423252662555601 
1048	 0,420305432197598 
1049	 0,417147752494016 
1050	 0,417230381869154 
1051	 0,417614574022902 
1052	 0,41669385846846 
1053	 0,414534946288111 
1054	 0,415891088656032 
1055	 0,420705114074495 
1056	 0,426693833999392 
1057	 0,419126214307416 
1058	 0,404968670746921 
1059	 0,397970719590699 
1060	 0,405850306040569 
1061	 0,420091700494588 
1062	 0,416803180568947 
1063	 0,415929990987437 
1064	 0,420632001040017 
1065	 0,419650898784289 
1066	 0,418301385344602 
1067	 0,418631310340717 
1068	 0,419411458660888 
1069	 0,417925279096418 
1070	 0,413102995126759 
1071	 0,412468304840798 
1072	 0,41135998977738 
1073	 0,404321329368615 
1074	 0,410546320708563 
1075	 0,42371719233345 
