Wavelength	NEUF00482.asd
325	 0,318023748939779 
326	 0,263476106406984 
327	 0,132524403703793 
328	 2,25104110651176E-02 
329	 0,14534940084997 
330	 0,258435896760664 
331	 0,164134278232309 
332	 0,143062045990839 
333	 0,200186683920787 
334	 0,215993309861289 
335	 0,214218405796197 
336	 0,185264881196663 
337	 0,081489507424854 
338	 4,41836347230331E-02 
339	 0,161491608701656 
340	 0,189630025515482 
341	 0,14917691904953 
342	 0,156776838848697 
343	 0,173733849211114 
344	 0,188300661137949 
345	 0,155726026991722 
346	 0,12702436455481 
347	 0,148235421987935 
348	 0,123430408270058 
349	 7,53309995230662E-02 
350	 0,123196260348839 
351	 0,160239333298795 
352	 0,1524783745879 
353	 0,129878013239519 
354	 0,100937269323835 
355	 7,65713271755916E-02 
356	 9,01849807578539E-02 
357	 0,129285860222325 
358	 0,146593331096307 
359	 0,15116643081841 
360	 0,149116992230152 
361	 0,155501360553545 
362	 0,151481162878014 
363	 0,107167941946646 
364	 0,119442598474757 
365	 0,176886689838209 
366	 0,164330708661417 
367	 0,146489664111212 
368	 0,159391735346218 
369	 0,149520619378369 
370	 0,12932851667904 
371	 0,128107640854867 
372	 0,137876517716524 
373	 0,150976127748276 
374	 0,146532021836016 
375	 0,141004299128324 
376	 0,146924491839158 
377	 0,154114934608308 
378	 0,15507977479552 
379	 0,134816968506833 
380	 0,129903224539865 
381	 0,148843144045317 
382	 0,171791054104323 
383	 0,180768489084081 
384	 0,161055412624777 
385	 0,144742171207145 
386	 0,138018415093445 
387	 0,131684607264047 
388	 0,14272210172224 
389	 0,169109509158461 
390	 0,17097086563081 
391	 0,157606357599318 
392	 0,144074210443406 
393	 0,136608265723535 
394	 0,137202526635298 
395	 0,145859033690559 
396	 0,155663537240451 
397	 0,160937033893373 
398	 0,158238382380507 
399	 0,151711067478886 
400	 0,147396759454725 
401	 0,147339123325566 
402	 0,150851419352738 
403	 0,152835900622772 
404	 0,155265527011292 
405	 0,159128843265201 
406	 0,16039916261755 
407	 0,159975294742184 
408	 0,161278880721043 
409	 0,158340606998097 
410	 0,151445833593386 
411	 0,150568250029389 
412	 0,148261309186935 
413	 0,138140263051054 
414	 0,140584256106467 
415	 0,151430724339756 
416	 0,151981438177405 
417	 0,14988398062694 
418	 0,148870545113067 
419	 0,153120024351136 
420	 0,15647562856722 
421	 0,151101877967699 
422	 0,149073610703665 
423	 0,151265115471844 
424	 0,150949636363259 
425	 0,150271069306799 
426	 0,15020016006802 
427	 0,147072197273631 
428	 0,144023624876825 
429	 0,147264062323695 
430	 0,150423557282198 
431	 0,151497961875466 
432	 0,150963425875158 
433	 0,151164865060738 
434	 0,153869014366706 
435	 0,154135527532154 
436	 0,15183412527831 
437	 0,148150204841746 
438	 0,14851157632138 
439	 0,153575280451982 
440	 0,152822614638692 
441	 0,148849611669769 
442	 0,146148566964764 
443	 0,147781980559704 
444	 0,152345166485175 
445	 0,152084608200429 
446	 0,151914375264891 
447	 0,154717652856843 
448	 0,158024527759259 
449	 0,160431888922914 
450	 0,160094744477259 
451	 0,158821762869795 
452	 0,15736938851175 
453	 0,1557163683962 
454	 0,154980831195216 
455	 0,156132149579216 
456	 0,157224310704076 
457	 0,158339747325061 
458	 0,161154418312632 
459	 0,162287148139175 
460	 0,160953178434847 
461	 0,162354150532871 
462	 0,163592647686152 
463	 0,160198942334864 
464	 0,157711342194551 
465	 0,157834613345529 
466	 0,161530754271669 
467	 0,16334123601666 
468	 0,160094681622 
469	 0,157918199066347 
470	 0,157303443611225 
471	 0,157045135798803 
472	 0,158157526754232 
473	 0,160431068033921 
474	 0,162242614203481 
475	 0,161781218195353 
476	 0,157715379489717 
477	 0,157590651211609 
478	 0,160971298574313 
479	 0,162257948729858 
480	 0,162825980327411 
481	 0,162925775770622 
482	 0,160829985922615 
483	 0,15815754661369 
484	 0,157271990642996 
485	 0,159218566292705 
486	 0,162805306025401 
487	 0,163006076495776 
488	 0,161541635790108 
489	 0,159899087656612 
490	 0,158572735991972 
491	 0,157885809451541 
492	 0,158199160629465 
493	 0,158550926028125 
494	 0,158752589154499 
495	 0,160031746363282 
496	 0,161230616810443 
497	 0,161007517734623 
498	 0,161216834158759 
499	 0,161860860825419 
500	 0,161697655093131 
501	 0,160947880686851 
502	 0,16001033417949 
503	 0,16077454528651 
504	 0,162639016370173 
505	 0,164208681853568 
506	 0,165296119073165 
507	 0,166014328463868 
508	 0,167526095350081 
509	 0,168893787645668 
510	 0,169232475102647 
511	 0,168904479841699 
512	 0,168525985709298 
513	 0,169340869306224 
514	 0,170609870343237 
515	 0,171834427549296 
516	 0,172126868691999 
517	 0,172182669398961 
518	 0,173081855156111 
519	 0,173959367266149 
520	 0,174619665293699 
521	 0,175246816826561 
522	 0,175805478486416 
523	 0,176243868173916 
524	 0,17628044752753 
525	 0,176154100205827 
526	 0,176548207788471 
527	 0,176523860225519 
528	 0,175943334051533 
529	 0,175947592205882 
530	 0,175927117979078 
531	 0,175113719353156 
532	 0,175080960441094 
533	 0,175755404366552 
534	 0,175659197998705 
535	 0,175947140541351 
536	 0,177051561432652 
537	 0,176692762254658 
538	 0,175549985135781 
539	 0,175338673015973 
540	 0,175867409490701 
541	 0,176771543964332 
542	 0,176514597818367 
543	 0,176084050770892 
544	 0,176480842847946 
545	 0,176533039566616 
546	 0,176430310859206 
547	 0,177393215136596 
548	 0,178233226301084 
549	 0,178341086746392 
550	 0,177795477352044 
551	 0,177509805091708 
552	 0,178908674653127 
553	 0,179388637881537 
554	 0,178594676229305 
555	 0,178462911573935 
556	 0,178195926789172 
557	 0,177175268945165 
558	 0,176756108788274 
559	 0,176647053609265 
560	 0,175423583474219 
561	 0,174495444983395 
562	 0,174306343830796 
563	 0,173805347930497 
564	 0,173162337899924 
565	 0,172713053425313 
566	 0,173011050187624 
567	 0,173753817370288 
568	 0,173219363568883 
569	 0,173255971387414 
570	 0,175032960036808 
571	 0,176485814663451 
572	 0,177624841075134 
573	 0,179230835246874 
574	 0,180860764251453 
575	 0,182413373365547 
576	 0,184109611068263 
577	 0,185941233638991 
578	 0,187883346144749 
579	 0,189980640050801 
580	 0,192089309636573 
581	 0,193798600029692 
582	 0,195336073799123 
583	 0,196825856047194 
584	 0,198114929658341 
585	 0,199241283905243 
586	 0,200266883318251 
587	 0,201567516261254 
588	 0,20311702450519 
589	 0,204279557008895 
590	 0,205204631370949 
591	 0,206049032086892 
592	 0,206649489561032 
593	 0,206928994872015 
594	 0,206550976203418 
595	 0,207012338668763 
596	 0,208726857405098 
597	 0,209265266122205 
598	 0,209052867073182 
599	 0,209153818105523 
600	 0,208669294979826 
601	 0,207729573103211 
602	 0,207675828906487 
603	 0,2076713785339 
604	 0,20703809485664 
605	 0,206151493712258 
606	 0,205244638601564 
607	 0,204684701614031 
608	 0,204336064904988 
609	 0,203978838102263 
610	 0,202688144751975 
611	 0,201243079656576 
612	 0,200681615177219 
613	 0,200429585123817 
614	 0,200092330702781 
615	 0,198821336701718 
616	 0,197727270427933 
617	 0,197459301293771 
618	 0,196874315877625 
619	 0,196195728999918 
620	 0,19616710827373 
621	 0,196450435408408 
622	 0,196764771154608 
623	 0,196313064475901 
624	 0,195971420630557 
625	 0,196651484341575 
626	 0,19727826820018 
627	 0,197648421780778 
628	 0,197897192993181 
629	 0,198184528593572 
630	 0,198567481032041 
631	 0,198682223080675 
632	 0,198879104181506 
633	 0,199769794893658 
634	 0,200811175228181 
635	 0,201870531524229 
636	 0,20313304907521 
637	 0,204451269570897 
638	 0,205676755642438 
639	 0,206567496538382 
640	 0,207329867448293 
641	 0,208561247683181 
642	 0,210046574417321 
643	 0,211511323039842 
644	 0,211942597736939 
645	 0,211970500937732 
646	 0,212531526617845 
647	 0,212988559347757 
648	 0,213050656034003 
649	 0,212280686424168 
650	 0,21138890863994 
651	 0,210800752969215 
652	 0,209731227815497 
653	 0,208174876538612 
654	 0,206326010982237 
655	 0,204434699993469 
656	 0,202597116512445 
657	 0,200725802057739 
658	 0,198553758110716 
659	 0,195830941502868 
660	 0,193175152804442 
661	 0,190773383853534 
662	 0,1887021816302 
663	 0,186604370475944 
664	 0,18432481539638 
665	 0,18220928038179 
666	 0,180220286624966 
667	 0,178200387749017 
668	 0,17681100906272 
669	 0,176104862059736 
670	 0,175511877399412 
671	 0,174816939208894 
672	 0,173879975331767 
673	 0,173016721749505 
674	 0,172426547490499 
675	 0,172429275894282 
676	 0,172566224985211 
677	 0,172622534906209 
678	 0,172538053267325 
679	 0,172510307508932 
680	 0,172778295067582 
681	 0,173276346901211 
682	 0,174059491567422 
683	 0,175178834386536 
684	 0,177114639959699 
685	 0,179984807713869 
686	 0,182144130020104 
687	 0,184510415085394 
688	 0,189082742339018 
689	 0,194066153434323 
690	 0,199107267866794 
691	 0,205124916046585 
692	 0,211889513520457 
693	 0,219180294264291 
694	 0,227564033173336 
695	 0,2369276019934 
696	 0,246726281929366 
697	 0,256822189307623 
698	 0,267137363281915 
699	 0,277915621933787 
700	 0,28878800727883 
701	 0,299208394332146 
702	 0,309876609358898 
703	 0,320623116449058 
704	 0,330406818910675 
705	 0,339587202783224 
706	 0,348387438027664 
707	 0,356786368107583 
708	 0,364622745501877 
709	 0,371552215880396 
710	 0,378001699132971 
711	 0,384183001139845 
712	 0,390283889478282 
713	 0,395997152032929 
714	 0,401016084883846 
715	 0,405099177803962 
716	 0,408649373642664 
717	 0,412818709525231 
718	 0,416646792448929 
719	 0,419806219010675 
720	 0,422831073427536 
721	 0,425749491958398 
722	 0,428545053944908 
723	 0,430677371725431 
724	 0,432305285135635 
725	 0,434389207743686 
726	 0,436374692897666 
727	 0,437929388616104 
728	 0,439378860479389 
729	 0,440679791238077 
730	 0,441633170922665 
731	 0,442901100320362 
732	 0,444518010912462 
733	 0,445731875498541 
734	 0,446511249905175 
735	 0,446909166257529 
736	 0,447628142409308 
737	 0,448652074862643 
738	 0,449623313103261 
739	 0,450339868671332 
740	 0,450735083759814 
741	 0,451080907872272 
742	 0,451384923924814 
743	 0,45163600976593 
744	 0,452370793783399 
745	 0,453336435580238 
746	 0,453372514727861 
747	 0,453379745876081 
748	 0,4538319242715 
749	 0,454393153804608 
750	 0,454919719474977 
751	 0,455245228193585 
752	 0,455693402844507 
753	 0,456254794560627 
754	 0,456582700501118 
755	 0,456685979365568 
756	 0,456639169197826 
757	 0,457011570210722 
758	 0,457707014142854 
759	 0,458413171541608 
760	 0,458490188812271 
761	 0,45800946891974 
762	 0,458452414748071 
763	 0,459068347633645 
764	 0,459110403032763 
765	 0,459327487244828 
766	 0,459705646225055 
767	 0,459860371521266 
768	 0,459933693292167 
769	 0,46003683170659 
770	 0,460488046830312 
771	 0,460963552217622 
772	 0,461060287263447 
773	 0,461057822576869 
774	 0,461121802885353 
775	 0,461536755689197 
776	 0,461995300339823 
777	 0,462280621931715 
778	 0,462105710706964 
779	 0,461997163197714 
780	 0,462764269230803 
781	 0,463076331378169 
782	 0,462801375553195 
783	 0,462794349858704 
784	 0,46305266866796 
785	 0,463529611527691 
786	 0,463786457813283 
787	 0,463936391765687 
788	 0,464330432537554 
789	 0,464427645672775 
790	 0,464201592750033 
791	 0,46420164931339 
792	 0,46444339463985 
793	 0,464877124353277 
794	 0,464935272438307 
795	 0,46485811084718 
796	 0,465397782883023 
797	 0,465794982774388 
798	 0,46584006488615 
799	 0,465808141640047 
800	 0,465968915521316 
801	 0,466515649741941 
802	 0,466667355585036 
803	 0,466563557474348 
804	 0,46695723113331 
805	 0,467365269717363 
806	 0,467587737840302 
807	 0,467519566756938 
808	 0,467538273363171 
809	 0,468024441254819 
810	 0,468198537871326 
811	 0,468212644247565 
812	 0,468993642396576 
813	 0,469608914476991 
814	 0,469720308844394 
815	 0,469945316234192 
816	 0,47007510496404 
817	 0,469826594637886 
818	 0,469997584828754 
819	 0,470578041008521 
820	 0,47100760363766 
821	 0,471179174845776 
822	 0,471076583028399 
823	 0,471000382060415 
824	 0,471329988711885 
825	 0,47246988890297 
826	 0,472768986350796 
827	 0,472344624068566 
828	 0,472989378223045 
829	 0,473436742138676 
830	 0,473176156127451 
831	 0,473461845529982 
832	 0,473854464094743 
833	 0,473589807989416 
834	 0,47333598098332 
835	 0,473276393281771 
836	 0,473360458152316 
837	 0,473796136810696 
838	 0,474546262728094 
839	 0,474607896201786 
840	 0,474349881539783 
841	 0,474453931328585 
842	 0,474673364137946 
843	 0,474828401722598 
844	 0,474407724537204 
845	 0,4744435464074 
846	 0,475357904903048 
847	 0,475767550721757 
848	 0,475869928502918 
849	 0,476177393695827 
850	 0,476036314575169 
851	 0,475668075497045 
852	 0,476345668137255 
853	 0,476702456563614 
854	 0,476176171753088 
855	 0,476390410983339 
856	 0,476989164279657 
857	 0,477245428299743 
858	 0,476855358346129 
859	 0,476170907044799 
860	 0,476527125302024 
861	 0,477236555155701 
862	 0,477858543155341 
863	 0,478046134691729 
864	 0,478035967397416 
865	 0,478196503227276 
866	 0,478081936204438 
867	 0,477928302247182 
868	 0,478758030901428 
869	 0,479461801263302 
870	 0,479549847157273 
871	 0,479681201697529 
872	 0,479743297969263 
873	 0,479543242200754 
874	 0,479238100946842 
875	 0,479227085884563 
876	 0,480635358112402 
877	 0,481348212140915 
878	 0,480701684747053 
879	 0,480642776669022 
880	 0,481048445317685 
881	 0,481605801847934 
882	 0,482215523379004 
883	 0,482661351852426 
884	 0,482451447995724 
885	 0,482564317816734 
886	 0,483156916292576 
887	 0,482957314371205 
888	 0,48275435210481 
889	 0,483303093003529 
890	 0,483596398621918 
891	 0,483896305971653 
892	 0,48531906155824 
893	 0,485370002526051 
894	 0,483983521593209 
895	 0,484730056541454 
896	 0,485784992936537 
897	 0,485663843062851 
898	 0,485448982148802 
899	 0,485254489320158 
900	 0,484962690983854 
901	 0,485484637400443 
902	 0,486595576242414 
903	 0,486437340319074 
904	 0,486212727665858 
905	 0,486734119335791 
906	 0,488119120568142 
907	 0,489057095381868 
908	 0,487741276447767 
909	 0,487349449953333 
910	 0,488093480124772 
911	 0,487999135148784 
912	 0,487582723343923 
913	 0,487227255998976 
914	 0,487718346918955 
915	 0,488747504778591 
916	 0,48981084821503 
917	 0,489785787143107 
918	 0,488905425070667 
919	 0,488271003586708 
920	 0,488472118072714 
921	 0,489449428791753 
922	 0,489671950927414 
923	 0,489407051204456 
924	 0,488951734542677 
925	 0,488196343109513 
926	 0,487680173140232 
927	 0,488331402990609 
928	 0,489016654437021 
929	 0,489298601953621 
930	 0,488928284303045 
931	 0,488795803588566 
932	 0,489277812000081 
933	 0,4890038984905 
934	 0,488562584505935 
935	 0,4888506615314 
936	 0,487823385648768 
937	 0,486291056886794 
938	 0,487932218472903 
939	 0,488543332473079 
940	 0,487120658315465 
941	 0,48758364150155 
942	 0,487768327585649 
943	 0,485882343534102 
944	 0,485860593534372 
945	 0,486863198558091 
946	 0,486153701246064 
947	 0,485025990848208 
948	 0,484087630782851 
949	 0,484302148819785 
950	 0,484036361534515 
951	 0,482568313366537 
952	 0,481743213333534 
953	 0,481702374687416 
954	 0,482289463802202 
955	 0,481950481411829 
956	 0,48063141527446 
957	 0,478878895846578 
958	 0,479122410411482 
959	 0,481249174247796 
960	 0,480412246461036 
961	 0,478840034267151 
962	 0,47835752931228 
963	 0,478006689107075 
964	 0,477861838835353 
965	 0,478173847716485 
966	 0,478402457190982 
967	 0,47843799670417 
968	 0,478479517598215 
969	 0,478302714853628 
970	 0,477873236182799 
971	 0,477352422771458 
972	 0,477523474497837 
973	 0,478933672531772 
974	 0,47989265088287 
975	 0,480020715205983 
976	 0,479218015691328 
977	 0,479060663512953 
978	 0,479996061306689 
979	 0,482022857501631 
980	 0,482549538951634 
981	 0,480701684953788 
982	 0,479660081856099 
983	 0,479841338696147 
984	 0,481165084376486 
985	 0,480847796181402 
986	 0,480051415249027 
987	 0,482172921787289 
988	 0,482095886023332 
989	 0,479529125397681 
990	 0,478559222927451 
991	 0,480240188768889 
992	 0,484274645806499 
993	 0,485577493452387 
994	 0,484853805187571 
995	 0,483511801539653 
996	 0,482973206700962 
997	 0,483794547107757 
998	 0,486351283503863 
999	 0,488144559348472 
1000	 0,488467360456847 
1001	 0,487868714089283 
1002	 0,488092511896038 
1003	 0,489479396846468 
1004	 0,487841650575507 
1005	 0,487422086161745 
1006	 0,49188486514311 
1007	 0,491955499211671 
1008	 0,488849200175951 
1009	 0,487639343145271 
1010	 0,488239850866237 
1011	 0,490348695087642 
1012	 0,492505785756386 
1013	 0,494902460107417 
1014	 0,496969911826483 
1015	 0,496249922173991 
1016	 0,494928767250532 
1017	 0,495125907637968 
1018	 0,497658691923437 
1019	 0,499130164495853 
1020	 0,494643809180967 
1021	 0,493532721163725 
1022	 0,49698482009783 
1023	 0,50196203105717 
1024	 0,504221314283363 
1025	 0,502316100599323 
1026	 0,498310538602395 
1027	 0,495307894107531 
1028	 0,495737091645122 
1029	 0,50058455637331 
1030	 0,505432888911691 
1031	 0,505262876114859 
1032	 0,502215172626352 
1033	 0,499810828147008 
1034	 0,503993462161124 
1035	 0,505565503104871 
1036	 0,504029411203481 
1037	 0,507485272959653 
1038	 0,510333355894576 
1039	 0,5099585700524 
1040	 0,507347287975189 
1041	 0,503396618181105 
1042	 0,500032479011488 
1043	 0,506342560469668 
1044	 0,514690497363605 
1045	 0,513183523860649 
1046	 0,512959335546013 
1047	 0,514838567649637 
1048	 0,515621053767772 
1049	 0,510341426346514 
1050	 0,501076763507344 
1051	 0,500595364521045 
1052	 0,505815221044999 
1053	 0,513841612058414 
1054	 0,520197943679052 
1055	 0,519123118075697 
1056	 0,508129795046543 
1057	 0,508448606349552 
1058	 0,512492414484668 
1059	 0,50596129227916 
1060	 0,50898594915667 
1061	 0,516472283145234 
1062	 0,508663105793192 
1063	 0,499023302160525 
1064	 0,495130912729825 
1065	 0,508347258606038 
1066	 0,517213215462379 
1067	 0,513289524650624 
1068	 0,511671780031571 
1069	 0,512505235773881 
1070	 0,514951104628682 
1071	 0,515598196662769 
1072	 0,515017543337122 
1073	 0,514623601953049 
1074	 0,515086667313361 
1075	 0,519811978661933 
