Wavelength	NEUF00102.asd
325	 1,15351993214589E-02 
326	-9,10351703793663E-02 
327	-3,44591644116808E-02 
328	 0,131185673373935 
329	 0,104573380378541 
330	 6,63380487372788E-02 
331	 0,147463419686053 
332	 0,13445883604911 
333	 6,96564379435069E-02 
334	 9,14743150788697E-02 
335	 8,30072660480229E-02 
336	 9,49228793199449E-03 
337	-9,04944690728347E-02 
338	-0,128645563263256 
339	-5,93441776963724E-02 
340	-3,16185090683401E-03 
341	 3,33179733396755E-02 
342	 5,72625151140562E-02 
343	 7,23940045135222E-02 
344	 8,04779774987349E-02 
345	 0,035277225780906 
346	 6,95932157586019E-03 
347	 5,44535623063964E-02 
348	 2,42441717660377E-02 
349	-6,25028674710879E-02 
350	-6,78019839649972E-02 
351	-7,34396572331246E-03 
352	 7,99156984819101E-02 
353	 4,96065614721679E-02 
354	-1,89721318367036E-02 
355	-1,55158467534378E-02 
356	-1,48059318260827E-02 
357	-2,06232068809729E-02 
358	-1,72153792489691E-03 
359	 1,81944628259033E-02 
360	 2,86094000560804E-02 
361	 1,80449412712045E-02 
362	 1,09786178347884E-03 
363	-4,5870458128274E-03 
364	 0,019976287014945 
365	 5,94597333418515E-02 
366	 6,49440248540361E-02 
367	 4,56250238951296E-02 
368	 9,60023196533407E-03 
369	 3,74897788532839E-03 
370	 1,73485677405564E-02 
371	 1,89321485283109E-02 
372	 1,01861691937575E-02 
373	-2,82661527187569E-03 
374	 4,71645608535109E-03 
375	 1,24954378048376E-02 
376	 6,39362965377541E-03 
377	 1,85626998699777E-02 
378	 3,44290987893653E-02 
379	 1,05098332516591E-02 
380	 2,9534443115023E-03 
381	 2,49450852365042E-02 
382	 5,10027127713859E-02 
383	 5,14101822417414E-02 
384	 2,71084407648089E-03 
385	-3,34679675485775E-03 
386	 2,36053536174832E-02 
387	 4,92904135802944E-03 
388	 2,62508776402195E-03 
389	 0,03044251235966 
390	 2,63993221581142E-02 
391	 1,02811694186541E-02 
392	 1,11188635503957E-02 
393	 0,012790699434151 
394	 0,012090399582173 
395	 7,8024485213148E-03 
396	 9,9116602114417E-03 
397	 2,12666513930051E-02 
398	 0,02650753535251 
399	 2,41123960062298E-02 
400	 0,013004683754865 
401	 1,83676808216931E-02 
402	 3,71576716020415E-02 
403	 3,41308380487234E-02 
404	 2,90010653569048E-02 
405	 3,41846511690668E-02 
406	 2,52598042647776E-02 
407	 1,28732769030632E-02 
408	 2,55620626946793E-02 
409	 3,10476095482299E-02 
410	 2,24294790941444E-02 
411	 1,36832461737021E-02 
412	 1,06225044168316E-02 
413	 1,71936864045564E-02 
414	 2,31168574705566E-02 
415	 2,46332037669001E-02 
416	 1,68211678888623E-02 
417	 0,015145515442501 
418	 2,36710237341532E-02 
419	 2,33959517636483E-02 
420	 2,07667600818829E-02 
421	 2,58556269454182E-02 
422	 2,69583965419959E-02 
423	 2,28939511349707E-02 
424	 1,78009021938703E-02 
425	 1,63220822942029E-02 
426	 2,04601711669694E-02 
427	 0,021073959139312 
428	 1,86943324205578E-02 
429	 1,59256590291897E-02 
430	 1,87486839314556E-02 
431	 2,59996603056968E-02 
432	 2,46712009980619E-02 
433	 2,03565674529064E-02 
434	 1,87656785720305E-02 
435	 2,21630441751177E-02 
436	 2,73571152133219E-02 
437	 2,52384933669657E-02 
438	 2,30167897445017E-02 
439	 2,29546616529189E-02 
440	 2,01431949755126E-02 
441	 1,72651530709004E-02 
442	 1,81596902631055E-02 
443	 1,78007732071542E-02 
444	 1,62460526570308E-02 
445	 1,76707592212276E-02 
446	 2,04568711396018E-02 
447	 0,02342694948233 
448	 2,60239173319672E-02 
449	 2,75386362667308E-02 
450	 2,69927069673525E-02 
451	 2,55208015335337E-02 
452	 2,37555689216392E-02 
453	 2,21243995744574E-02 
454	 2,10570553836504E-02 
455	 2,09545360026981E-02 
456	 2,11593330065553E-02 
457	 2,21399416600802E-02 
458	 2,60622620816844E-02 
459	 2,78516853555238E-02 
460	 2,54531237595064E-02 
461	 2,09421268575239E-02 
462	 1,79250274041371E-02 
463	 2,07850954390922E-02 
464	 2,14524690578694E-02 
465	 1,99035788627702E-02 
466	 2,43453849227802E-02 
467	 2,64480528252882E-02 
468	 2,15635969865343E-02 
469	 1,98964517844241E-02 
470	 2,17009322119268E-02 
471	 2,45375765866476E-02 
472	 2,59681779335961E-02 
473	 2,48811806163652E-02 
474	 2,12933128659079E-02 
475	 1,78106541433026E-02 
476	 1,70171089169031E-02 
477	 0,020174701742828 
478	 2,46323267267639E-02 
479	 2,29627360616302E-02 
480	 0,020387477610148 
481	 1,95289166194031E-02 
482	 2,02400534933113E-02 
483	 2,10165196039751E-02 
484	 1,96030945674511E-02 
485	 1,99557515574269E-02 
486	 2,21593874708055E-02 
487	 2,24526426494328E-02 
488	 2,21336056551665E-02 
489	 2,22442057466001E-02 
490	 2,24987467285074E-02 
491	 2,30217992418488E-02 
492	 2,43314186102371E-02 
493	 2,46363312783218E-02 
494	 2,37529376659345E-02 
495	 2,47398581381639E-02 
496	 2,50860683200531E-02 
497	 2,18348274479862E-02 
498	 0,021262934848954 
499	 2,32356625383916E-02 
500	 2,26052634667477E-02 
501	 2,23175798716741E-02 
502	 2,37688893633031E-02 
503	 2,42693339961486E-02 
504	 2,41845107543899E-02 
505	 2,47842902086546E-02 
506	 2,51316867580839E-02 
507	 2,49640901624183E-02 
508	 2,42500867683514E-02 
509	 2,39505928661913E-02 
510	 2,48304733180675E-02 
511	 2,50192931034906E-02 
512	 2,43155056015965E-02 
513	 2,28765949316227E-02 
514	 2,28705097106231E-02 
515	 2,48693177308342E-02 
516	 2,59697993660851E-02 
517	 2,55362147766553E-02 
518	 2,30799372561054E-02 
519	 2,27587172673303E-02 
520	 2,47513516532947E-02 
521	 2,52356279059846E-02 
522	 2,55884530250061E-02 
523	 2,66894847533399E-02 
524	 0,026556384431587 
525	 2,56214499139749E-02 
526	 2,55159888565705E-02 
527	 2,52344476501688E-02 
528	 2,47463065529376E-02 
529	 2,56291366214751E-02 
530	 2,64959353752361E-02 
531	 2,56874322860238E-02 
532	 2,48429935863225E-02 
533	 2,45332929670189E-02 
534	 2,51736683198861E-02 
535	 2,61426919381558E-02 
536	 2,69305435840504E-02 
537	 2,69369939469419E-02 
538	 2,62224510754073E-02 
539	 2,49572700018463E-02 
540	 0,024387324190374 
541	 2,47803840057417E-02 
542	 2,50781009508316E-02 
543	 2,54576049605741E-02 
544	 2,61113486923552E-02 
545	 2,63578176368169E-02 
546	 2,61922756772558E-02 
547	 2,59858776935371E-02 
548	 2,58959227166308E-02 
549	 2,59645593077996E-02 
550	 2,56741001067141E-02 
551	 2,55172575417765E-02 
552	 2,63555244619685E-02 
553	 2,68918744642038E-02 
554	 2,69115108667667E-02 
555	 2,72799390827076E-02 
556	 2,74490052034681E-02 
557	 2,69965170664112E-02 
558	 2,67124740444583E-02 
559	 2,67082157220142E-02 
560	 0,026907784223586 
561	 2,69124392571006E-02 
562	 2,66279102471644E-02 
563	 2,67447808463238E-02 
564	 2,66984015886663E-02 
565	 0,025669362438806 
566	 2,56772310216436E-02 
567	 0,026627039075759 
568	 2,61255692015322E-02 
569	 2,60644406185129E-02 
570	 2,75651287763468E-02 
571	 2,79473491014715E-02 
572	 2,74391966744156E-02 
573	 2,74429340296268E-02 
574	 0,027551535300437 
575	 0,027687341780439 
576	 0,027881123038401 
577	 2,82200498995039E-02 
578	 0,028786168805458 
579	 0,02892383386556 
580	 2,87909942794579E-02 
581	 2,94036015376471E-02 
582	 2,99295696963208E-02 
583	 2,99683957204919E-02 
584	 3,04320844099914E-02 
585	 3,08337318678219E-02 
586	 3,01117185587705E-02 
587	 2,93383720533394E-02 
588	 2,90932222764537E-02 
589	 3,02248376780965E-02 
590	 3,13668810476907E-02 
591	 0,031235425389506 
592	 3,06809275026405E-02 
593	 3,01266933668268E-02 
594	 3,01402805177256E-02 
595	 3,04929661746228E-02 
596	 3,10460639628438E-02 
597	 3,17125255632726E-02 
598	 3,20242059913729E-02 
599	 3,13218082434432E-02 
600	 3,08474494362103E-02 
601	 3,07969432442458E-02 
602	 3,02866610118734E-02 
603	 3,01012305839549E-02 
604	 3,07630553877295E-02 
605	 3,07029627454197E-02 
606	 3,01903367127014E-02 
607	 3,05463089080974E-02 
608	 3,10713747748389E-02 
609	 3,13755713286865E-02 
610	 3,07961875074557E-02 
611	 3,00259385452184E-02 
612	 2,99760562342185E-02 
613	 3,00385113429379E-02 
614	 3,00188952292994E-02 
615	 2,97672680955658E-02 
616	 2,95632019999474E-02 
617	 2,95455976823278E-02 
618	 2,92044615864942E-02 
619	 2,87701787699023E-02 
620	 2,88331889379784E-02 
621	 2,89453503215348E-02 
622	 2,89283712834073E-02 
623	 2,85922641345933E-02 
624	 2,86031180553853E-02 
625	 0,029594276225027 
626	 3,00172269442526E-02 
627	 2,97451572749525E-02 
628	 2,93900221460312E-02 
629	 2,94089324008843E-02 
630	 2,99559573181536E-02 
631	 3,00654256709225E-02 
632	 2,98756924031346E-02 
633	 2,97906653237563E-02 
634	 2,99467144715999E-02 
635	 3,03578101749719E-02 
636	 3,08207111007918E-02 
637	 3,12498946643416E-02 
638	 3,15921573670501E-02 
639	 3,21641741309137E-02 
640	 0,032674181999473 
641	 3,21812151388554E-02 
642	 3,19683915348746E-02 
643	 3,24914145351493E-02 
644	 3,30029974644691E-02 
645	 3,32910590526838E-02 
646	 3,31780512939032E-02 
647	 3,35801975010569E-02 
648	 0,034282560130657 
649	 3,37126907264534E-02 
650	 3,29354551797121E-02 
651	 3,27231783950221E-02 
652	 3,31891156819714E-02 
653	 3,36429438243439E-02 
654	 3,26650574036752E-02 
655	 3,15829411315881E-02 
656	 3,09049956229861E-02 
657	 3,06623633065834E-02 
658	 3,04959500644379E-02 
659	 3,00297145918354E-02 
660	 2,93790847149925E-02 
661	 2,88422662262445E-02 
662	 0,029269077178461 
663	 0,029382987484101 
664	 2,86470580590988E-02 
665	 2,83012423632047E-02 
666	 2,82532198176084E-02 
667	 2,81381189977295E-02 
668	 2,78434753009116E-02 
669	 2,74375357057873E-02 
670	 2,73948236335446E-02 
671	 2,72953446003693E-02 
672	 2,68300165670788E-02 
673	 0,026529359436124 
674	 2,65576930420094E-02 
675	 2,71346582298847E-02 
676	 2,75099132440182E-02 
677	 2,73994555877498E-02 
678	 2,70351507561231E-02 
679	 2,69247703950409E-02 
680	 0,027619960096107 
681	 2,78450886324573E-02 
682	 2,76350977600901E-02 
683	 2,81664016918035E-02 
684	 2,86749524432515E-02 
685	 2,87326120267594E-02 
686	 2,86648278644077E-02 
687	 2,88712122382864E-02 
688	 2,99797577528237E-02 
689	 3,09962686885857E-02 
690	 3,17031897799364E-02 
691	 3,25979247350419E-02 
692	 3,38531489144151E-02 
693	 3,55546842386784E-02 
694	 3,67677976131601E-02 
695	 0,038076350093372 
696	 0,041429361394147 
697	 0,045009713968671 
698	 4,80723102987265E-02 
699	 0,051120426226293 
700	 5,44324243173911E-02 
701	 5,82853365197559E-02 
702	 6,24014485662274E-02 
703	 0,066607174329106 
704	 7,06475802967458E-02 
705	 7,46230802784812E-02 
706	 7,85631161419749E-02 
707	 8,22027943976459E-02 
708	 8,56753236217192E-02 
709	 8,92934483645108E-02 
710	 9,26927385977448E-02 
711	 9,57919011477171E-02 
712	 9,88016556062139E-02 
713	 0,101578850129815 
714	 0,104021482228839 
715	 0,106791655253537 
716	 0,109609959818821 
717	 0,111421690239594 
718	 0,113128292936371 
719	 0,115063342172369 
720	 0,116747242478748 
721	 0,118289476481397 
722	 0,119884008599772 
723	 0,121345242818046 
724	 0,122618177851386 
725	 0,123646378709199 
726	 0,124743405777015 
727	 0,126007212409458 
728	 0,126494660080743 
729	 0,126748614877501 
730	 0,127950334258398 
731	 0,129134012090899 
732	 0,130020462748523 
733	 0,130807914683807 
734	 0,131411453668224 
735	 0,131776198955684 
736	 0,132188498951028 
737	 0,132694153615272 
738	 0,133301796499725 
739	 0,133591240091193 
740	 0,133575163591614 
741	 0,134333676467908 
742	 0,135235849956639 
743	 0,135464042323691 
744	 0,135447874180093 
745	 0,135416342929467 
746	 0,135702542662502 
747	 0,13622986810365 
748	 0,136896452220961 
749	 0,137322466115282 
750	 0,137537528855793 
751	 0,137651913734383 
752	 0,138193075136277 
753	 0,138994658906562 
754	 0,138847152130484 
755	 0,138547679068919 
756	 0,13870723592983 
757	 0,139146486586287 
758	 0,139665394349297 
759	 0,13994181799753 
760	 0,13993896370465 
761	 0,139801332850985 
762	 0,1402782269919 
763	 0,14080729276399 
764	 0,140840387470996 
765	 0,140823897212633 
766	 0,140876310413101 
767	 0,141100203967091 
768	 0,141172648515868 
769	 0,141061931589185 
770	 0,141366770090797 
771	 0,141885239338733 
772	 0,142316082091933 
773	 0,142537634749361 
774	 0,142607296066743 
775	 0,142830744115939 
776	 0,14302145329222 
777	 0,143085890618827 
778	 0,143034371919561 
779	 0,143088884371289 
780	 0,143565337345264 
781	 0,143850243438233 
782	 0,143866736045685 
783	 0,14400977277606 
784	 0,144099723333066 
785	 0,144058832327709 
786	 0,144234193490657 
787	 0,144584398886644 
788	 0,144953081000854 
789	 0,145287792568772 
790	 0,145495427417855 
791	 0,145312184090797 
792	 0,145214119848777 
793	 0,145561502951796 
794	 0,145835243380477 
795	 0,146087941374434 
796	 0,146677344764015 
797	 0,146880830594029 
798	 0,14658902485726 
799	 0,146485403301812 
800	 0,146783555318028 
801	 0,147567295091677 
802	 0,147620702253346 
803	 0,147139020462874 
804	 0,147206777725233 
805	 0,147469619339436 
806	 0,147796442368741 
807	 0,148057332353471 
808	 0,148254508069967 
809	 0,148395296711235 
810	 0,148135837492528 
811	 0,147863885239428 
812	 0,148924013470944 
813	 0,149480659171308 
814	 0,148937055370287 
815	 0,14886990124517 
816	 0,149123986334779 
817	 0,149353528377197 
818	 0,149875932983961 
819	 0,150465571454833 
820	 0,150334918859117 
821	 0,149948018328412 
822	 0,14969401570944 
823	 0,150448818283029 
824	 0,151359487177967 
825	 0,151240634827856 
826	 0,151136378125126 
827	 0,151304325366032 
828	 0,151769193503294 
829	 0,152047258462146 
830	 0,151890970102937 
831	 0,151546321600726 
832	 0,15137552231406 
833	 0,151811341126314 
834	 0,151653599564677 
835	 0,151065842249546 
836	 0,151609098855751 
837	 0,152228162320469 
838	 0,152379574140088 
839	 0,152611252850858 
840	 0,152789646525765 
841	 0,152660155857914 
842	 0,152559233370942 
843	 0,152629075360178 
844	 0,153059406396301 
845	 0,153238804029373 
846	 0,152893154770369 
847	 0,152679913928091 
848	 0,15274692379904 
849	 0,153174792676707 
850	 0,153649867492002 
851	 0,154032137518374 
852	 0,154294090652688 
853	 0,154171813685521 
854	 0,15364911820174 
855	 0,153562612005247 
856	 0,153897755243253 
857	 0,154481716631823 
858	 0,154504994602005 
859	 0,154076922074226 
860	 0,154317129779306 
861	 0,154364929157537 
862	 0,153952588664336 
863	 0,154400576226076 
864	 0,15503032239694 
865	 0,15481017500131 
866	 0,154803474253053 
867	 0,155152249140013 
868	 0,155585822995654 
869	 0,15561312735581 
870	 0,155063865343698 
871	 0,154483166196939 
872	 0,154369918305683 
873	 0,15518831661369 
874	 0,15532313677358 
875	 0,15489845570094 
876	 0,155428465432952 
877	 0,155781315971137 
878	 0,155616253614091 
879	 0,155830921323992 
880	 0,156213279814099 
881	 0,156457604219599 
882	 0,156525219638876 
883	 0,156465452347418 
884	 0,156381657809761 
885	 0,156677195961813 
886	 0,157301061029425 
887	 0,157144447992698 
888	 0,156893252440907 
889	 0,157189845579179 
890	 0,156836598813444 
891	 0,156486337261809 
892	 0,158057676228515 
893	 0,15923215881709 
894	 0,159260761904233 
895	 0,158593503330907 
896	 0,158032204534393 
897	 0,158197364530123 
898	 0,158755844104539 
899	 0,158970967550798 
900	 0,157602429969429 
901	 0,157457582924995 
902	 0,158697949673492 
903	 0,158646425120998 
904	 0,158315962201876 
905	 0,158402308787349 
906	 0,159010590292179 
907	 0,159833847015004 
908	 0,160408680006272 
909	 0,159997733245838 
910	 0,158928449305409 
911	 0,158750881000089 
912	 0,159006803521837 
913	 0,159422437558496 
914	 0,159615070979819 
915	 0,15976967563843 
916	 0,160112583996132 
917	 0,160044501895601 
918	 0,159815205614993 
919	 0,160423402718786 
920	 0,160608436628528 
921	 0,16006001955176 
922	 0,159495492172998 
923	 0,159339475073077 
924	 0,159824902716752 
925	 0,159807866361921 
926	 0,159616192413782 
927	 0,160191382926461 
928	 0,160543984154792 
929	 0,16048653828274 
930	 0,160483677837596 
931	 0,160276989913347 
932	 0,159776385266238 
933	 0,159345464376339 
934	 0,159187456640986 
935	 0,15947695975564 
936	 0,159625242943603 
937	 0,159611604654755 
938	 0,159787083951996 
939	 0,160139578598498 
940	 0,160495773490851 
941	 0,159999776848111 
942	 0,159487762733662 
943	 0,159695352769324 
944	 0,159895627968032 
945	 0,159623930056031 
946	 0,158236033622429 
947	 0,157528657800903 
948	 0,15776735749019 
949	 0,157849898374305 
950	 0,15749626864018 
951	 0,15660363417675 
952	 0,155744539817904 
953	 0,155087927361467 
954	 0,154752505089235 
955	 0,154928338727687 
956	 0,155048568613335 
957	 0,153388242964318 
958	 0,15330339081554 
959	 0,155261364061053 
960	 0,155675112659989 
961	 0,155311111506972 
962	 0,15482181620464 
963	 0,153466343489905 
964	 0,152890143444166 
965	 0,15559682190212 
966	 0,156191768732798 
967	 0,154464780758565 
968	 0,154186194396993 
969	 0,154335219184345 
970	 0,154551818684759 
971	 0,154847388884208 
972	 0,155298753851572 
973	 0,155864749639217 
974	 0,155137528849648 
975	 0,154448906500656 
976	 0,156558176738079 
977	 0,15774264413391 
978	 0,15732018017067 
979	 0,156903101850456 
980	 0,155719053887615 
981	 0,153941553945405 
982	 0,154349616877618 
983	 0,155907452796146 
984	 0,157204624981073 
985	 0,157094412683207 
986	 0,156568085774443 
987	 0,158117211701066 
988	 0,157681809870116 
989	 0,155414331862619 
990	 0,156008880380848 
991	 0,157889375302139 
992	 0,159679899234556 
993	 0,158806356634353 
994	 0,157274722538953 
995	 0,157395731754537 
996	 0,157655970216827 
997	 0,158380613239154 
998	 0,160736460180485 
999	 0,161207388879365 
1000	 0,159688622918131 
1001	 0,159760915039178 
1002	 0,159822561432197 
1003	 0,159516984403528 
1004	 0,161659325236558 
1005	 0,162909280906129 
1006	 0,160267286793764 
1007	 0,15916466117226 
1008	 0,15945095020456 
1009	 0,159030105841737 
1010	 0,160652348046158 
1011	 0,163334276975013 
1012	 0,161522730785109 
1013	 0,160476955519854 
1014	 0,162073309040256 
1015	 0,163097782932975 
1016	 0,162832066806173 
1017	 0,161337162797242 
1018	 0,163860814421507 
1019	 0,166418676548173 
1020	 0,162264287162686 
1021	 0,162737753447611 
1022	 0,167178256072043 
1023	 0,165906835820649 
1024	 0,164310656317335 
1025	 0,164311282400912 
1026	 0,16639412770534 
1027	 0,166861641294011 
1028	 0,163896931380339 
1029	 0,163097454713101 
1030	 0,163854383328452 
1031	 0,164475512884732 
1032	 0,161300537677856 
1033	 0,15788294356389 
1034	 0,162713367302656 
1035	 0,163282639973545 
1036	 0,159541477893278 
1037	 0,164614813297675 
1038	 0,167997400944865 
1039	 0,165436355384458 
1040	 0,161041917971728 
1041	 0,161919100128264 
1042	 0,171147851411519 
1043	 0,166941453676453 
1044	 0,15927771610216 
1045	 0,165517732245659 
1046	 0,171310470749922 
1047	 0,172931355909834 
1048	 0,169057871115713 
1049	 0,169495137994765 
1050	 0,174546133085208 
1051	 0,172284439738819 
1052	 0,168340612176811 
1053	 0,166897690770744 
1054	 0,174343083001864 
1055	 0,177395044394112 
1056	 0,166083659011739 
1057	 0,162496447204689 
1058	 0,163022296617359 
1059	 0,158370197135073 
1060	 0,162128133371352 
1061	 0,171025678353543 
1062	 0,172279489401424 
1063	 0,176824219681658 
1064	 0,183547733911422 
1065	 0,178381755221154 
1066	 0,170305287826162 
1067	 0,165565917215756 
1068	 0,171984430777479 
1069	 0,177609891483784 
1070	 0,17278843861382 
1071	 0,15719871646944 
1072	 0,149702611582485 
1073	 0,170345568000921 
1074	 0,180492186680827 
1075	 0,180324384356915 
