Wavelength	NEUF00063.asd
325	 0,599314934429438 
326	 0,597765258427135 
327	 0,472749340695991 
328	 0,322779285419507 
329	 0,405843826443766 
330	 0,536658295607708 
331	 0,603763814709059 
332	 0,574425522765438 
333	 0,522000063642246 
334	 0,563403810066316 
335	 0,536514335519596 
336	 0,409410652924774 
337	 0,372572855623311 
338	 0,399704394478219 
339	 0,432835088637404 
340	 0,441683332183987 
341	 0,439142218676761 
342	 0,458783715322107 
343	 0,487054865513211 
344	 0,516600738881582 
345	 0,466937546025438 
346	 0,426339865733368 
347	 0,47626650725504 
348	 0,503936394023858 
349	 0,490346625239934 
350	 0,432715210266206 
351	 0,426176329707705 
352	 0,478745806797978 
353	 0,461122444731254 
354	 0,420682983505516 
355	 0,427140582587594 
356	 0,44612199093698 
357	 0,467609471984898 
358	 0,48807854881515 
359	 0,497759017378114 
360	 0,496148672484038 
361	 0,507009686542923 
362	 0,510527116235522 
363	 0,476685968958649 
364	 0,472879078413865 
365	 0,499750789350637 
366	 0,496128876747549 
367	 0,499565714433412 
368	 0,528730428619279 
369	 0,520405026709631 
370	 0,495628746149763 
371	 0,501971970705077 
372	 0,515672231711276 
373	 0,526227355152544 
374	 0,521006492114103 
375	 0,509844861664763 
376	 0,502826608302871 
377	 0,52068621512971 
378	 0,546612650436807 
379	 0,538871318346039 
380	 0,534273976941129 
381	 0,54184757625316 
382	 0,548229420239063 
383	 0,539343054393159 
384	 0,504490455448256 
385	 0,502437528181589 
386	 0,528003264184169 
387	 0,537930110214112 
388	 0,539063000682174 
389	 0,534974049449464 
390	 0,536824249912525 
391	 0,542689699406322 
392	 0,548708149798089 
393	 0,539572049269269 
394	 0,523554585674437 
395	 0,53261686615182 
396	 0,548443991348467 
397	 0,55755802462275 
398	 0,548112028471968 
399	 0,533137760019457 
400	 0,532866916855594 
401	 0,538829792537364 
402	 0,547338889790856 
403	 0,55433589438935 
404	 0,557334524717727 
405	 0,554896496994342 
406	 0,549886740494666 
407	 0,543960847854114 
408	 0,538383365010843 
409	 0,538145833461905 
410	 0,542589126126348 
411	 0,542040710943198 
412	 0,539152145804848 
413	 0,537166863108657 
414	 0,540303094815625 
415	 0,545954236480466 
416	 0,545307212459738 
417	 0,547991547409951 
418	 0,555317147054814 
419	 0,549944922827766 
420	 0,542538996636895 
421	 0,547756413239026 
422	 0,549188654391505 
423	 0,545501011922068 
424	 0,544457884807787 
425	 0,545947591819255 
426	 0,549106005477433 
427	 0,547197153060921 
428	 0,54309690182133 
429	 0,543198246280771 
430	 0,544581613085281 
431	 0,546315386095934 
432	 0,548495973477087 
433	 0,548668526543059 
434	 0,545160373183564 
435	 0,546339221954979 
436	 0,550208352183635 
437	 0,547646844714467 
438	 0,545548598050731 
439	 0,546315148809605 
440	 0,546724883349445 
441	 0,547395814045872 
442	 0,54941750955514 
443	 0,55136632926639 
444	 0,552377777783832 
445	 0,551026998969749 
446	 0,54911830249682 
447	 0,548291401104483 
448	 0,552180447197161 
449	 0,556870801564444 
450	 0,554310631528563 
451	 0,55170446077164 
452	 0,551495649642037 
453	 0,553488966974125 
454	 0,555748980272944 
455	 0,556384369491956 
456	 0,556000909568007 
457	 0,555606136690508 
458	 0,558015863884828 
459	 0,557550813510871 
460	 0,553338955656052 
461	 0,556179827860207 
462	 0,560529195442048 
463	 0,557709003730932 
464	 0,555630554663926 
465	 0,556137746529609 
466	 0,558608630459232 
467	 0,559844276091429 
468	 0,558219867081483 
469	 0,559819810585895 
470	 0,56238857349132 
471	 0,559430543873605 
472	 0,55890878283201 
473	 0,562063553168201 
474	 0,561946048939014 
475	 0,560726378789369 
476	 0,560905724910744 
477	 0,562085110365173 
478	 0,563272207223392 
479	 0,561909653006564 
480	 0,560675664312509 
481	 0,560837301786668 
482	 0,561509824990879 
483	 0,562135294581811 
484	 0,562048614618424 
485	 0,562339531741669 
486	 0,56301820001271 
487	 0,562943383120423 
488	 0,562956860850899 
489	 0,563660291930011 
490	 0,564407343009532 
491	 0,564702968627923 
492	 0,563517740049662 
493	 0,56321633823596 
494	 0,564171739774639 
495	 0,563432521169698 
496	 0,562196373712002 
497	 0,56203965256498 
498	 0,562906113099805 
499	 0,564120017945094 
500	 0,563695378801346 
501	 0,563163991147066 
502	 0,563493259623376 
503	 0,564956069825503 
504	 0,566554684355158 
505	 0,56653750194886 
506	 0,566566598131794 
507	 0,567156946508791 
508	 0,568265942217836 
509	 0,569159188091228 
510	 0,569198731611255 
511	 0,569060319308599 
512	 0,569013519340311 
513	 0,569233674166112 
514	 0,570135987395145 
515	 0,571549413043443 
516	 0,571252259730531 
517	 0,570432318186285 
518	 0,571010859802734 
519	 0,571703219924542 
520	 0,572110519522901 
521	 0,571993857959992 
522	 0,572101487992698 
523	 0,572859556975971 
524	 0,572651280442977 
525	 0,571925728040736 
526	 0,572283701330826 
527	 0,572492261983573 
528	 0,572246063632485 
529	 0,572229673781073 
530	 0,572323528156789 
531	 0,572335500180571 
532	 0,572109700410842 
533	 0,571770191299361 
534	 0,571713356672602 
535	 0,57219520214006 
536	 0,573132813146438 
537	 0,572588646611401 
538	 0,571244834096893 
539	 0,57074531151166 
540	 0,570944613081898 
541	 0,571643645522497 
542	 0,571878842492833 
543	 0,572223476170515 
544	 0,573205285266147 
545	 0,572858349804885 
546	 0,571730760888498 
547	 0,572367181011918 
548	 0,573523610303907 
549	 0,574423513640336 
550	 0,574086137768111 
551	 0,573377892259182 
552	 0,573832978494036 
553	 0,573884547140095 
554	 0,573393614255953 
555	 0,573552476975454 
556	 0,57407423294252 
557	 0,57463048765157 
558	 0,574547046780511 
559	 0,573956461077673 
560	 0,5734659362554 
561	 0,573158536021543 
562	 0,57316794914889 
563	 0,57389213760961 
564	 0,574307104654257 
565	 0,573053314482736 
566	 0,573000015030594 
567	 0,574253842120223 
568	 0,574313410233334 
569	 0,574637223871713 
570	 0,576060623859233 
571	 0,576259478811288 
572	 0,575801219014312 
573	 0,576623647053038 
574	 0,577990607112664 
575	 0,579465354373237 
576	 0,579982968373248 
577	 0,580444643360314 
578	 0,581934099392671 
579	 0,583595772890162 
580	 0,584896343954787 
581	 0,58483232056038 
582	 0,584859203257625 
583	 0,585769865992726 
584	 0,586446224519093 
585	 0,587242423194673 
586	 0,589112435525718 
587	 0,590134972713848 
588	 0,59016320627965 
589	 0,591533688902202 
590	 0,59272812540204 
591	 0,59234330683454 
592	 0,592628736151327 
593	 0,593594511773616 
594	 0,593910314017874 
595	 0,594703268474816 
596	 0,596191484500175 
597	 0,596432009319399 
598	 0,595720003731339 
599	 0,594768505496224 
600	 0,594840400195655 
601	 0,595793122192924 
602	 0,59538023734818 
603	 0,594897338257931 
604	 0,595326230003854 
605	 0,595347347729613 
606	 0,594847316730994 
607	 0,593974280501362 
608	 0,59376599140988 
609	 0,594264383549071 
610	 0,592969135450962 
611	 0,591516295963738 
612	 0,592140280418582 
613	 0,592657856938015 
614	 0,592672185905763 
615	 0,592879983722098 
616	 0,592630201957456 
617	 0,591650613081294 
618	 0,591323924380697 
619	 0,591583101809675 
620	 0,591897513477313 
621	 0,592046872881008 
622	 0,592013501557306 
623	 0,592320504637926 
624	 0,592556306950461 
625	 0,592306199474699 
626	 0,592660897344388 
627	 0,593453483394662 
628	 0,593569257441552 
629	 0,593352685652417 
630	 0,593041944636002 
631	 0,59303897526593 
632	 0,593300404570159 
633	 0,593659823614008 
634	 0,59397940710568 
635	 0,594358176534476 
636	 0,595386876006479 
637	 0,596661524413903 
638	 0,597747819188154 
639	 0,597794724545632 
640	 0,59730330098978 
641	 0,597912162190957 
642	 0,598617294839405 
643	 0,599024975185252 
644	 0,59925116727211 
645	 0,5994018926297 
646	 0,599606102404964 
647	 0,600004439024844 
648	 0,60039972450216 
649	 0,600047050582274 
650	 0,599479652046237 
651	 0,598987720895525 
652	 0,597645989156587 
653	 0,596074300273972 
654	 0,595674362601963 
655	 0,59591699882962 
656	 0,596297350880237 
657	 0,595384894564602 
658	 0,593906940687702 
659	 0,592742061227956 
660	 0,592502546921437 
661	 0,592772437377129 
662	 0,591989688511044 
663	 0,5907845581952 
664	 0,589552323108848 
665	 0,588687220592823 
666	 0,588204044459579 
667	 0,588047383337657 
668	 0,587607887696347 
669	 0,586804131128648 
670	 0,586079651144861 
671	 0,585669881392754 
672	 0,585716597087313 
673	 0,585677344893062 
674	 0,585435074639471 
675	 0,584920436573421 
676	 0,584672965170204 
677	 0,584852096136942 
678	 0,584989151246605 
679	 0,585147189065178 
680	 0,5854464715974 
681	 0,58587855474064 
682	 0,586418216932837 
683	 0,586941883373882 
684	 0,587726825013722 
685	 0,588903464513959 
686	 0,590059516914993 
687	 0,591297247500607 
688	 0,592880361453113 
689	 0,594703178827082 
690	 0,596877758956521 
691	 0,600000706824288 
692	 0,603185616218986 
693	 0,605735032596979 
694	 0,609921945673985 
695	 0,615162400852947 
696	 0,618911922770415 
697	 0,622375574544225 
698	 0,626151137122589 
699	 0,630853754610651 
700	 0,635748804677117 
701	 0,639800594855876 
702	 0,643787367488844 
703	 0,647786917866411 
704	 0,651429591585596 
705	 0,654919689746791 
706	 0,658341518022643 
707	 0,661281205551051 
708	 0,663870172890379 
709	 0,666427280935675 
710	 0,668952152201841 
711	 0,671390271828418 
712	 0,67341179501068 
713	 0,675357573200961 
714	 0,677506936808405 
715	 0,678965972931978 
716	 0,679830155356029 
717	 0,680684601809232 
718	 0,681993072696812 
719	 0,683803862206582 
720	 0,684905824973138 
721	 0,685689637138406 
722	 0,686808765175864 
723	 0,687544414866817 
724	 0,687885292238357 
725	 0,688310983133535 
726	 0,688922704304273 
727	 0,689716088164576 
728	 0,690031012869672 
729	 0,690176734617543 
730	 0,690882516736221 
731	 0,691423594128977 
732	 0,691636442080128 
733	 0,691859316625798 
734	 0,691993059554963 
735	 0,691953757050301 
736	 0,691832187843737 
737	 0,691869690160985 
738	 0,692693947252894 
739	 0,693102628393567 
740	 0,692731185261542 
741	 0,692477722573602 
742	 0,692338219774818 
743	 0,692225807211589 
744	 0,692643033415647 
745	 0,693274148543014 
746	 0,692843306300741 
747	 0,692282901997751 
748	 0,692151961391471 
749	 0,692565058088487 
750	 0,693084811949136 
751	 0,693025667184183 
752	 0,692899506882428 
753	 0,692807222589299 
754	 0,69258331160697 
755	 0,692312023654018 
756	 0,692097147901836 
757	 0,692253760420567 
758	 0,692622958952606 
759	 0,692810815396361 
760	 0,692856439832561 
761	 0,692751164009042 
762	 0,692461951441809 
763	 0,692249652368111 
764	 0,692333842923178 
765	 0,692197610765253 
766	 0,691966590327243 
767	 0,692290262966968 
768	 0,692340806579777 
769	 0,691881691695726 
770	 0,691626358050901 
771	 0,691522027698085 
772	 0,691429617210813 
773	 0,69116965740516 
774	 0,6909415998842 
775	 0,691565200303438 
776	 0,691853801399166 
777	 0,691267776252823 
778	 0,690767486079299 
779	 0,690542975365851 
780	 0,690695455726177 
781	 0,690664805339399 
782	 0,690392342249038 
783	 0,690275897393055 
784	 0,69028086259137 
785	 0,690352251617384 
786	 0,690201083290189 
787	 0,689998728400469 
788	 0,69013932486281 
789	 0,690084577104233 
790	 0,689796315157696 
791	 0,68988027460498 
792	 0,689775432753742 
793	 0,689116576664713 
794	 0,689099940968677 
795	 0,68951008760245 
796	 0,689477498007058 
797	 0,689247139205966 
798	 0,688957973197076 
799	 0,688980073547588 
800	 0,688992669289176 
801	 0,688690011354659 
802	 0,688333149388123 
803	 0,688122492826377 
804	 0,688436007879312 
805	 0,688754401782516 
806	 0,688854815377355 
807	 0,688809869874761 
808	 0,688603364723909 
809	 0,688230155461977 
810	 0,687882289865212 
811	 0,687684526609096 
812	 0,687816226201927 
813	 0,688074819732552 
814	 0,688257412488926 
815	 0,687802457934007 
816	 0,687337165815656 
817	 0,687642603309927 
818	 0,688203046424223 
819	 0,688611362881648 
820	 0,688030312802798 
821	 0,687562080210081 
822	 0,687688989346916 
823	 0,687706487221517 
824	 0,687675404881549 
825	 0,687755760189583 
826	 0,6875734620039 
827	 0,687280611745139 
828	 0,687667683718469 
829	 0,687895477020883 
830	 0,687576830466224 
831	 0,687307376676144 
832	 0,687176263504154 
833	 0,687209378619448 
834	 0,687104432615201 
835	 0,686908609673353 
836	 0,687050871559848 
837	 0,687229669165008 
838	 0,687242408313552 
839	 0,686962770378526 
840	 0,686529549540682 
841	 0,686153413918083 
842	 0,686289220082312 
843	 0,686711443957645 
844	 0,686250080426768 
845	 0,685886057045507 
846	 0,686092703386435 
847	 0,686075378420997 
848	 0,685991610401822 
849	 0,686178186864874 
850	 0,686635350277787 
851	 0,687030603943623 
852	 0,686277257728941 
853	 0,685712883850405 
854	 0,685971389017074 
855	 0,685859057838494 
856	 0,685723510681861 
857	 0,68620165257481 
858	 0,686047748403804 
859	 0,685302837081276 
860	 0,68504817708925 
861	 0,68519330397728 
862	 0,685631496487475 
863	 0,685894023149932 
864	 0,685907843986181 
865	 0,685674411164512 
866	 0,685721372389782 
867	 0,685990631159919 
868	 0,685930562400684 
869	 0,685535542919161 
870	 0,684932990292639 
871	 0,684921408111969 
872	 0,685120505327465 
873	 0,684990531960055 
874	 0,685066927550906 
875	 0,685277465039009 
876	 0,685100463113983 
877	 0,68495969385234 
878	 0,684953847390359 
879	 0,684536028746547 
880	 0,684184364150968 
881	 0,684419521173639 
882	 0,684475385262547 
883	 0,684457911795762 
884	 0,685204757596015 
885	 0,685228653063194 
886	 0,684237985632457 
887	 0,683723421342414 
888	 0,683706158739453 
889	 0,684074432591509 
890	 0,684326611601602 
891	 0,684319264511354 
892	 0,683994288810958 
893	 0,68370595977201 
894	 0,68358344275447 
895	 0,683470525667581 
896	 0,683693056124886 
897	 0,684396319701027 
898	 0,684568164730393 
899	 0,684127281345852 
900	 0,683205840696303 
901	 0,682994663767282 
902	 0,683538892416194 
903	 0,683479921064567 
904	 0,683397363753445 
905	 0,683654640137913 
906	 0,684173727899884 
907	 0,68445407298893 
908	 0,683830181620034 
909	 0,683567197980389 
910	 0,683724311392716 
911	 0,683528028150089 
912	 0,682657842757364 
913	 0,681275955479163 
914	 0,681291498126692 
915	 0,681769299336002 
916	 0,681547362980008 
917	 0,682402272565624 
918	 0,683798604968209 
919	 0,683605711294178 
920	 0,682927490056362 
921	 0,682257112343388 
922	 0,682015172283705 
923	 0,68197577729213 
924	 0,681918795186069 
925	 0,681820367879324 
926	 0,681832230185844 
927	 0,682256632151765 
928	 0,682431329207213 
929	 0,682175040524012 
930	 0,681584399081268 
931	 0,681193897701219 
932	 0,681296675298962 
933	 0,681421808324688 
934	 0,681709562893524 
935	 0,68235712805868 
936	 0,681486260173833 
937	 0,679950835597974 
938	 0,681494232910636 
939	 0,681965541015615 
940	 0,680413891773129 
941	 0,680741233920927 
942	 0,681208858846557 
943	 0,680289149740469 
944	 0,680856518617814 
945	 0,681638194194608 
946	 0,679400544213228 
947	 0,678493780810059 
948	 0,679354007120183 
949	 0,67867792949074 
950	 0,677899798621134 
951	 0,677832643711759 
952	 0,678153302727802 
953	 0,6782919003238 
954	 0,677628861394944 
955	 0,676747221639442 
956	 0,675958318584411 
957	 0,675528417511706 
958	 0,676315569582681 
959	 0,677896264994476 
960	 0,677006313992938 
961	 0,675829296902623 
962	 0,676064603777146 
963	 0,676482959384428 
964	 0,676577248081664 
965	 0,675844439705604 
966	 0,675546410471173 
967	 0,675726145396747 
968	 0,675546187096936 
969	 0,674763915970688 
970	 0,673679500507639 
971	 0,67437959254189 
972	 0,675589356438292 
973	 0,676023072301161 
974	 0,676589884243022 
975	 0,676463044919592 
976	 0,673938472614177 
977	 0,673631356436503 
978	 0,675559889754774 
979	 0,674896632182608 
980	 0,674750926684905 
981	 0,676128906202647 
982	 0,67562035187717 
983	 0,674261846656013 
984	 0,67341170368189 
985	 0,673000944587072 
986	 0,673378974636406 
987	 0,675253803394253 
988	 0,674715869933456 
989	 0,672125759107992 
990	 0,673009426170598 
991	 0,675148404233839 
992	 0,676999423196335 
993	 0,677028241785985 
994	 0,677136819826633 
995	 0,67907568688297 
996	 0,677116300512522 
997	 0,673939137301432 
998	 0,676647244920345 
999	 0,677496147679089 
1000	 0,675758473567945 
1001	 0,677261875730692 
1002	 0,678021319668223 
1003	 0,676392104004469 
1004	 0,675293234886807 
1005	 0,674503501326204 
1006	 0,673681090980375 
1007	 0,674129736917044 
1008	 0,674701340013733 
1009	 0,673033296992823 
1010	 0,672131096357724 
1011	 0,67312842727056 
1012	 0,677467752978857 
1013	 0,678047863939189 
1014	 0,673536556479836 
1015	 0,675315586465128 
1016	 0,677283820919579 
1017	 0,674471515372364 
1018	 0,67529114304653 
1019	 0,676813702156782 
1020	 0,673156304965961 
1021	 0,673635789226803 
1022	 0,67823491262356 
1023	 0,680998701141243 
1024	 0,679944734577199 
1025	 0,675838993848479 
1026	 0,675878952293101 
1027	 0,677718413344167 
1028	 0,679124061140116 
1029	 0,676985773922594 
1030	 0,673728282161071 
1031	 0,672721492204328 
1032	 0,675770856394345 
1033	 0,679537703493974 
1034	 0,676837430866976 
1035	 0,673691756243746 
1036	 0,673058476680053 
1037	 0,678712692444052 
1038	 0,684294288847075 
1039	 0,686109845420282 
1040	 0,682781813352161 
1041	 0,678233934588092 
1042	 0,676554827807307 
1043	 0,682571794547429 
1044	 0,688736212643142 
1045	 0,684109560397989 
1046	 0,677955703245148 
1047	 0,674563380657289 
1048	 0,678615544555276 
1049	 0,680392296549595 
1050	 0,678521035967182 
1051	 0,681582967757957 
1052	 0,680996595247924 
1053	 0,675048738296826 
1054	 0,679475133523474 
1055	 0,683180114717528 
1056	 0,677182562664085 
1057	 0,678738018010286 
1058	 0,682746127031973 
1059	 0,679382223920015 
1060	 0,682591906909225 
1061	 0,68923595780919 
1062	 0,687033573716772 
1063	 0,678369273096422 
1064	 0,667915019277916 
1065	 0,668439000718039 
1066	 0,671594227472685 
1067	 0,674341017190205 
1068	 0,68298149034378 
1069	 0,688298676596402 
1070	 0,684248948664368 
1071	 0,679046196013011 
1072	 0,681407466542141 
1073	 0,698262082128446 
1074	 0,699118383742779 
1075	 0,686721955295119 
