Wavelength	NEUF00431.asd
325	 7,67208194689111E-02 
326	-0,113198918987807 
327	-0,118519995736443 
328	 7,48095994397409E-02 
329	 0,114310836555479 
330	 0,102145273384102 
331	 7,46933763370863E-02 
332	-9,68371432226247E-03 
333	-5,18302449165756E-02 
334	 1,45680194401857E-02 
335	 6,94008474629157E-02 
336	 6,94496513874624E-02 
337	 1,03527328704224E-02 
338	-3,31025106054605E-02 
339	-4,02484318556798E-03 
340	 4,03558375284463E-02 
341	 9,37801935359201E-02 
342	 0,151260799373147 
343	 0,139127728757409 
344	 6,31410203566568E-02 
345	 4,94194473123612E-02 
346	 6,08438264026913E-02 
347	 4,51203738927232E-02 
348	 1,55682995333141E-02 
349	-1,64483476431255E-02 
350	-2,77025875564257E-02 
351	 2,78488997230561E-02 
352	 0,124806851494602 
353	 6,68512427661435E-02 
354	-3,24312067818379E-02 
355	-1,54710864289893E-02 
356	-8,02010209620463E-04 
357	 2,05534245156241E-03 
358	 4,00993664262968E-02 
359	 6,32845348020402E-02 
360	 5,45743640237812E-02 
361	 0,04736321855987 
362	 0,035152963989183 
363	-7,70810996423293E-04 
364	 1,32968368048948E-02 
365	 6,68963994155528E-02 
366	 7,30831860303176E-02 
367	 6,03115763354483E-02 
368	 0,043851779928444 
369	 1,38430913208795E-02 
370	-5,27217157748541E-03 
371	 2,16442807725555E-02 
372	 2,98658178276362E-02 
373	 1,06119634342565E-02 
374	 1,14046876407938E-02 
375	 1,78269257203528E-02 
376	 1,84106731239377E-02 
377	 2,28489239321697E-02 
378	 2,92394529116283E-02 
379	 2,91935874066322E-02 
380	 4,30188903937768E-02 
381	 6,69916979805088E-02 
382	 6,06485177065887E-02 
383	 4,46395071414132E-02 
384	 3,87830803497452E-02 
385	 3,24315352316235E-02 
386	 2,45058182157472E-02 
387	 1,23491508654292E-02 
388	 1,47407952808947E-02 
389	 3,25325599582193E-02 
390	 2,78710221932365E-02 
391	 1,56890006544281E-02 
392	 0,017291118838396 
393	 2,61876548366544E-02 
394	 3,54485433436931E-02 
395	 0,028751484443037 
396	 2,40766660678001E-02 
397	 3,03364801619777E-02 
398	 3,89311051331055E-02 
399	 4,08488772121104E-02 
400	 2,32749047216499E-02 
401	 1,97632882950249E-02 
402	 3,22002999289619E-02 
403	 3,41836636589173E-02 
404	 0,033349523279791 
405	 3,47996870259506E-02 
406	 3,15450793212847E-02 
407	 2,60925586713413E-02 
408	 2,44264735608478E-02 
409	 2,73612667635525E-02 
410	 3,23843566164286E-02 
411	 2,69863805215608E-02 
412	 2,02110182934358E-02 
413	 0,020799331904454 
414	 2,10398801585757E-02 
415	 2,17358554269388E-02 
416	 2,99053019844315E-02 
417	 3,15114716936229E-02 
418	 2,31054026627085E-02 
419	 2,20126615637902E-02 
420	 2,50673075272817E-02 
421	 2,62616178651586E-02 
422	 2,92230838297207E-02 
423	 3,18705777829682E-02 
424	 2,52872296443213E-02 
425	 1,95719984735125E-02 
426	 2,09412007052598E-02 
427	 2,52943563243671E-02 
428	 0,028516602918571 
429	 2,43309160334407E-02 
430	 2,27997004799309E-02 
431	 0,025510678860982 
432	 2,50321903812944E-02 
433	 2,39435856962073E-02 
434	 2,47682426954005E-02 
435	 0,026503814441052 
436	 2,83380968564364E-02 
437	 2,89227720109735E-02 
438	 2,85538733972146E-02 
439	 2,73193797319762E-02 
440	 2,49749229354963E-02 
441	 2,29036143158689E-02 
442	 2,28044537577818E-02 
443	 2,38154920191527E-02 
444	 2,54601067372981E-02 
445	 2,74860168978863E-02 
446	 2,71220996146545E-02 
447	 2,37496446745521E-02 
448	 2,74276140063023E-02 
449	 3,39335020783023E-02 
450	 3,30643347531986E-02 
451	 3,12953002901702E-02 
452	 3,05104366276364E-02 
453	 2,97378779091614E-02 
454	 2,96105304594221E-02 
455	 3,05731923024835E-02 
456	 2,95540320758811E-02 
457	 2,75318824348264E-02 
458	 2,86098585553843E-02 
459	 3,03389423763712E-02 
460	 3,13290002501584E-02 
461	 2,98857466432216E-02 
462	 2,79093480750573E-02 
463	 2,81239891917363E-02 
464	 2,84174475089063E-02 
465	 2,91269150761984E-02 
466	 0,033991170155715 
467	 3,54855064472048E-02 
468	 2,95439900361577E-02 
469	 2,68441517425028E-02 
470	 2,74633353301169E-02 
471	 2,79501713406949E-02 
472	 2,99883343531752E-02 
473	 3,30530265270764E-02 
474	 3,38701244707083E-02 
475	 3,12074335812894E-02 
476	 2,45630093297373E-02 
477	 2,54272321550704E-02 
478	 3,20014828682637E-02 
479	 3,29939742997658E-02 
480	 3,15121775346048E-02 
481	 2,95053685632782E-02 
482	 3,14756537286999E-02 
483	 3,32840545671437E-02 
484	 2,79786950423665E-02 
485	 2,78350364736808E-02 
486	 3,32767680741667E-02 
487	 3,29036362421751E-02 
488	 3,08016582557908E-02 
489	 0,030290578276623 
490	 3,11737082856978E-02 
491	 3,25667877805033E-02 
492	 3,24416048492087E-02 
493	 3,22247571714993E-02 
494	 3,23341297685305E-02 
495	 3,24081160457626E-02 
496	 3,20446816506725E-02 
497	 3,08607180892963E-02 
498	 0,032107116685398 
499	 3,50761318734221E-02 
500	 3,56666755405406E-02 
501	 3,47066649672095E-02 
502	 3,29612830532315E-02 
503	 3,25500468645979E-02 
504	 3,33643948980381E-02 
505	 3,46880312728635E-02 
506	 3,59666467617112E-02 
507	 0,036588003488501 
508	 3,50573782741929E-02 
509	 3,40147876796436E-02 
510	 0,035706784232775 
511	 3,62019075096384E-02 
512	 3,54484108236329E-02 
513	 3,51930495963674E-02 
514	 3,56631292910937E-02 
515	 3,67889283594968E-02 
516	 3,71804700027881E-02 
517	 3,70105629955539E-02 
518	 3,67155176881388E-02 
519	 3,68233149539367E-02 
520	 3,73477705683069E-02 
521	 3,76307563969735E-02 
522	 3,81926802797747E-02 
523	 3,92871663574076E-02 
524	 3,94071381467401E-02 
525	 3,88908388814295E-02 
526	 3,90047884116753E-02 
527	 3,91998304755861E-02 
528	 3,93838692369763E-02 
529	 4,00490026793244E-02 
530	 0,040318070420753 
531	 0,039205288712331 
532	 3,92771033925227E-02 
533	 4,04096657958085E-02 
534	 4,01446573386047E-02 
535	 4,03199705353214E-02 
536	 4,17547383969987E-02 
537	 0,041903824430137 
538	 0,041039928218284 
539	 0,040207235049211 
540	 0,040033465427646 
541	 0,040610619324899 
542	 4,10269290496328E-02 
543	 4,14525204156614E-02 
544	 4,20557040849501E-02 
545	 0,041726417936248 
546	 4,09769792962265E-02 
547	 4,18200386850123E-02 
548	 4,28250441639647E-02 
549	 4,32174053009361E-02 
550	 4,27470075233478E-02 
551	 4,23418877706541E-02 
552	 4,35040145982427E-02 
553	 0,044077022568233 
554	 4,36113835460988E-02 
555	 4,29113762871176E-02 
556	 0,042704090098998 
557	 4,34999350087435E-02 
558	 4,40122693131533E-02 
559	 4,40239652347523E-02 
560	 4,36346264765961E-02 
561	 4,32461829350029E-02 
562	 4,31104606324704E-02 
563	 4,35357579542787E-02 
564	 4,36610446989417E-02 
565	 0,042337838941999 
566	 4,20878951578471E-02 
567	 4,30681634272727E-02 
568	 4,32748806114934E-02 
569	 4,37950549815297E-02 
570	 4,51742462223422E-02 
571	 4,49755572656849E-02 
572	 0,044035645309526 
573	 4,49708698222825E-02 
574	 4,60314823527271E-02 
575	 4,65797978390367E-02 
576	 4,65134891467281E-02 
577	 4,66399995079176E-02 
578	 4,78415373276349E-02 
579	 4,85189674037173E-02 
580	 4,86329713483107E-02 
581	 4,92488325021686E-02 
582	 5,01231984559073E-02 
583	 0,051057275875502 
584	 5,16198679299454E-02 
585	 5,17669199143661E-02 
586	 5,14711887268886E-02 
587	 5,18280330959271E-02 
588	 5,29368649215446E-02 
589	 5,36132259415502E-02 
590	 5,37377075602356E-02 
591	 0,0533052366089 
592	 5,32611402751405E-02 
593	 5,36960226267688E-02 
594	 5,42807970739883E-02 
595	 5,47565016128128E-02 
596	 5,49954565331265E-02 
597	 0,055308470469024 
598	 5,55056420423293E-02 
599	 5,52660876410835E-02 
600	 5,47841226816697E-02 
601	 5,42573693189252E-02 
602	 5,41094673618603E-02 
603	 5,41965531351904E-02 
604	 5,43534242655042E-02 
605	 0,054129135632072 
606	 5,37597502186685E-02 
607	 5,40616513577908E-02 
608	 0,054215730526307 
609	 5,39332246300026E-02 
610	 5,35574857213637E-02 
611	 5,30001876334935E-02 
612	 5,21222742737625E-02 
613	 5,19255851090364E-02 
614	 5,24722024563287E-02 
615	 5,32167567215239E-02 
616	 5,32810751639475E-02 
617	 0,052231758572856 
618	 5,16813381876597E-02 
619	 5,16803741224407E-02 
620	 0,051808285568935 
621	 5,20584351829074E-02 
622	 5,22829695498755E-02 
623	 5,19736818324231E-02 
624	 5,16306383315687E-02 
625	 5,18017555626615E-02 
626	 5,25902871285983E-02 
627	 0,053501896946861 
628	 0,053065377981577 
629	 5,26536468787246E-02 
630	 5,29106054046674E-02 
631	 5,28284492700114E-02 
632	 5,28535261233023E-02 
633	 5,39043974014174E-02 
634	 5,45811764539489E-02 
635	 5,46450156102642E-02 
636	 0,054991645502785 
637	 5,54125604486232E-02 
638	 0,055731869979044 
639	 5,63281194291954E-02 
640	 5,69770819002088E-02 
641	 5,68960562332741E-02 
642	 5,71329979718994E-02 
643	 0,057949248365546 
644	 5,81342480409665E-02 
645	 5,80943086223761E-02 
646	 5,84993718445956E-02 
647	 0,058608435897291 
648	 5,83212938583956E-02 
649	 5,78705409929556E-02 
650	 0,05773423057044 
651	 5,81719133991858E-02 
652	 5,84964030433368E-02 
653	 5,82920048577312E-02 
654	 5,69248814812569E-02 
655	 5,57293025016636E-02 
656	 5,51502863048247E-02 
657	 5,47278742086633E-02 
658	 5,42377002928743E-02 
659	 5,34791333661439E-02 
660	 5,26074289857228E-02 
661	 5,18491875616866E-02 
662	 5,18125785039231E-02 
663	 5,13956072186461E-02 
664	 5,01954224366667E-02 
665	 4,96869816362278E-02 
666	 4,95573419987328E-02 
667	 4,90446803937195E-02 
668	 4,86359434201248E-02 
669	 4,83977713813103E-02 
670	 4,80552476721885E-02 
671	 0,047839478989294 
672	 0,047889744217856 
673	 0,047422351969387 
674	 4,68878820120072E-02 
675	 4,77769763831152E-02 
676	 0,048309619615917 
677	 0,047961086961278 
678	 4,78590744829244E-02 
679	 4,79413678153677E-02 
680	 4,80255087122421E-02 
681	 4,84135978660452E-02 
682	 4,90428433619559E-02 
683	 4,95135565458073E-02 
684	 4,99592102196257E-02 
685	 5,04846675636282E-02 
686	 5,12389965151945E-02 
687	 5,22078471886763E-02 
688	 5,33054383575614E-02 
689	 5,46594618061069E-02 
690	 5,62549556934706E-02 
691	 5,78089857129174E-02 
692	 5,96858784361705E-02 
693	 6,21865261076549E-02 
694	 6,46881541406319E-02 
695	 6,73790763505157E-02 
696	 7,11650014202992E-02 
697	 7,45630225553648E-02 
698	 7,71378300302717E-02 
699	 8,03868815932167E-02 
700	 8,40256047238904E-02 
701	 8,74892410407814E-02 
702	 9,07836549186753E-02 
703	 9,40430537987265E-02 
704	 0,097820381578681 
705	 0,101360443973455 
706	 0,104200250537347 
707	 0,10687434987072 
708	 0,109465786347355 
709	 0,111972403225356 
710	 0,114255468484842 
711	 0,116349753246895 
712	 0,118633425534883 
713	 0,120712972330536 
714	 0,122239945389435 
715	 0,123770668197654 
716	 0,125367961994912 
717	 0,126915672763289 
718	 0,128296012875047 
719	 0,129457203150939 
720	 0,130465713481934 
721	 0,131387874023731 
722	 0,132298772440307 
723	 0,133249662743561 
724	 0,13415954148569 
725	 0,134670265986487 
726	 0,13532612735169 
727	 0,136385159203317 
728	 0,136998542378703 
729	 0,137354430638676 
730	 0,138020727748923 
731	 0,138366182741891 
732	 0,138398182020502 
733	 0,138949152233193 
734	 0,139624971696379 
735	 0,140052362104689 
736	 0,14035003364195 
737	 0,140588030079055 
738	 0,140930711925926 
739	 0,141030339607015 
740	 0,140934231857338 
741	 0,141726154835769 
742	 0,14245064661735 
743	 0,141943766881078 
744	 0,141696656858249 
745	 0,141940294978076 
746	 0,142223247639907 
747	 0,142588711966732 
748	 0,143034615245616 
749	 0,14352291662639 
750	 0,143917532010243 
751	 0,144019106716057 
752	 0,144295780006687 
753	 0,144727601353216 
754	 0,144749388478994 
755	 0,144543833454577 
756	 0,144298496883608 
757	 0,144362495084859 
758	 0,144657711275168 
759	 0,144919816585121 
760	 0,145028234536676 
761	 0,144988158900722 
762	 0,1450651954953 
763	 0,145323462255604 
764	 0,145783166871581 
765	 0,146028227604732 
766	 0,146120482629933 
767	 0,146468302966421 
768	 0,146760282899568 
769	 0,146847811563601 
770	 0,146620953938387 
771	 0,146429300594832 
772	 0,146679208380114 
773	 0,146876008492197 
774	 0,147007207900728 
775	 0,147433507557968 
776	 0,147754570149559 
777	 0,147767900521067 
778	 0,147642857607896 
779	 0,147604780225204 
780	 0,14794921225672 
781	 0,147971712817318 
782	 0,147683208495645 
783	 0,147825649189718 
784	 0,148105862213257 
785	 0,148297474676588 
786	 0,148215981404067 
787	 0,148105910112042 
788	 0,148458563722674 
789	 0,148693548192465 
790	 0,148718342168236 
791	 0,148933395918357 
792	 0,149194614548473 
793	 0,149358236645322 
794	 0,149230123986642 
795	 0,149059845205062 
796	 0,149488027332315 
797	 0,149560432106611 
798	 0,149157828106662 
799	 0,149327267696567 
800	 0,14975299932996 
801	 0,15006456699709 
802	 0,150016666217067 
803	 0,149768090404387 
804	 0,149825577448408 
805	 0,150074125791349 
806	 0,150438270285893 
807	 0,150681059389175 
808	 0,150869315731096 
809	 0,151082997412404 
810	 0,150943686846651 
811	 0,150716696826127 
812	 0,151412903250431 
813	 0,151698919563003 
814	 0,151207928361949 
815	 0,15145395626919 
816	 0,15189580412592 
817	 0,151757905414469 
818	 0,151838904769467 
819	 0,152145092749688 
820	 0,152209787269828 
821	 0,151984009360822 
822	 0,151580108902481 
823	 0,151865522950328 
824	 0,152455645929586 
825	 0,15274028935934 
826	 0,152512899679188 
827	 0,152092623445281 
828	 0,152688061509699 
829	 0,153245138664088 
830	 0,153189983625388 
831	 0,152673722145992 
832	 0,152260760626195 
833	 0,152675118997792 
834	 0,152763880011338 
835	 0,1524108999513 
836	 0,152171784937124 
837	 0,152341887869951 
838	 0,152987489371723 
839	 0,153323986605787 
840	 0,153261632209629 
841	 0,152825784597508 
842	 0,153022478718407 
843	 0,153699210518153 
844	 0,153389992266289 
845	 0,153186526843153 
846	 0,153553564820414 
847	 0,153244878374465 
848	 0,152753085300396 
849	 0,152946561365599 
850	 0,153041776049536 
851	 0,153062571295605 
852	 0,153840867311578 
853	 0,154116342243799 
854	 0,153399438280374 
855	 0,153449895378245 
856	 0,153816321698661 
857	 0,153618461704823 
858	 0,153357861366718 
859	 0,153212675728932 
860	 0,153356510809962 
861	 0,153569582316925 
862	 0,153701795320357 
863	 0,153568512557291 
864	 0,153614648437149 
865	 0,15441004160845 
866	 0,154560213985388 
867	 0,153987341783731 
868	 0,153431265023983 
869	 0,153484511839238 
870	 0,154212422174902 
871	 0,153875649734741 
872	 0,153443310218264 
873	 0,154212602573603 
874	 0,154070677937392 
875	 0,153229745157729 
876	 0,153699583630668 
877	 0,153892428549972 
878	 0,153418496226886 
879	 0,154092793358974 
880	 0,154774985282011 
881	 0,154179854169714 
882	 0,154075480292439 
883	 0,154533011308277 
884	 0,154826655837944 
885	 0,154767434309968 
886	 0,154459471073652 
887	 0,155069798611943 
888	 0,155407387135389 
889	 0,154391389883623 
890	 0,153487130737224 
891	 0,153243984581813 
892	 0,15422138021131 
893	 0,155183537464592 
894	 0,155642507960214 
895	 0,155718174438784 
896	 0,155442183496454 
897	 0,154979403912949 
898	 0,155619455845264 
899	 0,156389625819007 
900	 0,155182956161542 
901	 0,154720902679115 
902	 0,155498454385276 
903	 0,15629489744941 
904	 0,156519291463304 
905	 0,155956052960941 
906	 0,156080441677954 
907	 0,156441009260319 
908	 0,15613850565166 
909	 0,155655116080437 
910	 0,155377256994355 
911	 0,156267724226702 
912	 0,156374218777246 
913	 0,155097131662535 
914	 0,154895262286807 
915	 0,155297376899321 
916	 0,155500975438948 
917	 0,154897471598318 
918	 0,154242909587149 
919	 0,155825772766484 
920	 0,157403803290472 
921	 0,158011276578174 
922	 0,157272628972941 
923	 0,156488509124031 
924	 0,156678368201615 
925	 0,156292561523991 
926	 0,155707047165724 
927	 0,156039276249906 
928	 0,155731701643554 
929	 0,154948721321831 
930	 0,155984995745934 
931	 0,156998053851755 
932	 0,156849524965127 
933	 0,155752313267546 
934	 0,155077168926798 
935	 0,156447846727386 
936	 0,157167182446941 
937	 0,15685760416579 
938	 0,15619013866419 
939	 0,156300994339392 
940	 0,157220277337443 
941	 0,156450554566514 
942	 0,155304368802363 
943	 0,155093038827423 
944	 0,155558356779785 
945	 0,156029488243529 
946	 0,155305921384979 
947	 0,155263681244431 
948	 0,156117642019923 
949	 0,156777555066567 
950	 0,156264111347982 
951	 0,15430280742267 
952	 0,152909027356833 
953	 0,152793434759617 
954	 0,154342401723422 
955	 0,154020685278604 
956	 0,152369980360211 
957	 0,152873359360026 
958	 0,153386715557444 
959	 0,153363173583509 
960	 0,153576304807804 
961	 0,154404824175723 
962	 0,155665118359941 
963	 0,153279066008369 
964	 0,150657268084301 
965	 0,1537294242605 
966	 0,155413585289113 
967	 0,154682287054292 
968	 0,154014609843305 
969	 0,154002473218323 
970	 0,154819590605945 
971	 0,155408082781273 
972	 0,155372236298277 
973	 0,154521094299782 
974	 0,153916603616308 
975	 0,153979915648968 
976	 0,155036800831768 
977	 0,156429259363303 
978	 0,157518410459031 
979	 0,157006891464414 
980	 0,156247395474517 
981	 0,155943974163424 
982	 0,155675117711498 
983	 0,155616492703261 
984	 0,155944378382314 
985	 0,156526972725776 
986	 0,156940625610953 
987	 0,156514660565385 
988	 0,155328912369418 
989	 0,153890078715773 
990	 0,153472130687513 
991	 0,154854361026317 
992	 0,15768862945452 
993	 0,157565717827823 
994	 0,156917504880328 
995	 0,158377718637783 
996	 0,156926863198984 
997	 0,154832562931774 
998	 0,158166463491624 
999	 0,158814830038537 
1000	 0,15636072213941 
1001	 0,158191597628761 
1002	 0,159240159568511 
1003	 0,15770862836597 
1004	 0,158911951448308 
1005	 0,16051349280023 
1006	 0,160028889417705 
1007	 0,160091093101853 
1008	 0,159654404217807 
1009	 0,156106284637049 
1010	 0,15625741878837 
1011	 0,160112018180279 
1012	 0,161449690825722 
1013	 0,161846891589504 
1014	 0,161709822696092 
1015	 0,160332136129895 
1016	 0,158318424356047 
1017	 0,156863348836201 
1018	 0,161970520100863 
1019	 0,166413937439585 
1020	 0,15880655798026 
1021	 0,157465258431529 
1022	 0,162910932002897 
1023	 0,163896170092166 
1024	 0,163300287673541 
1025	 0,162472917618748 
1026	 0,164307212533355 
1027	 0,164943564764613 
1028	 0,162391043209437 
1029	 0,16197693525606 
1030	 0,162470865336038 
1031	 0,161830873633035 
1032	 0,161523802722405 
1033	 0,162122483261695 
1034	 0,164308055103358 
1035	 0,163326212204962 
1036	 0,160351627860788 
1037	 0,165323986476399 
1038	 0,165113640978436 
1039	 0,155750681230682 
1040	 0,150030070363501 
1041	 0,151718507006658 
1042	 0,161206876921325 
1043	 0,16249279877375 
1044	 0,161323484699898 
1045	 0,168313526261849 
1046	 0,171094157709788 
1047	 0,169072729662414 
1048	 0,167050611418724 
1049	 0,166463950384321 
1050	 0,167419023034738 
1051	 0,168198313957036 
1052	 0,163043266551437 
1053	 0,153406910937116 
1054	 0,163003000067373 
1055	 0,174387552567479 
1056	 0,171735590227182 
1057	 0,168293481713947 
1058	 0,163854583924353 
1059	 0,156145441184618 
1060	 0,163895659672718 
1061	 0,178092217419977 
1062	 0,171306042550969 
1063	 0,168428903399828 
1064	 0,172259431456181 
1065	 0,165202994244709 
1066	 0,159401212047573 
1067	 0,161543095433844 
1068	 0,175806253922828 
1069	 0,179870574841012 
1070	 0,160826052287294 
1071	 0,152756638428822 
1072	 0,153552731862179 
1073	 0,156027318560689 
1074	 0,17225832931953 
1075	 0,188931840000725 
