Wavelength	NEUF00050.asd
325	 0,264748483069094 
326	 0,112741625341565 
327	-5,83935331474331E-02 
328	-5,88972399734877E-02 
329	 7,17830208885231E-02 
330	 0,181779660002538 
331	 0,132130017309997 
332	 5,12218953189937E-02 
333	 1,70730931192125E-02 
334	-1,51699703266493E-02 
335	 2,09411123522816E-02 
336	 0,117403563101864 
337	 2,91884963762132E-02 
338	-7,81639794056043E-02 
339	-4,79801283588815E-02 
340	-1,46110613061168E-02 
341	 1,30659042824653E-02 
342	 4,98213332792943E-02 
343	 5,13823580580583E-02 
344	 0,027854542041804 
345	 0,070410130591975 
346	 0,126297943500841 
347	 0,138928319113092 
348	 6,37405354606521E-02 
349	-5,29545888606617E-02 
350	-4,66416061952339E-02 
351	-3,56927641032772E-03 
352	 3,04543906191201E-02 
353	 1,24942753653358E-02 
354	-2,79194706406136E-02 
355	-4,84298717616705E-02 
356	-4,59577770594585E-02 
357	-2,27807049601593E-02 
358	 1,82101045522609E-02 
359	 3,14049344884808E-02 
360	 4,65247600108026E-03 
361	 4,47804728468913E-03 
362	 0,012950372845268 
363	-6,1868988544692E-03 
364	 6,30004244917078E-04 
365	 2,90329029653589E-02 
366	 2,42369703787027E-02 
367	 1,68033243712013E-02 
368	 2,27182715471966E-02 
369	 5,3778328829591E-03 
370	-1,15814491364108E-02 
371	 1,62932894582448E-02 
372	 0,029351593993059 
373	 1,77838550415422E-02 
374	 1,90682059878947E-02 
375	 1,91086063145521E-02 
376	 8,32149759016508E-03 
377	 1,25920649482577E-02 
378	 2,16658455342894E-02 
379	 2,73601266142475E-03 
380	 1,37726723773781E-03 
381	 2,52605858040355E-02 
382	 4,15515248559953E-02 
383	 4,06112464599457E-02 
384	 1,66104841087512E-02 
385	 2,34164863108708E-02 
386	 4,65779383211371E-02 
387	 1,68907822422689E-02 
388	 9,14098782768202E-03 
389	 4,15421906161294E-02 
390	 4,15710612842352E-02 
391	 1,85508198601975E-02 
392	-8,77007358598599E-03 
393	-1,99704287528168E-03 
394	 2,68630656414604E-02 
395	 1,65025442453991E-02 
396	 1,16155053528926E-02 
397	 3,09480382694347E-02 
398	 0,035126366472066 
399	 2,70818188708102E-02 
400	 1,58656201485148E-02 
401	 1,50244769474378E-02 
402	 2,44623687046001E-02 
403	 2,89820314743438E-02 
404	 3,34559162976371E-02 
405	 3,93175116255466E-02 
406	 2,42178885287927E-02 
407	 3,01706033683154E-03 
408	 1,08653335323398E-02 
409	 1,76798007396704E-02 
410	 1,57458562199398E-02 
411	 1,33134244957282E-02 
412	 1,02612469219042E-02 
413	 6,56528794848632E-03 
414	 1,13857407647348E-02 
415	 1,99496870532576E-02 
416	 1,64691920503005E-02 
417	 1,43631783858483E-02 
418	 1,76602699059419E-02 
419	 1,49225406507813E-02 
420	 0,011302482119659 
421	 1,42344614874546E-02 
422	 1,31552457045563E-02 
423	 8,30390426337304E-03 
424	 8,08169586408901E-03 
425	 9,43628377336662E-03 
426	 1,03796568781033E-02 
427	 1,08358106251911E-02 
428	 1,13032907316376E-02 
429	 1,28452803465627E-02 
430	 1,41060551800839E-02 
431	 1,42814454000858E-02 
432	 1,17768125999073E-02 
433	 1,00309085652803E-02 
434	 1,19011245815666E-02 
435	 1,24428622780699E-02 
436	 1,17349392271287E-02 
437	 1,22231274964764E-02 
438	 0,013768379268437 
439	 1,54578784052583E-02 
440	 1,21163400248212E-02 
441	 8,00359490216278E-03 
442	 8,99492519278109E-03 
443	 1,00371023753118E-02 
444	 1,05010016327445E-02 
445	 1,28530141876525E-02 
446	 1,36774411372747E-02 
447	 1,15903324193364E-02 
448	 0,013849247996881 
449	 1,77182217432932E-02 
450	 1,62358258930507E-02 
451	 1,59674758838278E-02 
452	 1,74735935891158E-02 
453	 1,35464512249329E-02 
454	 1,04645037328328E-02 
455	 1,40167441429326E-02 
456	 1,50902676965537E-02 
457	 1,36561674271696E-02 
458	 0,01445771064277 
459	 0,015299850135184 
460	 1,51598991577002E-02 
461	 1,32765332304983E-02 
462	 1,13560988984859E-02 
463	 1,16948974575023E-02 
464	 1,41219548783209E-02 
465	 1,70630014781199E-02 
466	 1,57829958705003E-02 
467	 1,28315422614259E-02 
468	 1,03135097939429E-02 
469	 1,08428475236795E-02 
470	 1,33565155032317E-02 
471	 1,51905511937515E-02 
472	 1,51835650954242E-02 
473	 1,33508077008445E-02 
474	 1,24787747958176E-02 
475	 1,13372809334342E-02 
476	 8,77975882988241E-03 
477	 1,05498830634224E-02 
478	 0,01504740868473 
479	 1,52091778235652E-02 
480	 1,31815521263235E-02 
481	 1,06735141390537E-02 
482	 0,012809658238433 
483	 1,50093993251052E-02 
484	 9,59513331283683E-03 
485	 9,84515587800231E-03 
486	 0,01606107655651 
487	 1,54276488259141E-02 
488	 1,30670174069946E-02 
489	 1,29212668883236E-02 
490	 1,24214725633847E-02 
491	 1,15925879830488E-02 
492	 1,12235323811666E-02 
493	 1,09589246372417E-02 
494	 1,09983310306732E-02 
495	 1,32527466909244E-02 
496	 1,46126856626471E-02 
497	 1,16020719766704E-02 
498	 1,15360562164835E-02 
499	 1,41229102000726E-02 
500	 1,30911109260002E-02 
501	 1,18227986683459E-02 
502	 1,21691047301478E-02 
503	 1,29463409344705E-02 
504	 1,33232940296681E-02 
505	 1,20557991057304E-02 
506	 1,14681058518899E-02 
507	 1,21412011479827E-02 
508	 1,32175372115801E-02 
509	 1,40106499929623E-02 
510	 1,39690676133647E-02 
511	 1,40731060618003E-02 
512	 1,40872021175417E-02 
513	 1,27422849002369E-02 
514	 1,19324590098191E-02 
515	 0,012369796939651 
516	 1,28255347830526E-02 
517	 0,012786901507815 
518	 0,011717680426443 
519	 1,14410943074854E-02 
520	 1,21864884650099E-02 
521	 1,28037234652274E-02 
522	 1,35411607997342E-02 
523	 1,44789483622921E-02 
524	 0,014414414373419 
525	 1,39109801994938E-02 
526	 1,46949152839715E-02 
527	 1,51661161915443E-02 
528	 1,49480572700811E-02 
529	 1,51989184436497E-02 
530	 1,53199611620925E-02 
531	 1,45606315958429E-02 
532	 1,44038729959232E-02 
533	 1,49493352528562E-02 
534	 1,53748070458189E-02 
535	 1,58102120172183E-02 
536	 1,61914200701507E-02 
537	 1,55564770326768E-02 
538	 1,43962941677717E-02 
539	 1,37541920859811E-02 
540	 1,36582415453026E-02 
541	 1,39151203739806E-02 
542	 1,33336371500161E-02 
543	 1,31034308705562E-02 
544	 0,014315484776978 
545	 1,39566269706932E-02 
546	 1,25985390892323E-02 
547	 1,36195624523769E-02 
548	 1,45828936639221E-02 
549	 1,44099100867018E-02 
550	 1,42847718605588E-02 
551	 1,44609647205949E-02 
552	 1,51369278024337E-02 
553	 1,56724896080464E-02 
554	 1,57447045726549E-02 
555	 1,49476754470789E-02 
556	 0,014221312600511 
557	 1,43385320442272E-02 
558	 1,46500466236327E-02 
559	 1,48979772000397E-02 
560	 1,47673295910136E-02 
561	 1,45743681020451E-02 
562	 0,014513369250917 
563	 1,49339164064929E-02 
564	 0,015228443601269 
565	 0,014572102177593 
566	 1,43766900611604E-02 
567	 1,47998174940966E-02 
568	 1,49889736822587E-02 
569	 1,52126862881188E-02 
570	 1,56418871752272E-02 
571	 1,60959372079645E-02 
572	 1,64694048659905E-02 
573	 1,66121774606838E-02 
574	 1,66621880581613E-02 
575	 1,67326063407304E-02 
576	 1,71259428389198E-02 
577	 1,74475302440319E-02 
578	 1,72434704565013E-02 
579	 0,016956223674948 
580	 1,68487137421785E-02 
581	 1,73751379568566E-02 
582	 1,78592910429477E-02 
583	 0,017936105900821 
584	 1,81596325007178E-02 
585	 1,82678995047218E-02 
586	 1,76632509125704E-02 
587	 1,71463880581818E-02 
588	 1,70536751080086E-02 
589	 1,76150398420187E-02 
590	 0,0180404227972 
591	 1,76369917455765E-02 
592	 1,76347934636421E-02 
593	 1,79361044244956E-02 
594	 1,74835395602754E-02 
595	 1,74969774949344E-02 
596	 1,83754391040367E-02 
597	 1,87626017644833E-02 
598	 0,018627438103193 
599	 1,81401859539612E-02 
600	 1,81309954055249E-02 
601	 1,84891140822935E-02 
602	 1,76833747162678E-02 
603	 1,69423412898657E-02 
604	 1,72065850174441E-02 
605	 1,73321249849707E-02 
606	 1,72739574173973E-02 
607	 1,74492137267833E-02 
608	 1,74662284436318E-02 
609	 1,72658230303657E-02 
610	 1,74482707273511E-02 
611	 1,75386863419997E-02 
612	 1,69054815271437E-02 
613	 1,64584657827377E-02 
614	 1,64079959665658E-02 
615	 1,66517001754389E-02 
616	 1,67766858621687E-02 
617	 0,01652042460744 
618	 1,61523701377449E-02 
619	 1,58635338508027E-02 
620	 1,59200956229136E-02 
621	 1,61776009586121E-02 
622	 0,016412295898535 
623	 1,57348626646931E-02 
624	 1,54319893248225E-02 
625	 1,67809634309104E-02 
626	 1,71955480020217E-02 
627	 1,66620300806449E-02 
628	 1,68573882975477E-02 
629	 1,71067022232818E-02 
630	 1,71053670118756E-02 
631	 1,70764163327818E-02 
632	 1,71466946271241E-02 
633	 1,74772722311003E-02 
634	 1,77987690465415E-02 
635	 1,81281038007305E-02 
636	 1,89527874242199E-02 
637	 1,95718451923495E-02 
638	 1,94583351129235E-02 
639	 1,99659034717779E-02 
640	 2,08692543553049E-02 
641	 2,09528646473645E-02 
642	 2,10271970273992E-02 
643	 2,14003631966282E-02 
644	 2,19387886009536E-02 
645	 0,022298943741302 
646	 2,20613759300284E-02 
647	 0,021914426539061 
648	 2,20257074672038E-02 
649	 2,22319887093091E-02 
650	 2,26099879881527E-02 
651	 0,023174522778596 
652	 2,36988563253644E-02 
653	 2,39252292057931E-02 
654	 0,023440786059566 
655	 2,27616364261685E-02 
656	 2,21779848784435E-02 
657	 2,19865714426318E-02 
658	 2,20015517406642E-02 
659	 2,20011890192116E-02 
660	 2,19151929600428E-02 
661	 2,18387035950815E-02 
662	 2,21904995588955E-02 
663	 2,22427457635317E-02 
664	 2,17002312572446E-02 
665	 2,14213505607247E-02 
666	 2,10814337882556E-02 
667	 1,99915013799706E-02 
668	 1,93193263947665E-02 
669	 1,92469560764773E-02 
670	 1,89919383677007E-02 
671	 1,88280847343733E-02 
672	 1,89572293275069E-02 
673	 1,89187958413269E-02 
674	 0,01881230546023 
675	 0,019084795239358 
676	 1,93695738043129E-02 
677	 1,95093635942814E-02 
678	 1,94934956590175E-02 
679	 1,93541853597682E-02 
680	 1,91362906972875E-02 
681	 0,018907751499518 
682	 0,018815232599703 
683	 1,92000998961918E-02 
684	 1,97576203580478E-02 
685	 2,02301173524685E-02 
686	 2,01167707954953E-02 
687	 0,020002819394387 
688	 2,10484966785684E-02 
689	 2,20003399600355E-02 
690	 2,25184807013598E-02 
691	 2,28606087690064E-02 
692	 2,36012490942826E-02 
693	 2,52246235928885E-02 
694	 2,71707988296591E-02 
695	 2,94486156223632E-02 
696	 3,24296182441268E-02 
697	 3,53528852679432E-02 
698	 3,80358828679808E-02 
699	 4,14862934433993E-02 
700	 4,54242759316524E-02 
701	 4,93456480209248E-02 
702	 5,37375323758899E-02 
703	 5,84941185013411E-02 
704	 6,29189086370809E-02 
705	 6,74523139255186E-02 
706	 7,22725938707494E-02 
707	 7,64698124067832E-02 
708	 8,02940752486666E-02 
709	 8,44181625469468E-02 
710	 0,088631454853159 
711	 9,27924637102374E-02 
712	 9,65461613119007E-02 
713	 0,100063613183245 
714	 0,103522807641802 
715	 0,106858256187252 
716	 0,110071477272657 
717	 0,11324731856684 
718	 0,116094073840533 
719	 0,118523550738507 
720	 0,120821600366878 
721	 0,123019261579784 
722	 0,125124787989903 
723	 0,126914968961864 
724	 0,128469523290034 
725	 0,13021279572454 
726	 0,131938681200378 
727	 0,133480962603229 
728	 0,134668442182195 
729	 0,135601213297176 
730	 0,13646536015789 
731	 0,137571433366547 
732	 0,138874492093206 
733	 0,139699684385687 
734	 0,14036888064776 
735	 0,141166543753353 
736	 0,14175107578131 
737	 0,142136417356301 
738	 0,142499666073881 
739	 0,142737518429699 
740	 0,142938669038613 
741	 0,143733211906034 
742	 0,144622112469633 
743	 0,144978133856912 
744	 0,144941139919043 
745	 0,144689837241827 
746	 0,144598526500261 
747	 0,14480625887669 
748	 0,145335508548413 
749	 0,145718172078615 
750	 0,145903518260815 
751	 0,145901851365107 
752	 0,146305395188354 
753	 0,146914965523493 
754	 0,146331884171085 
755	 0,14561402169642 
756	 0,145557732530581 
757	 0,145760530485349 
758	 0,146071291078373 
759	 0,146357014506389 
760	 0,146217311362227 
761	 0,14574330327018 
762	 0,146048104680172 
763	 0,146491644764102 
764	 0,146433044663202 
765	 0,146338628474676 
766	 0,146264303781825 
767	 0,14612974497269 
768	 0,145970922544248 
769	 0,145841757276535 
770	 0,145939074203081 
771	 0,146070489378684 
772	 0,145996120191731 
773	 0,145905676571269 
774	 0,145893289513508 
775	 0,146168924341278 
776	 0,146121763183004 
777	 0,145560335206978 
778	 0,145525496337929 
779	 0,145900648246134 
780	 0,146345112321349 
781	 0,146309760570005 
782	 0,145783846493074 
783	 0,145319463372389 
784	 0,145142335866599 
785	 0,145339906668116 
786	 0,145208319574888 
787	 0,144977238368397 
788	 0,145260238429713 
789	 0,145309422377107 
790	 0,145063263686789 
791	 0,145316943335515 
792	 0,145356395997804 
793	 0,144693672333764 
794	 0,144605820166227 
795	 0,144975874322311 
796	 0,145132938573211 
797	 0,144924062847987 
798	 0,14439118873536 
799	 0,144077523450149 
800	 0,144123988442435 
801	 0,144571232226146 
802	 0,144551285536698 
803	 0,144107818025999 
804	 0,143705715564279 
805	 0,143889787204226 
806	 0,144667995923067 
807	 0,144741888438082 
808	 0,144525340449163 
809	 0,144558330891124 
810	 0,144521349135717 
811	 0,144524296048345 
812	 0,145057748973267 
813	 0,145384976101371 
814	 0,145248158658945 
815	 0,145188217471261 
816	 0,145304256774228 
817	 0,145643822372391 
818	 0,145870354930919 
819	 0,145973061537578 
820	 0,146216278996876 
821	 0,14628075480887 
822	 0,146144812862841 
823	 0,146696341394945 
824	 0,147329549572574 
825	 0,147173741500845 
826	 0,146747064987594 
827	 0,146539127784987 
828	 0,147750768835674 
829	 0,148410357585971 
830	 0,147680758047601 
831	 0,147561562157831 
832	 0,147873344511999 
833	 0,148066397051752 
834	 0,148126694067192 
835	 0,148086715938233 
836	 0,14812254635898 
837	 0,14822239445232 
838	 0,148366074218867 
839	 0,148451062778243 
840	 0,14846102821078 
841	 0,14839482983489 
842	 0,148386622643444 
843	 0,148460699515796 
844	 0,148545454024237 
845	 0,148741984565371 
846	 0,148987717706498 
847	 0,148461639730824 
848	 0,147833779341702 
849	 0,148150436633396 
850	 0,148365443918536 
851	 0,148314509368665 
852	 0,148391263909153 
853	 0,148425720063842 
854	 0,148308363088213 
855	 0,147819967423451 
856	 0,147718133890665 
857	 0,149019792106501 
858	 0,148969945622919 
859	 0,147673817122423 
860	 0,147773780010632 
861	 0,1480820101225 
862	 0,148040990103926 
863	 0,148128046469499 
864	 0,14822683703918 
865	 0,148142588020309 
866	 0,148129955444866 
867	 0,1482317338904 
868	 0,148362224687696 
869	 0,148589620497944 
870	 0,148911993324331 
871	 0,149175785705503 
872	 0,149275132101741 
873	 0,14912495758592 
874	 0,149347720778666 
875	 0,149795666178251 
876	 0,149591164017576 
877	 0,149529643377311 
878	 0,149923881732226 
879	 0,150519761467939 
880	 0,15087923032496 
881	 0,15061064610346 
882	 0,150766222819065 
883	 0,151347254205312 
884	 0,151812725297268 
885	 0,151970133960348 
886	 0,15183318749831 
887	 0,151989756190082 
888	 0,152334620547588 
889	 0,152674806980656 
890	 0,15219066588418 
891	 0,151578494368825 
892	 0,152694140234736 
893	 0,153599440413131 
894	 0,153785633583082 
895	 0,154133950064379 
896	 0,15424915842596 
897	 0,15387786466841 
898	 0,153830322379933 
899	 0,153866350605813 
900	 0,15329517300573 
901	 0,153286495640406 
902	 0,153947127439133 
903	 0,154343425543534 
904	 0,154690478849655 
905	 0,155007077800824 
906	 0,154418431868074 
907	 0,153785973994796 
908	 0,15443712382422 
909	 0,154894308905386 
910	 0,154808045455869 
911	 0,154320211673869 
912	 0,153722907442102 
913	 0,153361127190046 
914	 0,154158892949081 
915	 0,155056891577764 
916	 0,154833775198839 
917	 0,154434381661275 
918	 0,154235418935143 
919	 0,154700227845934 
920	 0,155150510918132 
921	 0,155203745077186 
922	 0,154320489011577 
923	 0,153729504076186 
924	 0,154361238847363 
925	 0,15465456302995 
926	 0,154357386883969 
927	 0,153463316796255 
928	 0,153312252167003 
929	 0,153937711840335 
930	 0,15377382489803 
931	 0,153969423529523 
932	 0,154848334856528 
933	 0,153719123220919 
934	 0,152468962048493 
935	 0,153765755650827 
936	 0,15354272544138 
937	 0,152177437029042 
938	 0,153428403132525 
939	 0,154151190619844 
940	 0,153468032165038 
941	 0,153400698516517 
942	 0,153464355349408 
943	 0,153146965678157 
944	 0,152826386394949 
945	 0,152080223980281 
946	 0,149917997919174 
947	 0,150343851762008 
948	 0,152844176014503 
949	 0,150936521223172 
950	 0,149782072934094 
951	 0,151683444283655 
952	 0,150821340500637 
953	 0,149219887179789 
954	 0,149900438761191 
955	 0,149503943114984 
956	 0,147886924414671 
957	 0,146258905803594 
958	 0,146176332302085 
959	 0,147503188522058 
960	 0,146453960383739 
961	 0,146054716240675 
962	 0,148175995573312 
963	 0,147474877600294 
964	 0,145605611680693 
965	 0,146201031236366 
966	 0,147376503917703 
967	 0,148058911964583 
968	 0,146280578479642 
969	 0,14500234253641 
970	 0,145375409606838 
971	 0,14573924103483 
972	 0,146282967544658 
973	 0,1471289420166 
974	 0,146816847485512 
975	 0,146239654815413 
976	 0,147439633897201 
977	 0,147547075184124 
978	 0,146433470928475 
979	 0,146629416728645 
980	 0,146069962219823 
981	 0,144381443188698 
982	 0,145501852745734 
983	 0,147370060524972 
984	 0,147658105322209 
985	 0,147857236837581 
986	 0,148437926900495 
987	 0,149961612839579 
988	 0,149226805243388 
989	 0,146285741104813 
990	 0,144436936441848 
991	 0,145184134918107 
992	 0,148624902757034 
993	 0,150461843611999 
994	 0,149796753510812 
995	 0,146650959016196 
996	 0,147441001331573 
997	 0,150630771610989 
998	 0,150891642335943 
999	 0,15046388857582 
1000	 0,150136250086242 
1001	 0,150850433838384 
1002	 0,150317481015939 
1003	 0,148275718711222 
1004	 0,15032708062059 
1005	 0,152819458563873 
1006	 0,152014081467384 
1007	 0,151349106205612 
1008	 0,150960866198896 
1009	 0,150043949304988 
1010	 0,150209874017771 
1011	 0,151262041027273 
1012	 0,150808651510633 
1013	 0,152246043332793 
1014	 0,155771373175862 
1015	 0,15452652383965 
1016	 0,152677303445168 
1017	 0,153846534867529 
1018	 0,154767420406322 
1019	 0,15472520487933 
1020	 0,153419965004056 
1021	 0,152361446500114 
1022	 0,152185349337531 
1023	 0,15363349094937 
1024	 0,153201733958084 
1025	 0,151664105181661 
1026	 0,158683540645588 
1027	 0,162638907514766 
1028	 0,157000719652088 
1029	 0,154266625806503 
1030	 0,154442132197803 
1031	 0,155539862839592 
1032	 0,152260276675756 
1033	 0,149073077096399 
1034	 0,157078458463899 
1035	 0,157879283532605 
1036	 0,151630897439343 
1037	 0,158194298941571 
1038	 0,16407347745455 
1039	 0,163380890918778 
1040	 0,160363006208409 
1041	 0,155444382907892 
1042	 0,150246109409925 
1043	 0,154742634917753 
1044	 0,163418128315329 
1045	 0,166560598480075 
1046	 0,163818234176981 
1047	 0,158497971227928 
1048	 0,158220186634956 
1049	 0,161652045030816 
1050	 0,166090715340009 
1051	 0,163494116159311 
1052	 0,157400984795793 
1053	 0,151745657316976 
1054	 0,156397997048811 
1055	 0,158744563899166 
1056	 0,149480845001321 
1057	 0,153033418915619 
1058	 0,16041233901799 
1059	 0,155153010292704 
1060	 0,151982096464531 
1061	 0,154197204409368 
1062	 0,161937126593785 
1063	 0,159982583528307 
1064	 0,150740071393365 
1065	 0,16079814319938 
1066	 0,16969708784874 
1067	 0,169380456459015 
1068	 0,17172973813726 
1069	 0,174206303030126 
1070	 0,173593343978587 
1071	 0,162672156952737 
1072	 0,152836053166656 
1073	 0,157375147568766 
1074	 0,150856860575891 
1075	 0,145922298551801 
