Wavelength	NEUF00254.asd
325	 4,83297448946304E-02 
326	-0,207776240971262 
327	-0,197808394392735 
328	 6,59980240861398E-02 
329	 0,128922657227564 
330	 0,116248393020021 
331	 6,93701824207365E-02 
332	 7,68110695904698E-02 
333	 0,103864145019464 
334	 3,85268767030867E-02 
335	 9,83797524176823E-02 
336	 0,295740560397704 
337	 0,15914271179498 
338	-3,02097411001915E-02 
339	 3,95942812702151E-03 
340	 3,72560513068064E-02 
341	 0,060330091218543 
342	 0,113357786018738 
343	 0,141041442562857 
344	 0,143176379125137 
345	 0,125132448411421 
346	 0,113893351226312 
347	 0,128853866637683 
348	 5,82940868655154E-02 
349	-5,75265381114915E-02 
350	-0,035990575571787 
351	 1,69565624423412E-02 
352	 4,92429937742259E-02 
353	 1,61813564261626E-02 
354	-2,68577396301237E-02 
355	-7,20481365317782E-03 
356	 1,49828009977861E-02 
357	 2,58842217036106E-02 
358	 2,74782917781312E-02 
359	 2,48245136265996E-02 
360	 2,15244046626842E-02 
361	 2,53768477788013E-02 
362	 3,17239281589666E-02 
363	 0,033605918675838 
364	 4,70102609892121E-02 
365	 0,067565550661909 
366	 7,88788901387327E-02 
367	 7,24435711466377E-02 
368	 4,57492741362541E-02 
369	 4,84744853520019E-02 
370	 6,33111956083568E-02 
371	 4,87953224045284E-02 
372	 0,038273881663988 
373	 3,80947188708863E-02 
374	 3,37100362504078E-02 
375	 2,76324458580008E-02 
376	 2,29434911173718E-02 
377	 2,77257855684818E-02 
378	 3,85459173655217E-02 
379	 4,64541718986909E-02 
380	 5,33919736213628E-02 
381	 5,69034851720895E-02 
382	 4,83702406842924E-02 
383	 3,63455271445871E-02 
384	 2,88289262505708E-02 
385	 2,85332493988884E-02 
386	 3,17613709573509E-02 
387	 2,71648363559001E-02 
388	 2,29528730344776E-02 
389	 2,28427082741396E-02 
390	 0,026945008687991 
391	 3,04654521941592E-02 
392	 2,76717014200589E-02 
393	 3,48014534404194E-02 
394	 4,71694798944191E-02 
395	 4,17270640055851E-02 
396	 3,32273478704721E-02 
397	 3,05957304698538E-02 
398	 0,034351448097304 
399	 3,62023457587698E-02 
400	 2,35741628998846E-02 
401	 0,017736836333017 
402	 2,41944735368302E-02 
403	 4,35380227120541E-02 
404	 0,053074829552067 
405	 0,039083621996029 
406	 2,67855946515621E-02 
407	 2,25712573138647E-02 
408	 3,21832014219914E-02 
409	 3,42635896048503E-02 
410	 2,57708873495951E-02 
411	 2,59799728776648E-02 
412	 2,68957859358336E-02 
413	 2,08249233413568E-02 
414	 2,29543766297557E-02 
415	 2,93327471146716E-02 
416	 2,26766369069891E-02 
417	 2,05816267911006E-02 
418	 2,76640564651712E-02 
419	 2,47484295594597E-02 
420	 1,97015506671637E-02 
421	 2,41584074421858E-02 
422	 2,46509339194286E-02 
423	 2,09919593657838E-02 
424	 2,25876919402768E-02 
425	 2,50160714649462E-02 
426	 0,025505259243778 
427	 2,51568612802399E-02 
428	 2,46378667225037E-02 
429	 2,46767761304788E-02 
430	 2,67310917381309E-02 
431	 0,02971061827088 
432	 2,70180372308597E-02 
433	 2,46938809641943E-02 
434	 2,78555052814824E-02 
435	 2,73371020082927E-02 
436	 2,35421280046565E-02 
437	 2,09935765016471E-02 
438	 2,24111632612699E-02 
439	 2,71164311866985E-02 
440	 2,33266425769235E-02 
441	 1,74573964536882E-02 
442	 1,88582599186766E-02 
443	 2,15970844571403E-02 
444	 2,40205235952417E-02 
445	 2,56482579388786E-02 
446	 2,67044445230414E-02 
447	 2,73864588439668E-02 
448	 2,77397850148943E-02 
449	 2,87479536765342E-02 
450	 3,23463185464736E-02 
451	 3,45491380239538E-02 
452	 3,35099973603664E-02 
453	 2,71239961121592E-02 
454	 2,24475236350658E-02 
455	 2,58344132168019E-02 
456	 2,71864582248231E-02 
457	 0,026247298148324 
458	 2,78401869709614E-02 
459	 2,94301857131372E-02 
460	 2,97792763980784E-02 
461	 0,028106679864015 
462	 2,58308674650186E-02 
463	 2,48983289849248E-02 
464	 2,53918925025635E-02 
465	 2,71820418030704E-02 
466	 3,03703430762177E-02 
467	 3,02477234114964E-02 
468	 2,47020256268839E-02 
469	 2,44261442735934E-02 
470	 2,77079257512903E-02 
471	 2,78357669236859E-02 
472	 2,85864627897812E-02 
473	 3,01446599468254E-02 
474	 2,86871267798225E-02 
475	 2,56266938176437E-02 
476	 2,27152393482789E-02 
477	 2,34033667356599E-02 
478	 2,66613397812084E-02 
479	 2,80262233049466E-02 
480	 2,74097944541192E-02 
481	 2,53196046402298E-02 
482	 2,65597227142886E-02 
483	 2,80862045757307E-02 
484	 2,45464044365181E-02 
485	 2,50873304211539E-02 
486	 0,029611078662869 
487	 2,79869635097799E-02 
488	 2,62610015385431E-02 
489	 0,028756385829784 
490	 2,95537255422009E-02 
491	 2,86425413010115E-02 
492	 2,80947622096048E-02 
493	 2,78159300265915E-02 
494	 2,80071561014837E-02 
495	 2,95817357796026E-02 
496	 3,01341810550684E-02 
497	 0,027040799171572 
498	 2,72118807155971E-02 
499	 3,01746339184722E-02 
500	 2,94511709362882E-02 
501	 2,83595862890946E-02 
502	 2,86899996418849E-02 
503	 2,89605776210128E-02 
504	 2,92371305452583E-02 
505	 2,99288540260657E-02 
506	 3,08432936248953E-02 
507	 3,16252478972171E-02 
508	 3,12385209485356E-02 
509	 3,04156676357671E-02 
510	 0,029907110493244 
511	 3,03307787851411E-02 
512	 3,10631124901631E-02 
513	 3,00328750495233E-02 
514	 2,96398568920211E-02 
515	 3,07030843769286E-02 
516	 3,14567716260907E-02 
517	 3,12251908543482E-02 
518	 2,92905922516024E-02 
519	 2,90502005370879E-02 
520	 3,07676665520077E-02 
521	 3,19612308946419E-02 
522	 3,23261879339295E-02 
523	 3,17732645248137E-02 
524	 3,16794122738249E-02 
525	 3,20288732138878E-02 
526	 3,22897186424384E-02 
527	 3,21071724529542E-02 
528	 3,15865662877108E-02 
529	 3,22151554830623E-02 
530	 3,27049096535664E-02 
531	 3,15120781670077E-02 
532	 3,10504409995358E-02 
533	 3,15486164259315E-02 
534	 3,17930193210306E-02 
535	 3,24133490476278E-02 
536	 3,34958963762176E-02 
537	 3,27670018384164E-02 
538	 3,11161023741933E-02 
539	 3,05521717059006E-02 
540	 3,14403977956352E-02 
541	 3,32406527482345E-02 
542	 3,27366373684201E-02 
543	 3,19459540576021E-02 
544	 3,28970200135211E-02 
545	 0,032922672090981 
546	 3,22103675641365E-02 
547	 3,27879684353161E-02 
548	 0,033391959151393 
549	 3,34094588971575E-02 
550	 3,30161342914374E-02 
551	 3,27328758170594E-02 
552	 3,33201246889344E-02 
553	 3,40144434448454E-02 
554	 3,44745764453607E-02 
555	 0,034419138383836 
556	 3,40883660610048E-02 
557	 3,37214804733755E-02 
558	 3,35830041762516E-02 
559	 3,35733594526773E-02 
560	 3,32481547908643E-02 
561	 3,31306316314078E-02 
562	 3,33559781351118E-02 
563	 3,34245507438232E-02 
564	 3,32259642407993E-02 
565	 3,26718528210282E-02 
566	 3,32015993726606E-02 
567	 3,45055489588235E-02 
568	 3,41142911707111E-02 
569	 3,36455251476054E-02 
570	 3,42096804907115E-02 
571	 3,48756737129121E-02 
572	 3,54443668591786E-02 
573	 3,58143206652387E-02 
574	 3,60957375040407E-02 
575	 3,63510281655661E-02 
576	 3,66414558083841E-02 
577	 3,70386214427272E-02 
578	 3,76028664047184E-02 
579	 3,78031675184325E-02 
580	 3,77813591949972E-02 
581	 3,83583962737176E-02 
582	 3,90448010536097E-02 
583	 3,95706368614969E-02 
584	 4,02223801320701E-02 
585	 4,06621001518026E-02 
586	 4,02111439870622E-02 
587	 4,01664989733973E-02 
588	 4,07090904885394E-02 
589	 0,040617253133416 
590	 4,05434712748573E-02 
591	 0,041102635407519 
592	 4,13904028837823E-02 
593	 4,14376767648487E-02 
594	 4,17929644274766E-02 
595	 4,24473477079242E-02 
596	 4,31572714358485E-02 
597	 4,22614964388606E-02 
598	 4,11978188820779E-02 
599	 4,23788400308265E-02 
600	 4,26777288640262E-02 
601	 4,16375569412354E-02 
602	 4,10255883296296E-02 
603	 4,08947202986986E-02 
604	 4,11991198742067E-02 
605	 4,11150620143938E-02 
606	 4,07375182381405E-02 
607	 4,06180341014634E-02 
608	 0,040943945597302 
609	 0,041550134248683 
610	 4,10246986845075E-02 
611	 4,00553135880388E-02 
612	 3,96342899672245E-02 
613	 3,93190105960208E-02 
614	 3,91976781190793E-02 
615	 3,99159041145327E-02 
616	 4,03581047038423E-02 
617	 3,98564714896775E-02 
618	 0,039334640408513 
619	 3,91463927187823E-02 
620	 3,97646603390294E-02 
621	 3,98768580106159E-02 
622	 3,91955361349339E-02 
623	 3,85840499346762E-02 
624	 0,038662947534269 
625	 3,99317778301577E-02 
626	 4,04329089614834E-02 
627	 4,00373809127166E-02 
628	 3,96945307935998E-02 
629	 3,95778540205537E-02 
630	 3,97967715648331E-02 
631	 4,00724518772762E-02 
632	 4,04008808794697E-02 
633	 4,08489902512986E-02 
634	 4,12012993135702E-02 
635	 4,14255317387381E-02 
636	 4,16175402772263E-02 
637	 4,21425848752601E-02 
638	 4,32164482918691E-02 
639	 4,34881503379126E-02 
640	 4,31943611358559E-02 
641	 4,35749600653851E-02 
642	 4,40429187349517E-02 
643	 4,43488185967001E-02 
644	 4,43924244175733E-02 
645	 4,42709558338416E-02 
646	 4,41271400800265E-02 
647	 4,40356961402725E-02 
648	 4,41135282652914E-02 
649	 4,46838139296165E-02 
650	 4,51020862644093E-02 
651	 4,49315503383558E-02 
652	 4,44972825174047E-02 
653	 4,39723124486274E-02 
654	 4,35956403559487E-02 
655	 4,30921005698944E-02 
656	 4,24170607744953E-02 
657	 4,18097641544253E-02 
658	 4,11899886621395E-02 
659	 4,04653834260304E-02 
660	 3,98067141906923E-02 
661	 3,93244189962427E-02 
662	 3,92149629175721E-02 
663	 3,91688559725984E-02 
664	 3,89414857252353E-02 
665	 3,81286173321214E-02 
666	 3,71620466925515E-02 
667	 3,67740821256362E-02 
668	 3,63304856567512E-02 
669	 3,58329646554373E-02 
670	 3,59932583521371E-02 
671	 3,61513053810372E-02 
672	 0,035807218311429 
673	 3,57748553335315E-02 
674	 3,59437428789328E-02 
675	 3,56718960947372E-02 
676	 3,56460394464781E-02 
677	 3,59600939484403E-02 
678	 3,55984805976707E-02 
679	 3,52942905503412E-02 
680	 3,59879036606453E-02 
681	 3,64424955790218E-02 
682	 3,64762086578131E-02 
683	 0,036479059519955 
684	 3,66623809201573E-02 
685	 3,71593227940352E-02 
686	 3,77790152766723E-02 
687	 3,85759126560048E-02 
688	 3,97072759675765E-02 
689	 4,07900121537355E-02 
690	 4,18019227909305E-02 
691	 4,31548954217404E-02 
692	 4,48671487888261E-02 
693	 4,69228071374198E-02 
694	 4,90806850034406E-02 
695	 5,15309180581437E-02 
696	 5,48783029826704E-02 
697	 5,84690435133816E-02 
698	 6,19927434439635E-02 
699	 6,54474875456121E-02 
700	 6,90544084502405E-02 
701	 7,30739317482224E-02 
702	 7,73027488587983E-02 
703	 8,16639763540985E-02 
704	 8,61753091235599E-02 
705	 9,04348108840151E-02 
706	 9,41832796287453E-02 
707	 9,76232588837696E-02 
708	 0,101018584605624 
709	 0,104785781601101 
710	 0,108329872589486 
711	 0,111473315400453 
712	 0,114397272566683 
713	 0,117111199558997 
714	 0,119609548689741 
715	 0,12164338179511 
716	 0,123479247500263 
717	 0,125930433402031 
718	 0,128203533155979 
719	 0,129993945683873 
720	 0,131657590370341 
721	 0,13319270646494 
722	 0,134562978848315 
723	 0,135910331184086 
724	 0,137202883590495 
725	 0,138199073713777 
726	 0,139117416474911 
727	 0,140065279673607 
728	 0,14071837409887 
729	 0,141284423508509 
730	 0,14218710314825 
731	 0,143210957047703 
732	 0,144180222716499 
733	 0,144675975501301 
734	 0,145071555352904 
735	 0,14567908917447 
736	 0,145957092007957 
737	 0,146054304862299 
738	 0,146616017786295 
739	 0,146854750084185 
740	 0,146697345297507 
741	 0,147512418675351 
742	 0,148442553329857 
743	 0,14839697318833 
744	 0,148360469542368 
745	 0,14854675778602 
746	 0,148825063880388 
747	 0,149370088530341 
748	 0,150164246025206 
749	 0,150437550839509 
750	 0,150481042437396 
751	 0,150895013019586 
752	 0,151114305186344 
753	 0,15107416721211 
754	 0,151100640941546 
755	 0,151169354160693 
756	 0,151289081965366 
757	 0,151736282053532 
758	 0,152276125869679 
759	 0,15237490208435 
760	 0,152339133820871 
761	 0,152322837499377 
762	 0,152528378491804 
763	 0,152816531564273 
764	 0,153044383649347 
765	 0,153258505109849 
766	 0,153494528058463 
767	 0,153879193987762 
768	 0,154023077046892 
769	 0,153837019424536 
770	 0,153804634296166 
771	 0,153878093837971 
772	 0,153948080090696 
773	 0,153955370132194 
774	 0,154024616850675 
775	 0,15462211258622 
776	 0,155067122843144 
777	 0,15503134082571 
778	 0,154954763858713 
779	 0,155028973255992 
780	 0,155458754850532 
781	 0,155470689094727 
782	 0,155081414552444 
783	 0,155132223590519 
784	 0,155327897090432 
785	 0,155462641456172 
786	 0,155529914447077 
787	 0,155589527671419 
788	 0,155749546934994 
789	 0,156039144944078 
790	 0,156402388942275 
791	 0,156626686335153 
792	 0,156641133508094 
793	 0,15642071675459 
794	 0,156172969078505 
795	 0,156193802336461 
796	 0,157100407024083 
797	 0,157325276837881 
798	 0,15664217061958 
799	 0,15680039802447 
800	 0,157212160256245 
801	 0,157261145442316 
802	 0,157419119130949 
803	 0,157593528956258 
804	 0,157291229138989 
805	 0,157306641037471 
806	 0,157816227484246 
807	 0,157989059504899 
808	 0,158123452627382 
809	 0,15855565768746 
810	 0,158111633607282 
811	 0,157365538600376 
812	 0,158664795136821 
813	 0,159487096506084 
814	 0,158954927015796 
815	 0,158826186637718 
816	 0,158999092760006 
817	 0,159167858161511 
818	 0,159163358212906 
819	 0,159118133090994 
820	 0,159617999944831 
821	 0,159913013214702 
822	 0,159749733368546 
823	 0,16002829848915 
824	 0,160410356653805 
825	 0,16035781973669 
826	 0,160270343677129 
827	 0,160313181629693 
828	 0,160744491878406 
829	 0,160889668475944 
830	 0,160482820668033 
831	 0,160270718009749 
832	 0,160520892782299 
833	 0,161456974473993 
834	 0,161261291674462 
835	 0,160196450972283 
836	 0,16071704223586 
837	 0,161357771386424 
838	 0,161355252477941 
839	 0,16128958047091 
840	 0,161249410648581 
841	 0,16127501961357 
842	 0,161569692688941 
843	 0,161948782274181 
844	 0,161637896711007 
845	 0,161375357487824 
846	 0,161536394924525 
847	 0,161606522417964 
848	 0,16166567660997 
849	 0,161900638521632 
850	 0,162202878174088 
851	 0,162395134337974 
852	 0,161993728642111 
853	 0,161718261198615 
854	 0,161917281153996 
855	 0,16198885940117 
856	 0,162014000763661 
857	 0,162191687006313 
858	 0,162189118885816 
859	 0,161992507011777 
860	 0,161776775700069 
861	 0,161831238279441 
862	 0,162224912020613 
863	 0,162300449133139 
864	 0,162201997060953 
865	 0,162213275391186 
866	 0,162152698347812 
867	 0,162061764125802 
868	 0,162112300198981 
869	 0,162483016575044 
870	 0,163112863177964 
871	 0,163118768026302 
872	 0,162854499722768 
873	 0,162847362757166 
874	 0,162909537521914 
875	 0,163032759746273 
876	 0,163365123322531 
877	 0,163152739678109 
878	 0,162425972325179 
879	 0,163354750701459 
880	 0,164349331268826 
881	 0,163640828961792 
882	 0,163868081756499 
883	 0,1648212242773 
884	 0,164446043841119 
885	 0,164658675090103 
886	 0,16564070448185 
887	 0,164672607312971 
888	 0,163614266385993 
889	 0,164222152387952 
890	 0,164020358661215 
891	 0,163613267942856 
892	 0,165427346664909 
893	 0,16591894979747 
894	 0,164571800160454 
895	 0,164617575435257 
896	 0,165073223434661 
897	 0,165105557081951 
898	 0,165239669295258 
899	 0,165312369516692 
900	 0,164922892173241 
901	 0,164636345252248 
902	 0,164673555112758 
903	 0,165176713856431 
904	 0,165521419615904 
905	 0,165403354712878 
906	 0,165743383877262 
907	 0,16627516129243 
908	 0,166467824890902 
909	 0,165945565813361 
910	 0,165077092734178 
911	 0,165385208603506 
912	 0,165274248501276 
913	 0,164325381374416 
914	 0,164782032575028 
915	 0,165766085273679 
916	 0,166082303703333 
917	 0,165843650114555 
918	 0,165533399114877 
919	 0,166356959178701 
920	 0,167248471737951 
921	 0,167621888820567 
922	 0,166725877229154 
923	 0,165680789791407 
924	 0,1654457604922 
925	 0,165353956155673 
926	 0,165245882161548 
927	 0,164987175005669 
928	 0,165309818365524 
929	 0,166060445234456 
930	 0,165963107695416 
931	 0,165505492018212 
932	 0,165062981105668 
933	 0,165022996167096 
934	 0,165184947670799 
935	 0,16521162483835 
936	 0,164714730240897 
937	 0,164132118997327 
938	 0,164976141397694 
939	 0,165595907852992 
940	 0,165473818354033 
941	 0,165607319790796 
942	 0,165467064185191 
943	 0,164692556772128 
944	 0,165193547104945 
945	 0,165653685451612 
946	 0,162976197830099 
947	 0,162537416031702 
948	 0,164611668430444 
949	 0,164321705971182 
950	 0,163075133637324 
951	 0,161823328406625 
952	 0,161037293585549 
953	 0,16116862604473 
954	 0,162522530980098 
955	 0,162482567433756 
956	 0,16128444991874 
957	 0,161064605476851 
958	 0,161093123960195 
959	 0,161058947258713 
960	 0,160405728460659 
961	 0,160245165594874 
962	 0,161114401830269 
963	 0,159767647320333 
964	 0,158327262632209 
965	 0,160624531600162 
966	 0,16253287794807 
967	 0,162698129206164 
968	 0,160048221667308 
969	 0,159336176756965 
970	 0,161806252165825 
971	 0,161823488482477 
972	 0,160634880831742 
973	 0,159834214667602 
974	 0,160162940002658 
975	 0,16121200229649 
976	 0,161945595713877 
977	 0,162391090722527 
978	 0,162580954263015 
979	 0,162987517310946 
980	 0,161989523528634 
981	 0,159506201362995 
982	 0,159899544184084 
983	 0,161023473636606 
984	 0,160603110943239 
985	 0,162801422012015 
986	 0,16617426418784 
987	 0,166822943540532 
988	 0,163894460841057 
989	 0,159309404775897 
990	 0,160562616973187 
991	 0,163147731863491 
992	 0,164616169504808 
993	 0,166361321544327 
994	 0,166846958217116 
995	 0,164765290498243 
996	 0,164860633045447 
997	 0,166208132046267 
998	 0,165180425397514 
999	 0,166371961354615 
1000	 0,168986383844095 
1001	 0,16553330072032 
1002	 0,162665320529026 
1003	 0,163612253087105 
1004	 0,165580621106706 
1005	 0,16693052330135 
1006	 0,166440563727533 
1007	 0,16657331722351 
1008	 0,166634257073785 
1009	 0,164588159807395 
1010	 0,165826550014356 
1011	 0,169584810652215 
1012	 0,168449131900734 
1013	 0,167112571783687 
1014	 0,167611628676707 
1015	 0,169522803868412 
1016	 0,169071465623878 
1017	 0,16405932366873 
1018	 0,163968101027081 
1019	 0,167141599686104 
1020	 0,168867037625197 
1021	 0,167234291688569 
1022	 0,164443681475818 
1023	 0,168395068062581 
1024	 0,171771846130623 
1025	 0,171971122468637 
1026	 0,169756806456498 
1027	 0,168199722493523 
1028	 0,169187804672868 
1029	 0,170378349268536 
1030	 0,170804038344104 
1031	 0,169736922200228 
1032	 0,167806045070221 
1033	 0,167393311581287 
1034	 0,172830971985618 
1035	 0,173531608306027 
1036	 0,16966101733169 
1037	 0,173209634745848 
1038	 0,176100280210632 
1039	 0,175201857755087 
1040	 0,175009975541238 
1041	 0,173274413160169 
1042	 0,16912276706796 
1043	 0,171182555596792 
1044	 0,177681762699729 
1045	 0,184032127580084 
1046	 0,183434923207539 
1047	 0,177245506863756 
1048	 0,172187099315786 
1049	 0,170299487243644 
1050	 0,171634633440963 
1051	 0,172203701979191 
1052	 0,171547921304298 
1053	 0,170374535281805 
1054	 0,174249289614166 
1055	 0,178497296041596 
1056	 0,178676163178761 
1057	 0,177174969918303 
1058	 0,171515092683492 
1059	 0,158729649577609 
1060	 0,163914087917789 
1061	 0,181169061557566 
1062	 0,186557661834519 
1063	 0,182226837629027 
1064	 0,174300308745367 
1065	 0,185215203104037 
1066	 0,187544572240239 
1067	 0,17451879370047 
1068	 0,18272596147069 
1069	 0,190757081315563 
1070	 0,181973976563079 
1071	 0,166134956354031 
1072	 0,160943962906094 
1073	 0,183490945687838 
1074	 0,194805624445941 
1075	 0,192141380543958 
