Wavelength	NEUF00646.asd
325	 0,262008220786847 
326	 1,16422464362956E-02 
327	-9,54830368900793E-03 
328	 0,217360529244776 
329	 0,269677259353617 
330	 0,24271921361522 
331	 0,14877720406563 
332	 7,49167848326579E-02 
333	 8,74189887247155E-02 
334	 0,162286362984464 
335	 0,233410091756478 
336	 0,248598562070335 
337	 6,94190269179864E-02 
338	-5,44604178490207E-02 
339	 0,063385374646577 
340	 9,62830149644852E-02 
341	 5,45989968107368E-02 
342	 6,24759357205099E-02 
343	 7,09090998194101E-02 
344	 7,58476021859531E-02 
345	 0,103786513513747 
346	 0,125031037465541 
347	 0,113459051138525 
348	 6,19325281132861E-02 
349	 5,60263839349065E-03 
350	 5,61978099499451E-02 
351	 9,29838769049547E-02 
352	 0,078333983178772 
353	 5,29305966110163E-02 
354	 2,80212577912685E-02 
355	 1,65181583044789E-02 
356	 2,25744527728817E-02 
357	 3,97665959730539E-02 
358	 5,22641937353527E-02 
359	 5,80218524438291E-02 
360	 5,68589293813454E-02 
361	 5,25748304449876E-02 
362	 4,43511209121283E-02 
363	 0,027729985628337 
364	 3,87885884918834E-02 
365	 6,91869344226271E-02 
366	 6,57217847769029E-02 
367	 6,34520021560811E-02 
368	 7,98952823161427E-02 
369	 6,21772144185766E-02 
370	 3,40875309147337E-02 
371	 4,31686599873642E-02 
372	 0,049127029419653 
373	 4,31767324622152E-02 
374	 3,67096213680325E-02 
375	 3,71028520237187E-02 
376	 4,86837877482596E-02 
377	 5,63051700384507E-02 
378	 5,85199624421191E-02 
379	 0,05845983976492 
380	 5,62742246076061E-02 
381	 5,36153776948493E-02 
382	 5,54646639573235E-02 
383	 5,70040402888149E-02 
384	 5,35272091881627E-02 
385	 0,045690984836345 
386	 3,66158081891923E-02 
387	 3,06130781260928E-02 
388	 3,17673715796954E-02 
389	 4,01996758210684E-02 
390	 4,95837238574812E-02 
391	 4,99340357354233E-02 
392	 3,04732701727886E-02 
393	 3,14339028144139E-02 
394	 4,80284375285441E-02 
395	 3,96467565369473E-02 
396	 3,14482962244942E-02 
397	 3,65348955108542E-02 
398	 4,66355627229084E-02 
399	 0,053854145165665 
400	 0,047773171233978 
401	 0,040490517845376 
402	 3,73488692136228E-02 
403	 4,37474234308628E-02 
404	 5,26480345724315E-02 
405	 5,77447290253706E-02 
406	 5,05447081116754E-02 
407	 3,71829443300412E-02 
408	 3,08303404088469E-02 
409	 3,18975983646055E-02 
410	 3,78413396339336E-02 
411	 3,55619714800756E-02 
412	 3,25435550655234E-02 
413	 3,61922197405115E-02 
414	 4,18827002204879E-02 
415	 4,63189759621857E-02 
416	 4,31916157497318E-02 
417	 4,31006596180085E-02 
418	 4,86660709146812E-02 
419	 4,62797640236705E-02 
420	 4,30699748134509E-02 
421	 4,92320257583493E-02 
422	 0,046428808612798 
423	 3,64339590584157E-02 
424	 3,84742739606849E-02 
425	 4,15769932502261E-02 
426	 3,93113135370792E-02 
427	 3,74466979213861E-02 
428	 3,74401278404569E-02 
429	 4,04730729267258E-02 
430	 4,49913762348202E-02 
431	 4,86269009649085E-02 
432	 4,43651413284782E-02 
433	 4,01977797758751E-02 
434	 4,30720295211244E-02 
435	 4,43128372472726E-02 
436	 4,32204495006908E-02 
437	 4,16607063686192E-02 
438	 4,26917554028679E-02 
439	 4,62497900717428E-02 
440	 4,34505134719632E-02 
441	 0,039555355994627 
442	 4,21254909336436E-02 
443	 4,33061403122518E-02 
444	 4,19690658538453E-02 
445	 0,040329010369558 
446	 4,17132193277823E-02 
447	 4,73526991550764E-02 
448	 4,94576800862921E-02 
449	 4,83649439433348E-02 
450	 4,67112037573505E-02 
451	 4,58458911703712E-02 
452	 4,58914657220405E-02 
453	 4,38854942526449E-02 
454	 0,043591664187508 
455	 4,81874092128543E-02 
456	 4,91560144194737E-02 
457	 0,046971419647002 
458	 4,72063001678917E-02 
459	 4,83697134991348E-02 
460	 4,98403030661632E-02 
461	 5,16094491790117E-02 
462	 0,051207638030811 
463	 4,54585067391916E-02 
464	 4,33018038142899E-02 
465	 0,046331474334979 
466	 0,052270814137379 
467	 5,31655614412203E-02 
468	 4,52773464563697E-02 
469	 4,57003522791535E-02 
470	 0,051081278610845 
471	 0,049449409748103 
472	 4,92435660988285E-02 
473	 5,17553239964296E-02 
474	 5,08631887712598E-02 
475	 4,85746098380449E-02 
476	 4,72514479065631E-02 
477	 4,81927905447689E-02 
478	 5,04925978735756E-02 
479	 5,09894493166715E-02 
480	 5,09386489752122E-02 
481	 5,09861643947355E-02 
482	 5,18177390868261E-02 
483	 5,21468986868795E-02 
484	 4,98854385212489E-02 
485	 5,00392166193104E-02 
486	 5,29983573969973E-02 
487	 5,51058750549106E-02 
488	 5,53298224550838E-02 
489	 5,32384052827617E-02 
490	 0,052839277591928 
491	 5,33615853661075E-02 
492	 5,10830274501698E-02 
493	 5,03079697505482E-02 
494	 5,20981379656464E-02 
495	 5,38136084612078E-02 
496	 5,41787468342246E-02 
497	 5,21059970736031E-02 
498	 5,17262834110024E-02 
499	 5,34359406319861E-02 
500	 5,54916254961855E-02 
501	 5,62821743260414E-02 
502	 5,51246344356596E-02 
503	 5,48403329629086E-02 
504	 5,54535150457062E-02 
505	 5,63171652932688E-02 
506	 0,05717537892737 
507	 5,76255174529138E-02 
508	 0,056477519894964 
509	 5,58132981124383E-02 
510	 5,74408117383319E-02 
511	 5,91135845050777E-02 
512	 6,00285346403152E-02 
513	 5,93416841578789E-02 
514	 5,85569133839321E-02 
515	 5,85541068600564E-02 
516	 6,01360255936141E-02 
517	 6,15665781877395E-02 
518	 6,03743444964635E-02 
519	 0,059880875924859 
520	 6,06209765223433E-02 
521	 6,10139910029356E-02 
522	 6,17198606426889E-02 
523	 6,30963305685023E-02 
524	 6,35573394875316E-02 
525	 6,35104503416429E-02 
526	 6,47330059190698E-02 
527	 6,42581636783526E-02 
528	 6,20096703463834E-02 
529	 6,32071943631855E-02 
530	 6,53951951265459E-02 
531	 6,53742626700373E-02 
532	 6,54365034878911E-02 
533	 6,58726370289067E-02 
534	 6,59085227068557E-02 
535	 6,63980334089153E-02 
536	 6,76262134715518E-02 
537	 6,76320658228893E-02 
538	 6,68100591209413E-02 
539	 6,62958892061052E-02 
540	 6,63946972142195E-02 
541	 6,70148768712495E-02 
542	 6,68886018872175E-02 
543	 6,71523324050488E-02 
544	 6,88444004179038E-02 
545	 6,90160124524132E-02 
546	 6,79297531846913E-02 
547	 6,78999637446262E-02 
548	 6,86524608147564E-02 
549	 6,99165641880992E-02 
550	 7,04752382804259E-02 
551	 7,05160867092338E-02 
552	 7,05569191217807E-02 
553	 7,08539033373871E-02 
554	 7,15042329927984E-02 
555	 7,25948256875469E-02 
556	 7,30218015485643E-02 
557	 7,20234416234261E-02 
558	 0,072109858205289 
559	 7,29463563164962E-02 
560	 7,25221874908796E-02 
561	 7,17960727212369E-02 
562	 7,13727318050715E-02 
563	 7,26137788225691E-02 
564	 7,37750794137773E-02 
565	 7,24386185393994E-02 
566	 7,24449252016566E-02 
567	 7,39414400155778E-02 
568	 7,37108464976549E-02 
569	 7,36342585219825E-02 
570	 7,48775382986712E-02 
571	 7,52890852508799E-02 
572	 7,50454811741611E-02 
573	 7,51679975417808E-02 
574	 7,58449725631519E-02 
575	 7,70453710629385E-02 
576	 7,80030768848935E-02 
577	 7,86560847459712E-02 
578	 0,079014213169291 
579	 7,90629160829683E-02 
580	 7,90990090494498E-02 
581	 7,99687432013647E-02 
582	 8,08510369002585E-02 
583	 8,12719906589088E-02 
584	 8,15234998564456E-02 
585	 8,17265147363048E-02 
586	 8,20491314616348E-02 
587	 8,20566784478087E-02 
588	 8,18612469505954E-02 
589	 8,24990361920294E-02 
590	 8,33522858373477E-02 
591	 8,38073268012766E-02 
592	 8,42129703031404E-02 
593	 8,44903013871191E-02 
594	 8,41644804228771E-02 
595	 8,43319823647509E-02 
596	 8,52904735290183E-02 
597	 8,51844110106025E-02 
598	 8,47735087777612E-02 
599	 8,54979432423257E-02 
600	 8,57968028775811E-02 
601	 0,085424341957596 
602	 8,51170374186237E-02 
603	 8,51845451885524E-02 
604	 8,57720006877667E-02 
605	 8,56864750654202E-02 
606	 8,51335428122545E-02 
607	 8,50667389247424E-02 
608	 8,54336954043068E-02 
609	 8,60037665140898E-02 
610	 8,54494320550554E-02 
611	 8,45900016703831E-02 
612	 8,45654841763948E-02 
613	 8,40965746300261E-02 
614	 8,34175845675169E-02 
615	 8,44274836638825E-02 
616	 8,50199458533062E-02 
617	 8,39796771066281E-02 
618	 8,33206873400962E-02 
619	 8,33859115932112E-02 
620	 8,43044478227509E-02 
621	 8,48399486277608E-02 
622	 8,45710202360496E-02 
623	 8,38012885586492E-02 
624	 8,34551164117333E-02 
625	 0,084395398838418 
626	 8,48772314969501E-02 
627	 8,48335548929328E-02 
628	 8,53917997308136E-02 
629	 8,53380490642702E-02 
630	 8,43275708797406E-02 
631	 8,45356179946852E-02 
632	 8,55634810958999E-02 
633	 0,086383892012465 
634	 8,64587812099268E-02 
635	 8,60236859792882E-02 
636	 0,086922516026942 
637	 8,79437931735752E-02 
638	 8,80418408211791E-02 
639	 8,81008662550165E-02 
640	 8,82346540005404E-02 
641	 8,83243109483936E-02 
642	 8,83715098528208E-02 
643	 8,84005517564416E-02 
644	 8,85249709463717E-02 
645	 8,87602290646603E-02 
646	 8,91100744754066E-02 
647	 8,93688271804681E-02 
648	 8,94818866712971E-02 
649	 8,95042248633894E-02 
650	 8,94567932626819E-02 
651	 8,93467453276278E-02 
652	 8,90767497677237E-02 
653	 8,87429817781562E-02 
654	 8,86219495031872E-02 
655	 8,79957221363955E-02 
656	 8,68164254342691E-02 
657	 8,60430133890125E-02 
658	 8,56437117552729E-02 
659	 8,54932360921773E-02 
660	 8,50431881357489E-02 
661	 8,43096228527324E-02 
662	 8,37754977949073E-02 
663	 8,30775582190437E-02 
664	 8,21639845486492E-02 
665	 8,20294085486511E-02 
666	 8,19226236039199E-02 
667	 8,04658604357605E-02 
668	 7,98512065168435E-02 
669	 8,03233863459419E-02 
670	 0,080222702059156 
671	 7,98685322190254E-02 
672	 7,95590634436924E-02 
673	 7,92922881797463E-02 
674	 7,92241612080324E-02 
675	 7,97339730076393E-02 
676	 8,01331181681421E-02 
677	 8,01812775792789E-02 
678	 8,02140958647206E-02 
679	 8,02723440062369E-02 
680	 8,03732239517025E-02 
681	 0,080810722246779 
682	 8,15319257943507E-02 
683	 0,082134426435671 
684	 8,27920792637539E-02 
685	 8,35709907687708E-02 
686	 8,40894252502014E-02 
687	 8,47622676744714E-02 
688	 0,086411179733492 
689	 0,088010439189384 
690	 8,93031651148197E-02 
691	 9,06379987150223E-02 
692	 9,23154128651865E-02 
693	 0,094554121233927 
694	 9,67200231045673E-02 
695	 9,88877479960844E-02 
696	 0,101607249940422 
697	 0,104300094606696 
698	 0,106727880667635 
699	 0,109087649815244 
700	 0,111405895874369 
701	 0,113677210938558 
702	 0,116366269293267 
703	 0,119299575777554 
704	 0,12152278446133 
705	 0,12360483853886 
706	 0,125860905522578 
707	 0,12772484984533 
708	 0,129330105287502 
709	 0,131039839241034 
710	 0,132793673455582 
711	 0,134509930604489 
712	 0,135876815353225 
713	 0,137115464485242 
714	 0,138432877494018 
715	 0,139563586740706 
716	 0,140512849703478 
717	 0,141366749449513 
718	 0,142454054869577 
719	 0,143798888908964 
720	 0,144638905468963 
721	 0,14508137659666 
722	 0,145363478747076 
723	 0,146184236492039 
724	 0,147430158757038 
725	 0,148124109997083 
726	 0,148508833090429 
727	 0,148757770870861 
728	 0,149008140673007 
729	 0,149383693543108 
730	 0,150055486428107 
731	 0,150593348600171 
732	 0,150925912738513 
733	 0,151391828294361 
734	 0,151943881761486 
735	 0,15249938658108 
736	 0,152652635396687 
737	 0,15260255684066 
738	 0,153054338441073 
739	 0,153337183282216 
740	 0,15330322233474 
741	 0,153562783494989 
742	 0,154106417873223 
743	 0,154847629121897 
744	 0,15502201514937 
745	 0,154698271299656 
746	 0,1546174813062 
747	 0,15490236593647 
748	 0,155528395670068 
749	 0,155669627087346 
750	 0,155612158048876 
751	 0,155948706283036 
752	 0,156465127956178 
753	 0,156931358183075 
754	 0,156705655109349 
755	 0,156482780081702 
756	 0,15677090181459 
757	 0,15719458505177 
758	 0,157613624386864 
759	 0,157878780700894 
760	 0,158085551769079 
761	 0,158250124097536 
762	 0,158287929138035 
763	 0,158377215275437 
764	 0,158681673347611 
765	 0,159061722080248 
766	 0,159411901587878 
767	 0,159563168197561 
768	 0,159612654993681 
769	 0,159620873271768 
770	 0,159661544523721 
771	 0,159791776951108 
772	 0,160061493968994 
773	 0,160246661770893 
774	 0,160371966825892 
775	 0,160744483709942 
776	 0,160851692171269 
777	 0,160549751474529 
778	 0,160816322330625 
779	 0,161365570647509 
780	 0,161627641140847 
781	 0,161520234157518 
782	 0,161224464512019 
783	 0,161485293089464 
784	 0,161872927028606 
785	 0,16206947333573 
786	 0,161946778089598 
787	 0,161825211580033 
788	 0,162315784948169 
789	 0,162657866294543 
790	 0,162726144504928 
791	 0,16308208573269 
792	 0,163302140784091 
793	 0,163088846501518 
794	 0,163094835043209 
795	 0,163396952681967 
796	 0,163970172519933 
797	 0,164100779890634 
798	 0,163704698903189 
799	 0,163686260444974 
800	 0,163944557373348 
801	 0,164332854315506 
802	 0,16486881001588 
803	 0,165264373193455 
804	 0,164747217361957 
805	 0,164618992759903 
806	 0,165247221705517 
807	 0,165696962788296 
808	 0,165851312906497 
809	 0,165666298200305 
810	 0,165153826915973 
811	 0,164777161007229 
812	 0,165790699094643 
813	 0,166598060840076 
814	 0,166517612854087 
815	 0,166056304025535 
816	 0,165735454088359 
817	 0,166097572687535 
818	 0,166445562701816 
819	 0,16665702391806 
820	 0,166914783296897 
821	 0,167058896818324 
822	 0,167050548399399 
823	 0,167141092583235 
824	 0,167310284817841 
825	 0,167493696303178 
826	 0,167286004455813 
827	 0,166976056740383 
828	 0,167863202382875 
829	 0,168327818029755 
830	 0,167711618781363 
831	 0,167769999338626 
832	 0,168209352813609 
833	 0,168371367433401 
834	 0,167794037121431 
835	 0,166899349332927 
836	 0,167481252473729 
837	 0,168030202072145 
838	 0,16783955401737 
839	 0,168213300456908 
840	 0,168656075392271 
841	 0,168297248221646 
842	 0,168254533699393 
843	 0,168556059762981 
844	 0,168280112578364 
845	 0,168144261639425 
846	 0,168478485501515 
847	 0,168690252836232 
848	 0,168590918501944 
849	 0,168023348759718 
850	 0,168147939963885 
851	 0,168900052088531 
852	 0,169084397370853 
853	 0,168877815884551 
854	 0,168448477858602 
855	 0,168302285862617 
856	 0,168460079504754 
857	 0,16884639876692 
858	 0,168876848020009 
859	 0,168699350636654 
860	 0,169398377937801 
861	 0,169665362884746 
862	 0,169013378452786 
863	 0,169001845012685 
864	 0,16952183670683 
865	 0,17018785935187 
866	 0,169925593544143 
867	 0,168987196333258 
868	 0,168935987978603 
869	 0,169261420942076 
870	 0,169678935680429 
871	 0,169967203630964 
872	 0,16996867107977 
873	 0,169558130874255 
874	 0,169199025763212 
875	 0,169154844112753 
876	 0,169872217687857 
877	 0,170233505105967 
878	 0,16989741664764 
879	 0,17000561483871 
880	 0,170313033477243 
881	 0,170463549213826 
882	 0,170597204934059 
883	 0,170722792772429 
884	 0,170843016881587 
885	 0,170824687080471 
886	 0,170579097147012 
887	 0,169875426834184 
888	 0,169506254949039 
889	 0,170118669191678 
890	 0,170073985933565 
891	 0,169756278586114 
892	 0,170695705288646 
893	 0,171510632271691 
894	 0,171773941020851 
895	 0,171864790348766 
896	 0,171543264979792 
897	 0,170748692425843 
898	 0,170704942759328 
899	 0,171072440860683 
900	 0,170883734178581 
901	 0,170784651700743 
902	 0,170922163313662 
903	 0,171191145917374 
904	 0,171368897827468 
905	 0,171353993955529 
906	 0,171558417703866 
907	 0,171765407584808 
908	 0,171605503091686 
909	 0,171492721224897 
910	 0,171411367893404 
911	 0,170980545511805 
912	 0,170438436220746 
913	 0,170105046489523 
914	 0,171020834876259 
915	 0,172200300671201 
916	 0,172467577076351 
917	 0,17239490273057 
918	 0,172293508260487 
919	 0,172648479874707 
920	 0,173139494299902 
921	 0,17351915224371 
922	 0,17317926463019 
923	 0,172978277147584 
924	 0,173512726316687 
925	 0,172973093656575 
926	 0,17209340286727 
927	 0,172677374041078 
928	 0,173342988565666 
929	 0,173601369701797 
930	 0,17318855309427 
931	 0,172943197647756 
932	 0,173229112197605 
933	 0,172727559437623 
934	 0,172343718281755 
935	 0,173333213822711 
936	 0,1730078907985 
937	 0,171752854533964 
938	 0,172388756778429 
939	 0,172979065833461 
940	 0,172958554719702 
941	 0,173389316066715 
942	 0,173675113720155 
943	 0,173345155554613 
944	 0,173729283789008 
945	 0,174250772069431 
946	 0,173429583386387 
947	 0,17288194465293 
948	 0,17310472977258 
949	 0,174236006010596 
950	 0,174361713292203 
951	 0,172719915316449 
952	 0,172157200277698 
953	 0,172412373014694 
954	 0,172764195505662 
955	 0,172969157282798 
956	 0,173013363283016 
957	 0,173154263355268 
958	 0,17288738132395 
959	 0,172315838177308 
960	 0,172631644785189 
961	 0,173371082260056 
962	 0,173927198855143 
963	 0,172543036958381 
964	 0,171216090054193 
965	 0,173286006505765 
966	 0,17414929209443 
967	 0,173251320705477 
968	 0,172592523944708 
969	 0,172217572281104 
970	 0,172268993902254 
971	 0,172869965673601 
972	 0,17344760432521 
973	 0,173482195574545 
974	 0,173201923881405 
975	 0,173279913714311 
976	 0,174816108163709 
977	 0,175792587735899 
978	 0,175872816756249 
979	 0,176273002779432 
980	 0,175296105608264 
981	 0,172747981428356 
982	 0,172205887453645 
983	 0,173593886931011 
984	 0,176215332703762 
985	 0,176812469425993 
986	 0,175922990244913 
987	 0,175998867524307 
988	 0,174706667819893 
989	 0,172509650434255 
990	 0,172878024775537 
991	 0,175266725461681 
992	 0,178466743326749 
993	 0,17778008820395 
994	 0,175786272212356 
995	 0,175540312335698 
996	 0,174260987639609 
997	 0,173866855006013 
998	 0,17898953099155 
999	 0,179740343626078 
1000	 0,175790997688959 
1001	 0,176932068544592 
1002	 0,178164920127744 
1003	 0,177732653507489 
1004	 0,18072447969618 
1005	 0,183424182436915 
1006	 0,182179306871189 
1007	 0,181111569014952 
1008	 0,180038976446943 
1009	 0,177305407922231 
1010	 0,177737893549197 
1011	 0,180737202642149 
1012	 0,179569828498789 
1013	 0,180553549476333 
1014	 0,184797574247874 
1015	 0,183313284670935 
1016	 0,180725259874104 
1017	 0,181141907260983 
1018	 0,181210288580468 
1019	 0,180144737951688 
1020	 0,177554293838344 
1021	 0,176734073778904 
1022	 0,17822579089499 
1023	 0,18122874237306 
1024	 0,182768392974921 
1025	 0,182310430454534 
1026	 0,183257546651521 
1027	 0,183957836112139 
1028	 0,183405871856971 
1029	 0,182986479134886 
1030	 0,182225254151177 
1031	 0,180479944085608 
1032	 0,178506041123617 
1033	 0,1784401615775 
1034	 0,184263395245604 
1035	 0,181139060077013 
1036	 0,172262176306771 
1037	 0,18492807753823 
1038	 0,192820543364964 
1039	 0,186036407945509 
1040	 0,18146699676988 
1041	 0,180810078443261 
1042	 0,183713633394656 
1043	 0,181199419738523 
1044	 0,179736290716222 
1045	 0,189154425806976 
1046	 0,190982836412731 
1047	 0,186441581949684 
1048	 0,188090296609794 
1049	 0,188724370146031 
1050	 0,186547217939101 
1051	 0,182270079733125 
1052	 0,181423524392765 
1053	 0,186008210228883 
1054	 0,190449455271783 
1055	 0,190404620130569 
1056	 0,183997109469273 
1057	 0,18692476766128 
1058	 0,192086209090619 
1059	 0,187233120169676 
1060	 0,190430152889044 
1061	 0,197605944388891 
1062	 0,192092559863309 
1063	 0,184109162732179 
1064	 0,181778048993857 
1065	 0,203752467572962 
1066	 0,210530813727593 
1067	 0,191072930914014 
1068	 0,194556267362285 
1069	 0,199539520243325 
1070	 0,190790119548732 
1071	 0,194766093444016 
1072	 0,200307041640761 
1073	 0,191528832983007 
1074	 0,186990903478636 
1075	 0,188124926412651 
