Wavelength	NEUF00284.asd
325	 0,157127944150845 
326	-6,96585665718345E-02 
327	-0,159653001509437 
328	 3,37656165976764E-04 
329	 7,59562163929252E-03 
330	-2,12564249274016E-02 
331	-0,015164740867867 
332	 4,93357755816897E-02 
333	 0,104625730559946 
334	 0,127767105606021 
335	 0,105088313790098 
336	 2,75584699647505E-02 
337	-6,46093335359395E-02 
338	-7,53753251048297E-02 
339	 3,58474520834696E-02 
340	 6,11095786497483E-02 
341	 2,73853822408744E-02 
342	 5,97226444025642E-02 
343	 5,68343596164731E-02 
344	 9,75156279922738E-03 
345	-6,00720618039134E-04 
346	 0,022174897706288 
347	 0,058693549263627 
348	 1,13990965302919E-02 
349	-8,02475787874358E-02 
350	-4,81704006372784E-02 
351	 1,38553729562098E-02 
352	 5,74573799081382E-02 
353	 0,029982097506141 
354	-2,03930142568214E-02 
355	-2,82973172579825E-02 
356	-2,18265706287394E-03 
357	 3,59587809236595E-02 
358	 4,07141066637311E-02 
359	 0,018071660541399 
360	-2,07742970891174E-02 
361	 8,4294487857231E-03 
362	 5,36312610202035E-02 
363	 3,83514489926029E-02 
364	 1,38109109006543E-02 
365	 4,11238877081597E-03 
366	 3,42803578124163E-02 
367	 6,14111561581047E-02 
368	 5,86312378872269E-02 
369	 4,63695955771745E-02 
370	 3,34789639731483E-02 
371	 2,60709028126138E-02 
372	 1,92944848989601E-02 
373	 1,57234465158222E-02 
374	 3,09668012183375E-02 
375	 3,69886193967948E-02 
376	 1,56236466506787E-02 
377	 1,66668261752708E-02 
378	 3,49373975815866E-02 
379	 4,37646825294847E-02 
380	 4,64245201893484E-02 
381	 0,046118952751736 
382	 5,87304324849033E-02 
383	 6,74778284640733E-02 
384	 5,68075289036116E-02 
385	 4,69098445389769E-02 
386	 3,96600598038824E-02 
387	 2,31984611987666E-02 
388	 2,45867436094262E-02 
389	 4,73895207401454E-02 
390	 5,11212369952978E-02 
391	 4,07948563517329E-02 
392	 2,65171155098431E-02 
393	 2,89141419873876E-02 
394	 4,22552117122709E-02 
395	 3,54268358511886E-02 
396	 2,97976527214309E-02 
397	 3,57723483464339E-02 
398	 4,32049659101245E-02 
399	 4,38538795381786E-02 
400	 0,026365515302366 
401	 2,03583305461971E-02 
402	 3,02505213139449E-02 
403	 4,29115109751544E-02 
404	 4,96726987974939E-02 
405	 4,52245936901037E-02 
406	 3,82734657974788E-02 
407	 3,20661558385495E-02 
408	 2,97655516392111E-02 
409	 2,84679535368358E-02 
410	 0,027570367696828 
411	 2,89040898972264E-02 
412	 3,03348008729738E-02 
413	 0,030017454227474 
414	 3,29248676093611E-02 
415	 3,65233636272333E-02 
416	 3,13849423497639E-02 
417	 3,13787281316856E-02 
418	 0,039935052936098 
419	 4,05776018565874E-02 
420	 3,73347150245118E-02 
421	 3,71020731722888E-02 
422	 3,41613864228577E-02 
423	 2,97148451866693E-02 
424	 3,12059910405859E-02 
425	 3,25647123243977E-02 
426	 3,08357006465382E-02 
427	 3,52958240907879E-02 
428	 4,04086232887226E-02 
429	 3,40503029585619E-02 
430	 3,25152367848952E-02 
431	 3,79260349921463E-02 
432	 3,72199181525059E-02 
433	 3,44166595653687E-02 
434	 3,36023124547861E-02 
435	 3,43875313401989E-02 
436	 3,54622490825475E-02 
437	 3,31968610182884E-02 
438	 0,033041825410466 
439	 3,60260512913612E-02 
440	 3,41388549144499E-02 
441	 3,15822002125408E-02 
442	 3,44819335864357E-02 
443	 3,54263764358872E-02 
444	 3,40901815471269E-02 
445	 3,53851657221301E-02 
446	 3,79265860027415E-02 
447	 4,04621729743301E-02 
448	 3,99782410109737E-02 
449	 3,84268860092849E-02 
450	 4,01598278251484E-02 
451	 4,19790779787166E-02 
452	 4,28951163756017E-02 
453	 4,34915992351714E-02 
454	 4,30313365660556E-02 
455	 4,09681686359979E-02 
456	 0,039362446272763 
457	 3,93122575046167E-02 
458	 4,27953139646377E-02 
459	 0,045064484877522 
460	 4,41003210116586E-02 
461	 4,19594247111803E-02 
462	 3,96252615445153E-02 
463	 3,80850238177845E-02 
464	 3,82331038286854E-02 
465	 4,01510234818289E-02 
466	 0,044127090346024 
467	 4,41588931010973E-02 
468	 3,73687821589267E-02 
469	 3,55155060523557E-02 
470	 3,81178764344352E-02 
471	 4,05548462264615E-02 
472	 4,28580127192213E-02 
473	 0,044394941733703 
474	 4,43288291417418E-02 
475	 0,041782925626508 
476	 3,63366291462686E-02 
477	 3,68470098872408E-02 
478	 4,18321884104689E-02 
479	 4,21743162084996E-02 
480	 0,041539241302974 
481	 4,16004196509264E-02 
482	 4,27577048176736E-02 
483	 4,28153415552286E-02 
484	 3,82867442626806E-02 
485	 3,87222456261687E-02 
486	 4,41858779696984E-02 
487	 4,47053142911411E-02 
488	 0,043768509646083 
489	 0,044063017875612 
490	 4,38244228932897E-02 
491	 0,043308692932094 
492	 4,37186144055717E-02 
493	 4,32669462719837E-02 
494	 4,20068882353562E-02 
495	 4,38031463612249E-02 
496	 4,56212675117726E-02 
497	 4,38461983096714E-02 
498	 4,34440723608629E-02 
499	 4,44741392335918E-02 
500	 0,043279171214527 
501	 4,30387884220821E-02 
502	 4,51486737779943E-02 
503	 4,55329620671912E-02 
504	 4,49267938220066E-02 
505	 4,55798817737679E-02 
506	 4,57219159981766E-02 
507	 0,045307495063439 
508	 4,63370169226076E-02 
509	 4,74038442870802E-02 
510	 4,72540081031981E-02 
511	 4,80592112906897E-02 
512	 4,92295039653477E-02 
513	 0,048089060476042 
514	 4,72437732902198E-02 
515	 4,78523075726872E-02 
516	 4,95022640952428E-02 
517	 5,06864302462416E-02 
518	 4,93954636360038E-02 
519	 4,96380843092591E-02 
520	 5,12967737699392E-02 
521	 4,98093847996136E-02 
522	 0,048557755200033 
523	 4,98680236261198E-02 
524	 5,07111362581065E-02 
525	 5,07861458470908E-02 
526	 5,04715826757564E-02 
527	 5,04832935119119E-02 
528	 5,10292011508092E-02 
529	 5,15728239172713E-02 
530	 5,17930550765814E-02 
531	 5,13981581798483E-02 
532	 5,16328667022456E-02 
533	 5,24230972778989E-02 
534	 5,26016798768763E-02 
535	 5,25801586776257E-02 
536	 5,26454171470214E-02 
537	 5,31754145512582E-02 
538	 5,36413905106681E-02 
539	 5,29178081732286E-02 
540	 5,27303759799489E-02 
541	 5,33120888464112E-02 
542	 5,29090562020736E-02 
543	 5,27227831883492E-02 
544	 5,39237450776276E-02 
545	 5,46514698679142E-02 
546	 5,47818298712332E-02 
547	 5,50817448745164E-02 
548	 5,55112144849665E-02 
549	 5,60061670894394E-02 
550	 0,056071549335249 
551	 5,60680383659619E-02 
552	 5,66207752739694E-02 
553	 0,0575231077673 
554	 5,82903106848393E-02 
555	 0,057345691657497 
556	 5,61475878963052E-02 
557	 5,59820380147919E-02 
558	 5,67786028324957E-02 
559	 5,77379794318016E-02 
560	 5,68396173193762E-02 
561	 5,62733937030968E-02 
562	 5,67802256749117E-02 
563	 0,057096329438436 
564	 5,69044250883004E-02 
565	 5,59401458174088E-02 
566	 5,62782293349291E-02 
567	 5,76271810221946E-02 
568	 5,68151170349017E-02 
569	 5,63966392391942E-02 
570	 0,057970245591169 
571	 5,85557229571818E-02 
572	 5,84803165028327E-02 
573	 5,95454846301869E-02 
574	 6,02180167566646E-02 
575	 6,01799725220832E-02 
576	 6,06194294241137E-02 
577	 6,13769316433035E-02 
578	 6,21623084412106E-02 
579	 0,062271410846918 
580	 6,21245092321823E-02 
581	 0,063614392611675 
582	 6,49785709757106E-02 
583	 6,52155315628051E-02 
584	 6,50148722365777E-02 
585	 6,47604565236815E-02 
586	 0,064934693169679 
587	 6,51991262303998E-02 
588	 6,54710464117369E-02 
589	 6,58582883325151E-02 
590	 6,62094427897674E-02 
591	 6,64061737693739E-02 
592	 6,70285361019085E-02 
593	 6,77543422486518E-02 
594	 6,74065292806888E-02 
595	 6,70014411243665E-02 
596	 6,70476172333381E-02 
597	 6,74501524238987E-02 
598	 6,78818537894002E-02 
599	 6,78828866227779E-02 
600	 6,76142371056729E-02 
601	 6,73532936481406E-02 
602	 6,79901601917298E-02 
603	 6,85521158877633E-02 
604	 6,82769615802824E-02 
605	 6,78187230875888E-02 
606	 6,74283969712442E-02 
607	 6,74207484771957E-02 
608	 6,73678348546312E-02 
609	 6,71594628634268E-02 
610	 6,73403938164495E-02 
611	 6,70642131905621E-02 
612	 6,52696334498351E-02 
613	 6,48230564912405E-02 
614	 6,58226984880241E-02 
615	 0,066092040514568 
616	 6,60291716324743E-02 
617	 6,58398759993835E-02 
618	 6,51144485744679E-02 
619	 6,44434551136652E-02 
620	 6,50724725983189E-02 
621	 6,56856573643924E-02 
622	 6,57465336133011E-02 
623	 6,49624220869754E-02 
624	 6,44270788949086E-02 
625	 6,52323657873488E-02 
626	 6,60227220115206E-02 
627	 6,64182296079054E-02 
628	 6,63122507996592E-02 
629	 6,59360168128883E-02 
630	 6,55261819193121E-02 
631	 6,55974801378386E-02 
632	 6,61507312334188E-02 
633	 6,70983547961776E-02 
634	 6,76778777249755E-02 
635	 6,78181047641413E-02 
636	 0,068366759612247 
637	 6,89337615672598E-02 
638	 6,92118801734089E-02 
639	 7,00145944885358E-02 
640	 7,09128241277033E-02 
641	 0,070400184122616 
642	 0,070199015115292 
643	 7,08508773102611E-02 
644	 7,09836790202409E-02 
645	 0,070965338161693 
646	 0,071428816306918 
647	 7,17344591745528E-02 
648	 7,17336952960807E-02 
649	 7,14802343184194E-02 
650	 7,13170044878398E-02 
651	 7,14446575902359E-02 
652	 7,14748158385602E-02 
653	 7,11812042552869E-02 
654	 7,02125700325904E-02 
655	 6,93357986014462E-02 
656	 6,87983364257168E-02 
657	 0,068324651038536 
658	 6,76777745749264E-02 
659	 6,66495572754474E-02 
660	 6,57858116934297E-02 
661	 6,51960768648017E-02 
662	 6,47847246781742E-02 
663	 6,45112952973956E-02 
664	 6,42909175706837E-02 
665	 6,38019915301286E-02 
666	 6,31932532995966E-02 
667	 6,27648767219546E-02 
668	 6,21449768532116E-02 
669	 6,14379642577437E-02 
670	 6,14383184083944E-02 
671	 6,14434503421865E-02 
672	 6,09335728877704E-02 
673	 6,09372478603655E-02 
674	 6,12314013715837E-02 
675	 6,08434421142129E-02 
676	 6,05330003632659E-02 
677	 0,060575371070226 
678	 6,08606432140685E-02 
679	 6,11168703367033E-02 
680	 6,10421086824166E-02 
681	 6,13616153410471E-02 
682	 6,21181002564262E-02 
683	 6,29234209655941E-02 
684	 0,063468494124016 
685	 6,36542773853571E-02 
686	 6,42867025312531E-02 
687	 6,53550296317389E-02 
688	 6,65973734342483E-02 
689	 0,068259724722161 
690	 7,02334571425462E-02 
691	 7,17804496296818E-02 
692	 0,073480165398973 
693	 7,58443380832856E-02 
694	 7,81451884611308E-02 
695	 8,06079741779167E-02 
696	 0,084166038123336 
697	 8,78315872952117E-02 
698	 9,11753041234939E-02 
699	 9,43914754878747E-02 
700	 9,77127535395231E-02 
701	 0,101390457462093 
702	 0,105349536611125 
703	 0,109351275062125 
704	 0,112735799773807 
705	 0,115969605815858 
706	 0,119311470975016 
707	 0,122306675044511 
708	 0,125011019943461 
709	 0,127635681568596 
710	 0,13002247691981 
711	 0,132232048399577 
712	 0,134760450753326 
713	 0,136959314837495 
714	 0,138284820688051 
715	 0,14008005695131 
716	 0,142264360930133 
717	 0,143964222570858 
718	 0,145416159351109 
719	 0,146674704381249 
720	 0,147555089810802 
721	 0,148445522611023 
722	 0,149844990671616 
723	 0,150918976619163 
724	 0,151574446563707 
725	 0,152237772540651 
726	 0,152872458705255 
727	 0,153463626858731 
728	 0,154002863159554 
729	 0,154565205956611 
730	 0,155279366155667 
731	 0,156004241373379 
732	 0,156681929199955 
733	 0,15733137401618 
734	 0,157783608039138 
735	 0,157929019110438 
736	 0,158302025166399 
737	 0,158853836328539 
738	 0,159232199572483 
739	 0,159397169676092 
740	 0,159430869203907 
741	 0,159972570743628 
742	 0,160496113115217 
743	 0,160354576339814 
744	 0,160427135352896 
745	 0,16076443079681 
746	 0,16082764842743 
747	 0,161028459448296 
748	 0,16155362172024 
749	 0,16211416870509 
750	 0,162514582075023 
751	 0,162507768315963 
752	 0,162812711413467 
753	 0,163381503729367 
754	 0,163204992801239 
755	 0,163016814924652 
756	 0,163328363090338 
757	 0,163517417558896 
758	 0,163590193932301 
759	 0,163745787285894 
760	 0,163975476379365 
761	 0,164250252347239 
762	 0,164439797519664 
763	 0,164545651265521 
764	 0,164599337953444 
765	 0,164989225410805 
766	 0,165496870171269 
767	 0,165336641524414 
768	 0,165298015014381 
769	 0,165613911060683 
770	 0,165658253102149 
771	 0,165635250428788 
772	 0,16584023560575 
773	 0,166121480057254 
774	 0,166426910482983 
775	 0,166750677631731 
776	 0,166883653995135 
777	 0,166752312237624 
778	 0,166619396256305 
779	 0,166779311882545 
780	 0,167611321765049 
781	 0,167789160249746 
782	 0,167296130922552 
783	 0,167471720143058 
784	 0,16775774306106 
785	 0,167770563181631 
786	 0,167504579449132 
787	 0,167322661316529 
788	 0,167872779255476 
789	 0,168369530248376 
790	 0,168553850642387 
791	 0,168473679255117 
792	 0,168443089713055 
793	 0,168675543995643 
794	 0,168548306990234 
795	 0,168372244477724 
796	 0,169088351110235 
797	 0,169317164717263 
798	 0,168865215345806 
799	 0,169193993933455 
800	 0,169769239443361 
801	 0,170008301129525 
802	 0,169874202504391 
803	 0,169594856570428 
804	 0,169738839013984 
805	 0,17012555436138 
806	 0,170604176242796 
807	 0,170730417046644 
808	 0,170713234494954 
809	 0,170793031674152 
810	 0,170295777274212 
811	 0,169706496007272 
812	 0,170794926258416 
813	 0,171492700269669 
814	 0,171094489040375 
815	 0,171163249268858 
816	 0,171537504341158 
817	 0,171861367412604 
818	 0,172012995606373 
819	 0,172056874264379 
820	 0,172388612456768 
821	 0,17230084655093 
822	 0,171661890164505 
823	 0,171911678313347 
824	 0,172479550334585 
825	 0,172455596051197 
826	 0,17244543828365 
827	 0,172598976830342 
828	 0,173047890121413 
829	 0,172971069122868 
830	 0,172164554086121 
831	 0,17237091331513 
832	 0,173041367170933 
833	 0,17316936253289 
834	 0,173066149708174 
835	 0,172895056270283 
836	 0,172962632000738 
837	 0,173206025038309 
838	 0,173483680035009 
839	 0,173097924560016 
840	 0,172488703159855 
841	 0,172370425363527 
842	 0,172830972112288 
843	 0,173555661746134 
844	 0,17346809701029 
845	 0,173172605889143 
846	 0,173043567202861 
847	 0,173205753010847 
848	 0,173328215342759 
849	 0,172924188244906 
850	 0,173269762072673 
851	 0,174176498110264 
852	 0,173974948737725 
853	 0,173554346175907 
854	 0,173444843232016 
855	 0,173763329994022 
856	 0,174076133768397 
857	 0,17378157365355 
858	 0,1735404694205 
859	 0,173504900097111 
860	 0,173614943635532 
861	 0,173591967414657 
862	 0,173408313464637 
863	 0,173987151426302 
864	 0,174578646008303 
865	 0,174123784688018 
866	 0,174022876557439 
867	 0,174323559244448 
868	 0,174085558337809 
869	 0,17393977419435 
870	 0,174150334505682 
871	 0,17443450954248 
872	 0,174503705346278 
873	 0,174075896097296 
874	 0,173983241373043 
875	 0,17419187734311 
876	 0,174016628350689 
877	 0,173856386140576 
878	 0,173922288252237 
879	 0,174402245578798 
880	 0,174924370875772 
881	 0,175073583628246 
882	 0,174855140694784 
883	 0,174587445347678 
884	 0,175105901660703 
885	 0,175552228752588 
886	 0,175606541596295 
887	 0,175430402319309 
888	 0,175194156142749 
889	 0,175033261867855 
890	 0,174473047596414 
891	 0,17410653239708 
892	 0,175477759774615 
893	 0,176001808224834 
894	 0,175248119945923 
895	 0,175450218328388 
896	 0,175881281315532 
897	 0,175885468851736 
898	 0,17535720081073 
899	 0,174819944607955 
900	 0,17522014564423 
901	 0,175599810629717 
902	 0,17582256880445 
903	 0,176616645086672 
904	 0,176825146337151 
905	 0,175905574579601 
906	 0,175521225481255 
907	 0,17565003150611 
908	 0,175937154096813 
909	 0,176001694456705 
910	 0,175765560707243 
911	 0,175384827164251 
912	 0,174949288328319 
913	 0,174700545735259 
914	 0,175561303116683 
915	 0,176867536514047 
916	 0,177698430960599 
917	 0,176236956294494 
918	 0,174045537716454 
919	 0,17610567974037 
920	 0,177635193741123 
921	 0,177185456034765 
922	 0,176386961608576 
923	 0,175998959556571 
924	 0,176464841513435 
925	 0,175887557614234 
926	 0,175134360987879 
927	 0,176330607923626 
928	 0,176540353880879 
929	 0,175725857114678 
930	 0,177077158649264 
931	 0,178157606133973 
932	 0,177544574765043 
933	 0,175960493225106 
934	 0,175067073051695 
935	 0,17674271552678 
936	 0,177148276531644 
937	 0,176268059369438 
938	 0,17676935261167 
939	 0,176637646190192 
940	 0,17553878662215 
941	 0,175639956180464 
942	 0,176128694485046 
943	 0,17622971728705 
944	 0,176967497044498 
945	 0,177607181403368 
946	 0,176512506836884 
947	 0,176020788311733 
948	 0,176497818302072 
949	 0,17674955936134 
950	 0,176073579803766 
951	 0,174421971893815 
952	 0,174265338791487 
953	 0,174935826062796 
954	 0,175273978694389 
955	 0,175337816283702 
956	 0,174966248861032 
957	 0,173655910613415 
958	 0,173584326405593 
959	 0,174840126477603 
960	 0,173835427315604 
961	 0,173224361849886 
962	 0,174707723700758 
963	 0,173891950344333 
964	 0,172578296846646 
965	 0,174377080844589 
966	 0,17484423658067 
967	 0,173840818013087 
968	 0,174558329967302 
969	 0,174659051850423 
970	 0,173679074942093 
971	 0,174649430717261 
972	 0,175564612029887 
973	 0,174633188029704 
974	 0,174803375055933 
975	 0,175763202463393 
976	 0,176090539639817 
977	 0,175848141385311 
978	 0,175455660310068 
979	 0,176683770402162 
980	 0,176153546967329 
981	 0,17318774231595 
982	 0,174313855416463 
983	 0,176415764142411 
984	 0,175923710620969 
985	 0,175086986425651 
986	 0,174923700607337 
987	 0,176703591681361 
988	 0,177040134248173 
989	 0,175483785304865 
990	 0,174094141418136 
991	 0,174172503376393 
992	 0,176076099338259 
993	 0,177451195606942 
994	 0,177338921191307 
995	 0,175297876007612 
996	 0,175277174076427 
997	 0,177061311845482 
998	 0,178783934981007 
999	 0,178858784854388 
1000	 0,177955824353196 
1001	 0,180871663674526 
1002	 0,181275130080416 
1003	 0,177364399790256 
1004	 0,17866146716214 
1005	 0,18113520554325 
1006	 0,180219329887235 
1007	 0,177608769300116 
1008	 0,174936812469602 
1009	 0,174532910874898 
1010	 0,17462120743444 
1011	 0,174766277435142 
1012	 0,174848532779584 
1013	 0,177087291481953 
1014	 0,181187369900532 
1015	 0,181163143214765 
1016	 0,177912450996617 
1017	 0,173611117618796 
1018	 0,177899232593261 
1019	 0,182961162308197 
1020	 0,1755548002087 
1021	 0,174280183405843 
1022	 0,179427915091362 
1023	 0,178718445107566 
1024	 0,179682382466682 
1025	 0,183237092307963 
1026	 0,182916017645719 
1027	 0,181162642966322 
1028	 0,179911659555859 
1029	 0,179956104061746 
1030	 0,180244079187856 
1031	 0,179438883237637 
1032	 0,1782292150204 
1033	 0,177770437607326 
1034	 0,18001327228979 
1035	 0,180943184908258 
1036	 0,180479191856685 
1037	 0,182901072391809 
1038	 0,18424961758694 
1039	 0,182447613853873 
1040	 0,176417475538363 
1041	 0,17426576584665 
1042	 0,181019673172456 
1043	 0,181708016927947 
1044	 0,180869175541926 
1045	 0,187184581848444 
1046	 0,191901101251818 
1047	 0,191648006208633 
1048	 0,183026189243747 
1049	 0,180690144687299 
1050	 0,185529462289229 
1051	 0,181012833786795 
1052	 0,174238611610085 
1053	 0,170921059457109 
1054	 0,180396389350884 
1055	 0,189590357988378 
1056	 0,186740594910814 
1057	 0,179926283702457 
1058	 0,169407823947852 
1059	 0,154574464879513 
1060	 0,162866848399547 
1061	 0,184278521714712 
1062	 0,185314946366587 
1063	 0,180277413541077 
1064	 0,17593599774682 
1065	 0,182986207941468 
1066	 0,184008262270882 
1067	 0,175676620203219 
1068	 0,186464161328913 
1069	 0,196477217644503 
1070	 0,19051438812166 
1071	 0,179507086104583 
1072	 0,171937202458673 
1073	 0,176144934809227 
1074	 0,187376677176383 
1075	 0,195523568329816 
