Wavelength	NEUF00693.asd
325	 0,679797090102434 
326	 0,60843669294231 
327	 0,455461306505018 
328	 0,386111076372822 
329	 0,400180365013696 
330	 0,463147789489812 
331	 0,589051796836857 
332	 0,634639827337033 
333	 0,60016759124707 
334	 0,623025227398057 
335	 0,593602632668302 
336	 0,495040895145601 
337	 0,484715349396476 
338	 0,481289885309957 
339	 0,409901659361985 
340	 0,424813805944418 
341	 0,479309427898043 
342	 0,415863173039901 
343	 0,41214803960726 
344	 0,483230584066487 
345	 0,480419838335844 
346	 0,457751513184715 
347	 0,479943481332536 
348	 0,460089279039716 
349	 0,416042046995584 
350	 0,445994816168165 
351	 0,465728311442317 
352	 0,451184714955704 
353	 0,438539489570757 
354	 0,431896948371571 
355	 0,434156763444882 
356	 0,436130407469978 
357	 0,436843362330184 
358	 0,439092969679446 
359	 0,446962775000764 
360	 0,461017019236609 
361	 0,463897029219181 
362	 0,455215794001207 
363	 0,435995072572696 
364	 0,454723714448819 
365	 0,49863663875691 
366	 0,492157051797097 
367	 0,48777457859761 
368	 0,511587990461425 
369	 0,481124813054343 
370	 0,439237470291505 
371	 0,469765080054786 
372	 0,485319413663835 
373	 0,472384140699134 
374	 0,486645943428548 
375	 0,491008328079896 
376	 0,461632634054344 
377	 0,473572386599637 
378	 0,506240606067097 
379	 0,488983284402645 
380	 0,491037623299289 
381	 0,521794393045513 
382	 0,524407031212298 
383	 0,509675469320306 
384	 0,490436776923478 
385	 0,494415312579955 
386	 0,513161149099461 
387	 0,509476348400945 
388	 0,508828740171498 
389	 0,51765192166668 
390	 0,51492006188416 
391	 0,509484644405683 
392	 0,513535413118196 
393	 0,522930126199913 
394	 0,532874012520757 
395	 0,533797223281825 
396	 0,528655767294362 
397	 0,522317283581041 
398	 0,533735583980397 
399	 0,547178244085341 
400	 0,536760329226311 
401	 0,527101387404682 
402	 0,523867033970025 
403	 0,521587819513062 
404	 0,52369904472522 
405	 0,531076128923249 
406	 0,529260922989009 
407	 0,522403359273368 
408	 0,52295514805626 
409	 0,522460737638842 
410	 0,519942735303666 
411	 0,522103549446187 
412	 0,524788475615194 
413	 0,524058697792023 
414	 0,524706600568905 
415	 0,527428782980142 
416	 0,532568990102873 
417	 0,534648569544377 
418	 0,531521681838147 
419	 0,525170932978586 
420	 0,522091036592568 
421	 0,529566461860551 
422	 0,531974771965108 
423	 0,528490745910849 
424	 0,52861522827353 
425	 0,531738765976011 
426	 0,536369979254194 
427	 0,53336748112082 
428	 0,52756011621088 
429	 0,529400444556126 
430	 0,531189418017887 
431	 0,530933856300722 
432	 0,530456716408475 
433	 0,529097455558485 
434	 0,526500882899831 
435	 0,526878330440686 
436	 0,528956135632974 
437	 0,527131869039887 
438	 0,527834587348104 
439	 0,532132087933202 
440	 0,530242221332072 
441	 0,527297438176324 
442	 0,530769798378081 
443	 0,532999585293663 
444	 0,532912619428324 
445	 0,533304320334178 
446	 0,534135009032272 
447	 0,535345814466268 
448	 0,536532623430928 
449	 0,537015229685677 
450	 0,535669962055057 
451	 0,533923715879127 
452	 0,533202837706864 
453	 0,537533134577273 
454	 0,540602201492932 
455	 0,536710992036334 
456	 0,534823761301246 
457	 0,536362313983463 
458	 0,540688279287141 
459	 0,54300961965287 
460	 0,54161404602016 
461	 0,540968222698338 
462	 0,54092167320654 
463	 0,540646736415031 
464	 0,541213876777481 
465	 0,542445889552793 
466	 0,543094059482181 
467	 0,542625041808217 
468	 0,541029861696289 
469	 0,541624890791684 
470	 0,543310630494016 
471	 0,542662807308554 
472	 0,544309572090953 
473	 0,548214742928549 
474	 0,547490398712621 
475	 0,544589192993091 
476	 0,542456360262926 
477	 0,544154094819427 
478	 0,548090583667356 
479	 0,548205552878795 
480	 0,547673269707497 
481	 0,547971833644168 
482	 0,549003768025473 
483	 0,549408747638565 
484	 0,54715939417925 
485	 0,546170678972854 
486	 0,5472058701726 
487	 0,548685415063503 
488	 0,549690727650077 
489	 0,549585982192403 
490	 0,549420792185836 
491	 0,549360041924341 
492	 0,549246213418807 
493	 0,549474600028456 
494	 0,550183703985884 
495	 0,551183119794474 
496	 0,552513055470576 
497	 0,554218095529897 
498	 0,553354636100672 
499	 0,550939494754382 
500	 0,552082912897775 
501	 0,553289835389001 
502	 0,552840993701737 
503	 0,553768347271251 
504	 0,555390031474802 
505	 0,555948927377802 
506	 0,556080724120786 
507	 0,55611006853419 
508	 0,556641515166861 
509	 0,557399057432547 
510	 0,558069627144833 
511	 0,558276615871128 
512	 0,558010100822549 
513	 0,557172015184339 
514	 0,557619162358014 
515	 0,559742787704825 
516	 0,560292123572673 
517	 0,560161675602239 
518	 0,561072975279085 
519	 0,561533675296081 
520	 0,561293373199388 
521	 0,560749208968777 
522	 0,560575337936009 
523	 0,561195860592328 
524	 0,561684791858053 
525	 0,561859447555993 
526	 0,561738932883292 
527	 0,561255028182616 
528	 0,560634972940774 
529	 0,561005692371266 
530	 0,561724117872282 
531	 0,561968981983066 
532	 0,56253355259626 
533	 0,563081000374201 
534	 0,561896031432322 
535	 0,561428560993684 
536	 0,562869356752009 
537	 0,563263429888619 
538	 0,562563913432811 
539	 0,561308421126479 
540	 0,56121415018883 
541	 0,56240034143 
542	 0,56246490487385 
543	 0,562139010848399 
544	 0,562225858306725 
545	 0,561763990653232 
546	 0,561114178170777 
547	 0,561754345148157 
548	 0,562457216007797 
549	 0,56260282137203 
550	 0,562263543509328 
551	 0,56228665109594 
552	 0,563980318252574 
553	 0,565303210789689 
554	 0,56571289762018 
555	 0,565864728957886 
556	 0,56552769157349 
557	 0,564578282990169 
558	 0,563911942780832 
559	 0,563743432877404 
560	 0,564162369377607 
561	 0,564459207174476 
562	 0,564321697072088 
563	 0,564075119851989 
564	 0,563658548050797 
565	 0,562945465911464 
566	 0,563033321888162 
567	 0,563823646122972 
568	 0,563831283322052 
569	 0,564066289339126 
570	 0,565177139876418 
571	 0,566242640793854 
572	 0,567097169739214 
573	 0,567732411602105 
574	 0,568310863298014 
575	 0,568893768344233 
576	 0,569347333264963 
577	 0,569998435880778 
578	 0,57119202658773 
579	 0,571716113171284 
580	 0,571752782965648 
581	 0,572800078338953 
582	 0,573830765690059 
583	 0,574338131421307 
584	 0,575158541487224 
585	 0,57621331642657 
586	 0,577194802449008 
587	 0,578108701506694 
588	 0,578852250592449 
589	 0,579062929033224 
590	 0,579301539501887 
591	 0,580067798319733 
592	 0,580510731202104 
593	 0,580731630400505 
594	 0,581384355192523 
595	 0,582543903148493 
596	 0,58402141860134 
597	 0,584372222725744 
598	 0,584132426088924 
599	 0,584335410009322 
600	 0,584568352161924 
601	 0,584620692280453 
602	 0,583964587920409 
603	 0,583608469063662 
604	 0,58419852827648 
605	 0,5833716639095 
606	 0,581826792687549 
607	 0,582277154951522 
608	 0,582624359036049 
609	 0,582157805613915 
610	 0,581518949301853 
611	 0,581139894689279 
612	 0,58147421026291 
613	 0,58138676758858 
614	 0,580976657061549 
615	 0,581767275010217 
616	 0,581819377474894 
617	 0,580125936302646 
618	 0,579470958376431 
619	 0,579738560984622 
620	 0,579833095811643 
621	 0,580206835255604 
622	 0,580821168137439 
623	 0,581098616022594 
624	 0,581015186659958 
625	 0,580616780786697 
626	 0,580606762684857 
627	 0,581015593059886 
628	 0,5815138368859 
629	 0,581535755802042 
630	 0,580979799596443 
631	 0,581537610098441 
632	 0,58251414081755 
633	 0,582441979249785 
634	 0,582743550577054 
635	 0,583624003001627 
636	 0,584235377213245 
637	 0,58455091991269 
638	 0,584612714601054 
639	 0,585084586514348 
640	 0,585685422805643 
641	 0,585253523890451 
642	 0,585429280686874 
643	 0,586591460960512 
644	 0,586707687989643 
645	 0,586301198277907 
646	 0,586288677587971 
647	 0,586902479455154 
648	 0,587682531177757 
649	 0,586795556527073 
650	 0,585851547211108 
651	 0,585801090272654 
652	 0,584687878980355 
653	 0,583104666445753 
654	 0,582743477190515 
655	 0,582816667406628 
656	 0,582962092808586 
657	 0,582806507854489 
658	 0,582175657078169 
659	 0,58096066654762 
660	 0,579986866968674 
661	 0,579407927962073 
662	 0,579172605713603 
663	 0,578290708207032 
664	 0,576512113804351 
665	 0,576024589731368 
666	 0,576071421523284 
667	 0,575077899141797 
668	 0,574062868503527 
669	 0,573406766929452 
670	 0,573425467055013 
671	 0,573524300458641 
672	 0,573222873171465 
673	 0,572844250686625 
674	 0,572565060327091 
675	 0,572595148293916 
676	 0,573127945220575 
677	 0,573986043554705 
678	 0,573794363387792 
679	 0,573403794167745 
680	 0,573942328075259 
681	 0,574286448143373 
682	 0,574374853697588 
683	 0,574791201295972 
684	 0,575585004398529 
685	 0,57670643196173 
686	 0,577392471291653 
687	 0,578074931117825 
688	 0,579694999322577 
689	 0,581416851520392 
690	 0,58318890940285 
691	 0,585909804027918 
692	 0,588853920225762 
693	 0,591410511960648 
694	 0,595023122255112 
695	 0,599431406272831 
696	 0,603290589588916 
697	 0,607122590235983 
698	 0,611198411619438 
699	 0,615906222908822 
700	 0,620914588492143 
701	 0,625727838884573 
702	 0,630348989009552 
703	 0,634780640440646 
704	 0,639090752423073 
705	 0,643348870705324 
706	 0,6475645042223 
707	 0,651464678773969 
708	 0,65503872183501 
709	 0,65831442880931 
710	 0,661544722862324 
711	 0,664761890133268 
712	 0,667758288212524 
713	 0,670192706068016 
714	 0,67182817843195 
715	 0,673775231363131 
716	 0,675973844596692 
717	 0,677651340521756 
718	 0,679214127898405 
719	 0,680783686358863 
720	 0,682095578474843 
721	 0,683194989797983 
722	 0,684172679115032 
723	 0,685179336313835 
724	 0,686227493638437 
725	 0,687162690008382 
726	 0,688203163446969 
727	 0,689382848909392 
728	 0,689809073428641 
729	 0,690020455395549 
730	 0,691206231256947 
731	 0,692106176727917 
732	 0,692488207461145 
733	 0,693206770496775 
734	 0,693625546805239 
735	 0,693250142480746 
736	 0,69332229903327 
737	 0,693912360803422 
738	 0,694661661041968 
739	 0,695087006379861 
740	 0,695018118821323 
741	 0,69487264567625 
742	 0,69480550785681 
743	 0,694947746365816 
744	 0,695312833549001 
745	 0,695729484069878 
746	 0,695717684930027 
747	 0,695538323757981 
748	 0,69542138540423 
749	 0,695938583246829 
750	 0,696531266056189 
751	 0,696253277171286 
752	 0,695823830720369 
753	 0,695491068291832 
754	 0,695329468531647 
755	 0,695315072002804 
756	 0,6954282235405 
757	 0,695690468693906 
758	 0,695978143864543 
759	 0,69606833548353 
760	 0,696048981405456 
761	 0,695988369093845 
762	 0,696050268964514 
763	 0,696175709046154 
764	 0,696296803835682 
765	 0,696386693902829 
766	 0,696451093248913 
767	 0,696536611408468 
768	 0,696579580805743 
769	 0,696552079135052 
770	 0,696468539238106 
771	 0,696319120208644 
772	 0,696099133579279 
773	 0,696236969170555 
774	 0,696594697318613 
775	 0,69644996722996 
776	 0,696282014359376 
777	 0,69630064013569 
778	 0,696103538833683 
779	 0,695933861450364 
780	 0,696207353659542 
781	 0,696135083389787 
782	 0,695708078034135 
783	 0,695647065419667 
784	 0,695886182842169 
785	 0,696270028445469 
786	 0,695868848904437 
787	 0,695200983370304 
788	 0,695425574827645 
789	 0,695613839161201 
790	 0,695541058424595 
791	 0,695550255273272 
792	 0,695282129804885 
793	 0,694557456905531 
794	 0,694677375216789 
795	 0,695251611317333 
796	 0,69492390015461 
797	 0,695020890535425 
798	 0,695669082992495 
799	 0,695336217798649 
800	 0,694796669093624 
801	 0,694809920330912 
802	 0,694516412048245 
803	 0,694092286100129 
804	 0,694360260514931 
805	 0,694715219635756 
806	 0,69489365692579 
807	 0,694822635619658 
808	 0,694645485635057 
809	 0,694527056032923 
810	 0,694376266650505 
811	 0,694352190366359 
812	 0,694976895321557 
813	 0,69535212400376 
814	 0,695151948270824 
815	 0,695044500433419 
816	 0,694965666041227 
817	 0,694784543617514 
818	 0,695100113810809 
819	 0,695697583318347 
820	 0,695559384597377 
821	 0,69528315062104 
822	 0,695192757826545 
823	 0,695411714602239 
824	 0,695682732329211 
825	 0,695658956428561 
826	 0,695365180680976 
827	 0,695020156549531 
828	 0,695256588012922 
829	 0,695605143697229 
830	 0,695805733583899 
831	 0,695950638371312 
832	 0,695970226907462 
833	 0,695771580922004 
834	 0,695643587149821 
835	 0,69558482017657 
836	 0,695270102145103 
837	 0,69517625143116 
838	 0,695472786635037 
839	 0,695425288632498 
840	 0,695126744903245 
841	 0,694831851749243 
842	 0,694657414006456 
843	 0,694528399886814 
844	 0,693973837251895 
845	 0,693802064872743 
846	 0,69432733408333 
847	 0,694363820485075 
848	 0,694174655468022 
849	 0,69432341652841 
850	 0,694316109319449 
851	 0,694189640306635 
852	 0,694494092473936 
853	 0,694630238417559 
854	 0,694281858786224 
855	 0,693636844865397 
856	 0,693295229407367 
857	 0,694005725996643 
858	 0,693972116907486 
859	 0,693182619048136 
860	 0,693044895846404 
861	 0,693441130306281 
862	 0,694158292849663 
863	 0,69409359343563 
864	 0,693752189464342 
865	 0,693946395229669 
866	 0,694316538206819 
867	 0,694530129105134 
868	 0,693722590324389 
869	 0,693489095580149 
870	 0,694346137777367 
871	 0,694254309125123 
872	 0,693932324885804 
873	 0,694432134428669 
874	 0,694441792597987 
875	 0,694029897515637 
876	 0,694218098572928 
877	 0,694445398465054 
878	 0,694450753706776 
879	 0,694160419122395 
880	 0,693802859118931 
881	 0,693648235073556 
882	 0,693987541178016 
883	 0,694537226003979 
884	 0,694391275836296 
885	 0,694387493181642 
886	 0,694642868145193 
887	 0,694172583209641 
888	 0,693566527549939 
889	 0,693414807756936 
890	 0,693308931825053 
891	 0,693154723082282 
892	 0,69283831986924 
893	 0,693084625120533 
894	 0,693801331930522 
895	 0,693499132284611 
896	 0,6930108419354 
897	 0,693023187997702 
898	 0,693148781877939 
899	 0,693250697376863 
900	 0,693173181823218 
901	 0,693296167437359 
902	 0,69358009026139 
903	 0,69346068332554 
904	 0,693281681239953 
905	 0,693262960647476 
906	 0,69330306895638 
907	 0,693297782100462 
908	 0,693116447022186 
909	 0,693828757094887 
910	 0,694979869579699 
911	 0,694324484176884 
912	 0,693550658908465 
913	 0,693528581348597 
914	 0,694300525618864 
915	 0,694755970126725 
916	 0,693762059593484 
917	 0,69334346691266 
918	 0,693703153632592 
919	 0,694333045782106 
920	 0,694365559590989 
921	 0,693756116899885 
922	 0,694157566919566 
923	 0,69430188467512 
924	 0,693253340935885 
925	 0,693172425361881 
926	 0,693813929087815 
927	 0,694144699238531 
928	 0,693746970236257 
929	 0,692860088825077 
930	 0,692888711450192 
931	 0,693244978505119 
932	 0,693506227510904 
933	 0,693283914168564 
934	 0,693246889618168 
935	 0,694246028738214 
936	 0,694114388075249 
937	 0,693002584259631 
938	 0,692680397270519 
939	 0,692736544822804 
940	 0,693005558239027 
941	 0,693373249130687 
942	 0,69294336058119 
943	 0,691280712729844 
944	 0,692387019992592 
945	 0,694363893153427 
946	 0,692506109296847 
947	 0,690156137957737 
948	 0,688946327308182 
949	 0,691045786764587 
950	 0,692814017183538 
951	 0,692229553403212 
952	 0,691575674899871 
953	 0,690477151810259 
954	 0,688377621202838 
955	 0,688714267114215 
956	 0,690697886225382 
957	 0,690350970439648 
958	 0,690242623356993 
959	 0,690918594386833 
960	 0,690905053999052 
961	 0,690837423745063 
962	 0,691169933125645 
963	 0,691428905288426 
964	 0,690737714302504 
965	 0,687949723585777 
966	 0,686981542265229 
967	 0,688140811956468 
968	 0,689158324366478 
969	 0,689545098304177 
970	 0,689135797965797 
971	 0,688939759705961 
972	 0,688724852126352 
973	 0,688316666152306 
974	 0,688793399842491 
975	 0,689648514706528 
976	 0,689683385195518 
977	 0,689368653213346 
978	 0,689084759779941 
979	 0,689766413210724 
980	 0,690088758019132 
981	 0,689514266379435 
982	 0,689026166781801 
983	 0,689205852856132 
984	 0,690377520884012 
985	 0,690225167520805 
986	 0,689449688690507 
987	 0,690334806993652 
988	 0,689599676464745 
989	 0,687690085374703 
990	 0,689608740088613 
991	 0,691445823917074 
992	 0,69165047214008 
993	 0,694641152355936 
994	 0,697257881341324 
995	 0,69602121446496 
996	 0,693853044139935 
997	 0,692940831477737 
998	 0,69649079827493 
999	 0,695502373901011 
1000	 0,690504602115011 
1001	 0,693172437238335 
1002	 0,695963577083447 
1003	 0,695576349674329 
1004	 0,696625510530186 
1005	 0,698104679193155 
1006	 0,69874744061545 
1007	 0,699091363379778 
1008	 0,698273619217235 
1009	 0,694681112019624 
1010	 0,694046363430636 
1011	 0,69680958173053 
1012	 0,698900143975787 
1013	 0,700662734504489 
1014	 0,701749195677443 
1015	 0,700802076605876 
1016	 0,699333233467716 
1017	 0,698827050412722 
1018	 0,69991922753644 
1019	 0,700958066555205 
1020	 0,699465634028088 
1021	 0,700472808549293 
1022	 0,703309647244812 
1023	 0,702693582025236 
1024	 0,701657394973805 
1025	 0,70140624972793 
1026	 0,702295647097254 
1027	 0,70415168807881 
1028	 0,706093304102221 
1029	 0,70321395843114 
1030	 0,700044784191501 
1031	 0,702067013662503 
1032	 0,703092070520181 
1033	 0,702236983528721 
1034	 0,700319475018496 
1035	 0,697881739967119 
1036	 0,696652850585038 
1037	 0,70150548686605 
1038	 0,706352469779216 
1039	 0,70780966621042 
1040	 0,704519638879658 
1041	 0,702924331987079 
1042	 0,70780994385086 
1043	 0,713127658387253 
1044	 0,716557776935689 
1045	 0,716147845060321 
1046	 0,713601002072822 
1047	 0,710565207109995 
1048	 0,709615493537543 
1049	 0,706256577419375 
1050	 0,703327048563541 
1051	 0,718319107126009 
1052	 0,720113546188456 
1053	 0,699388577082634 
1054	 0,697513187218207 
1055	 0,705674042340948 
1056	 0,713021879948256 
1057	 0,713403844310918 
1058	 0,714552656285837 
1059	 0,727919967884509 
1060	 0,726416057064943 
1061	 0,715298543973156 
1062	 0,719474118390067 
1063	 0,715430906126848 
1064	 0,704575491122771 
1065	 0,716844712531867 
1066	 0,722402841017025 
1067	 0,712617082955125 
1068	 0,721371268997718 
1069	 0,726829581262504 
1070	 0,714624233912411 
1071	 0,713634482571909 
1072	 0,719232411853839 
1073	 0,721623811737219 
1074	 0,724270212046569 
1075	 0,722521068624166 
