Wavelength	NEUF00281.asd
325	 0,303324199125726 
326	 8,38384179139163E-02 
327	-0,105247956759284 
328	-7,82486900191338E-02 
329	-2,32355228894475E-02 
330	 4,38558901053126E-02 
331	 0,120513086061754 
332	 9,56613802695001E-02 
333	 3,49205002280514E-02 
334	 6,58732226794086E-02 
335	 7,92920751608495E-02 
336	 3,42356811531832E-02 
337	-8,75522756852822E-02 
338	-0,172102433029426 
339	-0,138503666877449 
340	-8,40942003999724E-02 
341	-1,46663165248758E-02 
342	 7,49981424064955E-02 
343	 0,086443016169779 
344	 2,83364764758925E-02 
345	 2,12682236062233E-02 
346	 4,07454073212617E-02 
347	 4,72278680506494E-02 
348	 1,84944307393287E-02 
349	-2,49616692469461E-02 
350	-8,80121907237945E-03 
351	 2,38987914268289E-02 
352	 4,70250245709534E-02 
353	 1,62887713893168E-02 
354	-2,47375877603848E-02 
355	-1,74613222839275E-02 
356	-0,004235711715448 
357	 5,22792215453413E-03 
358	 1,28909767804588E-02 
359	 1,38632962423773E-02 
360	 9,86704811671958E-03 
361	 3,30509182334119E-02 
362	 4,34190077420643E-02 
363	-1,64733836081399E-02 
364	-3,49429863723524E-03 
365	 0,070326969879382 
366	 4,71664256253683E-02 
367	 2,21106009295273E-02 
368	 4,70740761519528E-02 
369	 2,67428177232916E-02 
370	-1,08447355327866E-02 
371	-2,65730546356555E-03 
372	 8,9172462607861E-03 
373	 1,33820955165118E-02 
374	 2,13830665348937E-02 
375	 1,88915169239666E-02 
376	-1,20468462595171E-03 
377	 6,53210520822937E-03 
378	 3,12360541376146E-02 
379	 0,03547201646127 
380	 3,90048812732646E-02 
381	 4,45689740521324E-02 
382	 3,97374727160387E-02 
383	 3,26847065387649E-02 
384	 3,12456968413551E-02 
385	 3,61167978907264E-02 
386	 4,08922745172962E-02 
387	 0,027373920570701 
388	 2,64986819374878E-02 
389	 4,29963279565092E-02 
390	 2,94425993992818E-02 
391	 8,97557236384115E-03 
392	 0,013715738559239 
393	 2,65118186619692E-02 
394	 3,67369797948807E-02 
395	 2,44336804830827E-02 
396	 1,60521320347677E-02 
397	 2,49139808002735E-02 
398	 3,77491284680989E-02 
399	 4,29349059130384E-02 
400	 2,47606169655174E-02 
401	 1,64701622339871E-02 
402	 2,35728081597459E-02 
403	 0,031661980330701 
404	 3,86129203925454E-02 
405	 4,24357140859638E-02 
406	 3,94818313938402E-02 
407	 3,27574363701063E-02 
408	 0,027916914120028 
409	 2,96987360085853E-02 
410	 3,60637923685454E-02 
411	 3,05442771030802E-02 
412	 2,34295488477435E-02 
413	 0,024722773891992 
414	 2,49198393133921E-02 
415	 2,40327392081988E-02 
416	 0,026539597539885 
417	 2,93037037703671E-02 
418	 3,02875058691668E-02 
419	 2,50118522713294E-02 
420	 2,21840853720027E-02 
421	 3,26443967518129E-02 
422	 3,54933831577087E-02 
423	 2,99535825609596E-02 
424	 0,02953939478001 
425	 3,21512323161995E-02 
426	 3,57849205119325E-02 
427	 0,035139310870471 
428	 3,17266738207899E-02 
429	 2,87975040617145E-02 
430	 3,20100864254652E-02 
431	 3,95499455077162E-02 
432	 3,59106629893406E-02 
433	 3,03204981686615E-02 
434	 3,13050251949464E-02 
435	 0,031659489241215 
436	 0,031448594444891 
437	 3,42473542940356E-02 
438	 3,63098653738097E-02 
439	 3,59931929554591E-02 
440	 3,38868632423499E-02 
441	 0,030471593147074 
442	 2,62796176057584E-02 
443	 2,63462516956282E-02 
444	 3,04723570885439E-02 
445	 3,39388199645213E-02 
446	 3,52729433091276E-02 
447	 3,40256500701206E-02 
448	 3,50166661345693E-02 
449	 3,74003325800537E-02 
450	 3,84460836767363E-02 
451	 3,81777133506984E-02 
452	 0,03666257120462 
453	 0,034070156617644 
454	 3,33193267158673E-02 
455	 0,036736657567862 
456	 3,65409544377195E-02 
457	 0,033852758890938 
458	 3,57735934506481E-02 
459	 3,79251427327826E-02 
460	 3,83383489844617E-02 
461	 3,66979914917878E-02 
462	 3,50936614880171E-02 
463	 3,63321927324927E-02 
464	 3,58698457540553E-02 
465	 3,43231665290587E-02 
466	 3,82291007035972E-02 
467	 4,09398013548681E-02 
468	 3,84402136941824E-02 
469	 3,62880656084767E-02 
470	 3,55824959603857E-02 
471	 3,67019464272553E-02 
472	 3,78249110979516E-02 
473	 3,82396091849662E-02 
474	 3,86382546209705E-02 
475	 3,68504729037179E-02 
476	 3,12377312308162E-02 
477	 3,43539747483216E-02 
478	 4,27524763959588E-02 
479	 3,99094729009093E-02 
480	 3,69197543640556E-02 
481	 3,85534708214808E-02 
482	 4,04519164483273E-02 
483	 4,00232082101364E-02 
484	 3,39296270721663E-02 
485	 3,35372246402601E-02 
486	 0,039483476149233 
487	 4,19930314680609E-02 
488	 4,14142173194253E-02 
489	 3,84462545231266E-02 
490	 3,64964061621681E-02 
491	 3,63207894696313E-02 
492	 3,80558483515067E-02 
493	 3,99556631839267E-02 
494	 4,11059921208661E-02 
495	 4,10992421835862E-02 
496	 4,04654065281644E-02 
497	 3,98565362809371E-02 
498	 4,04377284827291E-02 
499	 4,17608835117716E-02 
500	 4,15752442963175E-02 
501	 4,13600468870109E-02 
502	 4,18949765849394E-02 
503	 4,22953929246909E-02 
504	 4,26064310222206E-02 
505	 4,31012793027645E-02 
506	 4,36834349111168E-02 
507	 4,41198714057065E-02 
508	 4,34843452602248E-02 
509	 4,32473499390874E-02 
510	 4,46213196031656E-02 
511	 4,47670354104495E-02 
512	 0,043784873156326 
513	 4,32273745198697E-02 
514	 4,33958155470229E-02 
515	 4,42956602309598E-02 
516	 4,47927132056086E-02 
517	 4,47667625127849E-02 
518	 4,42280748323776E-02 
519	 4,40134063757861E-02 
520	 0,044351990411763 
521	 4,49694680348057E-02 
522	 4,61118861253195E-02 
523	 4,77546504217481E-02 
524	 4,77120021245308E-02 
525	 0,046761724632975 
526	 4,74391997150987E-02 
527	 4,79978049291556E-02 
528	 4,79862739382264E-02 
529	 0,048327474308306 
530	 4,83586570294744E-02 
531	 4,72902572127924E-02 
532	 4,70781412335355E-02 
533	 0,047808394163702 
534	 4,81825226135802E-02 
535	 0,048782198659315 
536	 0,049740914570638 
537	 0,049409251923062 
538	 4,83823467260609E-02 
539	 4,80571259163425E-02 
540	 4,83775830131305E-02 
541	 4,92330735813109E-02 
542	 5,00144628205768E-02 
543	 5,06573398763584E-02 
544	 5,11116649191213E-02 
545	 0,050729060931113 
546	 5,00788451160067E-02 
547	 5,10644413335271E-02 
548	 5,20693418333825E-02 
549	 5,22477748326639E-02 
550	 5,15941019412896E-02 
551	 5,10509010616221E-02 
552	 5,20733538372956E-02 
553	 5,28051888743795E-02 
554	 5,27854266957151E-02 
555	 5,25795089316033E-02 
556	 5,21895610031818E-02 
557	 5,16903429824356E-02 
558	 5,20696462703066E-02 
559	 0,052973188785686 
560	 5,31779930659672E-02 
561	 5,28380247117019E-02 
562	 5,21663560209505E-02 
563	 5,22993958227744E-02 
564	 5,25023584059485E-02 
565	 5,16672367356963E-02 
566	 5,18012112310479E-02 
567	 5,28918689968974E-02 
568	 5,29559058254349E-02 
569	 5,32022557051511E-02 
570	 5,43468120742407E-02 
571	 5,47166543998669E-02 
572	 5,45265943985742E-02 
573	 5,47506403651812E-02 
574	 5,53323574691349E-02 
575	 5,62132749996551E-02 
576	 5,70735689476496E-02 
577	 5,74724331309742E-02 
578	 0,05699413898264 
579	 5,71069550429901E-02 
580	 0,058033224865546 
581	 5,93518233648027E-02 
582	 6,02182783208108E-02 
583	 6,02058838615944E-02 
584	 6,03463250071777E-02 
585	 6,05409547962042E-02 
586	 6,03283988781696E-02 
587	 6,03059528313543E-02 
588	 6,06454250885657E-02 
589	 6,11625188254578E-02 
590	 6,17937252457606E-02 
591	 6,24595309592958E-02 
592	 6,27790534541728E-02 
593	 6,27263040419424E-02 
594	 6,23327970133546E-02 
595	 6,25154392680358E-02 
596	 6,35151699486932E-02 
597	 6,37215979746113E-02 
598	 6,33184151243619E-02 
599	 6,28385021270513E-02 
600	 6,27029573595972E-02 
601	 6,29058367558586E-02 
602	 6,26995989251355E-02 
603	 6,28352752912142E-02 
604	 6,37651438397271E-02 
605	 6,34626836166319E-02 
606	 6,23725878935954E-02 
607	 6,23804226195601E-02 
608	 6,26649743405211E-02 
609	 6,28831542099352E-02 
610	 6,28138161835214E-02 
611	 6,23169848984533E-02 
612	 6,12684397406208E-02 
613	 0,061018944515871 
614	 6,15799558345086E-02 
615	 0,06176562972999 
616	 6,18540740530905E-02 
617	 6,19080512872313E-02 
618	 6,08405574820953E-02 
619	 5,97134663736397E-02 
620	 0,060942517769545 
621	 6,17666194969297E-02 
622	 6,14295054393373E-02 
623	 6,11737713601681E-02 
624	 6,08528701845645E-02 
625	 0,06029027008999 
626	 6,05479947875472E-02 
627	 6,14118702433938E-02 
628	 0,061594373875176 
629	 6,17748909438272E-02 
630	 6,21809813039132E-02 
631	 6,19254231677356E-02 
632	 0,061473771059638 
633	 6,17092606284151E-02 
634	 6,21367838688994E-02 
635	 0,062681815547492 
636	 6,36452298702087E-02 
637	 6,45430787262793E-02 
638	 6,49644150497162E-02 
639	 6,51854686152084E-02 
640	 6,53537411192735E-02 
641	 6,57042305584991E-02 
642	 6,59807903400825E-02 
643	 6,61128855506477E-02 
644	 6,63294427175196E-02 
645	 6,65702434362193E-02 
646	 6,67288270214884E-02 
647	 6,71142159269295E-02 
648	 0,067519076335239 
649	 6,69860027234282E-02 
650	 6,63651628637572E-02 
651	 6,62374570342878E-02 
652	 6,63459241075784E-02 
653	 6,62970815703691E-02 
654	 0,065367266520321 
655	 6,44645368359477E-02 
656	 6,38551581441814E-02 
657	 6,30956445285725E-02 
658	 6,24571572474851E-02 
659	 6,22112164145627E-02 
660	 6,15900823317351E-02 
661	 6,06648253937598E-02 
662	 6,00978551535744E-02 
663	 5,97835204381227E-02 
664	 5,95996706663091E-02 
665	 5,90393670436636E-02 
666	 5,82677815852424E-02 
667	 5,76274905829039E-02 
668	 5,72065258996523E-02 
669	 5,69663661797423E-02 
670	 5,65494898203561E-02 
671	 5,62941596696221E-02 
672	 5,64219559917818E-02 
673	 5,60949382788358E-02 
674	 5,55772950539558E-02 
675	 5,58296910879932E-02 
676	 5,63048046455095E-02 
677	 5,67092042323065E-02 
678	 5,65737602978188E-02 
679	 5,64659162221981E-02 
680	 5,70896752258786E-02 
681	 5,73470198333675E-02 
682	 5,73415692421425E-02 
683	 5,82381669888714E-02 
684	 5,93097786449522E-02 
685	 6,00830623762006E-02 
686	 6,04031338715747E-02 
687	 6,08159562490328E-02 
688	 6,23144708647713E-02 
689	 6,39091925646207E-02 
690	 6,52646331245262E-02 
691	 6,62333575336506E-02 
692	 0,067854628312517 
693	 0,07096044980592 
694	 7,37284457721175E-02 
695	 7,61804932457676E-02 
696	 7,93112972092117E-02 
697	 8,26337784124115E-02 
698	 8,59803638413914E-02 
699	 8,95690397897642E-02 
700	 9,31692049362829E-02 
701	 9,64506475931783E-02 
702	 0,1000980038322 
703	 0,104093359082272 
704	 0,107833552391855 
705	 0,111323717571086 
706	 0,114524998439158 
707	 0,117176428661546 
708	 0,119616830868708 
709	 0,122529987254701 
710	 0,125113959956254 
711	 0,127247690069652 
712	 0,129620996015997 
713	 0,131782068059224 
714	 0,133317134750926 
715	 0,13476986873607 
716	 0,136291617443322 
717	 0,13794093245803 
718	 0,139737778463633 
719	 0,141514020013848 
720	 0,14230784647919 
721	 0,142725667346478 
722	 0,143647252417797 
723	 0,144864116717627 
724	 0,1461236503219 
725	 0,146746428552333 
726	 0,147232830141962 
727	 0,1478921174133 
728	 0,148530008980805 
729	 0,149108203198055 
730	 0,149589895586484 
731	 0,150084170088387 
732	 0,150645059430783 
733	 0,151382418861537 
734	 0,151888181040954 
735	 0,151859858623293 
736	 0,152181739660179 
737	 0,152774149509493 
738	 0,153017241870552 
739	 0,153218897608235 
740	 0,15348018168773 
741	 0,153714666676629 
742	 0,15404806068989 
743	 0,154616066463696 
744	 0,154703976616606 
745	 0,154429569423894 
746	 0,154648779521325 
747	 0,155059859219672 
748	 0,155468283829036 
749	 0,155622747737806 
750	 0,155786428565608 
751	 0,156423088660152 
752	 0,156785282234548 
753	 0,156794711127237 
754	 0,157003596889338 
755	 0,15722202346817 
756	 0,157325123501055 
757	 0,157544176671592 
758	 0,157805508308833 
759	 0,15790505679934 
760	 0,157852181422366 
761	 0,157759398497895 
762	 0,158106134746366 
763	 0,15856548844914 
764	 0,158801798784549 
765	 0,158874046115198 
766	 0,158855981207004 
767	 0,158873211865683 
768	 0,159144831145976 
769	 0,159613891347013 
770	 0,159329817767127 
771	 0,159081493123454 
772	 0,159854941014154 
773	 0,160259327034768 
774	 0,160215510529479 
775	 0,160557304754785 
776	 0,160734827464146 
777	 0,160517527661252 
778	 0,160316196699198 
779	 0,160349608079768 
780	 0,160857867104504 
781	 0,161112717023079 
782	 0,161018777437008 
783	 0,161036169356811 
784	 0,161078664940603 
785	 0,161100576584591 
786	 0,161163335601552 
787	 0,161294940446755 
788	 0,161532293870169 
789	 0,161749969319824 
790	 0,161923974938759 
791	 0,162175822325812 
792	 0,16231963246249 
793	 0,16223845275163 
794	 0,162338369444284 
795	 0,162615692043292 
796	 0,162941045476006 
797	 0,163008695950148 
798	 0,162818390722988 
799	 0,162936973812989 
800	 0,163199980944363 
801	 0,163412238192272 
802	 0,16345016888213 
803	 0,163377676145995 
804	 0,163445338595446 
805	 0,163371461836299 
806	 0,163225757852938 
807	 0,163950577804132 
808	 0,164641984559349 
809	 0,16431113766124 
810	 0,163976120140897 
811	 0,163962058425207 
812	 0,164576240349725 
813	 0,164975946531668 
814	 0,164839155512425 
815	 0,164734301708564 
816	 0,164707568395902 
817	 0,164756081747473 
818	 0,165008271134403 
819	 0,165386597343747 
820	 0,165648606581434 
821	 0,165594410262581 
822	 0,165234679548135 
823	 0,165294775358062 
824	 0,165639341806856 
825	 0,165987159513301 
826	 0,166014811425164 
827	 0,165793124444428 
828	 0,165820514662833 
829	 0,166018165907932 
830	 0,166252354473293 
831	 0,165829350841527 
832	 0,165449296009413 
833	 0,166140793099165 
834	 0,166489346988684 
835	 0,166333749833807 
836	 0,166370686846711 
837	 0,166508220716298 
838	 0,166695095504819 
839	 0,166883632567399 
840	 0,166869197595617 
841	 0,166384182535496 
842	 0,16700855260306 
843	 0,168270939642605 
844	 0,167212785658362 
845	 0,166298506418757 
846	 0,166764182913623 
847	 0,166979794956635 
848	 0,166792147750028 
849	 0,166245992544211 
850	 0,166554255432886 
851	 0,167529103396772 
852	 0,167542915864371 
853	 0,167080591582237 
854	 0,166577874451448 
855	 0,167121861623395 
856	 0,16797431720481 
857	 0,167970721207815 
858	 0,167350560152568 
859	 0,166593731873117 
860	 0,167048198234881 
861	 0,167448202196014 
862	 0,167230316246993 
863	 0,167402424810041 
864	 0,16765708676836 
865	 0,167480305122611 
866	 0,167558567943943 
867	 0,167773325224698 
868	 0,167177726123147 
869	 0,167024339465004 
870	 0,167741526783334 
871	 0,168002371258049 
872	 0,167844385561517 
873	 0,167483454704806 
874	 0,167117435347318 
875	 0,166985127507911 
876	 0,167626395612453 
877	 0,167892436377833 
878	 0,16744445425034 
879	 0,167570511703327 
880	 0,167585070175691 
881	 0,166745942471073 
882	 0,167056956553755 
883	 0,168267951829251 
884	 0,168726319447456 
885	 0,168714789076998 
886	 0,168410786716513 
887	 0,168439252556795 
888	 0,168678184237645 
889	 0,168928400614993 
890	 0,16863508913179 
891	 0,168185769946483 
892	 0,168658592402981 
893	 0,169049715827564 
894	 0,169107692606647 
895	 0,169259684823378 
896	 0,169546185221949 
897	 0,169890408221941 
898	 0,169344194171899 
899	 0,168447267152971 
900	 0,168383560709294 
901	 0,168662843226293 
902	 0,169031536317714 
903	 0,168993969766064 
904	 0,16926393544037 
905	 0,170147352449532 
906	 0,17051345007178 
907	 0,170227690032127 
908	 0,169336797345947 
909	 0,168834126300383 
910	 0,168865873396817 
911	 0,168991662453477 
912	 0,168862533997142 
913	 0,168445919426489 
914	 0,16867581811812 
915	 0,169335794437715 
916	 0,170024844513364 
917	 0,169478557565268 
918	 0,168610831346608 
919	 0,17059741374012 
920	 0,171411772023733 
921	 0,170076042063068 
922	 0,169113684138999 
923	 0,168872185526472 
924	 0,169442017992115 
925	 0,169510372807443 
926	 0,169331275099576 
927	 0,169771305315169 
928	 0,170368582548471 
929	 0,170742499949896 
930	 0,170024021169302 
931	 0,169345407865099 
932	 0,169381508163959 
933	 0,16965984783868 
934	 0,17002036554337 
935	 0,170297964846392 
936	 0,169520280618587 
937	 0,168484403649641 
938	 0,170111620127232 
939	 0,171109282063825 
940	 0,17055446597455 
941	 0,17084466056298 
942	 0,171100618154329 
943	 0,170493664289475 
944	 0,169846593549145 
945	 0,169463674444947 
946	 0,16964298095866 
947	 0,169634294054938 
948	 0,169316606584266 
949	 0,169133729621102 
950	 0,169134509333609 
951	 0,169174516631291 
952	 0,168017466053629 
953	 0,167055803291888 
954	 0,167988566515801 
955	 0,167858787863394 
956	 0,166781179761109 
957	 0,166596064269951 
958	 0,167274874059342 
959	 0,168459345093624 
960	 0,168431416335248 
961	 0,168095463273204 
962	 0,168018540578008 
963	 0,166158169178445 
964	 0,164679490058854 
965	 0,167165572472507 
966	 0,168658228329357 
967	 0,168214329727501 
968	 0,166927949438802 
969	 0,166400033085246 
970	 0,167332646348952 
971	 0,169037530126434 
972	 0,169644066544252 
973	 0,167829502110592 
974	 0,167924064206557 
975	 0,168966315535189 
976	 0,167861161927888 
977	 0,16782291748199 
978	 0,169085458052439 
979	 0,169511672977942 
980	 0,169035878680256 
981	 0,167935605371829 
982	 0,168238959398566 
983	 0,168531283830015 
984	 0,167416422637109 
985	 0,167948057459974 
986	 0,169356946886978 
987	 0,169165151616057 
988	 0,168036122837553 
989	 0,166705430196964 
990	 0,16687029252255 
991	 0,168607251130325 
992	 0,171042164954393 
993	 0,168984741836897 
994	 0,167024758466142 
995	 0,16993345109488 
996	 0,169917398173889 
997	 0,168739429685831 
998	 0,172647760027741 
999	 0,172559068131385 
1000	 0,168311604558265 
1001	 0,168759988715858 
1002	 0,170400595281905 
1003	 0,171504998122049 
1004	 0,172742161183261 
1005	 0,173762130589322 
1006	 0,174127185484019 
1007	 0,172864195112997 
1008	 0,170409304101222 
1009	 0,167742800036341 
1010	 0,168466814765871 
1011	 0,171766170079662 
1012	 0,171314620108771 
1013	 0,172011602421517 
1014	 0,175076181228657 
1015	 0,175713051010542 
1016	 0,174528118603722 
1017	 0,17239274513471 
1018	 0,169976287610105 
1019	 0,168538451942303 
1020	 0,169531684316531 
1021	 0,170456846009919 
1022	 0,171816954123238 
1023	 0,177319950171222 
1024	 0,179556086386208 
1025	 0,176818922137451 
1026	 0,174182540707494 
1027	 0,172756520992195 
1028	 0,173169476533995 
1029	 0,174499547899529 
1030	 0,174162763637089 
1031	 0,169923114044384 
1032	 0,171084075827424 
1033	 0,174788272303918 
1034	 0,171625599473721 
1035	 0,168810816866411 
1036	 0,169417264473288 
1037	 0,177658553038584 
1038	 0,179430427896525 
1039	 0,171101916415372 
1040	 0,172439333185377 
1041	 0,173272887460521 
1042	 0,166322980398737 
1043	 0,169830689732434 
1044	 0,177159752121144 
1045	 0,176175694803111 
1046	 0,17900530100146 
1047	 0,182878883490985 
1048	 0,175845759477668 
1049	 0,169560731191839 
1050	 0,168067886795763 
1051	 0,170842016847585 
1052	 0,172583200919327 
1053	 0,171240333644738 
1054	 0,172887964458911 
1055	 0,174284040325363 
1056	 0,172770760656925 
1057	 0,174397652309221 
1058	 0,17346287229113 
1059	 0,162026541937252 
1060	 0,166735590945272 
1061	 0,180723574461179 
1062	 0,177120408766081 
1063	 0,16760573890719 
1064	 0,160228603860704 
1065	 0,170970143190597 
1066	 0,178970607370305 
1067	 0,176382349702876 
1068	 0,179511243389878 
1069	 0,180014017358984 
1070	 0,172433569011494 
1071	 0,167656731638203 
1072	 0,166743874724032 
1073	 0,16935204114512 
1074	 0,176522306186565 
1075	 0,186956868756396 
