Wavelength	NEUF00549.asd
325	 0,386102955568604 
326	 0,286940518091211 
327	 0,122821374171787 
328	 8,46641571726924E-02 
329	 0,168740488563731 
330	 0,289737592438755 
331	 0,402802148214999 
332	 0,312619583529521 
333	 0,182842050553157 
334	 0,249209686965339 
335	 0,311062989750982 
336	 0,308795506525255 
337	 0,247681591250939 
338	 0,194781174337848 
339	 0,201754577237013 
340	 0,204375560306186 
341	 0,202654471162025 
342	 0,219069041684398 
343	 0,22705687479019 
344	 0,222506591721635 
345	 0,19958850020908 
346	 0,191545336642456 
347	 0,223456333894897 
348	 0,212791678680892 
349	 0,163668314417805 
350	 0,136174665012702 
351	 0,12386852483542 
352	 0,120709002610425 
353	 0,113350264374037 
354	 0,116365884257252 
355	 0,147940065925564 
356	 0,140768801497899 
357	 0,109862622263021 
358	 0,135998843466047 
359	 0,147155949993383 
360	 0,121448295556598 
361	 0,140328352739244 
362	 0,174059213246582 
363	 0,175909394889355 
364	 0,154182414333182 
365	 0,130920680518556 
366	 0,163880764904387 
367	 0,187679213471953 
368	 0,164341551179296 
369	 0,154946327758921 
370	 0,156959427314124 
371	 0,147968257855986 
372	 0,145216810884606 
373	 0,151216795251876 
374	 0,158222453087212 
375	 0,156736644025539 
376	 0,142058255139817 
377	 0,143416920399282 
378	 0,157343244044113 
379	 0,165090782450882 
380	 0,185998387147577 
381	 0,213584024825951 
382	 0,20304093049087 
383	 0,180061157238356 
384	 0,169445842633342 
385	 0,167595312572306 
386	 0,172519316298557 
387	 0,181453973826757 
388	 0,178697517826956 
389	 0,163834498266806 
390	 0,17392617158898 
391	 0,183980656566052 
392	 0,161563734431406 
393	 0,158692266831321 
394	 0,174648278220301 
395	 0,175891349565643 
396	 0,168054505217799 
397	 0,157104375904034 
398	 0,160234224355453 
399	 0,165227607420121 
400	 0,151066844826759 
401	 0,149401150928638 
402	 0,162119404765781 
403	 0,16648138964318 
404	 0,16753883803742 
405	 0,168599222101866 
406	 0,164283747567652 
407	 0,156815311426255 
408	 0,151177738834678 
409	 0,14896754547215 
410	 0,149973252929236 
411	 0,150809600770327 
412	 0,150091961238665 
413	 0,147243729953374 
414	 0,152542151626843 
415	 0,161396753217614 
416	 0,157923094827555 
417	 0,155302967806061 
418	 0,157612347212335 
419	 0,153724951207858 
420	 0,150700995515374 
421	 0,158229334228995 
422	 0,156466736424976 
423	 0,147890149584425 
424	 0,156656091243128 
425	 0,161274001124303 
426	 0,150672184373144 
427	 0,149976154482916 
428	 0,154683981814285 
429	 0,150538873740384 
430	 0,151446886498019 
431	 0,15810705555967 
432	 0,155984533704081 
433	 0,152391810066428 
434	 0,154102222885238 
435	 0,155001062003136 
436	 0,155134852392059 
437	 0,157805147268969 
438	 0,158210550198162 
439	 0,155239386936471 
440	 0,154733079590933 
441	 0,154805088635351 
442	 0,152428134638014 
443	 0,151389314315323 
444	 0,152528111239129 
445	 0,155499116731051 
446	 0,158064535608215 
447	 0,158879830540424 
448	 0,159629987949458 
449	 0,160120886518362 
450	 0,159508228599349 
451	 0,159199492760899 
452	 0,159234007548143 
453	 0,157319706168668 
454	 0,156162269872408 
455	 0,158193677333685 
456	 0,158844818938809 
457	 0,158625005219259 
458	 0,161627921589029 
459	 0,163134475388882 
460	 0,161499452497615 
461	 0,160059497754021 
462	 0,158786976610037 
463	 0,157174122462805 
464	 0,157508629135614 
465	 0,159262676444346 
466	 0,158690218850135 
467	 0,157645733351647 
468	 0,157411280556938 
469	 0,157885237859298 
470	 0,158699525968055 
471	 0,15921811419189 
472	 0,159281264512378 
473	 0,158832591022004 
474	 0,158248384638567 
475	 0,156753225718373 
476	 0,153817861957205 
477	 0,155767425882037 
478	 0,160551821240688 
479	 0,159126432699818 
480	 0,157323575320328 
481	 0,157771641737158 
482	 0,158926065677648 
483	 0,159252695633607 
484	 0,156633636751521 
485	 0,157076976543494 
486	 0,160456760377031 
487	 0,160065217657264 
488	 0,157988522173351 
489	 0,156158433509847 
490	 0,156864528003385 
491	 0,158736950154074 
492	 0,157682119058864 
493	 0,156787749658442 
494	 0,157089805013601 
495	 0,158444506134949 
496	 0,158860270293302 
497	 0,156224864853429 
498	 0,155660926132511 
499	 0,157289531625169 
500	 0,157748995892541 
501	 0,157487346922238 
502	 0,156900816350403 
503	 0,15737609007774 
504	 0,158331155073419 
505	 0,15841004738396 
506	 0,158923397091273 
507	 0,159631940123667 
508	 0,15775965351946 
509	 0,156287463658734 
510	 0,157863161722897 
511	 0,159444641199653 
512	 0,160078260514756 
513	 0,158855582998261 
514	 0,157929656388589 
515	 0,158321008892496 
516	 0,159666938072406 
517	 0,160841682903022 
518	 0,160422286895805 
519	 0,159401760049777 
520	 0,158319172455967 
521	 0,157833704872114 
522	 0,157930882146417 
523	 0,158511676946372 
524	 0,158771134048391 
525	 0,158766888459454 
526	 0,158952921992485 
527	 0,159255992539962 
528	 0,159632514163319 
529	 0,159989540152643 
530	 0,160068632074952 
531	 0,159605954817222 
532	 0,159520884714858 
533	 0,159824547886663 
534	 0,15980113582063 
535	 0,159849928789426 
536	 0,160103237148602 
537	 0,159578904717216 
538	 0,158943166667449 
539	 0,159718966538178 
540	 0,159754295273822 
541	 0,15891523382206 
542	 0,159916198187074 
543	 0,161015787231686 
544	 0,160457901739866 
545	 0,159956690095734 
546	 0,159900822410037 
547	 0,160309803049875 
548	 0,160974025768487 
549	 0,161569730489318 
550	 0,16072550792428 
551	 0,159772575241131 
552	 0,161015721034935 
553	 0,161680325315497 
554	 0,161255213278988 
555	 0,161135785233418 
556	 0,161045518642064 
557	 0,160789969790502 
558	 0,161342423803815 
559	 0,162046191796512 
560	 0,160777658128654 
561	 0,15978096726784 
562	 0,159891190299279 
563	 0,160056171738262 
564	 0,160220233731735 
565	 0,160435110639964 
566	 0,160764110205257 
567	 0,160952220689378 
568	 0,15990803420261 
569	 0,159627140259281 
570	 0,161263309585092 
571	 0,161472935106183 
572	 0,160779649973808 
573	 0,161511462833883 
574	 0,162064111431435 
575	 0,162226591571584 
576	 0,163767599425692 
577	 0,165517878702847 
578	 0,166051897484298 
579	 0,166040260768386 
580	 0,166117385182271 
581	 0,167818621981406 
582	 0,169123068751932 
583	 0,168976393458001 
584	 0,169051019236291 
585	 0,169100151916668 
586	 0,168239353874514 
587	 0,167764500981211 
588	 0,168080019326677 
589	 0,168971540622773 
590	 0,169780802853426 
591	 0,169902079448141 
592	 0,169449849924772 
593	 0,168943611158679 
594	 0,169615140789408 
595	 0,170651113965804 
596	 0,171564521803744 
597	 0,17205953638393 
598	 0,171958583206185 
599	 0,171049262039819 
600	 0,170635675853481 
601	 0,170861279469465 
602	 0,170511958016137 
603	 0,170433041942474 
604	 0,171196762677475 
605	 0,171296802687261 
606	 0,170696671214859 
607	 0,169892422434161 
608	 0,169403032693084 
609	 0,169367484493401 
610	 0,169010680453242 
611	 0,168561708029865 
612	 0,168382889961761 
613	 0,168045692914726 
614	 0,167642315710216 
615	 0,167880204889248 
616	 0,167902301234488 
617	 0,16720706247759 
618	 0,166556214426262 
619	 0,16615110750312 
620	 0,166135673182043 
621	 0,16622422862795 
622	 0,16633632903551 
623	 0,166714736702556 
624	 0,166868560271327 
625	 0,166328653098285 
626	 0,166264994000471 
627	 0,166689236779169 
628	 0,166871645769282 
629	 0,166949855029526 
630	 0,166969235865159 
631	 0,166802058121037 
632	 0,166802077631009 
633	 0,167560915089398 
634	 0,168032666704383 
635	 0,168186320057082 
636	 0,169382515657174 
637	 0,170261386456962 
638	 0,169757367012744 
639	 0,169996406721807 
640	 0,170847917756027 
641	 0,170957974017533 
642	 0,17104006094837 
643	 0,17133173941126 
644	 0,171592552210315 
645	 0,171758825102812 
646	 0,171774242355538 
647	 0,172019937693227 
648	 0,172356291698742 
649	 0,171978186314148 
650	 0,171451772324964 
651	 0,171160481690899 
652	 0,170915923820005 
653	 0,170525575562205 
654	 0,169649824378974 
655	 0,168633623885638 
656	 0,167776415157226 
657	 0,167945745324039 
658	 0,16769290673569 
659	 0,165573679992683 
660	 0,164393444033793 
661	 0,164289556654663 
662	 0,163786116101797 
663	 0,163238651994322 
664	 0,162783001764391 
665	 0,162334867693617 
666	 0,161858036202032 
667	 0,161299299350665 
668	 0,160941569428609 
669	 0,160743236073877 
670	 0,160181882930651 
671	 0,159635248468479 
672	 0,159425243630413 
673	 0,159528049387566 
674	 0,159678601467837 
675	 0,159214988022402 
676	 0,159046775498038 
677	 0,159351192403511 
678	 0,159033578906849 
679	 0,158704703597066 
680	 0,159175324552279 
681	 0,159678871415316 
682	 0,160049355599272 
683	 0,160324383410392 
684	 0,160915533199498 
685	 0,161934559180775 
686	 0,162023716363568 
687	 0,1621080788552 
688	 0,164169911000385 
689	 0,165847608990333 
690	 0,166791539864995 
691	 0,168748095901919 
692	 0,171334306982489 
693	 0,174165875719726 
694	 0,177792461045357 
695	 0,182036284027713 
696	 0,186125687355238 
697	 0,190857194757897 
698	 0,196469141892122 
699	 0,202275130174999 
700	 0,208342138626992 
701	 0,214805525303491 
702	 0,22170150086639 
703	 0,228894667045099 
704	 0,23599784541771 
705	 0,242979256880285 
706	 0,249778768324927 
707	 0,256196399507485 
708	 0,262448434152306 
709	 0,268979616649205 
710	 0,275165760082656 
711	 0,280865994279654 
712	 0,286488803455178 
713	 0,291660045731755 
714	 0,296075775369416 
715	 0,300636552194851 
716	 0,30534461317761 
717	 0,309807874690925 
718	 0,313744922844964 
719	 0,317071364677154 
720	 0,320219611159988 
721	 0,323104344504444 
722	 0,325568553233822 
723	 0,328303193029782 
724	 0,331221905432676 
725	 0,333433514665703 
726	 0,335440195200978 
727	 0,337495741746527 
728	 0,339017422949946 
729	 0,340303528847952 
730	 0,342002090134426 
731	 0,343604583164101 
732	 0,344956352813819 
733	 0,346096459270837 
734	 0,347135869238019 
735	 0,348180739495158 
736	 0,349315767722566 
737	 0,35047252422164 
738	 0,351523312829738 
739	 0,352054171937712 
740	 0,352130522494131 
741	 0,353112081155912 
742	 0,354216106797117 
743	 0,354433237078567 
744	 0,354887942180015 
745	 0,355625567243876 
746	 0,355902961373058 
747	 0,356473783969107 
748	 0,35761057306025 
749	 0,358202483700346 
750	 0,358505902538216 
751	 0,359118471551814 
752	 0,359813972812436 
753	 0,360398464144721 
754	 0,360320686652706 
755	 0,360396002145216 
756	 0,36116658361444 
757	 0,361710786778964 
758	 0,362045272037491 
759	 0,3625293196088 
760	 0,362823374400349 
761	 0,362934065023919 
762	 0,363388092656858 
763	 0,363923403351312 
764	 0,364266807283499 
765	 0,364467244613308 
766	 0,364629949901705 
767	 0,365026899015756 
768	 0,36529177918802 
769	 0,365363848634062 
770	 0,365774992665104 
771	 0,366315103691745 
772	 0,366686250419025 
773	 0,366921576576433 
774	 0,367149989692033 
775	 0,36781051671272 
776	 0,368207262953234 
777	 0,368043016422137 
778	 0,36796335733517 
779	 0,368179810285116 
780	 0,368881453080714 
781	 0,369271291707947 
782	 0,369243545969447 
783	 0,369239712399981 
784	 0,369581117635823 
785	 0,370357299499785 
786	 0,370351974645844 
787	 0,370062393150317 
788	 0,370688735946364 
789	 0,371258270840263 
790	 0,371510447438609 
791	 0,371671897439767 
792	 0,371726713302394 
793	 0,371704576265628 
794	 0,372008547429576 
795	 0,372602722825718 
796	 0,373324780495932 
797	 0,373540616873694 
798	 0,373246268863552 
799	 0,373603482394311 
800	 0,374162554102487 
801	 0,374453738580344 
802	 0,374768548961879 
803	 0,375069458699999 
804	 0,375129735091533 
805	 0,375245134514756 
806	 0,375530316423491 
807	 0,375934755881649 
808	 0,376280473076485 
809	 0,376387200865823 
810	 0,376326187322568 
811	 0,376331631573 
812	 0,376992046952371 
813	 0,377650745828033 
814	 0,377984175501864 
815	 0,377944570914718 
816	 0,377960336886886 
817	 0,378525792321628 
818	 0,379011897199725 
819	 0,37936848172968 
820	 0,37994811799716 
821	 0,380319219556703 
822	 0,380326737368919 
823	 0,380371132665344 
824	 0,380626446571993 
825	 0,38124360740734 
826	 0,38142992630296 
827	 0,381302820787795 
828	 0,381949417264176 
829	 0,38232650812275 
830	 0,381983204215542 
831	 0,381724486192893 
832	 0,381932540398664 
833	 0,382974759913887 
834	 0,383254473913782 
835	 0,382742850479078 
836	 0,382698927033543 
837	 0,383224410288964 
838	 0,384196301688872 
839	 0,384215537965949 
840	 0,383802177879571 
841	 0,383912252844788 
842	 0,384639261822187 
843	 0,385605368590504 
844	 0,385476900476572 
845	 0,385225057092296 
846	 0,38536311212561 
847	 0,385344420582419 
848	 0,385492169711088 
849	 0,386318203804992 
850	 0,386684887291511 
851	 0,386514845231257 
852	 0,386582049381544 
853	 0,386734037268239 
854	 0,386923531072678 
855	 0,387347970582574 
856	 0,387661368626582 
857	 0,387387273732162 
858	 0,387386131664452 
859	 0,387719972104967 
860	 0,38784828690673 
861	 0,387911897715063 
862	 0,388052004706421 
863	 0,388712700767334 
864	 0,389490750804376 
865	 0,389815012299979 
866	 0,38996607539859 
867	 0,390036880385555 
868	 0,390063994893227 
869	 0,39031482835783 
870	 0,390842376330006 
871	 0,391135413541232 
872	 0,391166992598374 
873	 0,390976033572171 
874	 0,390515803339833 
875	 0,390258533108245 
876	 0,391634130628179 
877	 0,392290216983426 
878	 0,391585395378652 
879	 0,392242432030678 
880	 0,393109009642875 
881	 0,392796293476037 
882	 0,392976812888654 
883	 0,393513652676434 
884	 0,393096504346114 
885	 0,393080662354492 
886	 0,393714176302587 
887	 0,393606165484411 
888	 0,393363262258104 
889	 0,393582686228769 
890	 0,393332562702661 
891	 0,393160121120242 
892	 0,394696342903202 
893	 0,395304316395942 
894	 0,394647293804774 
895	 0,395456474276437 
896	 0,396237111015501 
897	 0,395835810878233 
898	 0,395541788440975 
899	 0,395601520526905 
900	 0,39609580402577 
901	 0,396345298074301 
902	 0,396250189864778 
903	 0,396185081575241 
904	 0,396731309484623 
905	 0,398006001597229 
906	 0,398063031822065 
907	 0,397584005716329 
908	 0,397880359607357 
909	 0,398021287184216 
910	 0,397892796488353 
911	 0,397896346533922 
912	 0,397416993984478 
913	 0,396434872764146 
914	 0,396441245927334 
915	 0,397309457504837 
916	 0,39863315158488 
917	 0,398614084400035 
918	 0,397786886864597 
919	 0,398546857954084 
920	 0,399231255680228 
921	 0,399273909336524 
922	 0,39881411816652 
923	 0,398361664743664 
924	 0,398314999069903 
925	 0,398089984387046 
926	 0,397895556518258 
927	 0,398272648337711 
928	 0,398388937341914 
929	 0,398126017809318 
930	 0,398157385520597 
931	 0,397453640251129 
932	 0,395778023799069 
933	 0,395688038227362 
934	 0,396577830055044 
935	 0,397248416303783 
936	 0,396797168874003 
937	 0,395694038754991 
938	 0,395909454607411 
939	 0,396352437231186 
940	 0,396507134261184 
941	 0,396071819817285 
942	 0,394970133613867 
943	 0,393405062206375 
944	 0,393984987001421 
945	 0,395112720355918 
946	 0,392968396984261 
947	 0,392377928348629 
948	 0,393614951317355 
949	 0,392513583139351 
950	 0,390668847131688 
951	 0,389153320939765 
952	 0,388391054816817 
953	 0,388170785917974 
954	 0,388121528944404 
955	 0,387964774266142 
956	 0,387387144154189 
957	 0,38564317663278 
958	 0,3852876826337 
959	 0,38651909191734 
960	 0,385596856131245 
961	 0,385019754353974 
962	 0,386382981674815 
963	 0,385667776565908 
964	 0,383741345240351 
965	 0,38279412778801 
966	 0,38320422174167 
967	 0,384261132194954 
968	 0,383280526980544 
969	 0,382648964457044 
970	 0,383285457209384 
971	 0,384282228296286 
972	 0,38469884615979 
973	 0,383921596493307 
974	 0,384340385820495 
975	 0,38562005616779 
976	 0,386430273068012 
977	 0,38646901406412 
978	 0,386011651604029 
979	 0,386584884691882 
980	 0,386279682470284 
981	 0,38469889535659 
982	 0,385126187592673 
983	 0,386995083371215 
984	 0,389239178643333 
985	 0,389564666956917 
986	 0,38870144384669 
987	 0,389073087784138 
988	 0,387851393369818 
989	 0,385819126613136 
990	 0,388566591375084 
991	 0,390821330459058 
992	 0,390390247099052 
993	 0,392696474080921 
994	 0,394762314109577 
995	 0,393209281275196 
996	 0,390734530879197 
997	 0,389532216049907 
998	 0,392734704420351 
999	 0,394649701616791 
1000	 0,394718987264305 
1001	 0,397886704196146 
1002	 0,398737025958483 
1003	 0,395946315251675 
1004	 0,398925055358072 
1005	 0,401868723132933 
1006	 0,399076992459567 
1007	 0,399070022182111 
1008	 0,400450582746831 
1009	 0,398175933496866 
1010	 0,396960524211514 
1011	 0,397905115470917 
1012	 0,400206374163396 
1013	 0,40333327654586 
1014	 0,40615667936746 
1015	 0,405514618203998 
1016	 0,403643830365384 
1017	 0,402775522400128 
1018	 0,403533077758872 
1019	 0,40425432565621 
1020	 0,402423528962789 
1021	 0,404968121595344 
1022	 0,411262927246439 
1023	 0,415731918972958 
1024	 0,413116112370227 
1025	 0,404656642023751 
1026	 0,404465705913624 
1027	 0,407290496566953 
1028	 0,409415368676096 
1029	 0,412265730052781 
1030	 0,413870593994429 
1031	 0,412254136924254 
1032	 0,411940169478466 
1033	 0,412442196157692 
1034	 0,410788411342482 
1035	 0,410949601818761 
1036	 0,413804126522506 
1037	 0,418760085609662 
1038	 0,420435179294194 
1039	 0,417397079901766 
1040	 0,417300175822508 
1041	 0,417063143192428 
1042	 0,414720302977642 
1043	 0,418345885259045 
1044	 0,423752496910401 
1045	 0,423687350788655 
1046	 0,418759668486946 
1047	 0,41355343829994 
1048	 0,417935445842287 
1049	 0,421699098375895 
1050	 0,42311914495462 
1051	 0,430426605783056 
1052	 0,428597278585875 
1053	 0,415625612792038 
1054	 0,424837810096132 
1055	 0,433181139591212 
1056	 0,42110222237043 
1057	 0,416380882206128 
1058	 0,418987255216329 
1059	 0,423012149259273 
1060	 0,42857222118412 
1061	 0,4308092909516 
1062	 0,420640826670975 
1063	 0,417547157939932 
1064	 0,424795005451585 
1065	 0,431593058516887 
1066	 0,43065092132209 
1067	 0,422060136381817 
1068	 0,427047880543895 
1069	 0,43458667453161 
1070	 0,435348117813703 
1071	 0,430848308501134 
1072	 0,428377604309326 
1073	 0,435827022669031 
1074	 0,44283988877606 
1075	 0,441272483765499 
