Wavelength	NEUF00582.asd
325	 0,316483982514517 
326	 4,49122333546987E-02 
327	-0,087719237923648 
328	 8,31959781398897E-02 
329	 0,15428648727863 
330	 0,184458558470131 
331	 0,184903315530174 
332	 8,78175172349975E-02 
333	 1,77307296583472E-02 
334	 8,23804127605508E-02 
335	 0,101108940796166 
336	 2,04619920272767E-02 
337	-7,47440445909669E-02 
338	-9,89604811347332E-02 
339	-1,61593365459395E-02 
340	 8,00117233294256E-03 
341	 1,95600435364982E-02 
342	 0,162450942644267 
343	 0,222542127432267 
344	 0,183218789355337 
345	 9,93717720518125E-02 
346	 5,38810401795149E-02 
347	 0,101483615020923 
348	 7,05603434466408E-02 
349	-2,28095988527982E-02 
350	-4,20601768368322E-02 
351	 1,44834274506168E-02 
352	 0,105621545306969 
353	 4,30051209459178E-02 
354	-6,05708024799653E-02 
355	-4,80358210482229E-02 
356	-2,34511749602044E-02 
357	-7,09765790238526E-03 
358	 1,26794318659588E-02 
359	 0,018255545827522 
360	 7,24587117790794E-03 
361	 0,020250621068075 
362	 3,15255050877101E-02 
363	 9,79122067886597E-04 
364	 6,40777551707481E-03 
365	 4,57071606893745E-02 
366	 4,97916331887086E-02 
367	 4,27086065006599E-02 
368	 3,83003873310044E-02 
369	 3,25923330654844E-02 
370	 2,74887560383278E-02 
371	 0,024926714015826 
372	 1,66537942661018E-02 
373	 9,46167099868173E-03 
374	 4,08044766820204E-02 
375	 0,060433799585729 
376	 3,36734266222729E-02 
377	 3,27771951915903E-02 
378	 4,73137368306432E-02 
379	 2,89685032880891E-02 
380	 0,01829193836988 
381	 2,61089043873065E-02 
382	 3,75958943720081E-02 
383	 4,39647676572029E-02 
384	 3,85170138626864E-02 
385	 4,17594260842096E-02 
386	 4,84340357845816E-02 
387	 3,41217382770948E-02 
388	 2,19324605115307E-02 
389	 2,13774086792279E-02 
390	 2,37615065446005E-02 
391	 2,73634370249856E-02 
392	 3,07766948469057E-02 
393	 2,99332452552071E-02 
394	 2,75273379222476E-02 
395	 3,52517975255684E-02 
396	 0,037550607710338 
397	 2,76262790162434E-02 
398	 1,79836845006777E-02 
399	 1,32582233030364E-02 
400	 1,86818911424281E-02 
401	 2,01532607680894E-02 
402	 0,019061637084208 
403	 3,59638867224519E-02 
404	 4,93608571934623E-02 
405	 0,04458354836773 
406	 3,32401503483841E-02 
407	 0,023185425064607 
408	 2,65541375767627E-02 
409	 2,61431607341195E-02 
410	 0,018594092679205 
411	 1,32449794212634E-02 
412	 0,012134160986988 
413	 1,64146657151086E-02 
414	 2,41503467160608E-02 
415	 3,19561735663107E-02 
416	 3,41326247024075E-02 
417	 3,28169083799436E-02 
418	 2,92065492328431E-02 
419	 2,37872926377729E-02 
420	 2,20309671273638E-02 
421	 3,02329059103059E-02 
422	 2,98736035918731E-02 
423	 2,14883911797539E-02 
424	 2,08169210470055E-02 
425	 2,36637418000292E-02 
426	 2,67873793158049E-02 
427	 2,58260462931527E-02 
428	 2,32032692975637E-02 
429	 2,41413289749942E-02 
430	 0,026486849720433 
431	 2,82989960522304E-02 
432	 2,38875444317226E-02 
433	 2,03596734411722E-02 
434	 2,37365544248917E-02 
435	 2,40433986643348E-02 
436	 2,16445037341114E-02 
437	 2,18395686195417E-02 
438	 2,40892790796398E-02 
439	 2,71263817502941E-02 
440	 2,42585870586279E-02 
441	 2,05940285460032E-02 
442	 2,32598798401938E-02 
443	 2,35539735454864E-02 
444	 2,17740355760117E-02 
445	 2,63461436417851E-02 
446	 3,01372588222671E-02 
447	 2,90180372182992E-02 
448	 0,02756403033124 
449	 2,70627005138581E-02 
450	 2,87651669440679E-02 
451	 2,95175568636921E-02 
452	 2,83817282950586E-02 
453	 2,58521772046697E-02 
454	 2,51141923152624E-02 
455	 2,86845954109282E-02 
456	 2,75470935268994E-02 
457	 2,37748167285772E-02 
458	 2,77847964820451E-02 
459	 3,09920149614749E-02 
460	 2,99548965887081E-02 
461	 2,74143436633145E-02 
462	 0,025188858176964 
463	 2,52856806948747E-02 
464	 2,69204223419723E-02 
465	 2,91224064984559E-02 
466	 2,99991341500462E-02 
467	 2,83089836414004E-02 
468	 2,39041713608616E-02 
469	 2,31600559528996E-02 
470	 2,49942518779304E-02 
471	 2,51546440541018E-02 
472	 2,61055564155483E-02 
473	 0,028145081846532 
474	 3,00967780518723E-02 
475	 2,94013657591095E-02 
476	 0,024083306208634 
477	 2,48837120324594E-02 
478	 3,02470566574449E-02 
479	 2,98168439159124E-02 
480	 2,79433480984676E-02 
481	 2,69227617264143E-02 
482	 2,86586235939087E-02 
483	 3,01995441907529E-02 
484	 2,68154171986282E-02 
485	 2,69865917030038E-02 
486	 3,09167981058478E-02 
487	 3,05774770154362E-02 
488	 2,84303385750363E-02 
489	 2,66262911073203E-02 
490	 2,62766370344154E-02 
491	 0,027113793033117 
492	 2,82598617275159E-02 
493	 2,78452961580399E-02 
494	 2,59717541591609E-02 
495	 2,75285174836467E-02 
496	 2,91777812382557E-02 
497	 2,68780074810885E-02 
498	 2,67952182587677E-02 
499	 2,88876533059057E-02 
500	 2,86083676050931E-02 
501	 2,81751501656127E-02 
502	 2,87640423648817E-02 
503	 2,94400465979247E-02 
504	 2,97144058237371E-02 
505	 2,88537577088768E-02 
506	 2,88590170411509E-02 
507	 3,01358992150998E-02 
508	 3,17667580256093E-02 
509	 0,032341997398475 
510	 3,08033569032007E-02 
511	 3,05711179000416E-02 
512	 3,11886736183176E-02 
513	 2,94450298263804E-02 
514	 2,85649385010945E-02 
515	 2,96720969799855E-02 
516	 3,04777799116371E-02 
517	 3,04227896066159E-02 
518	 2,90388423718792E-02 
519	 2,91589824479498E-02 
520	 3,08114966724388E-02 
521	 3,12395959613041E-02 
522	 0,031106542661459 
523	 3,09552630345143E-02 
524	 3,09780914134337E-02 
525	 3,11125728112222E-02 
526	 3,10595248955303E-02 
527	 3,12151935610337E-02 
528	 3,16198358280208E-02 
529	 3,17693483730053E-02 
530	 0,031708017812048 
531	 3,15390835038722E-02 
532	 3,19379861179094E-02 
533	 3,26664826985865E-02 
534	 3,24124987671575E-02 
535	 0,032468678153584 
536	 3,33569197237758E-02 
537	 3,26675899003765E-02 
538	 3,13052373705612E-02 
539	 3,15273662898443E-02 
540	 3,14402039504797E-02 
541	 0,030839416261606 
542	 3,14486552672354E-02 
543	 3,24548575213156E-02 
544	 3,29702736074719E-02 
545	 3,28621939068088E-02 
546	 3,24075215583822E-02 
547	 3,24039498458413E-02 
548	 3,27911179963852E-02 
549	 3,33894188336773E-02 
550	 3,30289820373584E-02 
551	 3,24734127649009E-02 
552	 3,31040174320251E-02 
553	 3,37098339779501E-02 
554	 3,40235652498458E-02 
555	 3,46182635997935E-02 
556	 3,45248786760263E-02 
557	 3,31261745926823E-02 
558	 3,33735088554558E-02 
559	 3,46090666778738E-02 
560	 3,36741377665891E-02 
561	 3,33823222264458E-02 
562	 0,034471582709519 
563	 3,43063907266419E-02 
564	 3,34594070587946E-02 
565	 3,29800556014794E-02 
566	 3,34354102483289E-02 
567	 3,44213816267951E-02 
568	 3,38522993201411E-02 
569	 3,33947181844411E-02 
570	 3,41343528365385E-02 
571	 3,45573688984321E-02 
572	 3,46008358469251E-02 
573	 3,46359869733956E-02 
574	 3,47419184107381E-02 
575	 3,49709654611097E-02 
576	 3,52146853644614E-02 
577	 3,57253617538287E-02 
578	 3,67626667154274E-02 
579	 3,71487638334763E-02 
580	 3,69096154109795E-02 
581	 3,70680415588611E-02 
582	 0,037179638728562 
583	 3,70762249264899E-02 
584	 3,74158340511054E-02 
585	 3,78742415720368E-02 
586	 3,77466197293969E-02 
587	 3,75457871332088E-02 
588	 3,74734420213094E-02 
589	 3,76354531561591E-02 
590	 3,78959038448246E-02 
591	 3,81399261278981E-02 
592	 0,038838344346265 
593	 3,96412298915911E-02 
594	 3,93398554318098E-02 
595	 3,92492656930202E-02 
596	 3,98376427656524E-02 
597	 3,98109311152223E-02 
598	 3,93967775381953E-02 
599	 3,91352486014294E-02 
600	 3,89101151075141E-02 
601	 3,87201333417357E-02 
602	 0,038494517097951 
603	 3,87003176110897E-02 
604	 3,95830187145885E-02 
605	 3,95673629185317E-02 
606	 3,89089351070094E-02 
607	 3,88492719680787E-02 
608	 0,039212754528851 
609	 0,039718164330734 
610	 3,89816981778294E-02 
611	 3,78888996522002E-02 
612	 3,76637935522178E-02 
613	 3,78735714709474E-02 
614	 3,83245974611228E-02 
615	 3,87904048233352E-02 
616	 3,89166462638579E-02 
617	 3,84574377431429E-02 
618	 3,74075486970006E-02 
619	 3,64236341515435E-02 
620	 3,67385621789185E-02 
621	 0,037133207494804 
622	 3,72262279052984E-02 
623	 3,73487082222988E-02 
624	 0,037426365925817 
625	 0,037385224682465 
626	 3,76852065304201E-02 
627	 0,038120126958505 
628	 3,77773535775379E-02 
629	 0,03753742933543 
630	 3,78040754988024E-02 
631	 0,037924136343539 
632	 0,037941645335354 
633	 3,80286870833274E-02 
634	 3,85147115674738E-02 
635	 3,92864824068408E-02 
636	 3,94894991140122E-02 
637	 3,94992333436703E-02 
638	 3,96589345692428E-02 
639	 3,98045974386591E-02 
640	 3,99992832054717E-02 
641	 4,04783945441747E-02 
642	 4,08329222485025E-02 
643	 4,09566667419677E-02 
644	 4,14284117401949E-02 
645	 4,16758133712809E-02 
646	 4,09014327172516E-02 
647	 4,09511207762952E-02 
648	 4,18241272168257E-02 
649	 4,17805050494258E-02 
650	 4,15804412982324E-02 
651	 4,17324183505304E-02 
652	 4,21186845640879E-02 
653	 4,21668192698329E-02 
654	 4,06886605103807E-02 
655	 3,96401580557747E-02 
656	 3,94746722537052E-02 
657	 3,86941121211163E-02 
658	 3,79074620158933E-02 
659	 3,77979189986106E-02 
660	 3,74051514137529E-02 
661	 3,68492251339841E-02 
662	 3,71075340991177E-02 
663	 3,73297599382354E-02 
664	 3,70896207396478E-02 
665	 3,67060234371669E-02 
666	 3,63227295840281E-02 
667	 3,60950554228032E-02 
668	 3,59934242333278E-02 
669	 3,59321920902873E-02 
670	 3,55651697000993E-02 
671	 3,53970537386074E-02 
672	 3,57644692009428E-02 
673	 3,55240399670752E-02 
674	 3,50025592413951E-02 
675	 3,55474639734083E-02 
676	 3,56875797949639E-02 
677	 3,51284270725271E-02 
678	 3,54525423749953E-02 
679	 3,60416077148537E-02 
680	 3,60217192135196E-02 
681	 3,60187004391725E-02 
682	 3,62127691298066E-02 
683	 3,67130895413258E-02 
684	 3,72187290881886E-02 
685	 3,75252831034869E-02 
686	 3,75359565253529E-02 
687	 3,76468637916041E-02 
688	 3,85654465895041E-02 
689	 3,95642543812103E-02 
690	 4,03856554210662E-02 
691	 4,08598261414203E-02 
692	 4,19198667007688E-02 
693	 0,044300217479269 
694	 4,60798098797496E-02 
695	 4,75540735562531E-02 
696	 5,04493370759379E-02 
697	 5,36012878852422E-02 
698	 5,65148024477223E-02 
699	 5,92875408187483E-02 
700	 6,21734727317757E-02 
701	 6,54703063580352E-02 
702	 6,90126002279371E-02 
703	 7,25806629884957E-02 
704	 7,55485125284872E-02 
705	 7,88693864569364E-02 
706	 8,29672892907685E-02 
707	 8,59718101064969E-02 
708	 8,83462844527057E-02 
709	 9,14685718991364E-02 
710	 9,42482067157011E-02 
711	 0,096560432590738 
712	 9,93859596987511E-02 
713	 0,102063103885427 
714	 0,103966836408672 
715	 0,105602008594024 
716	 0,107243195669714 
717	 0,109380069686523 
718	 0,111147977887564 
719	 0,1123017379899 
720	 0,113758656108703 
721	 0,11536690103435 
722	 0,116827771856237 
723	 0,117842212093113 
724	 0,118466600691812 
725	 0,119110044609308 
726	 0,119989799551149 
727	 0,121144822906129 
728	 0,121637029481347 
729	 0,121890896764541 
730	 0,122890525422978 
731	 0,123927505012516 
732	 0,124718524310688 
733	 0,125034361747781 
734	 0,125348766226882 
735	 0,126048980783519 
736	 0,12646746481844 
737	 0,126703980995587 
738	 0,127354976912371 
739	 0,127733496887429 
740	 0,127709039089427 
741	 0,128100211258142 
742	 0,128633316823025 
743	 0,128916401737794 
744	 0,128984662617808 
745	 0,128936475442141 
746	 0,129027875190585 
747	 0,12924772193912 
748	 0,129595157240157 
749	 0,130056390437596 
750	 0,130535788773753 
751	 0,130900718137653 
752	 0,13124936818964 
753	 0,131530438159394 
754	 0,131441991164428 
755	 0,13140471564822 
756	 0,131722506858714 
757	 0,132167980111434 
758	 0,132543832880514 
759	 0,132548704428597 
760	 0,132405084132226 
761	 0,132286928682496 
762	 0,132571369748095 
763	 0,132934330273119 
764	 0,133073139206827 
765	 0,133493933116242 
766	 0,134027892812788 
767	 0,134028103653612 
768	 0,133874459621026 
769	 0,133757770471551 
770	 0,133771798932626 
771	 0,134058165670862 
772	 0,134744040411481 
773	 0,134978569386621 
774	 0,134790841481014 
775	 0,13489773222541 
776	 0,135231489988453 
777	 0,13567417946053 
778	 0,135554695023506 
779	 0,135322610260487 
780	 0,135739850784906 
781	 0,136103196347438 
782	 0,136244690778938 
783	 0,136295287364358 
784	 0,136283840444011 
785	 0,136220652019642 
786	 0,135917368413105 
787	 0,135735252977662 
788	 0,136352729710991 
789	 0,136881766003269 
790	 0,137065914271967 
791	 0,137161260757183 
792	 0,137097544688927 
793	 0,136869368526707 
794	 0,137004131960796 
795	 0,137411103596266 
796	 0,137710009623841 
797	 0,137925971119743 
798	 0,138055675232411 
799	 0,138132577776983 
800	 0,138250477788585 
801	 0,13847536478889 
802	 0,138507003145613 
803	 0,138354541369596 
804	 0,138139938072367 
805	 0,138164428106695 
806	 0,138492426466858 
807	 0,138708537169173 
808	 0,138890761777276 
809	 0,139139063453907 
810	 0,138974633292184 
811	 0,138758822132324 
812	 0,139837694723075 
813	 0,140512714743915 
814	 0,140166740630073 
815	 0,139882676993122 
816	 0,13984848805076 
817	 0,140162639538903 
818	 0,140678332274628 
819	 0,141150093070299 
820	 0,141039975022113 
821	 0,140741879160231 
822	 0,140561969189844 
823	 0,141021177992225 
824	 0,141770597912861 
825	 0,142286747140891 
826	 0,142013603947658 
827	 0,141334447982101 
828	 0,141924780020161 
829	 0,14245054957661 
830	 0,142321889448479 
831	 0,142599548228526 
832	 0,142989507393503 
833	 0,142954472001707 
834	 0,142414752337898 
835	 0,14177329373581 
836	 0,142381684651043 
837	 0,142987486619015 
838	 0,14295933793166 
839	 0,143115717845638 
840	 0,143298449499278 
841	 0,143172101295762 
842	 0,143204344361404 
843	 0,143287608081752 
844	 0,142583381854829 
845	 0,142296267593176 
846	 0,142906152281489 
847	 0,142652256063929 
848	 0,142243502207164 
849	 0,14293654195556 
850	 0,143337614799817 
851	 0,143255278917921 
852	 0,143298119620218 
853	 0,143286493676424 
854	 0,143185584185539 
855	 0,143361226380685 
856	 0,143615099943613 
857	 0,143628241041115 
858	 0,143345153092829 
859	 0,14302358042742 
860	 0,143556580817731 
861	 0,143888860843633 
862	 0,143589663164633 
863	 0,143782601883047 
864	 0,144093599937482 
865	 0,143898756536341 
866	 0,143536650607519 
867	 0,143191760624014 
868	 0,143031726526857 
869	 0,143583761204751 
870	 0,144797131229468 
871	 0,144792775663438 
872	 0,144230824624061 
873	 0,144129606016941 
874	 0,144373242500065 
875	 0,144759862262743 
876	 0,144728195203797 
877	 0,144638697717836 
878	 0,144692917750705 
879	 0,145155445427523 
880	 0,145439158466074 
881	 0,144957247107797 
882	 0,144993298680815 
883	 0,145550313592944 
884	 0,145899715602177 
885	 0,146418589762112 
886	 0,146997291844131 
887	 0,146587926315805 
888	 0,145928382729584 
889	 0,14577482054951 
890	 0,145825283476223 
891	 0,14612908272781 
892	 0,146909237263157 
893	 0,14754608995891 
894	 0,147767156447704 
895	 0,147456376308571 
896	 0,147293285023991 
897	 0,14775499689481 
898	 0,148013492530238 
899	 0,147964714998995 
900	 0,147660365795705 
901	 0,147487794511857 
902	 0,147570719376483 
903	 0,147839940365513 
904	 0,148083821564411 
905	 0,148165688119928 
906	 0,148126024916739 
907	 0,1482861150421 
908	 0,149071361040259 
909	 0,149251519906607 
910	 0,14878607993151 
911	 0,148543898770494 
912	 0,148533127789932 
913	 0,148722715839752 
914	 0,148687679603078 
915	 0,14876369028483 
916	 0,149305820952762 
917	 0,14903794084303 
918	 0,148526793040776 
919	 0,150024810896655 
920	 0,150535556930137 
921	 0,149365488464796 
922	 0,148515457269781 
923	 0,148418414908788 
924	 0,149207870507544 
925	 0,149139581808084 
926	 0,148689749593746 
927	 0,149264489232201 
928	 0,14952705117708 
929	 0,149171723409324 
930	 0,148462709066942 
931	 0,148171109126313 
932	 0,148661632109037 
933	 0,149018214608717 
934	 0,149056941941814 
935	 0,148717955813314 
936	 0,148908840904148 
937	 0,149647048473594 
938	 0,150555429943232 
939	 0,150367111359166 
940	 0,148867039799256 
941	 0,147720077588719 
942	 0,147541595552125 
943	 0,148552604292781 
944	 0,148121590093292 
945	 0,147069831765448 
946	 0,147783098305425 
947	 0,148301219820403 
948	 0,148202886418436 
949	 0,148152589719095 
950	 0,147814345790246 
951	 0,147063021073867 
952	 0,146243911828872 
953	 0,145825660991309 
954	 0,146245330750835 
955	 0,146035429934634 
956	 0,145203093413711 
957	 0,144537642116289 
958	 0,144542211217802 
959	 0,145179423123588 
960	 0,145265801005406 
961	 0,145141060500307 
962	 0,145036365511069 
963	 0,144391880610703 
964	 0,143422185657295 
965	 0,14256847883305 
966	 0,142767715496732 
967	 0,143718987595155 
968	 0,143781596595459 
969	 0,143447804838405 
970	 0,143126417285257 
971	 0,143904982446651 
972	 0,144657219245281 
973	 0,144384607188066 
974	 0,144522218370517 
975	 0,1451516064971 
976	 0,145954036026731 
977	 0,147242133227971 
978	 0,148433639768583 
979	 0,147434667860789 
980	 0,145944348674298 
981	 0,145106688544183 
982	 0,145979527304154 
983	 0,146833356863012 
984	 0,145935394858906 
985	 0,14508091111125 
986	 0,144739620251544 
987	 0,145187569593261 
988	 0,144829774721992 
989	 0,143679933314426 
990	 0,143386542454214 
991	 0,144371632020317 
992	 0,146588949223421 
993	 0,148760077482772 
994	 0,148996127905688 
995	 0,145985079654039 
996	 0,146228373185423 
997	 0,149025839480453 
998	 0,15067533819985 
999	 0,150385326800883 
1000	 0,149165770729773 
1001	 0,15212499863949 
1002	 0,15330199056637 
1003	 0,150628609299109 
1004	 0,151068842584501 
1005	 0,152345746632451 
1006	 0,151836331867643 
1007	 0,151338896682037 
1008	 0,151020600431293 
1009	 0,150680305714545 
1010	 0,150062437794923 
1011	 0,149599743575117 
1012	 0,150482148380919 
1013	 0,154172558367029 
1014	 0,159299819762727 
1015	 0,156233480969725 
1016	 0,151563300301363 
1017	 0,151401422875924 
1018	 0,153813526312553 
1019	 0,156382289951208 
1020	 0,15594918240269 
1021	 0,152958583161271 
1022	 0,150058416446985 
1023	 0,154548769504641 
1024	 0,156385343962009 
1025	 0,153879292400122 
1026	 0,156406303464927 
1027	 0,158933961625713 
1028	 0,15806112512989 
1029	 0,155317129125869 
1030	 0,153847058245101 
1031	 0,156599350354562 
1032	 0,155829792352233 
1033	 0,153448479194452 
1034	 0,15631819919008 
1035	 0,15851787655727 
1036	 0,15976984231365 
1037	 0,166102342153506 
1038	 0,165633885181325 
1039	 0,156018419688329 
1040	 0,156840461485211 
1041	 0,157428027172945 
1042	 0,149865829323394 
1043	 0,150439575044815 
1044	 0,156772268441909 
1045	 0,162284064769293 
1046	 0,164247530315127 
1047	 0,162968589748299 
1048	 0,161169517592896 
1049	 0,160512779524034 
1050	 0,161327333879521 
1051	 0,162178763492037 
1052	 0,160551432867198 
1053	 0,156428613070038 
1054	 0,15708410889016 
1055	 0,15807378407278 
1056	 0,155863745603497 
1057	 0,158728438419397 
1058	 0,161836189387377 
1059	 0,157551174344155 
1060	 0,156672382064681 
1061	 0,159653625827433 
1062	 0,162229242245472 
1063	 0,160370754290834 
1064	 0,156647840382699 
1065	 0,166041584780208 
1066	 0,168894164136467 
1067	 0,160484618065693 
1068	 0,16866410843121 
1069	 0,173720598857876 
1070	 0,161664766682628 
1071	 0,150251459055556 
1072	 0,145337652729682 
1073	 0,150580334310955 
1074	 0,154714877912157 
1075	 0,158584983199442 
