Wavelength	NEUF00398.asd
325	 0,10558491550858 
326	-3,94696893027022E-03 
327	-0,106468571742935 
328	-7,03000137563623E-02 
329	 4,29832373265396E-02 
330	 0,109918627561293 
331	 5,51256824133391E-03 
332	 0,108251841892543 
333	 0,251666896485887 
334	 0,140678750123723 
335	 6,87247908905017E-02 
336	 0,103241664023142 
337	 8,97545162448275E-02 
338	 1,75403497454281E-02 
339	-8,51049911689671E-02 
340	-3,28442866009241E-02 
341	 0,112993398505952 
342	 0,144985510770665 
343	 0,113922329193079 
344	 4,84813358207914E-02 
345	 5,26154783623394E-02 
346	 9,25834604666418E-02 
347	 0,119850008151731 
348	 9,98163158513013E-02 
349	 0,045862465950448 
350	 1,34411052500168E-02 
351	 4,00046172457765E-02 
352	 0,111047117616928 
353	 0,110779799325534 
354	 5,67053733685092E-02 
355	-1,59610521233978E-02 
356	 8,79542945664571E-03 
357	 8,97919190582114E-02 
358	 4,96513819387064E-02 
359	 1,98277968379366E-02 
360	 4,90367481641424E-02 
361	 6,13134109569746E-02 
362	 5,78349785417924E-02 
363	 5,35731652116909E-02 
364	 6,29611956028514E-02 
365	 8,13208770232187E-02 
366	 8,36611494991698E-02 
367	 0,087081660225527 
368	 9,83125299608003E-02 
369	 7,44578235907603E-02 
370	 4,24819154968744E-02 
371	 5,09883936316901E-02 
372	 5,73299078631882E-02 
373	 5,41884986473504E-02 
374	 6,44590362682366E-02 
375	 7,07427016727259E-02 
376	 6,06975715383362E-02 
377	 5,51585310442481E-02 
378	 5,67206114937112E-02 
379	 6,21125828225371E-02 
380	 7,61902337427884E-02 
381	 9,51817558510361E-02 
382	 0,106075769310795 
383	 0,100327824836233 
384	 0,071848454130371 
385	 6,71137731146397E-02 
386	 8,14442830124688E-02 
387	 7,61872120286039E-02 
388	 7,12038589110568E-02 
389	 7,32575382425605E-02 
390	 7,48834049781163E-02 
391	 7,70197971012226E-02 
392	 0,081153051493211 
393	 8,05954202401113E-02 
394	 7,57978879127622E-02 
395	 0,070762697835772 
396	 7,23921100020473E-02 
397	 0,081065657696274 
398	 7,29265028617203E-02 
399	 6,27363384006447E-02 
400	 7,59253025258048E-02 
401	 8,36483023847916E-02 
402	 8,07778224755305E-02 
403	 7,51167498810895E-02 
404	 0,080311034484586 
405	 0,101079236369916 
406	 8,93282804540496E-02 
407	 6,27692566838369E-02 
408	 6,96922602155184E-02 
409	 7,72092078341081E-02 
410	 7,61781088813016E-02 
411	 6,98602816195196E-02 
412	 6,50634975470736E-02 
413	 0,067823669505533 
414	 7,64276545723983E-02 
415	 0,085479121569499 
416	 8,35278146067909E-02 
417	 8,03254792142581E-02 
418	 7,97885585326326E-02 
419	 7,86131803793147E-02 
420	 7,82742710085243E-02 
421	 8,08613370042761E-02 
422	 7,94783500852631E-02 
423	 0,074914672930811 
424	 0,074656310276971 
425	 7,59512477818772E-02 
426	 0,077104213436033 
427	 7,90470019210178E-02 
428	 8,08668526644393E-02 
429	 8,08089959275558E-02 
430	 8,22985618823572E-02 
431	 0,08451988949779 
432	 7,93033050790655E-02 
433	 7,42798686565167E-02 
434	 7,63463364182292E-02 
435	 8,10398393261638E-02 
436	 8,47800634033124E-02 
437	 8,05760476278902E-02 
438	 0,078149537859623 
439	 8,04506646045854E-02 
440	 7,90658555460571E-02 
441	 7,74085058964924E-02 
442	 8,06494610340579E-02 
443	 8,06303975966954E-02 
444	 7,79081064278041E-02 
445	 8,11271785557754E-02 
446	 0,08472180647307 
447	 8,53609457225375E-02 
448	 8,60829274709252E-02 
449	 8,61556769244485E-02 
450	 8,31678872471084E-02 
451	 8,35627269411436E-02 
452	 8,71960013581016E-02 
453	 8,36170262852225E-02 
454	 7,95738842149826E-02 
455	 8,16373836656833E-02 
456	 8,31616964977425E-02 
457	 8,41821787963472E-02 
458	 8,87543520880567E-02 
459	 9,06881163440475E-02 
460	 8,80151952508849E-02 
461	 8,65401174968571E-02 
462	 8,55096244468029E-02 
463	 8,30987455583162E-02 
464	 8,40895231182568E-02 
465	 8,80406160428144E-02 
466	 8,96841450096755E-02 
467	 8,88997182413733E-02 
468	 0,086076806636102 
469	 8,53888138445518E-02 
470	 8,67251281531869E-02 
471	 8,87250756572474E-02 
472	 8,86295963098735E-02 
473	 8,63977777549622E-02 
474	 8,71821964737042E-02 
475	 8,75527133238575E-02 
476	 8,41743183551119E-02 
477	 8,50874492986279E-02 
478	 8,90453355292336E-02 
479	 8,82572582921849E-02 
480	 8,66258789386714E-02 
481	 8,60994069144978E-02 
482	 0,087349583005934 
483	 8,80195041797986E-02 
484	 0,084445599902706 
485	 8,41050959992147E-02 
486	 8,74538832334538E-02 
487	 8,82607512801621E-02 
488	 0,08751721196189 
489	 8,62747682992496E-02 
490	 8,68946445291268E-02 
491	 8,84920349164156E-02 
492	 8,82541684147752E-02 
493	 8,69644749569337E-02 
494	 8,53380802784793E-02 
495	 8,58229270873308E-02 
496	 0,08672404401401 
497	 8,59718822595592E-02 
498	 8,71931845804654E-02 
499	 0,089782952655753 
500	 8,97346883452544E-02 
501	 8,83945292672413E-02 
502	 8,68559164560263E-02 
503	 0,087176023402646 
504	 8,87926430164677E-02 
505	 9,02654480910863E-02 
506	 0,091741892541242 
507	 0,092648387234934 
508	 9,07498144207147E-02 
509	 8,92084338431222E-02 
510	 9,07795121373036E-02 
511	 9,16574215072243E-02 
512	 9,12713926706227E-02 
513	 8,98385750773407E-02 
514	 0,089730565835763 
515	 9,16937858360452E-02 
516	 9,31530363318641E-02 
517	 9,32912853496765E-02 
518	 9,13476389630772E-02 
519	 9,10435776280929E-02 
520	 9,27910109298453E-02 
521	 9,42452052184472E-02 
522	 9,47931950744873E-02 
523	 9,41333404741198E-02 
524	 9,39094660842288E-02 
525	 9,41623150756247E-02 
526	 9,43182894695292E-02 
527	 9,43257401455541E-02 
528	 0,094337186262954 
529	 9,55671551995517E-02 
530	 9,62994337076716E-02 
531	 9,45595682356246E-02 
532	 9,38675919814821E-02 
533	 9,45104750741374E-02 
534	 9,46151925948409E-02 
535	 9,47452108790087E-02 
536	 9,51354461148688E-02 
537	 9,50522314311381E-02 
538	 0,094739457150773 
539	 9,47684415563747E-02 
540	 9,52483371433892E-02 
541	 9,59624768040437E-02 
542	 0,095728910679615 
543	 9,53978181571804E-02 
544	 9,58191659256644E-02 
545	 9,59436201491935E-02 
546	 9,59329217569272E-02 
547	 9,68706790976646E-02 
548	 9,77251625783629E-02 
549	 9,78766944497924E-02 
550	 9,67926150203585E-02 
551	 9,57689133614199E-02 
552	 9,68696077023209E-02 
553	 9,78172536334456E-02 
554	 9,80277213252864E-02 
555	 9,81073283682563E-02 
556	 9,79811957951644E-02 
557	 9,76214877502003E-02 
558	 9,75798647808447E-02 
559	 9,76877865256889E-02 
560	 9,72188799698641E-02 
561	 9,68430572643252E-02 
562	 0,096871094100124 
563	 9,75274975199551E-02 
564	 9,77412142791933E-02 
565	 9,61090990680934E-02 
566	 9,57077349082265E-02 
567	 9,67327803936515E-02 
568	 9,68297292419932E-02 
569	 9,68171315943506E-02 
570	 9,72627145388695E-02 
571	 9,78798007396426E-02 
572	 0,09856487583354 
573	 9,92207278361169E-02 
574	 9,96592952289783E-02 
575	 9,99236536183193E-02 
576	 0,100532826622535 
577	 0,101628822206509 
578	 0,103282702456111 
579	 0,103900885548839 
580	 0,103662753413244 
581	 0,104384261900471 
582	 0,105140660884138 
583	 0,105519132624179 
584	 0,10660060292851 
585	 0,107650213268728 
586	 0,107151467405963 
587	 0,106656129379534 
588	 0,106756230216303 
589	 0,107700922759458 
590	 0,108501275669802 
591	 0,108287807375589 
592	 0,108577241472711 
593	 0,109249534396695 
594	 0,109020123368032 
595	 0,109342003374577 
596	 0,110630593164856 
597	 0,110908735949059 
598	 0,110500235353153 
599	 0,110201931587918 
600	 0,110146880092957 
601	 0,110250912504589 
602	 0,109812323039568 
603	 0,109605509216658 
604	 0,110153636809511 
605	 0,110034689303151 
606	 0,109350093679035 
607	 0,108876486193803 
608	 0,108815647156536 
609	 0,109123075129201 
610	 0,108852507744609 
611	 0,108326052574222 
612	 0,108045012527246 
613	 0,107528135897246 
614	 0,106826393248595 
615	 0,106375425289177 
616	 0,106340737698118 
617	 0,106695190202289 
618	 0,106129371113422 
619	 0,105307422308617 
620	 0,10595743532054 
621	 0,106368705412476 
622	 0,106077231309532 
623	 0,105755515887023 
624	 0,105566448544236 
625	 0,105641857624763 
626	 0,106097431584146 
627	 0,106614895034197 
628	 0,106250298827218 
629	 0,105797596442352 
630	 0,105732237137068 
631	 0,106173252061426 
632	 0,106886977487057 
633	 0,10748669619948 
634	 0,10793389812929 
635	 0,108247237909007 
636	 0,108628887827971 
637	 0,109054323143958 
638	 0,109510006935495 
639	 0,11019966695764 
640	 0,110916508906834 
641	 0,111083312472774 
642	 0,111087535470506 
643	 0,11120736830895 
644	 0,112077446392757 
645	 0,112983384999606 
646	 0,112942428565264 
647	 0,1128375276801 
648	 0,112767093002513 
649	 0,112179418104912 
650	 0,111907271462695 
651	 0,112356281750373 
652	 0,111832704538192 
653	 0,110591377036561 
654	 0,109638416813814 
655	 0,108858116681913 
656	 0,108159676467381 
657	 0,10705733038768 
658	 0,105906792274023 
659	 0,105093412049599 
660	 0,104293884412841 
661	 0,10345862499729 
662	 0,102654555236467 
663	 0,101812543195367 
664	 0,100940013941515 
665	 0,100314865422263 
666	 0,099834668511941 
667	 9,92956859537175E-02 
668	 9,87336875979924E-02 
669	 9,81305493517925E-02 
670	 9,73141794247118E-02 
671	 9,68750611629773E-02 
672	 9,71895504678226E-02 
673	 9,68170375919727E-02 
674	 9,59901342324914E-02 
675	 9,57871574206735E-02 
676	 9,62224746349304E-02 
677	 9,70729646824472E-02 
678	 9,69110382733293E-02 
679	 9,64879774728701E-02 
680	 9,68304216267946E-02 
681	 9,74104884013075E-02 
682	 9,80299832943016E-02 
683	 9,83670090140385E-02 
684	 9,90774648681569E-02 
685	 0,100449246926038 
686	 0,101363091691705 
687	 0,102223935039024 
688	 0,103981498774907 
689	 0,106202936577269 
690	 0,10865264079973 
691	 0,110873458473929 
692	 0,11329508149951 
693	 0,116323756914335 
694	 0,119855579474235 
695	 0,123985364187435 
696	 0,129003566871193 
697	 0,134240622477867 
698	 0,139313561615168 
699	 0,143934604574557 
700	 0,148799667149654 
701	 0,154785475155734 
702	 0,160923724661212 
703	 0,166893540724424 
704	 0,17261040203243 
705	 0,178060003997972 
706	 0,183239250798464 
707	 0,188258315110955 
708	 0,193101346106441 
709	 0,197692140713751 
710	 0,201974889675112 
711	 0,205997722869798 
712	 0,210097291427827 
713	 0,213812121376656 
714	 0,216748962768191 
715	 0,219690879027166 
716	 0,222746099613741 
717	 0,225806087501761 
718	 0,228583469130233 
719	 0,230922519146736 
720	 0,232749980719191 
721	 0,234527844580243 
722	 0,236840859538711 
723	 0,238653667740911 
724	 0,239965885232135 
725	 0,241704341105258 
726	 0,243237150345988 
727	 0,244184259398431 
728	 0,244829643883387 
729	 0,245515417523845 
730	 0,246751116718978 
731	 0,248018048194722 
732	 0,249099051999952 
733	 0,249902268897114 
734	 0,250441145102061 
735	 0,250775122804287 
736	 0,251402415513728 
737	 0,252294914577307 
738	 0,253208767874165 
739	 0,253677521228283 
740	 0,253690063711043 
741	 0,254404456606042 
742	 0,255238315776971 
743	 0,255423447138052 
744	 0,255621168428453 
745	 0,255943420871872 
746	 0,256232699588493 
747	 0,256589996578256 
748	 0,25705674971779 
749	 0,257537545665459 
750	 0,257969087954344 
751	 0,258273200813474 
752	 0,258655107638268 
753	 0,259108362999302 
754	 0,259404526058074 
755	 0,25954965281834 
756	 0,259590874788548 
757	 0,259877597961526 
758	 0,260388604355087 
759	 0,261007233914566 
760	 0,261268162923163 
761	 0,26111554253309 
762	 0,261108573905806 
763	 0,26132728006138 
764	 0,261810607983258 
765	 0,262524514847632 
766	 0,263100050001884 
767	 0,262627096138314 
768	 0,262175026670613 
769	 0,262249581632117 
770	 0,262925789471897 
771	 0,263647696154604 
772	 0,263769904667192 
773	 0,263971293823047 
774	 0,264317437132367 
775	 0,264533375489767 
776	 0,264686108159482 
777	 0,264800397438047 
778	 0,264780286249853 
779	 0,264867427414308 
780	 0,265421218357951 
781	 0,265776353885624 
782	 0,265808839087449 
783	 0,265768082277122 
784	 0,265858129632939 
785	 0,266180249856694 
786	 0,26629964394459 
787	 0,266375234892691 
788	 0,266804525931109 
789	 0,267203581122141 
790	 0,267479834167931 
791	 0,26782288407707 
792	 0,267969586976714 
793	 0,267771748393614 
794	 0,267976851793362 
795	 0,268500455604435 
796	 0,268914813529178 
797	 0,26906549605032 
798	 0,268989571818163 
799	 0,269220487244775 
800	 0,26956453110702 
801	 0,269797348204801 
802	 0,26969081403656 
803	 0,269532891979352 
804	 0,270180830220714 
805	 0,270774511953491 
806	 0,271012914899406 
807	 0,271171871445443 
808	 0,271397497805924 
809	 0,271800638244559 
810	 0,271700824160556 
811	 0,271370131543834 
812	 0,271906759390729 
813	 0,272756739830646 
814	 0,273523856885414 
815	 0,273393164124209 
816	 0,273061984556829 
817	 0,273432465529199 
818	 0,273928788841247 
819	 0,274419922016381 
820	 0,274922180687119 
821	 0,275350735239817 
822	 0,275613299953023 
823	 0,275418417776901 
824	 0,275302834069128 
825	 0,275962277020911 
826	 0,276299800215575 
827	 0,276317910324314 
828	 0,276982237281576 
829	 0,277313048774498 
830	 0,276957572755951 
831	 0,277229413864856 
832	 0,277693145336677 
833	 0,277570795502997 
834	 0,277500326432787 
835	 0,277645631144363 
836	 0,277989633840596 
837	 0,278412053267315 
838	 0,278823358460445 
839	 0,279213988209515 
840	 0,279401669170521 
841	 0,279150110958552 
842	 0,279268754837888 
843	 0,279791541247839 
844	 0,280076087704356 
845	 0,280336391074694 
846	 0,280644440321064 
847	 0,280676169034801 
848	 0,280763866213974 
849	 0,281404953073571 
850	 0,282096073858852 
851	 0,282631108925684 
852	 0,282902886727749 
853	 0,282759236467636 
854	 0,28230192003247 
855	 0,282701284969548 
856	 0,283520565737512 
857	 0,283980018228443 
858	 0,284071879447518 
859	 0,28390682537579 
860	 0,283848302285371 
861	 0,284094048191853 
862	 0,284677887714451 
863	 0,285000756665013 
864	 0,285207439957028 
865	 0,285576399947221 
866	 0,286089917832491 
867	 0,286574139125299 
868	 0,286496583943133 
869	 0,286480239271924 
870	 0,286826612015253 
871	 0,287416650260822 
872	 0,287718469235695 
873	 0,287151215515261 
874	 0,286694434611068 
875	 0,286667882804546 
876	 0,287242746564919 
877	 0,287984991054222 
878	 0,288574173252978 
879	 0,288473138391655 
880	 0,288604806440496 
881	 0,289906678468194 
882	 0,290230477368715 
883	 0,289951964505163 
884	 0,291308609142777 
885	 0,292377176605806 
886	 0,292445171409151 
887	 0,291645738520763 
888	 0,291227292760892 
889	 0,292214076514432 
890	 0,292323737095304 
891	 0,291955869899248 
892	 0,292923872868626 
893	 0,293844549949319 
894	 0,29425376635418 
895	 0,294208979454739 
896	 0,294241386358426 
897	 0,294727260466403 
898	 0,295005217791549 
899	 0,295160041393587 
900	 0,29551516296492 
901	 0,296028605770106 
902	 0,296633127736761 
903	 0,297164451959379 
904	 0,29745364856242 
905	 0,297460415061425 
906	 0,297668134601751 
907	 0,298104802398827 
908	 0,298704798749354 
909	 0,299235551729655 
910	 0,299527229575444 
911	 0,299372120317314 
912	 0,298745943727014 
913	 0,297904809174849 
914	 0,298162940534737 
915	 0,299059866247129 
916	 0,299908959031564 
917	 0,300353781718175 
918	 0,300521689863854 
919	 0,301074949074897 
920	 0,301048583009942 
921	 0,300443987889515 
922	 0,300842030589586 
923	 0,301547698763003 
924	 0,301864924952923 
925	 0,301501544491704 
926	 0,301099363702335 
927	 0,301886128871117 
928	 0,302697367626444 
929	 0,303033751751193 
930	 0,302392485944543 
931	 0,301988402219127 
932	 0,302435998690415 
933	 0,302441805073592 
934	 0,302588323829201 
935	 0,303726361260078 
936	 0,303448341618909 
937	 0,302252002929868 
938	 0,303123668002205 
939	 0,303732393199142 
940	 0,30344057876716 
941	 0,303783523248083 
942	 0,304056855086064 
943	 0,303642840169954 
944	 0,303653302511464 
945	 0,303556194543686 
946	 0,301967045906217 
947	 0,301914465373101 
948	 0,303421268526326 
949	 0,303275317849091 
950	 0,302555433405847 
951	 0,301859516963756 
952	 0,300702315233882 
953	 0,300061390141855 
954	 0,301023331422812 
955	 0,301133294306518 
956	 0,300267516906975 
957	 0,299405559798939 
958	 0,299651828852071 
959	 0,300797564774503 
960	 0,299693141030994 
961	 0,298881918139944 
962	 0,300001621997475 
963	 0,29890295362392 
964	 0,297268612285568 
965	 0,298473963853472 
966	 0,300146892277844 
967	 0,301250896508277 
968	 0,300476621782552 
969	 0,299971495233116 
970	 0,300499705143872 
971	 0,300461603254182 
972	 0,300621538246315 
973	 0,301673849296476 
974	 0,302477837192007 
975	 0,303101784119501 
976	 0,30403421635596 
977	 0,304734852952372 
978	 0,304917188563988 
979	 0,304075806385143 
980	 0,303493235179145 
981	 0,303870530458451 
982	 0,30512377410954 
983	 0,305753035621394 
984	 0,304491009851355 
985	 0,304293446376452 
986	 0,305617473091642 
987	 0,308345682992698 
988	 0,308318829143607 
989	 0,305791463973785 
990	 0,306390381614003 
991	 0,307945120886239 
992	 0,309279000472022 
993	 0,310816800561296 
994	 0,311622340732411 
995	 0,310866177187158 
996	 0,310489825264537 
997	 0,311166046468418 
998	 0,313458726414655 
999	 0,314165980809901 
1000	 0,313310342564635 
1001	 0,314564867783452 
1002	 0,31645166264532 
1003	 0,317932009807328 
1004	 0,317721460729123 
1005	 0,317197603896507 
1006	 0,317687622874922 
1007	 0,317207262769644 
1008	 0,316536894186479 
1009	 0,317544233215227 
1010	 0,319537889779455 
1011	 0,321653139758057 
1012	 0,321626442690357 
1013	 0,322639696567247 
1014	 0,325039114154979 
1015	 0,322897278818803 
1016	 0,320750418160017 
1017	 0,322479875969922 
1018	 0,324677080984303 
1019	 0,325824308699958 
1020	 0,324577488334685 
1021	 0,325603277221351 
1022	 0,327907001435102 
1023	 0,325123541227084 
1024	 0,324372740484185 
1025	 0,326898885108968 
1026	 0,326420670958219 
1027	 0,326811464491521 
1028	 0,329806197999347 
1029	 0,328265871826751 
1030	 0,32601590996703 
1031	 0,328061595305655 
1032	 0,328897130818657 
1033	 0,328692566495392 
1034	 0,329920863654535 
1035	 0,330968473791653 
1036	 0,332257100174012 
1037	 0,337371923008501 
1038	 0,338144978544258 
1039	 0,332727371391361 
1040	 0,333492980323748 
1041	 0,333913451283999 
1042	 0,329600124642701 
1043	 0,33486536586171 
1044	 0,342002491991162 
1045	 0,338268002543551 
1046	 0,336374502872941 
1047	 0,337918377265344 
1048	 0,340378512230131 
1049	 0,338070233662371 
1050	 0,33218291515442 
1051	 0,335061243719313 
1052	 0,335682229003662 
1053	 0,331218382741335 
1054	 0,339366438876434 
1055	 0,344820971648578 
1056	 0,335201169125315 
1057	 0,332050296125376 
1058	 0,333483941252105 
1059	 0,332433244199237 
1060	 0,331098099493104 
1061	 0,332475372916453 
1062	 0,342584954248814 
1063	 0,343734094039332 
1064	 0,337006343469086 
1065	 0,348564470901853 
1066	 0,349324179428741 
1067	 0,33405199770071 
1068	 0,351252688787336 
1069	 0,362887614982717 
1070	 0,34309930138021 
1071	 0,334876165600711 
1072	 0,335236764579957 
1073	 0,334443955405096 
1074	 0,335033242141964 
1075	 0,338192739985328 
