Wavelength	NEUF00264.asd
325	 0,274796111437333 
326	-6,70872268888664E-02 
327	-0,225604032499304 
328	-2,82605705138627E-02 
329	 4,91607390456436E-02 
330	 5,57182153125741E-02 
331	-1,67448328919531E-02 
332	 2,81040005878815E-02 
333	 0,122150683623789 
334	 0,152818766323878 
335	 9,33270096041637E-02 
336	-5,55029315397294E-02 
337	-9,08181984350879E-02 
338	-5,18228326684931E-02 
339	-1,23180189412936E-02 
340	 5,27722226053376E-03 
341	 6,76500365832107E-03 
342	 2,58036624989023E-03 
343	 0,033433633826423 
344	 9,89322615787918E-02 
345	 8,47941205857211E-02 
346	 4,69621394890107E-02 
347	 5,00994511167871E-02 
348	 4,84413545638035E-02 
349	 3,56099897891355E-02 
350	 1,45032359317224E-02 
351	 1,36290552006275E-02 
352	 3,38191458907257E-02 
353	 3,62846080186519E-02 
354	 1,82827928408049E-02 
355	-1,81830825156581E-02 
356	 6,19804468081214E-04 
357	 5,03727961002449E-02 
358	 2,28070617538731E-02 
359	 9,83436326061063E-03 
360	 0,043842850848119 
361	 5,15109436370594E-02 
362	 3,66031158362998E-02 
363	 1,52577354245284E-02 
364	 2,22187742435997E-02 
365	 5,11936501677284E-02 
366	 5,50784723338154E-02 
367	 0,042433442304099 
368	 1,98025961675727E-02 
369	 1,43789704700667E-02 
370	 2,45491649973878E-02 
371	 4,08577368017336E-02 
372	 3,02202289606831E-02 
373	-2,31188150907366E-03 
374	 3,17257323926763E-03 
375	 1,92631284571959E-02 
376	 2,36866981769075E-02 
377	 2,78037169150671E-02 
378	 2,90234593950039E-02 
379	 1,58436179347735E-02 
380	 2,24392731722408E-02 
381	 5,03457565789879E-02 
382	 5,77229334006318E-02 
383	 4,97995763769012E-02 
384	 3,33641150994287E-02 
385	 2,46441423025396E-02 
386	 2,56543548867236E-02 
387	 0,030164151248079 
388	 3,29266399588702E-02 
389	 3,03119478066508E-02 
390	 1,80046790139544E-02 
391	 8,71973270132789E-03 
392	 0,018063987075681 
393	 2,32611001896252E-02 
394	 2,07028111979502E-02 
395	 1,41110255432162E-02 
396	 1,38544308469227E-02 
397	 2,35912537491684E-02 
398	 2,86453451879428E-02 
399	 2,88388594004471E-02 
400	 2,58434002875511E-02 
401	 2,51689729652319E-02 
402	 0,027312851953832 
403	 2,84039079963817E-02 
404	 2,66916031246936E-02 
405	 2,18221371058662E-02 
406	 2,21742541319479E-02 
407	 2,37483665945246E-02 
408	 1,48473756375077E-02 
409	 1,66968760742659E-02 
410	 2,88120059109656E-02 
411	 1,95308565674998E-02 
412	 5,68311280633756E-03 
413	 4,45291002108619E-03 
414	 0,01360908970595 
415	 2,53170068230724E-02 
416	 2,20068764311921E-02 
417	 1,79320052977431E-02 
418	 1,84930705966103E-02 
419	 1,73841482786254E-02 
420	 1,77660911851117E-02 
421	 2,41284342319598E-02 
422	 2,33361937377537E-02 
423	 1,67036076005059E-02 
424	 1,82098840851929E-02 
425	 2,19648342155624E-02 
426	 2,37111541444522E-02 
427	 2,06018715887284E-02 
428	 1,49693662517322E-02 
429	 1,07057415025886E-02 
430	 1,29861120452431E-02 
431	 0,020476036069689 
432	 2,05586452540149E-02 
433	 1,76308636479115E-02 
434	 1,61765880805714E-02 
435	 1,60319196857543E-02 
436	 1,66424089491804E-02 
437	 1,60951740392222E-02 
438	 1,75665879878575E-02 
439	 2,07744860104382E-02 
440	 1,62727161467415E-02 
441	 1,07280364214592E-02 
442	 1,34790724537334E-02 
443	 1,54364593572333E-02 
444	 1,53251308334244E-02 
445	 1,65334415839672E-02 
446	 1,81871074903129E-02 
447	 1,96725352154246E-02 
448	 2,03948257769115E-02 
449	 2,09962155129085E-02 
450	 2,28962179747395E-02 
451	 2,43220996306676E-02 
452	 2,42028961415005E-02 
453	 2,05466165122957E-02 
454	 1,71538276448596E-02 
455	 0,017605807088147 
456	 1,78141467517213E-02 
457	 1,78849679066394E-02 
458	 2,05696972787775E-02 
459	 2,19534348132748E-02 
460	 0,020714973703408 
461	 1,99742630246865E-02 
462	 2,00492853458815E-02 
463	 2,09488801448305E-02 
464	 1,96772593800067E-02 
465	 1,73673304757428E-02 
466	 2,12802304552625E-02 
467	 2,27194251970653E-02 
468	 1,68343941858746E-02 
469	 1,47975253637322E-02 
470	 1,59644546896931E-02 
471	 1,54561018637825E-02 
472	 1,62710152092934E-02 
473	 1,86053430962294E-02 
474	 2,00892934089702E-02 
475	 1,88229316469061E-02 
476	 1,34693823690614E-02 
477	 0,01256854950692 
478	 1,58695306322727E-02 
479	 1,78054233751859E-02 
480	 1,79283313791955E-02 
481	 1,62412721566539E-02 
482	 1,59466203921412E-02 
483	 1,57174353999471E-02 
484	 1,28686864003483E-02 
485	 1,42969255205703E-02 
486	 1,94660147902102E-02 
487	 1,95050066244797E-02 
488	 1,77653074610217E-02 
489	 1,70101338936262E-02 
490	 1,74772141094508E-02 
491	 1,84133268787387E-02 
492	 1,78011430357199E-02 
493	 1,75785098891757E-02 
494	 1,82628715106135E-02 
495	 1,90547152865434E-02 
496	 1,89508937740211E-02 
497	 0,016967019665342 
498	 1,60923012278263E-02 
499	 1,66174254792656E-02 
500	 0,017150192606002 
501	 1,72565597921935E-02 
502	 1,68160287907973E-02 
503	 1,72598653320519E-02 
504	 1,81695506028975E-02 
505	 1,84501529830217E-02 
506	 1,95083227675227E-02 
507	 2,08553783373948E-02 
508	 1,86613712240328E-02 
509	 1,65029691845481E-02 
510	 1,76115915289378E-02 
511	 1,86178594644685E-02 
512	 1,88810469058781E-02 
513	 0,018496345811803 
514	 1,80875828499148E-02 
515	 1,80050766437132E-02 
516	 1,84274973692689E-02 
517	 1,86360361689652E-02 
518	 1,75780126230465E-02 
519	 0,018095784537043 
520	 1,99285194190218E-02 
521	 1,93912785222592E-02 
522	 1,85083280414288E-02 
523	 1,87654587062711E-02 
524	 1,92258022005785E-02 
525	 0,019583299004926 
526	 1,95795513155633E-02 
527	 1,89401693832297E-02 
528	 1,79046104189638E-02 
529	 1,82158245879531E-02 
530	 1,87953762624217E-02 
531	 1,82904779101962E-02 
532	 1,83977964233722E-02 
533	 1,90837045962455E-02 
534	 1,89780137359676E-02 
535	 1,91252142661516E-02 
536	 1,99504500275875E-02 
537	 1,96618076497386E-02 
538	 1,86989527859664E-02 
539	 1,82461142268538E-02 
540	 1,82497636322663E-02 
541	 1,85300386154991E-02 
542	 1,80917159508918E-02 
543	 1,78275903635275E-02 
544	 1,85957822615892E-02 
545	 1,89423232891716E-02 
546	 1,88900457571313E-02 
547	 1,94868393384572E-02 
548	 1,96150857010561E-02 
549	 1,88678478181909E-02 
550	 0,018390539841003 
551	 1,83023647284678E-02 
552	 1,85601933943654E-02 
553	 1,88893381546682E-02 
554	 1,91552387901695E-02 
555	 1,93516430016138E-02 
556	 1,92371020587145E-02 
557	 1,86826836515363E-02 
558	 1,86880810695913E-02 
559	 1,90390398931073E-02 
560	 1,87288238350683E-02 
561	 1,83080059646578E-02 
562	 1,80796493506238E-02 
563	 1,85255517757978E-02 
564	 0,018931025491861 
565	 1,83119495547272E-02 
566	 1,84003977705871E-02 
567	 1,91605600249114E-02 
568	 1,87778249537017E-02 
569	 1,85167960456092E-02 
570	 1,91917702520241E-02 
571	 1,95721275010933E-02 
572	 1,96938086414114E-02 
573	 2,00865853428328E-02 
574	 2,02937251690954E-02 
575	 2,02814183393584E-02 
576	 2,06710130797461E-02 
577	 2,12737642140067E-02 
578	 2,18156541663355E-02 
579	 2,18402228504617E-02 
580	 2,15480276075535E-02 
581	 0,021934527449913 
582	 0,022242896414016 
583	 2,21623327681728E-02 
584	 2,29080390467987E-02 
585	 2,37053705560552E-02 
586	 2,29222278582436E-02 
587	 2,22730939988261E-02 
588	 2,22554855760592E-02 
589	 2,24257729185215E-02 
590	 2,27366107587091E-02 
591	 2,31415213179888E-02 
592	 2,34918900711764E-02 
593	 2,36129270055994E-02 
594	 2,30571754632527E-02 
595	 2,29207174211327E-02 
596	 2,35429398248675E-02 
597	 0,023328526550366 
598	 2,27900392541181E-02 
599	 2,29541635179859E-02 
600	 2,28967887801679E-02 
601	 2,24909815831404E-02 
602	 2,21571955259638E-02 
603	 2,22463457762814E-02 
604	 0,022930620635474 
605	 2,29466323519757E-02 
606	 2,24418334436573E-02 
607	 2,22819487952682E-02 
608	 2,24512987692237E-02 
609	 2,28044286003928E-02 
610	 2,23641700684202E-02 
611	 0,021701396974309 
612	 2,16151823731001E-02 
613	 2,17309955932197E-02 
614	 2,18087546363294E-02 
615	 2,13649501011319E-02 
616	 2,08815834468134E-02 
617	 2,06504207199706E-02 
618	 2,01503975630003E-02 
619	 1,98784300310085E-02 
620	 2,10504402943783E-02 
621	 2,14648174474017E-02 
622	 2,06833103068284E-02 
623	 2,05306760995798E-02 
624	 2,06000789139756E-02 
625	 2,03846633951376E-02 
626	 0,020554500707983 
627	 2,09464782886172E-02 
628	 2,06452119184415E-02 
629	 2,06031711557036E-02 
630	 2,12078078420033E-02 
631	 2,14093345891051E-02 
632	 0,021486643272806 
633	 0,022108864673364 
634	 2,24611172399487E-02 
635	 2,24746361431056E-02 
636	 0,022906087267613 
637	 2,33597271722179E-02 
638	 2,34931956726472E-02 
639	 2,35810396085517E-02 
640	 2,37323793044371E-02 
641	 2,40868124145003E-02 
642	 2,44836249309442E-02 
643	 2,48080516423375E-02 
644	 0,024880247183681 
645	 2,47689780824784E-02 
646	 2,45829682578108E-02 
647	 2,49286565760735E-02 
648	 2,55447888914647E-02 
649	 2,49025008887634E-02 
650	 0,024469018060361 
651	 0,025141147997416 
652	 2,56301359578935E-02 
653	 2,54487001376773E-02 
654	 2,39679225242201E-02 
655	 2,28004622499562E-02 
656	 2,25036121952479E-02 
657	 2,26191794352642E-02 
658	 2,25724240387831E-02 
659	 2,18312638011158E-02 
660	 2,13089028991136E-02 
661	 2,11769561066601E-02 
662	 2,13737257279728E-02 
663	 2,12956738528545E-02 
664	 2,06825086981585E-02 
665	 2,02285201873994E-02 
666	 1,98074680705532E-02 
667	 1,90546390480877E-02 
668	 1,88916618637188E-02 
669	 1,93150157212726E-02 
670	 1,92297369184244E-02 
671	 1,90258552215241E-02 
672	 1,89951958875903E-02 
673	 1,84403876345144E-02 
674	 1,77482630259743E-02 
675	 1,80693961408415E-02 
676	 1,86716564814863E-02 
677	 1,91247210949788E-02 
678	 1,86909474920959E-02 
679	 1,81187839987748E-02 
680	 1,83554036945379E-02 
681	 1,83187440286545E-02 
682	 1,81154654042485E-02 
683	 1,88918873804747E-02 
684	 1,97980999857142E-02 
685	 2,02467952311545E-02 
686	 0,019839699617113 
687	 0,019437535626002 
688	 2,06510339596291E-02 
689	 2,17438004378382E-02 
690	 0,022335169917263 
691	 2,32385163412005E-02 
692	 2,43984201593833E-02 
693	 2,57479386445821E-02 
694	 0,027372298730395 
695	 2,94860865430284E-02 
696	 3,26081086951063E-02 
697	 3,58425881901324E-02 
698	 3,88819850945707E-02 
699	 4,23597950849393E-02 
700	 4,64034393852692E-02 
701	 5,10638165796147E-02 
702	 5,62733825871462E-02 
703	 0,061776803354016 
704	 6,68805239638348E-02 
705	 7,21790055508265E-02 
706	 7,79346346336929E-02 
707	 8,30499746884745E-02 
708	 8,77770237987806E-02 
709	 9,28565095644127E-02 
710	 9,78953758776542E-02 
711	 0,102790700502338 
712	 0,107669622385148 
713	 0,112185477114537 
714	 0,11604538839013 
715	 0,11970574217727 
716	 0,123368405549345 
717	 0,127391848336812 
718	 0,130845896546267 
719	 0,133432166394779 
720	 0,136011032643598 
721	 0,138524440536466 
722	 0,140795723385498 
723	 0,143094621234569 
724	 0,145377035741859 
725	 0,147236765578653 
726	 0,149170542604464 
727	 0,151316286223425 
728	 0,152128430911613 
729	 0,152493293552459 
730	 0,154366446934586 
731	 0,155857695755851 
732	 0,156608082901458 
733	 0,157680533245835 
734	 0,158827719556383 
735	 0,159781914367407 
736	 0,160308782626082 
737	 0,16066642750543 
738	 0,161647750454846 
739	 0,162332582683364 
740	 0,162500425724185 
741	 0,163003739046099 
742	 0,163690360934451 
743	 0,164300159425127 
744	 0,164665921826224 
745	 0,164789131663638 
746	 0,164765000414125 
747	 0,164998444967547 
748	 0,165665646471662 
749	 0,166274194130571 
750	 0,166690823620601 
751	 0,166791841430573 
752	 0,167545818054169 
753	 0,168675136419865 
754	 0,168092345068891 
755	 0,16732013514243 
756	 0,16750046682349 
757	 0,168069226810717 
758	 0,168675007618029 
759	 0,168791541850609 
760	 0,168823876756236 
761	 0,16893769099279 
762	 0,169254725940079 
763	 0,169519596430979 
764	 0,169516231322728 
765	 0,16983540727465 
766	 0,170347814378631 
767	 0,170441513463197 
768	 0,170411474752677 
769	 0,170406468493175 
770	 0,170560942388733 
771	 0,170871426989482 
772	 0,171303954525793 
773	 0,171326190745892 
774	 0,171111470245066 
775	 0,17164754806547 
776	 0,171903668072782 
777	 0,171457594893897 
778	 0,171320560639481 
779	 0,171610675140594 
780	 0,172330589315841 
781	 0,172468372359957 
782	 0,17200427131985 
783	 0,171929004441369 
784	 0,172168281163962 
785	 0,172594678979065 
786	 0,172520391987773 
787	 0,172253783008605 
788	 0,172522991290806 
789	 0,172850600409327 
790	 0,173074141904035 
791	 0,17316910422184 
792	 0,173129914699923 
793	 0,172989696543066 
794	 0,173075133208764 
795	 0,173375164093831 
796	 0,17381708370171 
797	 0,173634100010057 
798	 0,172848670769188 
799	 0,172868797139113 
800	 0,173432156399917 
801	 0,17416237724172 
802	 0,174368899204774 
803	 0,174141735740744 
804	 0,174075791123479 
805	 0,174132266311618 
806	 0,174341825918655 
807	 0,174786939826473 
808	 0,175093059077017 
809	 0,174888100994359 
810	 0,17481551445217 
811	 0,174976271647969 
812	 0,175235118093406 
813	 0,175545530691102 
814	 0,17577855903571 
815	 0,175381206607419 
816	 0,175027227636873 
817	 0,175539690343157 
818	 0,176026712455667 
819	 0,176285147318758 
820	 0,176377852689663 
821	 0,176410935670764 
822	 0,176473464822774 
823	 0,176711295157418 
824	 0,176950454700208 
825	 0,176954559645649 
826	 0,17699265663686 
827	 0,177153766343234 
828	 0,177535948358715 
829	 0,177722331978616 
830	 0,177542903374481 
831	 0,177428750060844 
832	 0,177642634636926 
833	 0,178454508129299 
834	 0,178188727822275 
835	 0,177193065357048 
836	 0,178076771718 
837	 0,178903887780459 
838	 0,178719096844904 
839	 0,178784374137418 
840	 0,178886998686466 
841	 0,178545729244872 
842	 0,178708619954878 
843	 0,179244612292026 
844	 0,178880201382257 
845	 0,178599097996209 
846	 0,178890614245198 
847	 0,17911661018576 
848	 0,179157770914074 
849	 0,178954800460449 
850	 0,178924596991877 
851	 0,179106836659125 
852	 0,179294652482544 
853	 0,179133962460558 
854	 0,178583980911367 
855	 0,178799191634065 
856	 0,179314786777737 
857	 0,179325071317494 
858	 0,179088770573785 
859	 0,178814580586013 
860	 0,178952096755421 
861	 0,179258731203901 
862	 0,179574473697511 
863	 0,179754077174474 
864	 0,179870884480717 
865	 0,18004720489541 
866	 0,180213443496154 
867	 0,180285999541145 
868	 0,180026385668916 
869	 0,179913765159751 
870	 0,180159386806217 
871	 0,18048144266882 
872	 0,180700287733462 
873	 0,180640116910703 
874	 0,180307272773757 
875	 0,179977394587216 
876	 0,180337768959026 
877	 0,181012372424206 
878	 0,181724189081402 
879	 0,181953941082735 
880	 0,182098891922895 
881	 0,182590849895932 
882	 0,182305623000354 
883	 0,181742278905958 
884	 0,182828893166581 
885	 0,183699046916 
886	 0,183680752773972 
887	 0,183095313828512 
888	 0,182835578665657 
889	 0,183586263957929 
890	 0,183183464529164 
891	 0,182321651052362 
892	 0,183423087880894 
893	 0,184161458592103 
894	 0,183959717290945 
895	 0,183824567541846 
896	 0,183947321022243 
897	 0,184397003161689 
898	 0,184563815135259 
899	 0,184354802572679 
900	 0,183751423468558 
901	 0,184041364645781 
902	 0,185060503970675 
903	 0,184666477878985 
904	 0,18420756429892 
905	 0,184491011168731 
906	 0,184735290341205 
907	 0,184889646659557 
908	 0,185008064929279 
909	 0,18580943271798 
910	 0,186756839846961 
911	 0,185615609414381 
912	 0,184492081681971 
913	 0,184383553140476 
914	 0,184584330654027 
915	 0,184875350151924 
916	 0,185041035132476 
917	 0,184571800594436 
918	 0,183865169625815 
919	 0,184132762785603 
920	 0,184821256405915 
921	 0,185550473561043 
922	 0,185609112449176 
923	 0,185083222657457 
924	 0,184242475782123 
925	 0,184639061617715 
926	 0,18533314688587 
927	 0,184154917310672 
928	 0,183746997821925 
929	 0,184368129057204 
930	 0,184093324098947 
931	 0,183529002939076 
932	 0,183076678991868 
933	 0,182840828426878 
934	 0,182919072061947 
935	 0,183366531619663 
936	 0,183044269381276 
937	 0,182125099175466 
938	 0,18179206875089 
939	 0,181906559861853 
940	 0,182203922390533 
941	 0,181505018106817 
942	 0,180688645506376 
943	 0,180547825110506 
944	 0,18030736337598 
945	 0,179647555202519 
946	 0,178162858933009 
947	 0,177997553845334 
948	 0,17894307181083 
949	 0,177770982768966 
950	 0,176781239300834 
951	 0,176971980150575 
952	 0,175612588717214 
953	 0,173804710621663 
954	 0,173155028954286 
955	 0,172031553719904 
956	 0,170727271953639 
957	 0,170899005447629 
958	 0,170636807846026 
959	 0,169588316139264 
960	 0,169245579847691 
961	 0,169971573595292 
962	 0,171500346572255 
963	 0,169494435611025 
964	 0,166951739136259 
965	 0,169293413510262 
966	 0,169904479696031 
967	 0,168127543517044 
968	 0,166971557546327 
969	 0,167354419807771 
970	 0,169253527634403 
971	 0,169886182898633 
972	 0,169539145247425 
973	 0,168741094739211 
974	 0,168124592063428 
975	 0,168164413401628 
976	 0,169377615463617 
977	 0,170964312174787 
978	 0,172070675269057 
979	 0,170868716994419 
980	 0,169148618678948 
981	 0,168135840262758 
982	 0,168972145225205 
983	 0,169786252888 
984	 0,168797077332593 
985	 0,169306217837543 
986	 0,170574196470045 
987	 0,170016959126933 
988	 0,170127372259459 
989	 0,170892894319973 
990	 0,169464244315725 
991	 0,169076880048698 
992	 0,171040859397031 
993	 0,172268520817984 
994	 0,172384684213121 
995	 0,171414503759981 
996	 0,170858878256184 
997	 0,171490271653417 
998	 0,174216965991366 
999	 0,174866956415499 
1000	 0,173126329170855 
1001	 0,17257706442286 
1002	 0,172723602715529 
1003	 0,173538035799478 
1004	 0,176088260572332 
1005	 0,177674511753964 
1006	 0,175970544536383 
1007	 0,17524855798713 
1008	 0,175470006151117 
1009	 0,175137412555646 
1010	 0,175794337223298 
1011	 0,176709010077361 
1012	 0,173235788709425 
1013	 0,17636195496062 
1014	 0,186897801230759 
1015	 0,182869588436869 
1016	 0,175802975166822 
1017	 0,176169284831015 
1018	 0,177147816341732 
1019	 0,177118189883536 
1020	 0,175085880754053 
1021	 0,173947047076072 
1022	 0,175506543793494 
1023	 0,183095107428415 
1024	 0,186707990785674 
1025	 0,183969604731389 
1026	 0,181798653700094 
1027	 0,182152577868846 
1028	 0,185413609223808 
1029	 0,184811514206091 
1030	 0,182733039902465 
1031	 0,182855517329134 
1032	 0,184346921554661 
1033	 0,186996999905078 
1034	 0,190843058153678 
1035	 0,188604602286963 
1036	 0,181964483895384 
1037	 0,184041532209395 
1038	 0,188151882284461 
1039	 0,191157858953407 
1040	 0,193538034122676 
1041	 0,194633504059124 
1042	 0,194047831636475 
1043	 0,19215501460939 
1044	 0,19056077418028 
1045	 0,191109278563389 
1046	 0,186925235340329 
1047	 0,18147421292052 
1048	 0,185664775824846 
1049	 0,192315923479816 
1050	 0,19715735027851 
1051	 0,194071401844521 
1052	 0,19141661938717 
1053	 0,193132938994379 
1054	 0,195076045300885 
1055	 0,194077767415166 
1056	 0,188489351810546 
1057	 0,18795655579157 
1058	 0,187675663952681 
1059	 0,17951762609753 
1060	 0,178241354923839 
1061	 0,184327644622215 
1062	 0,19171762371261 
1063	 0,191679224210317 
1064	 0,185678439673033 
1065	 0,191387044994917 
1066	 0,190302213956727 
1067	 0,179016854989769 
1068	 0,186008056028558 
1069	 0,19822219099664 
1070	 0,202894503803641 
1071	 0,189474172750631 
1072	 0,179574949699527 
1073	 0,198665333920181 
1074	 0,211560987289093 
1075	 0,216798237073533 
