Wavelength	NEUF00037.asd
325	 0,264849611796177 
326	 0,127656145164495 
327	 6,15843238652579E-02 
328	 0,145409752010305 
329	 0,170444937943162 
330	 0,163635449559382 
331	 0,125596603098046 
332	 0,151365871847281 
333	 0,20011243463411 
334	 0,204909737666572 
335	 0,196578529691365 
336	 0,173237027687134 
337	 0,110693419484984 
338	 0,050991952507135 
339	 3,09431397774434E-02 
340	 0,071433004620371 
341	 0,141029515962006 
342	 0,154542322734918 
343	 0,145746091098658 
344	 0,125703719392408 
345	 0,103249935548969 
346	 0,101168856516251 
347	 0,131479810879843 
348	 9,84077147342454E-02 
349	 2,43278914511484E-02 
350	 2,47520043753443E-02 
351	 6,86179074605784E-02 
352	 0,123158877440849 
353	 0,100739414630085 
354	 0,045910142634417 
355	 2,31674643595917E-02 
356	 0,03769676695352 
357	 7,37779453194018E-02 
358	 9,11639214458796E-02 
359	 9,18936494039317E-02 
360	 7,61666078727053E-02 
361	 4,21578391692334E-02 
362	 1,70144813197154E-02 
363	 2,85590276735555E-02 
364	 4,65137520675674E-02 
365	 6,28925067727469E-02 
366	 9,43317799560769E-02 
367	 0,104235536244402 
368	 7,15476409358824E-02 
369	 4,82655740897807E-02 
370	 4,54598986551864E-02 
371	 6,22980824461557E-02 
372	 7,07330008691391E-02 
373	 0,063675709870904 
374	 5,25310475129464E-02 
375	 4,76582311480616E-02 
376	 5,62569559244686E-02 
377	 6,85221618975873E-02 
378	 7,66982267110792E-02 
379	 6,83311962157511E-02 
380	 6,35601063671427E-02 
381	 6,75089052910842E-02 
382	 6,96550927555792E-02 
383	 6,66346951120382E-02 
384	 5,61859291282899E-02 
385	 5,46647294433594E-02 
386	 5,75990029724218E-02 
387	 4,04363745016857E-02 
388	 4,30641855854804E-02 
389	 7,22208015716454E-02 
390	 7,48195761900762E-02 
391	 6,56549756088658E-02 
392	 6,68106545137486E-02 
393	 6,47625447011624E-02 
394	 5,70799890390682E-02 
395	 4,17051842148826E-02 
396	 3,49523622502343E-02 
397	 0,043629284117891 
398	 4,75991852803702E-02 
399	 4,82818166288168E-02 
400	 5,10699478966358E-02 
401	 5,12964488712325E-02 
402	 0,048562008226086 
403	 4,38663867050195E-02 
404	 4,61735506549998E-02 
405	 5,86364821278794E-02 
406	 5,00334692548047E-02 
407	 3,12771626580174E-02 
408	 3,13781299588523E-02 
409	 4,03159236297725E-02 
410	 5,16156375777556E-02 
411	 5,02617595342118E-02 
412	 4,24136151663176E-02 
413	 3,53469794007729E-02 
414	 3,99786191878208E-02 
415	 5,04574535601565E-02 
416	 4,78309101878426E-02 
417	 4,23455712397949E-02 
418	 0,039109885948836 
419	 4,20556635416197E-02 
420	 4,61882026262527E-02 
421	 4,50935586164539E-02 
422	 0,043224946491612 
423	 4,15783186319771E-02 
424	 3,95904166065247E-02 
425	 0,03888874568817 
426	 4,00747884614447E-02 
427	 3,91467772790486E-02 
428	 0,037303158448739 
429	 3,72765710891764E-02 
430	 4,02788673633867E-02 
431	 4,49019060450476E-02 
432	 4,40487285417382E-02 
433	 4,12589924333347E-02 
434	 0,039981177911338 
435	 3,95199209652134E-02 
436	 3,88989620549731E-02 
437	 3,50529200425647E-02 
438	 3,52505465773554E-02 
439	 4,05439650977181E-02 
440	 3,82569367963124E-02 
441	 3,45837499424883E-02 
442	 3,86999128400334E-02 
443	 3,84522832513664E-02 
444	 3,44986401061216E-02 
445	 3,89674708055855E-02 
446	 4,40056772956813E-02 
447	 4,48002588907445E-02 
448	 4,44587825356674E-02 
449	 4,36066846781894E-02 
450	 4,24299590511702E-02 
451	 4,32005086142852E-02 
452	 4,53835629411563E-02 
453	 4,30659181864061E-02 
454	 4,07454138080834E-02 
455	 4,26009823419897E-02 
456	 0,041469348226231 
457	 3,88760567998227E-02 
458	 4,25311110929458E-02 
459	 4,61514895243521E-02 
460	 4,69076076617379E-02 
461	 4,55329382196349E-02 
462	 4,29001196733301E-02 
463	 4,00759270425756E-02 
464	 3,97580813852459E-02 
465	 4,20239329179122E-02 
466	 4,52356406656527E-02 
467	 4,45098227602242E-02 
468	 3,78032872335916E-02 
469	 3,78702035468482E-02 
470	 4,18558310565131E-02 
471	 0,040321967026563 
472	 3,80754941658902E-02 
473	 3,68474248294011E-02 
474	 0,037901960057182 
475	 3,86647475443289E-02 
476	 3,67494837782705E-02 
477	 3,78978592030505E-02 
478	 4,13017342964628E-02 
479	 4,18882343482258E-02 
480	 4,07959045064769E-02 
481	 3,89499022603803E-02 
482	 3,94579999570788E-02 
483	 4,00783045010003E-02 
484	 3,68713998873612E-02 
485	 3,73504585443056E-02 
486	 4,17331746542894E-02 
487	 4,32488793218096E-02 
488	 4,26735465285482E-02 
489	 4,09013479135582E-02 
490	 4,02470560261981E-02 
491	 4,05796564551705E-02 
492	 4,05288196522804E-02 
493	 4,05495519026433E-02 
494	 0,040723501811189 
495	 4,10778877780788E-02 
496	 4,08136341537731E-02 
497	 3,90941845700376E-02 
498	 3,92942747599353E-02 
499	 4,11155172466549E-02 
500	 4,13119979641616E-02 
501	 4,07643927704416E-02 
502	 4,01023269049132E-02 
503	 4,03928184965642E-02 
504	 4,09006304680926E-02 
505	 3,99584282563758E-02 
506	 0,040447638000234 
507	 4,23526652649687E-02 
508	 4,18447013254252E-02 
509	 4,07103170365912E-02 
510	 4,07056227569295E-02 
511	 0,041413877092334 
512	 4,18772150851237E-02 
513	 3,94970398406263E-02 
514	 3,84479848681811E-02 
515	 4,02818881745303E-02 
516	 4,23514900069253E-02 
517	 4,30080531699519E-02 
518	 4,03677399833592E-02 
519	 3,97993397911467E-02 
520	 4,17625833360283E-02 
521	 4,23862638296548E-02 
522	 4,21954444883851E-02 
523	 4,16661184445217E-02 
524	 4,12866480193829E-02 
525	 4,12717857306893E-02 
526	 4,19119349779482E-02 
527	 4,22334841537028E-02 
528	 4,20028896972155E-02 
529	 4,21605381986936E-02 
530	 4,22126462734202E-02 
531	 4,15388427430681E-02 
532	 4,13125420394294E-02 
533	 4,15839768203326E-02 
534	 4,14701636832516E-02 
535	 4,20366788861345E-02 
536	 4,35339586509673E-02 
537	 0,042651728636918 
538	 4,06010093220146E-02 
539	 0,040320443048829 
540	 4,07827298205255E-02 
541	 4,14411045082318E-02 
542	 4,10496293149851E-02 
543	 4,07613919615157E-02 
544	 4,16744994466704E-02 
545	 4,15057133489219E-02 
546	 4,06460269300292E-02 
547	 4,14911828066148E-02 
548	 0,04245346093226 
549	 4,27197490599898E-02 
550	 4,23158695675236E-02 
551	 4,19244948008979E-02 
552	 4,26196174356112E-02 
553	 0,042688189058793 
554	 4,20998878213729E-02 
555	 4,29425165400461E-02 
556	 4,33577253816935E-02 
557	 4,19412427804351E-02 
558	 4,17361317829951E-02 
559	 4,25856683203202E-02 
560	 0,042778749112034 
561	 4,24297213716602E-02 
562	 4,17235424109479E-02 
563	 4,18747046362272E-02 
564	 4,22386301861989E-02 
565	 4,18168329888749E-02 
566	 4,20518011818744E-02 
567	 0,042869637353187 
568	 4,27322374372688E-02 
569	 4,23877622068819E-02 
570	 4,23985729379131E-02 
571	 4,27252169289758E-02 
572	 0,043390595609386 
573	 4,44911348662324E-02 
574	 4,53751479632315E-02 
575	 4,58051547515028E-02 
576	 0,046022533305798 
577	 4,63823738408969E-02 
578	 4,72299768597475E-02 
579	 4,70608010507275E-02 
580	 4,62806780051067E-02 
581	 4,72776367733689E-02 
582	 4,82065667601573E-02 
583	 4,81607127260931E-02 
584	 4,89544932529429E-02 
585	 4,97541923717133E-02 
586	 4,86491025833269E-02 
587	 4,81100829628331E-02 
588	 0,048671665276612 
589	 4,89924809110551E-02 
590	 4,91142382344637E-02 
591	 4,91416945413801E-02 
592	 4,93866139831337E-02 
593	 4,97105321301549E-02 
594	 4,95342569874986E-02 
595	 4,94156085153578E-02 
596	 4,95953338600591E-02 
597	 4,98232262922527E-02 
598	 0,049886009193248 
599	 4,95077465838307E-02 
600	 4,92887748280009E-02 
601	 4,92514828632752E-02 
602	 4,86993993129171E-02 
603	 4,83345560017471E-02 
604	 4,86334837549991E-02 
605	 4,82601580241887E-02 
606	 4,75188035990071E-02 
607	 4,76795421105853E-02 
608	 0,048126507612068 
609	 4,84226614113049E-02 
610	 0,047462333744966 
611	 4,62882151883983E-02 
612	 4,62794903129673E-02 
613	 4,64872775696792E-02 
614	 4,66266345599312E-02 
615	 4,65806745059151E-02 
616	 4,64396803604923E-02 
617	 4,62747700416957E-02 
618	 0,04616627956247 
619	 0,046055255762207 
620	 4,57505908321086E-02 
621	 4,58028026077591E-02 
622	 4,62456127493254E-02 
623	 0,046270415701236 
624	 4,62649476416667E-02 
625	 4,66559438449267E-02 
626	 4,68464853561328E-02 
627	 4,68009647239115E-02 
628	 4,67301331760923E-02 
629	 4,69880171685691E-02 
630	 0,047657445553968 
631	 4,77310547875064E-02 
632	 4,78289432421284E-02 
633	 4,91754724672028E-02 
634	 4,99714301878253E-02 
635	 0,050008836753065 
636	 5,07345073676211E-02 
637	 5,18027659552156E-02 
638	 5,28378007199794E-02 
639	 5,33704576606035E-02 
640	 5,34651255073307E-02 
641	 5,34247881255829E-02 
642	 5,39107682847422E-02 
643	 0,055062139448511 
644	 0,055774862130337 
645	 5,60882689547458E-02 
646	 5,61976133385797E-02 
647	 5,70038127303941E-02 
648	 5,82259087743736E-02 
649	 5,80508857118175E-02 
650	 5,76772031705791E-02 
651	 5,79007551639358E-02 
652	 5,81884706566796E-02 
653	 5,82142352217622E-02 
654	 5,74058866983665E-02 
655	 0,057063736649566 
656	 5,73477988895673E-02 
657	 5,66238417748438E-02 
658	 5,57393065189375E-02 
659	 5,56367785854591E-02 
660	 5,53398551410508E-02 
661	 5,48069155311699E-02 
662	 5,46020971048677E-02 
663	 5,40153819305837E-02 
664	 5,28582527375746E-02 
665	 5,25368556773934E-02 
666	 5,23870507759768E-02 
667	 5,11033016499474E-02 
668	 5,02401917047101E-02 
669	 5,00361843397181E-02 
670	 4,94972429105993E-02 
671	 4,91568173885529E-02 
672	 4,93852335432846E-02 
673	 4,91101542902217E-02 
674	 4,85282941067083E-02 
675	 4,85693853301613E-02 
676	 4,86737932933315E-02 
677	 4,86214095230268E-02 
678	 4,83192422445484E-02 
679	 4,81340050952967E-02 
680	 4,84960956516434E-02 
681	 4,85116971747093E-02 
682	 4,82527437080254E-02 
683	 4,86302334364101E-02 
684	 0,049192371747156 
685	 0,049679560488844 
686	 5,02333252496512E-02 
687	 5,09470499544483E-02 
688	 5,19216799423029E-02 
689	 5,33469985295652E-02 
690	 5,51747142655055E-02 
691	 5,68458835274744E-02 
692	 5,88748545906072E-02 
693	 6,17457489048632E-02 
694	 6,53557640645586E-02 
695	 6,96805422333436E-02 
696	 7,46516944299438E-02 
697	 8,02119748699488E-02 
698	 0,086273255339867 
699	 9,24647914260851E-02 
700	 9,93741194990934E-02 
701	 0,107733774281903 
702	 0,116735032616835 
703	 0,126043466037185 
704	 0,13536900218255 
705	 0,144984795792333 
706	 0,154974737385452 
707	 0,164659145758265 
708	 0,174054407463012 
709	 0,183361431430425 
710	 0,192533817399783 
711	 0,201581831086603 
712	 0,210589564722484 
713	 0,219336243443851 
714	 0,227622064471239 
715	 0,235553293516324 
716	 0,243138623513113 
717	 0,250433499752542 
718	 0,257223078310817 
719	 0,263496883573694 
720	 0,269723993843299 
721	 0,275681818691122 
722	 0,281054954775797 
723	 0,286001308647244 
724	 0,290591410095357 
725	 0,294947427078426 
726	 0,298854924608877 
727	 0,302168199009682 
728	 0,304868133719217 
729	 0,307478258836731 
730	 0,310895262594982 
731	 0,314095981078629 
732	 0,31673632708717 
733	 0,31890409317255 
734	 0,320739339506583 
735	 0,322408939137596 
736	 0,324468278084962 
737	 0,326615962505425 
738	 0,327827123371227 
739	 0,328938551744223 
740	 0,330266179789567 
741	 0,33167386841723 
742	 0,332939966871749 
743	 0,333831628443751 
744	 0,334735907764151 
745	 0,335665198307333 
746	 0,336325225428625 
747	 0,337029151420921 
748	 0,337925553512853 
749	 0,338771133004034 
750	 0,339508016332147 
751	 0,340090775138716 
752	 0,340746963699926 
753	 0,341407571066997 
754	 0,341532392208179 
755	 0,341699864861995 
756	 0,342317411245529 
757	 0,342971588914467 
758	 0,343496722593949 
759	 0,343717478508135 
760	 0,343738474604 
761	 0,343719982722587 
762	 0,344159497429006 
763	 0,344694657837168 
764	 0,344956156819195 
765	 0,345009457487983 
766	 0,344999937552423 
767	 0,345218162653489 
768	 0,345771753863667 
769	 0,3465056972506 
770	 0,346242211567199 
771	 0,345876651637862 
772	 0,346547405835202 
773	 0,346904099608846 
774	 0,346848668079077 
775	 0,347055362155599 
776	 0,347325510903029 
777	 0,347541289996913 
778	 0,34755269209332 
779	 0,347577508807386 
780	 0,347955290659584 
781	 0,348273897062499 
782	 0,348389359953495 
783	 0,348188053090921 
784	 0,348190713648323 
785	 0,348657389141277 
786	 0,348633710335389 
787	 0,348369131214943 
788	 0,348535655104321 
789	 0,348905173098802 
790	 0,349311725175339 
791	 0,349386676706571 
792	 0,349255427242268 
793	 0,349059944950306 
794	 0,349083953946527 
795	 0,349188297838786 
796	 0,348960702319548 
797	 0,348679981969936 
798	 0,348503588516888 
799	 0,348685200949412 
800	 0,348904199745901 
801	 0,34885836010227 
802	 0,348861413195474 
803	 0,348871008412855 
804	 0,348556840121453 
805	 0,348649361864584 
806	 0,349261770760151 
807	 0,349357051648523 
808	 0,349417671185606 
809	 0,349990720646468 
810	 0,349856068015061 
811	 0,349416290764777 
812	 0,350536045079569 
813	 0,351424541044775 
814	 0,351426836860425 
815	 0,35155371566062 
816	 0,351925882380262 
817	 0,352574535376131 
818	 0,353284335133132 
819	 0,353895361602406 
820	 0,35414416742916 
821	 0,3543358497728 
822	 0,354650813626365 
823	 0,355135734151682 
824	 0,355758217673661 
825	 0,356458509401547 
826	 0,356377290063475 
827	 0,355900183795664 
828	 0,356983617379848 
829	 0,357704450708386 
830	 0,357265441307843 
831	 0,357570697339087 
832	 0,358234768689435 
833	 0,358458996954876 
834	 0,358757031689411 
835	 0,359114630213682 
836	 0,359076749687384 
837	 0,359190714707722 
838	 0,359683740148987 
839	 0,359915434186239 
840	 0,35988425192462 
841	 0,359695865375084 
842	 0,360089952951282 
843	 0,360852677110376 
844	 0,360533454031881 
845	 0,360595892623541 
846	 0,361602732023339 
847	 0,36142634259564 
848	 0,360893987329505 
849	 0,361481163057063 
850	 0,362133430439441 
851	 0,362487068226669 
852	 0,362252393854676 
853	 0,362066657979431 
854	 0,362270463868584 
855	 0,362510050636692 
856	 0,362712350508077 
857	 0,362833801917591 
858	 0,362837838712838 
859	 0,362812358107917 
860	 0,363085353906227 
861	 0,363197529117205 
862	 0,362980783298059 
863	 0,363010285733673 
864	 0,363218076936205 
865	 0,363429841320336 
866	 0,363412314652133 
867	 0,363330320953394 
868	 0,363847443629905 
869	 0,36453125098458 
870	 0,365100717956823 
871	 0,365302891589837 
872	 0,365291899727434 
873	 0,365293452178981 
874	 0,365314282425829 
875	 0,365515076654771 
876	 0,36639410772602 
877	 0,366785576773952 
878	 0,36639259296761 
879	 0,366684809785573 
880	 0,367206146774646 
881	 0,3673699834085 
882	 0,367895535590477 
883	 0,368550148758766 
884	 0,368299548033722 
885	 0,368536644422275 
886	 0,36943366302596 
887	 0,369110025069568 
888	 0,368572162758616 
889	 0,368803971343523 
890	 0,368499177904132 
891	 0,368254529763011 
892	 0,369919002171499 
893	 0,371016278760541 
894	 0,370853595907048 
895	 0,370344734926944 
896	 0,370155994683488 
897	 0,370698469458193 
898	 0,370667272107341 
899	 0,370602481069216 
900	 0,371864389583446 
901	 0,372251995256108 
902	 0,37155853440847 
903	 0,371468027559901 
904	 0,371934483684033 
905	 0,372787763349539 
906	 0,372989672736442 
907	 0,372893641212876 
908	 0,373198974768182 
909	 0,372991232480676 
910	 0,372411129165237 
911	 0,372668196981365 
912	 0,372414707148678 
913	 0,371305166942727 
914	 0,371160282501099 
915	 0,371925660806659 
916	 0,373220782685542 
917	 0,372713613409517 
918	 0,371149379263288 
919	 0,371776332613358 
920	 0,371975630742862 
921	 0,371225621677903 
922	 0,371524463337313 
923	 0,371664414698592 
924	 0,37071944552874 
925	 0,370525471944921 
926	 0,370878149271301 
927	 0,370901626034502 
928	 0,370507804432823 
929	 0,369881343041918 
930	 0,369918057504744 
931	 0,369829610070662 
932	 0,369188794359475 
933	 0,368485060022883 
934	 0,367907433474913 
935	 0,367621492373257 
936	 0,367635758124126 
937	 0,367661311606721 
938	 0,366943564219408 
939	 0,366099539867887 
940	 0,365456406211224 
941	 0,365393928667369 
942	 0,365032575566157 
943	 0,36372566495975 
944	 0,363536461270002 
945	 0,363470429829842 
946	 0,361056134393185 
947	 0,35921323667347 
948	 0,358583612330008 
949	 0,358280166875776 
950	 0,35724534889499 
951	 0,355084666856637 
952	 0,353556932006038 
953	 0,352780461637834 
954	 0,352566061228927 
955	 0,350951833616968 
956	 0,348494971723607 
957	 0,34768974969146 
958	 0,347474462668437 
959	 0,347443997551299 
960	 0,34747583183687 
961	 0,346936685122777 
962	 0,345474566970364 
963	 0,34421590019909 
964	 0,343271636772474 
965	 0,342537914072284 
966	 0,342632977834819 
967	 0,343295702395966 
968	 0,343356266253661 
969	 0,343129166988763 
970	 0,342898678922954 
971	 0,343595217096769 
972	 0,34387883085517 
973	 0,342716250752331 
974	 0,343325832177714 
975	 0,344338272895355 
976	 0,342299734178774 
977	 0,342816377028211 
978	 0,345726374556914 
979	 0,345008881237853 
980	 0,343630007669407 
981	 0,343253695752781 
982	 0,344487828529972 
983	 0,345296295276568 
984	 0,343913923433999 
985	 0,345521093674486 
986	 0,348184422010307 
987	 0,346416503335808 
988	 0,344780209689707 
989	 0,344464363291966 
990	 0,344521383084669 
991	 0,345440071045915 
992	 0,347136120948182 
993	 0,347787022055963 
994	 0,348421834849618 
995	 0,350094379850445 
996	 0,350186261843432 
997	 0,349868026518687 
998	 0,352303988227394 
999	 0,353657597572399 
1000	 0,353180103667268 
1001	 0,352500881757432 
1002	 0,351444674622959 
1003	 0,350554102625606 
1004	 0,352882963572786 
1005	 0,355394702121822 
1006	 0,355108322412612 
1007	 0,354832046750396 
1008	 0,354910634459131 
1009	 0,355106750249841 
1010	 0,354800297925243 
1011	 0,354392427623923 
1012	 0,35540917734997 
1013	 0,35844685272712 
1014	 0,362794571861966 
1015	 0,364174146228688 
1016	 0,363448399021143 
1017	 0,361800200567592 
1018	 0,360576204240896 
1019	 0,360532006754624 
1020	 0,362237074740037 
1021	 0,363742865427508 
1022	 0,364673623804063 
1023	 0,365451609189189 
1024	 0,36686857189696 
1025	 0,368612519369433 
1026	 0,368111858588566 
1027	 0,367201239245092 
1028	 0,367128485995734 
1029	 0,367049151589902 
1030	 0,36742792666651 
1031	 0,368738233518859 
1032	 0,368683130897589 
1033	 0,368428051894259 
1034	 0,371323235174871 
1035	 0,370324092455878 
1036	 0,366905502064205 
1037	 0,373714709040281 
1038	 0,377697074709298 
1039	 0,374479322697943 
1040	 0,375736378930277 
1041	 0,376133668189198 
1042	 0,37215446107013 
1043	 0,37602392291396 
1044	 0,381081432761623 
1045	 0,376454635449161 
1046	 0,376424915532688 
1047	 0,380079583486059 
1048	 0,378373793581688 
1049	 0,373641438914923 
1050	 0,368655560521947 
1051	 0,371237264879946 
1052	 0,370858331778293 
1053	 0,365534415685677 
1054	 0,375963528903555 
1055	 0,385351138805476 
1056	 0,379650706251943 
1057	 0,380438686344955 
1058	 0,381499298415524 
1059	 0,370933925098198 
1060	 0,369865975138514 
1061	 0,378954592932188 
1062	 0,389315910837817 
1063	 0,39296948961084 
1064	 0,389508845224048 
1065	 0,390048462144851 
1066	 0,385946522832548 
1067	 0,376869370848813 
1068	 0,381298535851812 
1069	 0,386721516353301 
1070	 0,383997960438926 
1071	 0,384536009375085 
1072	 0,386616909575093 
1073	 0,386395290962416 
1074	 0,378201206776384 
1075	 0,375786818581145 
