Wavelength	NEUF00099.asd
325	 0,344261760292295 
326	 0,13808019131367 
327	-4,38905641304236E-02 
328	-7,74108024961545E-03 
329	 2,38081818079338E-03 
330	 1,22645190790718E-02 
331	 5,38178159814176E-02 
332	 0,175798334880151 
333	 0,261151712506762 
334	 0,279458728994843 
335	 0,271177732152627 
336	 0,227757233460592 
337	 7,71488912819903E-02 
338	-1,82079119389517E-02 
339	 5,28771723250692E-02 
340	 4,62416385076891E-02 
341	 1,33252074012047E-02 
342	 0,146208145040901 
343	 0,223490408152764 
344	 0,225076063204433 
345	 0,190134859928481 
346	 0,139471687479573 
347	 8,93625346448563E-02 
348	 0,046476361345166 
349	 0,018102144921722 
350	 2,72725831573023E-02 
351	 5,30028912320502E-02 
352	 0,078649986450935 
353	 7,47050251883925E-02 
354	 5,49203743119023E-02 
355	 3,95289615285011E-02 
356	 5,43514390441746E-02 
357	 8,36014319053607E-02 
358	 7,23138769485011E-02 
359	 5,82483685748318E-02 
360	 5,59815425726428E-02 
361	 5,19197952750213E-02 
362	 5,19268424829736E-02 
363	 6,48891989208646E-02 
364	 8,56290527979859E-02 
365	 0,100455298218405 
366	 8,18640527076973E-02 
367	 6,08592123196019E-02 
368	 5,58910918312763E-02 
369	 4,75871565273073E-02 
370	 4,60762477827255E-02 
371	 7,22827053275746E-02 
372	 7,74189190006715E-02 
373	 5,69615776786293E-02 
374	 5,38412277434398E-02 
375	 6,02451498532988E-02 
376	 6,87983422198421E-02 
377	 0,077698919762159 
378	 0,08015278417428 
379	 6,09818452821394E-02 
380	 5,59678775716431E-02 
381	 7,28945985727707E-02 
382	 8,92200366924284E-02 
383	 0,092899870445363 
384	 7,50183017956376E-02 
385	 7,41163840826943E-02 
386	 8,32481742635962E-02 
387	 5,93989579477084E-02 
388	 5,52461166645542E-02 
389	 8,23104649180488E-02 
390	 8,33908233384507E-02 
391	 6,49122258115821E-02 
392	 4,06887771545431E-02 
393	 3,54152762581022E-02 
394	 4,68222666176391E-02 
395	 5,07553565902074E-02 
396	 5,64686646528036E-02 
397	 6,63151277928388E-02 
398	 0,069746171516272 
399	 6,62623605120616E-02 
400	 5,57685128678666E-02 
401	 5,39639421617119E-02 
402	 6,19775252124096E-02 
403	 6,79197887482718E-02 
404	 7,16467295255096E-02 
405	 7,26622330631934E-02 
406	 6,61487220066531E-02 
407	 5,75018886250809E-02 
408	 5,78296331010316E-02 
409	 6,21182368469818E-02 
410	 6,57744095445031E-02 
411	 5,56559797764294E-02 
412	 4,33814303119704E-02 
413	 4,04402536819861E-02 
414	 4,64560498352347E-02 
415	 5,59233371298649E-02 
416	 5,63887743447805E-02 
417	 5,58102932007798E-02 
418	 0,056674189297669 
419	 5,24881132981434E-02 
420	 5,09362143045195E-02 
421	 6,18854815612818E-02 
422	 6,19697466476531E-02 
423	 5,21991412348004E-02 
424	 5,38659028116961E-02 
425	 5,66846047288482E-02 
426	 0,054864758282657 
427	 5,60792328158721E-02 
428	 0,057874210281706 
429	 0,05400219924449 
430	 5,31951838891975E-02 
431	 5,64330991721582E-02 
432	 5,60134922821297E-02 
433	 5,46796491666793E-02 
434	 0,055112423826873 
435	 5,63379451001443E-02 
436	 5,70690836037292E-02 
437	 5,43631751018582E-02 
438	 5,21898967560745E-02 
439	 5,19910505060542E-02 
440	 5,16984274091625E-02 
441	 5,10882055563598E-02 
442	 0,050124193243244 
443	 0,049403978996364 
444	 4,95202706329126E-02 
445	 5,17855133669962E-02 
446	 5,43042529086718E-02 
447	 5,57280167507664E-02 
448	 5,54395164281863E-02 
449	 5,48544542340645E-02 
450	 5,67122309631432E-02 
451	 0,058792291916383 
452	 0,059607800318771 
453	 5,57989617234499E-02 
454	 5,31287486263951E-02 
455	 5,66955329142376E-02 
456	 5,59404119135594E-02 
457	 5,27550357687041E-02 
458	 5,82459052215052E-02 
459	 6,07124954252604E-02 
460	 5,63284235376593E-02 
461	 0,054256588952415 
462	 5,42342193618901E-02 
463	 5,46767844781193E-02 
464	 0,055433140912189 
465	 5,63993596432351E-02 
466	 5,83307371143788E-02 
467	 5,75972888202967E-02 
468	 5,27520785480207E-02 
469	 5,36063729298778E-02 
470	 5,78961400852227E-02 
471	 5,83974307416391E-02 
472	 5,76990696212492E-02 
473	 5,66440577395046E-02 
474	 5,61293897848466E-02 
475	 5,49810897354173E-02 
476	 5,21578303568451E-02 
477	 5,20605257709198E-02 
478	 5,39717075249904E-02 
479	 5,31451807381804E-02 
480	 5,35875483248748E-02 
481	 5,63595988940991E-02 
482	 5,57069038675348E-02 
483	 5,30169744848938E-02 
484	 5,09720384620409E-02 
485	 5,34942929534587E-02 
486	 5,90526222027374E-02 
487	 5,79669039180675E-02 
488	 5,53552766119735E-02 
489	 5,50885163082687E-02 
490	 5,38099664541349E-02 
491	 5,21734931775129E-02 
492	 5,26420140437777E-02 
493	 5,36196556661971E-02 
494	 5,44912498254469E-02 
495	 5,53342135920635E-02 
496	 5,55847618533802E-02 
497	 0,054668351126829 
498	 5,41320197056046E-02 
499	 5,43242708858329E-02 
500	 5,50100747094307E-02 
501	 5,58846729782931E-02 
502	 5,65579245693389E-02 
503	 5,55915643588032E-02 
504	 5,43455985678479E-02 
505	 5,54310314470991E-02 
506	 5,67081219796564E-02 
507	 5,74143885510149E-02 
508	 5,74178603233341E-02 
509	 5,70178381618479E-02 
510	 5,65457256141839E-02 
511	 5,68565628838405E-02 
512	 0,057238395595836 
513	 5,50356146369836E-02 
514	 5,45441619971921E-02 
515	 0,057064104910824 
516	 5,81511661188292E-02 
517	 5,74749855328082E-02 
518	 5,51752797379577E-02 
519	 5,49715009911741E-02 
520	 5,69702631375212E-02 
521	 5,76118673467711E-02 
522	 5,76139620640946E-02 
523	 5,75740966241067E-02 
524	 5,78254339024656E-02 
525	 5,81994063762016E-02 
526	 5,81731713863675E-02 
527	 5,79698254807625E-02 
528	 5,77453179723113E-02 
529	 5,80157180722974E-02 
530	 5,79439405594979E-02 
531	 5,65765017455158E-02 
532	 5,64797958107413E-02 
533	 5,76243054402411E-02 
534	 5,79766245423192E-02 
535	 5,82706226205566E-02 
536	 5,87557702861201E-02 
537	 5,79802516986578E-02 
538	 5,65823566234996E-02 
539	 0,05594550215072 
540	 5,61645015102652E-02 
541	 5,70161338481324E-02 
542	 5,71633094923223E-02 
543	 5,71918957208436E-02 
544	 5,76954725477489E-02 
545	 5,74623986503493E-02 
546	 5,67113744636363E-02 
547	 5,67082293174249E-02 
548	 5,67124769086756E-02 
549	 5,64695695477598E-02 
550	 5,66738370534837E-02 
551	 5,72664542345783E-02 
552	 5,80675246465405E-02 
553	 5,85391424021611E-02 
554	 5,85408569837959E-02 
555	 5,84057686710522E-02 
556	 0,057863750095287 
557	 5,68129562616468E-02 
558	 5,69643994502872E-02 
559	 5,78588514420648E-02 
560	 5,75933767139135E-02 
561	 0,057113406754009 
562	 5,68009615974298E-02 
563	 5,67328105122033E-02 
564	 5,66625752502302E-02 
565	 5,62451504339658E-02 
566	 5,64649815335058E-02 
567	 5,71918922723682E-02 
568	 5,69994632846396E-02 
569	 5,70176774137698E-02 
570	 5,79281460126426E-02 
571	 5,81862627918957E-02 
572	 5,80555798940004E-02 
573	 5,86971216601789E-02 
574	 5,89127701994965E-02 
575	 5,85468637367021E-02 
576	 5,89822514246485E-02 
577	 5,98930833710694E-02 
578	 6,07838945155187E-02 
579	 0,061182545608204 
580	 6,11320031997822E-02 
581	 0,061124312199868 
582	 6,14623246528822E-02 
583	 6,22675442366336E-02 
584	 6,29134223370657E-02 
585	 6,33186717145039E-02 
586	 0,063558890197323 
587	 6,31152844014398E-02 
588	 0,062482372899386 
589	 6,45091235865305E-02 
590	 6,63545493340753E-02 
591	 6,54001350703912E-02 
592	 6,50623085349548E-02 
593	 6,54831357300102E-02 
594	 6,49466395908088E-02 
595	 6,52550148524813E-02 
596	 6,68334667367963E-02 
597	 0,066610983369322 
598	 6,56920240478383E-02 
599	 6,62189361223396E-02 
600	 6,65424065138593E-02 
601	 6,62696228072673E-02 
602	 6,56336565980718E-02 
603	 6,51646308884205E-02 
604	 6,52437022266077E-02 
605	 6,52114272430869E-02 
606	 6,49532151363796E-02 
607	 6,43874743883537E-02 
608	 6,43836913247321E-02 
609	 0,065007098326105 
610	 6,45201786923384E-02 
611	 6,36092678940567E-02 
612	 6,32979000304612E-02 
613	 6,30613425581414E-02 
614	 0,062855651992683 
615	 6,29212408016074E-02 
616	 6,29649816981747E-02 
617	 6,27593155397767E-02 
618	 6,20592274926429E-02 
619	 6,13744197048657E-02 
620	 6,17490017401746E-02 
621	 6,22989421994304E-02 
622	 0,06255075985504 
623	 6,17655591336911E-02 
624	 6,11365524048334E-02 
625	 6,18716748616295E-02 
626	 6,21431389305791E-02 
627	 6,18689000015284E-02 
628	 0,061979603479398 
629	 6,22889518429832E-02 
630	 6,26769773934513E-02 
631	 6,28290655705823E-02 
632	 0,063034502628446 
633	 6,38545212035272E-02 
634	 6,41215254205326E-02 
635	 6,38912535102396E-02 
636	 6,49342667558489E-02 
637	 0,06592353764144 
638	 0,065765452598306 
639	 6,59939096031874E-02 
640	 6,65848229466415E-02 
641	 6,66975120378243E-02 
642	 6,70816166806611E-02 
643	 6,79230367073861E-02 
644	 6,85092580305222E-02 
645	 6,87645011946651E-02 
646	 6,86911612839054E-02 
647	 6,85553950194324E-02 
648	 6,84708824791243E-02 
649	 6,85216889963756E-02 
650	 6,84612017874841E-02 
651	 6,81467519117909E-02 
652	 6,79699656515073E-02 
653	 6,77102032424419E-02 
654	 6,67686851445336E-02 
655	 6,60222554717494E-02 
656	 6,56067803763217E-02 
657	 0,06457829136305 
658	 6,34379818853102E-02 
659	 6,27493782692584E-02 
660	 6,22345556098162E-02 
661	 6,17888956845323E-02 
662	 6,12961532164532E-02 
663	 6,07160852859754E-02 
664	 6,01117117648163E-02 
665	 0,060193651944942 
666	 6,01536732562724E-02 
667	 5,85852568122678E-02 
668	 5,77994445169583E-02 
669	 5,80753186251618E-02 
670	 5,76495451983536E-02 
671	 5,71519806203068E-02 
672	 5,71090524438265E-02 
673	 5,72316738820982E-02 
674	 5,72976384133728E-02 
675	 5,67898941125672E-02 
676	 5,68848499961242E-02 
677	 5,77378386510584E-02 
678	 5,75368142004624E-02 
679	 5,70502706183699E-02 
680	 5,73534211325792E-02 
681	 5,75014630658017E-02 
682	 5,75680571785996E-02 
683	 5,84829890829247E-02 
684	 5,94175238159685E-02 
685	 0,059887711626864 
686	 6,01815698589975E-02 
687	 6,07893557473092E-02 
688	 6,24951415814793E-02 
689	 6,42495175991186E-02 
690	 6,57969281048122E-02 
691	 6,74824350558305E-02 
692	 6,97426923984543E-02 
693	 7,29472658147572E-02 
694	 7,68035125507977E-02 
695	 8,13823614742558E-02 
696	 8,70242286054354E-02 
697	 9,30411056155127E-02 
698	 9,91478977094739E-02 
699	 0,105581436767748 
700	 0,112710826734087 
701	 0,120923713848557 
702	 0,129497687604929 
703	 0,138124300278137 
704	 0,146654697356968 
705	 0,154855152948901 
706	 0,162602698963936 
707	 0,170334133076327 
708	 0,177960660006389 
709	 0,185186604662461 
710	 0,191955939688825 
711	 0,198361464659362 
712	 0,204927212786277 
713	 0,211243863097355 
714	 0,21688988980557 
715	 0,22154008775299 
716	 0,225615423998845 
717	 0,230353567321355 
718	 0,234922636992429 
719	 0,238923679174531 
720	 0,242129835569115 
721	 0,245013006821957 
722	 0,248204606772687 
723	 0,251137427970184 
724	 0,253710951428403 
725	 0,256022612980245 
726	 0,258318570486125 
727	 0,26065611734922 
728	 0,262170862166692 
729	 0,26332932017954 
730	 0,265156008612193 
731	 0,266850916736189 
732	 0,268255493950393 
733	 0,269798283696362 
734	 0,271134473597542 
735	 0,271987108906705 
736	 0,272925366373364 
737	 0,273981613281076 
738	 0,27494866883145 
739	 0,275903225879847 
740	 0,276826498662658 
741	 0,277461435851212 
742	 0,278162033524995 
743	 0,279343472379143 
744	 0,280299725055646 
745	 0,280895732974801 
746	 0,281247727788915 
747	 0,281625262292604 
748	 0,282199443312324 
749	 0,282935592690755 
750	 0,283681119055031 
751	 0,284196767266822 
752	 0,285081999264601 
753	 0,28617074165993 
754	 0,286227644679587 
755	 0,286164074087841 
756	 0,286650754154729 
757	 0,287222030380453 
758	 0,287790797024405 
759	 0,288328206648018 
760	 0,288788028714984 
761	 0,289224803140556 
762	 0,290000204343598 
763	 0,290684206056169 
764	 0,290884992569928 
765	 0,291150126308034 
766	 0,291591839131536 
767	 0,292235670969597 
768	 0,292721733995524 
769	 0,292933662405593 
770	 0,293160208252998 
771	 0,293529125114556 
772	 0,29414445256369 
773	 0,294308493589129 
774	 0,294253198759535 
775	 0,295246258342088 
776	 0,296031883749114 
777	 0,296026952548259 
778	 0,296098374537903 
779	 0,296392943213877 
780	 0,296975360138444 
781	 0,297365666821679 
782	 0,29750346895094 
783	 0,297660837393363 
784	 0,298082629248944 
785	 0,298829525077648 
786	 0,298904707563264 
787	 0,29879864927872 
788	 0,299663564634703 
789	 0,300127109276296 
790	 0,30002826734915 
791	 0,300536556102722 
792	 0,301051208938626 
793	 0,301115717061756 
794	 0,301440819794745 
795	 0,301988516370626 
796	 0,302461177202398 
797	 0,302656230728491 
798	 0,302615000546654 
799	 0,302915288799302 
800	 0,3034067244989 
801	 0,303898978797903 
802	 0,30415377523161 
803	 0,304268373797091 
804	 0,304610489019475 
805	 0,305000407818723 
806	 0,305423058652798 
807	 0,306141916726177 
808	 0,306791981231649 
809	 0,306984853720521 
810	 0,307075061152547 
811	 0,307286587499192 
812	 0,308031611169636 
813	 0,308617256523216 
814	 0,308801278262828 
815	 0,309140565632671 
816	 0,309487820361784 
817	 0,309631289769138 
818	 0,310271756391933 
819	 0,311269991317527 
820	 0,311781426844342 
821	 0,312055295228666 
822	 0,312187939518512 
823	 0,312022407364043 
824	 0,312089509390775 
825	 0,313047169956259 
826	 0,313684420471746 
827	 0,313874250851301 
828	 0,314241191380504 
829	 0,314639160770472 
830	 0,314995126036268 
831	 0,315303849639813 
832	 0,315478315289679 
833	 0,315409595001211 
834	 0,315753601691323 
835	 0,31643458606743 
836	 0,316600665354789 
837	 0,31686040526863 
838	 0,317487892606976 
839	 0,318004700156826 
840	 0,318240374030316 
841	 0,318045367460892 
842	 0,318383710568288 
843	 0,319176495229812 
844	 0,319299744832142 
845	 0,319259700562687 
846	 0,319366501050186 
847	 0,319729343990288 
848	 0,320136186317925 
849	 0,32026925006894 
850	 0,320558121155579 
851	 0,32101584433564 
852	 0,321347587966265 
853	 0,321544339220237 
854	 0,321655454972958 
855	 0,32209396234704 
856	 0,322554662720402 
857	 0,322568017665455 
858	 0,32284847498555 
859	 0,323467543781515 
860	 0,324095517440603 
861	 0,324527807061618 
862	 0,324686408570154 
863	 0,324928652515766 
864	 0,325145604992787 
865	 0,325152055208015 
866	 0,325317329405043 
867	 0,325606459867196 
868	 0,325571555967123 
869	 0,325806447427971 
870	 0,326540512199507 
871	 0,327321681760512 
872	 0,327923287257762 
873	 0,328137291524335 
874	 0,327915220027238 
875	 0,327748114062292 
876	 0,329104805936843 
877	 0,329903384620503 
878	 0,329524432210714 
879	 0,33002576861217 
880	 0,330780220937356 
881	 0,330967348270207 
882	 0,331106853121892 
883	 0,331418343024821 
884	 0,332204873295108 
885	 0,333100030789411 
886	 0,333806370353708 
887	 0,333694444719276 
888	 0,33347825764121 
889	 0,333809909454369 
890	 0,333559160454467 
891	 0,333336338277335 
892	 0,334913798996113 
893	 0,336271129510386 
894	 0,336767722754137 
895	 0,336923473100823 
896	 0,336855522543795 
897	 0,33669174511656 
898	 0,336634776526128 
899	 0,336802501622506 
900	 0,337329016134684 
901	 0,337639687903298 
902	 0,337739725370587 
903	 0,338353738025906 
904	 0,33900582356706 
905	 0,339395506880267 
906	 0,339708366863476 
907	 0,339986547205125 
908	 0,340260530593172 
909	 0,340626658194592 
910	 0,340977025105085 
911	 0,340998963213602 
912	 0,340433493819033 
913	 0,339422807142656 
914	 0,339319194359222 
915	 0,340224796343855 
916	 0,341971587214246 
917	 0,342448593009447 
918	 0,341935938582101 
919	 0,342404881730839 
920	 0,342554037756453 
921	 0,342196607345525 
922	 0,342523059342095 
923	 0,342687616615537 
924	 0,342096585478413 
925	 0,342655668162872 
926	 0,343402227498807 
927	 0,342023910465951 
928	 0,342221609538736 
929	 0,343933091718756 
930	 0,342867197684425 
931	 0,3416493619815 
932	 0,341754386101021 
933	 0,341744131238824 
934	 0,342031297688964 
935	 0,3432426087292 
936	 0,342818788729069 
937	 0,341403491417509 
938	 0,342555047803343 
939	 0,343201715212757 
940	 0,3424461794625 
941	 0,34211876075409 
942	 0,34168343265846 
943	 0,34074794793622 
944	 0,341353887069412 
945	 0,342060775310876 
946	 0,339556848382641 
947	 0,338597460358703 
948	 0,339632150858019 
949	 0,338986365382213 
950	 0,338111810766287 
951	 0,337625123791787 
952	 0,335813730648917 
953	 0,334065144819438 
954	 0,334143427475937 
955	 0,333739818211309 
956	 0,332623679714 
957	 0,331331318877738 
958	 0,331480529187719 
959	 0,332776269710804 
960	 0,330831629449972 
961	 0,329480249154792 
962	 0,331281925224715 
963	 0,330929426239668 
964	 0,329764115688819 
965	 0,330924954977857 
966	 0,331504706889421 
967	 0,331114180603712 
968	 0,330849994992484 
969	 0,33030424600804 
970	 0,329692772073173 
971	 0,330775376730273 
972	 0,332109314101892 
973	 0,332287371995707 
974	 0,332138105230264 
975	 0,331857318806327 
976	 0,331504612096055 
977	 0,332812163260448 
978	 0,335137044842596 
979	 0,334586426392904 
980	 0,333667636310165 
981	 0,333785751519054 
982	 0,335202494125264 
983	 0,336460803461382 
984	 0,336168202704258 
985	 0,335901405030759 
986	 0,336272727056746 
987	 0,337973117473113 
988	 0,337348535382917 
989	 0,335022963280012 
990	 0,337271180364513 
991	 0,339667756651124 
992	 0,34000676699861 
993	 0,340529167085932 
994	 0,34098342069497 
995	 0,340953918203065 
996	 0,34048595673548 
997	 0,340502691589687 
998	 0,342715280811747 
999	 0,344154890292909 
1000	 0,344597873403612 
1001	 0,347050998182751 
1002	 0,347112060758594 
1003	 0,343892928856113 
1004	 0,345836535189738 
1005	 0,349160964286578 
1006	 0,349634645536867 
1007	 0,349017448624689 
1008	 0,348636696063285 
1009	 0,350392023257927 
1010	 0,349869799360693 
1011	 0,346995705898894 
1012	 0,344703925752705 
1013	 0,347905739707456 
1014	 0,356317700743381 
1015	 0,356983502933777 
1016	 0,353320062980753 
1017	 0,34980858258473 
1018	 0,353406178888456 
1019	 0,358971794637699 
1020	 0,357416018846774 
1021	 0,357697476623573 
1022	 0,360716961884184 
1023	 0,363460259900019 
1024	 0,36296988032902 
1025	 0,359135763559711 
1026	 0,356245059103267 
1027	 0,357423405950924 
1028	 0,363219954355053 
1029	 0,362636654475673 
1030	 0,360126535826997 
1031	 0,362004524342636 
1032	 0,361707695690496 
1033	 0,360556757788118 
1034	 0,363583639415867 
1035	 0,364651007912657 
1036	 0,363511838530556 
1037	 0,365869014189351 
1038	 0,3666677676553 
1039	 0,364237541864967 
1040	 0,362298203712626 
1041	 0,363747334279971 
1042	 0,369398778741229 
1043	 0,367745946280854 
1044	 0,365265096191747 
1045	 0,37238172137065 
1046	 0,371546150733426 
1047	 0,365755453983161 
1048	 0,37094741055488 
1049	 0,371724611668002 
1050	 0,366319740050719 
1051	 0,366997309200083 
1052	 0,366506890240569 
1053	 0,36382064563729 
1054	 0,374350711971075 
1055	 0,381777233455977 
1056	 0,37341112602455 
1057	 0,376905439363717 
1058	 0,379763363595899 
1059	 0,360950711857751 
1060	 0,358689739886312 
1061	 0,37140497879561 
1062	 0,376297181165558 
1063	 0,379446640316206 
1064	 0,382982732023104 
1065	 0,393399310946033 
1066	 0,387457615284838 
1067	 0,363982502396652 
1068	 0,376570475197691 
1069	 0,392128665011223 
1070	 0,384520372570508 
1071	 0,369013746772158 
1072	 0,360516774536339 
1073	 0,373320115559541 
1074	 0,382218187547696 
1075	 0,385949797578184 
