Wavelength	NEUF00754.asd
325	 0,450326221700267 
326	 0,185893615506003 
327	 2,44776283622785E-02 
328	 0,158148143516376 
329	 0,181758333427273 
330	 0,165605720729024 
331	 0,138613128966874 
332	 0,1305804513079 
333	 0,148053077632933 
334	 0,181227616213891 
335	 0,209099097412471 
336	 0,214413902796665 
337	 0,165361839135136 
338	 9,99975502304825E-02 
339	 5,86173437125226E-02 
340	 3,63561133714916E-02 
341	 6,64509661105688E-02 
342	 0,226625056572166 
343	 0,292446588762261 
344	 0,247696543642334 
345	 0,161857817940947 
346	 0,103830860537552 
347	 0,118280528232161 
348	 0,147776033490319 
349	 0,165851326825552 
350	 0,122316435679665 
351	 0,12041104394291 
352	 0,173025383047784 
353	 0,157484491444273 
354	 0,117237281571395 
355	 0,116571071402309 
356	 0,129109158773626 
357	 0,147973865425068 
358	 0,173757289678598 
359	 0,181357976930986 
360	 0,166797176339242 
361	 0,183701528332297 
362	 0,206554258610611 
363	 0,196274053325233 
364	 0,191172328995711 
365	 0,19675745277527 
366	 0,194470512614495 
367	 0,200407307628725 
368	 0,220739789442578 
369	 0,206597461184124 
370	 0,178294549512602 
371	 0,177783266149177 
372	 0,176289542300456 
373	 0,170625401521804 
374	 0,178848997753082 
375	 0,187071331402597 
376	 0,185466017835107 
377	 0,193443831779492 
378	 0,204656088339563 
379	 0,197323005457847 
380	 0,205607617772098 
381	 0,232134472257517 
382	 0,241762992861669 
383	 0,238287799088267 
384	 0,226978052626706 
385	 0,225050760324453 
386	 0,228769103400883 
387	 0,215760262794324 
388	 0,21321708368522 
389	 0,226481806201613 
390	 0,221889041093172 
391	 0,209517365809653 
392	 0,204800335559391 
393	 0,201240660616214 
394	 0,200668195263847 
395	 0,213307519018864 
396	 0,221187065038307 
397	 0,215426258360102 
398	 0,209453350868667 
399	 0,204757363912824 
400	 0,200959036656658 
401	 0,2048085124125 
402	 0,215622177786683 
403	 0,226269415260643 
404	 0,232746751802822 
405	 0,231898438708499 
406	 0,220637970987525 
407	 0,20610806143938 
408	 0,201432950663453 
409	 0,204374773679636 
410	 0,211915985329994 
411	 0,214689279630403 
412	 0,211928054712613 
413	 0,204462279089512 
414	 0,210063424465643 
415	 0,221946578954679 
416	 0,214486050763999 
417	 0,210750778587239 
418	 0,217556184965845 
419	 0,214126716945352 
420	 0,209764030763194 
421	 0,217975897210717 
422	 0,219343654843836 
423	 0,213343827640334 
424	 0,21259074594874 
425	 0,214893949570113 
426	 0,218299515555977 
427	 0,2185110187582 
428	 0,216326663068383 
429	 0,21382521440384 
430	 0,214844906318762 
431	 0,218994658443323 
432	 0,219044451214684 
433	 0,217733600182855 
434	 0,217799435368549 
435	 0,219122613068483 
436	 0,22052529114723 
437	 0,218500158003429 
438	 0,219210591383382 
439	 0,22378158928111 
440	 0,223119443132381 
441	 0,220745761247325 
442	 0,222097783939819 
443	 0,221530602298271 
444	 0,219678916291401 
445	 0,222953263716931 
446	 0,226844313191949 
447	 0,228431269793775 
448	 0,228398965862823 
449	 0,227605048911492 
450	 0,227319485605661 
451	 0,228419498043896 
452	 0,23030318257197 
453	 0,228504051176895 
454	 0,228008729658943 
455	 0,233109868783101 
456	 0,232866977658427 
457	 0,229555501443595 
458	 0,235246883583467 
459	 0,238920915338127 
460	 0,236540683696413 
461	 0,233892438232958 
462	 0,232487531903302 
463	 0,233538198304814 
464	 0,233597537767172 
465	 0,232754285518749 
466	 0,234771849677953 
467	 0,236568088360299 
468	 0,236172768951856 
469	 0,235161148063854 
470	 0,234299497537782 
471	 0,234553531335467 
472	 0,234884990143911 
473	 0,234999353813921 
474	 0,235500554427665 
475	 0,235060880656653 
476	 0,232571366260366 
477	 0,233254073347152 
478	 0,236205164139375 
479	 0,235998475667265 
480	 0,23552266436989 
481	 0,235909801794787 
482	 0,235625931605518 
483	 0,234656959445974 
484	 0,233072076492809 
485	 0,233852374242332 
486	 0,236696691802551 
487	 0,237674080175172 
488	 0,236631572363214 
489	 0,233892478379536 
490	 0,233861811983514 
491	 0,23529053792775 
492	 0,233474590602742 
493	 0,231996225022071 
494	 0,23203633685696 
495	 0,233035756315371 
496	 0,233811093870029 
497	 0,233135759353911 
498	 0,233657708727201 
499	 0,235086892227586 
500	 0,234647482496284 
501	 0,234117637045466 
502	 0,234538655763006 
503	 0,235566379005637 
504	 0,236845385180491 
505	 0,23780730619107 
506	 0,239470743119336 
507	 0,241498571184999 
508	 0,241238866786804 
509	 0,240940255929875 
510	 0,24263001329747 
511	 0,244177096736187 
512	 0,244971709490404 
513	 0,244352375573557 
514	 0,244532641040277 
515	 0,246266112890258 
516	 0,247428893548109 
517	 0,248064996887621 
518	 0,248567695953272 
519	 0,248910128874658 
520	 0,249051882710696 
521	 0,248622931647081 
522	 0,24884281539193 
523	 0,250404194149583 
524	 0,250776904428333 
525	 0,250275178300705 
526	 0,250596972572988 
527	 0,250580770910809 
528	 0,250078600609202 
529	 0,25023296668676 
530	 0,250865335405276 
531	 0,251659804983749 
532	 0,251245432899544 
533	 0,250061512546929 
534	 0,250434476621102 
535	 0,251279139650663 
536	 0,2518471965528 
537	 0,251610352630777 
538	 0,250986095543516 
539	 0,250846927868537 
540	 0,251013598695838 
541	 0,251349249147713 
542	 0,251375945629425 
543	 0,251414314221121 
544	 0,251785167376809 
545	 0,252034450824128 
546	 0,252257431363973 
547	 0,25295663649822 
548	 0,253925807769202 
549	 0,254767038103588 
550	 0,253491220114063 
551	 0,251921638373229 
552	 0,2531881619617 
553	 0,254352035527024 
554	 0,25455163494731 
555	 0,253940481140459 
556	 0,253560640171931 
557	 0,254162947688657 
558	 0,253786527788019 
559	 0,252586060207093 
560	 0,251874785436425 
561	 0,250859681766183 
562	 0,249552572833846 
563	 0,249788562943908 
564	 0,250089724217771 
565	 0,248319121695177 
566	 0,248276648421717 
567	 0,249999063832247 
568	 0,249922354399168 
569	 0,250148605823622 
570	 0,252002832820913 
571	 0,253317744129701 
572	 0,254085819660824 
573	 0,254912593153295 
574	 0,256577050945081 
575	 0,259260352560003 
576	 0,26204769838895 
577	 0,264654303290333 
578	 0,266857443057186 
579	 0,268850185274901 
580	 0,270738796046228 
581	 0,272690255577332 
582	 0,274504645771128 
583	 0,276062194458654 
584	 0,277371719781797 
585	 0,278421756639607 
586	 0,27915625886851 
587	 0,280066241187937 
588	 0,281334084901503 
589	 0,282970941536379 
590	 0,284485224818957 
591	 0,285409437605044 
592	 0,285609772347557 
593	 0,285687318595939 
594	 0,287237461264777 
595	 0,289208773900419 
596	 0,290756533783041 
597	 0,29007253719534 
598	 0,288573577614538 
599	 0,28863954202356 
600	 0,288564888683836 
601	 0,28807874639234 
602	 0,287992894358025 
603	 0,28759008345242 
604	 0,286386668401231 
605	 0,285762585627346 
606	 0,285477742058828 
607	 0,284256451922251 
608	 0,283520322558375 
609	 0,283470651769429 
610	 0,282017667643307 
611	 0,280221980875666 
612	 0,279583964506221 
613	 0,279062281824141 
614	 0,278376915638599 
615	 0,277550003858985 
616	 0,276286034564044 
617	 0,274587162618158 
618	 0,274121447981574 
619	 0,274398844574994 
620	 0,273957542316755 
621	 0,273713831278601 
622	 0,273781905739084 
623	 0,273273330335398 
624	 0,27311711565528 
625	 0,27424200063876 
626	 0,274695080193065 
627	 0,274445005940245 
628	 0,274598905604902 
629	 0,275373438536139 
630	 0,27668077169927 
631	 0,276793382432262 
632	 0,276492372362198 
633	 0,277339786158188 
634	 0,27868430357547 
635	 0,280210264388501 
636	 0,281425349301416 
637	 0,282448953871783 
638	 0,283439161706945 
639	 0,284928574857399 
640	 0,286567251957504 
641	 0,287198577269705 
642	 0,287983429754212 
643	 0,289228762701855 
644	 0,289737762782792 
645	 0,290100734789855 
646	 0,291216287500082 
647	 0,291654186656711 
648	 0,291121524118466 
649	 0,289880280898134 
650	 0,288937713085767 
651	 0,288823446025063 
652	 0,287770866948931 
653	 0,285702740925315 
654	 0,282932998713793 
655	 0,280588745265465 
656	 0,278850679595964 
657	 0,276244389023048 
658	 0,273335624110567 
659	 0,270775954808559 
660	 0,267938022121063 
661	 0,265027796158453 
662	 0,263029943109767 
663	 0,260728026372003 
664	 0,25772922152341 
665	 0,255924118193167 
666	 0,254641059565943 
667	 0,252474578520597 
668	 0,250943460420566 
669	 0,250163739190903 
670	 0,248837221986377 
671	 0,247550096555954 
672	 0,246789631981936 
673	 0,246214687963771 
674	 0,245789999874319 
675	 0,245576623398509 
676	 0,245471411320414 
677	 0,245450926086611 
678	 0,245674997945932 
679	 0,245935260388172 
680	 0,245980224294942 
681	 0,246274581113655 
682	 0,247007111458489 
683	 0,248258134877111 
684	 0,250117858029008 
685	 0,25257100945547 
686	 0,254907825950939 
687	 0,257771080555636 
688	 0,26248879900335 
689	 0,267145917607032 
690	 0,271649044408092 
691	 0,278069507080937 
692	 0,286006906820715 
693	 0,294979417585464 
694	 0,304848584286319 
695	 0,315482241862924 
696	 0,326633083578438 
697	 0,338563444512068 
698	 0,351302707782594 
699	 0,364453874814448 
700	 0,377849995225675 
701	 0,391273063623093 
702	 0,404422261806795 
703	 0,417304858110323 
704	 0,4304050809147 
705	 0,442761321078182 
706	 0,453780326469598 
707	 0,464170056805659 
708	 0,474121428903492 
709	 0,483740663487129 
710	 0,492768225402431 
711	 0,501120293018913 
712	 0,508818443550965 
713	 0,515977858454568 
714	 0,522694415411229 
715	 0,528684596506005 
716	 0,534019069730116 
717	 0,538974404774348 
718	 0,543747706466049 
719	 0,548391441395782 
720	 0,552509289207632 
721	 0,556158879037313 
722	 0,559478882463325 
723	 0,56245489618229 
724	 0,565190904127807 
725	 0,567989955331285 
726	 0,570501333982236 
727	 0,572513227089418 
728	 0,574284198381015 
729	 0,575861464372545 
730	 0,577197437313443 
731	 0,578935503319591 
732	 0,58101457113972 
733	 0,582302981196951 
734	 0,583150657225335 
735	 0,583914675436549 
736	 0,584578573780475 
737	 0,585326441957863 
738	 0,586619808360598 
739	 0,587628723481711 
740	 0,588086761453683 
741	 0,588576777181811 
742	 0,588975525039649 
743	 0,589098896897156 
744	 0,58952487583458 
745	 0,590107097895877 
746	 0,589941349280102 
747	 0,589812541790796 
748	 0,590163174137934 
749	 0,590879614165632 
750	 0,59162973545596 
751	 0,591943894382088 
752	 0,592042355455676 
753	 0,592019656784266 
754	 0,591953440819325 
755	 0,592029468404079 
756	 0,592364038349135 
757	 0,592686668019675 
758	 0,592967732632107 
759	 0,593276679053708 
760	 0,593341202804914 
761	 0,593205581523859 
762	 0,593497138530457 
763	 0,593903350872942 
764	 0,59409453156561 
765	 0,594098334644956 
766	 0,594026659199251 
767	 0,594146117096275 
768	 0,594351720973104 
769	 0,594573976641492 
770	 0,594644414434374 
771	 0,594697409067295 
772	 0,594902600840704 
773	 0,594890350066797 
774	 0,594763059316867 
775	 0,59514652105132 
776	 0,59528611042475 
777	 0,594837491729221 
778	 0,594289833741677 
779	 0,594128066887602 
780	 0,594961497168805 
781	 0,595173650680301 
782	 0,594586988816948 
783	 0,594241990826875 
784	 0,594279789309643 
785	 0,594693981119437 
786	 0,594468282398349 
787	 0,594051626940955 
788	 0,594514873327834 
789	 0,594937440902241 
790	 0,594984233341969 
791	 0,594537866443208 
792	 0,594024850670476 
793	 0,59379874528454 
794	 0,59365401107582 
795	 0,593645129944158 
796	 0,593988540420773 
797	 0,594113202844206 
798	 0,593871327612668 
799	 0,593627664240467 
800	 0,593471707552824 
801	 0,593460474275464 
802	 0,593376626645917 
803	 0,59334977425847 
804	 0,59388554114902 
805	 0,59410102140553 
806	 0,593788488352609 
807	 0,593804214728405 
808	 0,594022059262635 
809	 0,594219806327082 
810	 0,593870826104461 
811	 0,5934071433443 
812	 0,594375359420246 
813	 0,595242898537149 
814	 0,595294845442885 
815	 0,594607192332931 
816	 0,593932346563069 
817	 0,594134508348916 
818	 0,594629916362289 
819	 0,595126537079679 
820	 0,595221985802418 
821	 0,595179295382986 
822	 0,59513568737116 
823	 0,595002882570513 
824	 0,59523133876874 
825	 0,596362218959676 
826	 0,596309781730717 
827	 0,595254904628653 
828	 0,595438917490754 
829	 0,595862142146061 
830	 0,595960972470229 
831	 0,595531091593589 
832	 0,595039315663946 
833	 0,595146754410094 
834	 0,59544437391976 
835	 0,595704336726243 
836	 0,595525317780322 
837	 0,595494477853488 
838	 0,595787818482736 
839	 0,59524082135549 
840	 0,594403618280055 
841	 0,594206500166821 
842	 0,594872049247309 
843	 0,595887085389886 
844	 0,59543153659402 
845	 0,594702866888904 
846	 0,594396035904134 
847	 0,594281069011551 
848	 0,594387141575061 
849	 0,5947649199002 
850	 0,594943255685656 
851	 0,594867057091074 
852	 0,594878024858527 
853	 0,594631086977288 
854	 0,594063240474904 
855	 0,594042361405691 
856	 0,594213680254891 
857	 0,593965561631703 
858	 0,593749635781043 
859	 0,593695288042286 
860	 0,593840207527775 
861	 0,594113668242351 
862	 0,594400086538555 
863	 0,594246756719475 
864	 0,594080990868474 
865	 0,594499532763492 
866	 0,594477269098681 
867	 0,594133900059607 
868	 0,594586909068942 
869	 0,595087117487215 
870	 0,5952906677169 
871	 0,595550763183616 
872	 0,59547397068494 
873	 0,594606745398358 
874	 0,594112418904966 
875	 0,594316843705681 
876	 0,595418927076208 
877	 0,595961899841535 
878	 0,595403384465609 
879	 0,59474131267934 
880	 0,594631483892378 
881	 0,595587595931388 
882	 0,595720687071589 
883	 0,595153691551188 
884	 0,595267619399717 
885	 0,595603814738673 
886	 0,595892663333921 
887	 0,595524074805789 
888	 0,595037621979064 
889	 0,594923858845005 
890	 0,594118094030954 
891	 0,59341288397618 
892	 0,595018403874684 
893	 0,59568229311199 
894	 0,594830399551396 
895	 0,595106365112243 
896	 0,595580677618139 
897	 0,595473360298135 
898	 0,595151972844286 
899	 0,594979928137548 
900	 0,59549737871873 
901	 0,596088556575665 
902	 0,596315634759242 
903	 0,595264553795008 
904	 0,594628113398698 
905	 0,595394076302181 
906	 0,596390643804393 
907	 0,596892966354826 
908	 0,596136596149637 
909	 0,595889685967751 
910	 0,596143875197726 
911	 0,595377480145831 
912	 0,594434328360999 
913	 0,593839110124628 
914	 0,594017993004705 
915	 0,594700835597945 
916	 0,595472629349874 
917	 0,595329644868515 
918	 0,594690762051267 
919	 0,595273157202719 
920	 0,59532726751238 
921	 0,594469136787552 
922	 0,593826396604472 
923	 0,5936789643871 
924	 0,594094821920017 
925	 0,593719878283276 
926	 0,59298847864354 
927	 0,593086275543704 
928	 0,593179689612028 
929	 0,593039092165699 
930	 0,592805539596892 
931	 0,59215748109631 
932	 0,591003857379372 
933	 0,589869298736152 
934	 0,589466578780759 
935	 0,590523240765539 
936	 0,590792524503274 
937	 0,590105071878065 
938	 0,589560657000352 
939	 0,589172800665019 
940	 0,588830064056805 
941	 0,58761909880365 
942	 0,586643415453273 
943	 0,586851477706681 
944	 0,587249424288332 
945	 0,587081061056711 
946	 0,585280903388915 
947	 0,584340752765707 
948	 0,584380800175881 
949	 0,582927199809502 
950	 0,581383152310482 
951	 0,580549781016968 
952	 0,579896489017822 
953	 0,579363096953017 
954	 0,578911842599364 
955	 0,578169147042759 
956	 0,576990385155051 
957	 0,57505890687071 
958	 0,574414528717131 
959	 0,575235171595914 
960	 0,574672428357183 
961	 0,57387577779901 
962	 0,573689584416941 
963	 0,572784504898982 
964	 0,571901023874263 
965	 0,572395696900442 
966	 0,572884376767748 
967	 0,572955487589426 
968	 0,572570061319526 
969	 0,571838925345042 
970	 0,570999167107431 
971	 0,57080765129906 
972	 0,570778799441346 
973	 0,570507312997937 
974	 0,571159414554055 
975	 0,572069099663056 
976	 0,571721780478922 
977	 0,572036263063484 
978	 0,573001457507459 
979	 0,572769000414052 
980	 0,572116592100651 
981	 0,571526177788331 
982	 0,571326772609423 
983	 0,571346914936991 
984	 0,571414060777392 
985	 0,572282147002053 
986	 0,573209749124577 
987	 0,572590633844063 
988	 0,571520524860122 
989	 0,570966423348295 
990	 0,573132843786867 
991	 0,5747288291832 
992	 0,574267893969201 
993	 0,574539166484592 
994	 0,575077728604441 
995	 0,575162757451103 
996	 0,574593349910343 
997	 0,575031262892857 
998	 0,579877076305544 
999	 0,580153988655661 
1000	 0,575884018599563 
1001	 0,576898121986593 
1002	 0,578968902700489 
1003	 0,579959661239187 
1004	 0,580397347363239 
1005	 0,580948023098976 
1006	 0,582097679695651 
1007	 0,581735414817334 
1008	 0,580685022566017 
1009	 0,581059325883529 
1010	 0,580089379885559 
1011	 0,57834617524548 
1012	 0,579644150285279 
1013	 0,583555606911184 
1014	 0,588377346888515 
1015	 0,58727624582563 
1016	 0,584436924723347 
1017	 0,583907790850118 
1018	 0,585520681714126 
1019	 0,587141683317432 
1020	 0,585689227583001 
1021	 0,585351161280574 
1022	 0,587306531501591 
1023	 0,592273179956224 
1024	 0,59425113306793 
1025	 0,591944278717851 
1026	 0,59036383910929 
1027	 0,58947529639857 
1028	 0,589093132788923 
1029	 0,588015118260653 
1030	 0,586976279698474 
1031	 0,586992936627667 
1032	 0,5884956483989 
1033	 0,590183198509636 
1034	 0,589401555756272 
1035	 0,588855122630348 
1036	 0,589740754062189 
1037	 0,593529270505251 
1038	 0,595541429209589 
1039	 0,594361997642825 
1040	 0,596272079868725 
1041	 0,59418220210333 
1042	 0,583980656411609 
1043	 0,580968142895979 
1044	 0,58589149619124 
1045	 0,595925964840286 
1046	 0,596901049304721 
1047	 0,59089690746617 
1048	 0,590633144127346 
1049	 0,592550842691586 
1050	 0,594367963498556 
1051	 0,591068140681265 
1052	 0,585831135857713 
1053	 0,582498410454592 
1054	 0,591220179317105 
1055	 0,598509833663001 
1056	 0,593856841747522 
1057	 0,599117033760057 
1058	 0,604908911399131 
1059	 0,59507342141765 
1060	 0,586801294574309 
1061	 0,585363481672581 
1062	 0,592559863309458 
1063	 0,589421730079388 
1064	 0,577792523966706 
1065	 0,58705904827989 
1066	 0,592288622738745 
1067	 0,586132543901214 
1068	 0,595847697623928 
1069	 0,600430132394029 
1070	 0,586783774470225 
1071	 0,587220645813378 
1072	 0,590053669793815 
1073	 0,578560332144556 
1074	 0,585551205010124 
1075	 0,599059610281398 
