Wavelength	NEUF00110.asd
325	 0,18495139296666 
326	 0,048934168456484 
327	-8,39198588900312E-02 
328	-0,080959943974088 
329	-7,91464225726815E-02 
330	-9,53534637750204E-02 
331	-0,14743974789543 
332	-7,85774356936593E-02 
333	 2,67615643263999E-02 
334	 0,091514714467223 
335	 3,08073779613878E-02 
336	-0,171497847098519 
337	-0,267702160177765 
338	-0,203410487463305 
339	-1,74258447627977E-02 
340	 5,35307909799324E-03 
341	-6,03267879941004E-02 
342	 3,77679156449902E-02 
343	 0,069774593427704 
344	 1,40078048013352E-02 
345	-1,39571946470489E-02 
346	-9,61439630252838E-03 
347	 1,12602575946959E-02 
348	-4,42208908681212E-02 
349	-0,137078455075931 
350	-0,100896470000753 
351	-3,58154665008821E-02 
352	 8,67479950356905E-03 
353	-1,04525583912736E-02 
354	-5,51934617892691E-02 
355	-7,35060442423836E-02 
356	-6,20338125064801E-02 
357	-0,029066873088179 
358	 3,58366369265906E-03 
359	 2,63865841367445E-02 
360	 3,65775970455711E-02 
361	 3,10216180303572E-02 
362	 0,014524687632183 
363	-9,3217703679602E-03 
364	-1,33752945826076E-02 
365	 6,16885852710723E-03 
366	 0,038798543039263 
367	 5,02042730684254E-02 
368	 2,03186301602705E-02 
369	-4,77122856687418E-04 
370	-3,89628110085765E-03 
371	 5,18753577191239E-03 
372	 9,80554272796753E-03 
373	 7,94104530246502E-03 
374	 1,87728251562314E-02 
375	 2,22056850876652E-02 
376	 5,17450930172996E-03 
377	 4,24475182512023E-03 
378	 1,46116936390802E-02 
379	 1,25152086857657E-02 
380	 1,82371410831655E-02 
381	 3,27356487295556E-02 
382	 3,65618925634938E-02 
383	 2,84379994342897E-02 
384	 8,53824472359815E-03 
385	 4,79283018305077E-03 
386	 9,15830256499118E-03 
387	-2,11248291349882E-02 
388	-2,28125930156216E-02 
389	 1,73400550400623E-02 
390	 2,81276602218331E-02 
391	 1,60579312250842E-02 
392	-4,34353207073034E-03 
393	-9,80118860069282E-03 
394	 1,58090362108902E-04 
395	 1,05074815929063E-02 
396	 1,68440286731762E-02 
397	 1,69312208146803E-02 
398	 2,04177423140108E-02 
399	 2,10057728894739E-02 
400	 6,95111160425892E-03 
401	 6,87402960074614E-03 
402	 2,06298945222868E-02 
403	 2,02085428308991E-02 
404	 1,74032073214702E-02 
405	 2,00386309008486E-02 
406	 1,77661636119091E-02 
407	 1,26534234428687E-02 
408	 1,11801951028414E-02 
409	 1,19191916833198E-02 
410	 1,27700530861217E-02 
411	 5,16924019107246E-03 
412	 1,60475331843284E-04 
413	 7,58055953001977E-03 
414	 1,26289275056316E-02 
415	 1,36409360836462E-02 
416	 1,40260049245652E-02 
417	 1,42036861212231E-02 
418	 1,38288778153068E-02 
419	 7,80324132484934E-03 
420	 4,64806416473324E-03 
421	 1,50217722369299E-02 
422	 1,68239889097885E-02 
423	 9,45237802699729E-03 
424	 7,60771612501629E-03 
425	 1,01499060522835E-02 
426	 1,54298103985679E-02 
427	 1,60227679417611E-02 
428	 1,28360392377958E-02 
429	 8,67488424027075E-03 
430	 0,010132025204558 
431	 1,66016714379927E-02 
432	 1,62391730538851E-02 
433	 1,27308087754522E-02 
434	 1,01263523597363E-02 
435	 1,23127257235389E-02 
436	 1,65804054246982E-02 
437	 1,38221903155004E-02 
438	 1,31069417179651E-02 
439	 1,64792071161849E-02 
440	 1,33338986629647E-02 
441	 8,58726853644222E-03 
442	 9,54196355703652E-03 
443	 8,81359159662215E-03 
444	 7,19934603039853E-03 
445	 1,36009362173357E-02 
446	 1,87035691328335E-02 
447	 0,017157873900426 
448	 1,57725361166772E-02 
449	 1,53250407972618E-02 
450	 1,52233954181482E-02 
451	 1,73573665382504E-02 
452	 2,05802634999123E-02 
453	 1,79019557661812E-02 
454	 1,32537460465599E-02 
455	 1,08439362503082E-02 
456	 1,07529322804844E-02 
457	 1,27770533426104E-02 
458	 1,66873608298715E-02 
459	 1,82961196120681E-02 
460	 1,63993067466375E-02 
461	 1,64434318582074E-02 
462	 1,76371994661841E-02 
463	 1,82243224457514E-02 
464	 1,61704573989277E-02 
465	 0,012785170432331 
466	 1,46638363221888E-02 
467	 1,58153464968041E-02 
468	 1,28955319488234E-02 
469	 1,38094673257722E-02 
470	 1,66390694556603E-02 
471	 1,52944269310169E-02 
472	 1,45513453550315E-02 
473	 1,54156394813026E-02 
474	 1,53391305801199E-02 
475	 1,47169416707864E-02 
476	 1,40695355221721E-02 
477	 1,32296775312476E-02 
478	 1,26109842284864E-02 
479	 1,32447719140224E-02 
480	 1,42336610808032E-02 
481	 1,50311557573918E-02 
482	 1,57128601188314E-02 
483	 0,014790406654258 
484	 9,88804566194419E-03 
485	 1,03067468840337E-02 
486	 1,57790832840065E-02 
487	 1,52662285670379E-02 
488	 1,32573154638781E-02 
489	 1,32700793753995E-02 
490	 1,37015199321903E-02 
491	 1,43247879328495E-02 
492	 1,51646691617768E-02 
493	 1,58057059400473E-02 
494	 1,59312943207227E-02 
495	 1,48424808644263E-02 
496	 1,38521638852394E-02 
497	 1,44381004336704E-02 
498	 1,54859732183027E-02 
499	 1,63398199982894E-02 
500	 1,60033875298026E-02 
501	 1,52765444520601E-02 
502	 1,47893252931186E-02 
503	 1,54758010324529E-02 
504	 0,016680765989371 
505	 1,70716171037807E-02 
506	 1,76521075340278E-02 
507	 1,83144102425127E-02 
508	 0,017463412163873 
509	 1,63636104410459E-02 
510	 0,016218564287331 
511	 1,68512662569721E-02 
512	 1,73618202936583E-02 
513	 0,015396116248423 
514	 1,39768587086899E-02 
515	 1,43804221465207E-02 
516	 1,54912629043377E-02 
517	 1,62112964357426E-02 
518	 1,51939506985441E-02 
519	 1,53605213203536E-02 
520	 1,67557233954354E-02 
521	 0,016609589880181 
522	 0,016254957594184 
523	 1,66353840300758E-02 
524	 1,67021483207161E-02 
525	 0,016656776213157 
526	 1,74463661051679E-02 
527	 1,74285508658469E-02 
528	 1,64411942391943E-02 
529	 1,69012891016989E-02 
530	 1,76552408779991E-02 
531	 1,72081176517796E-02 
532	 1,65185944541111E-02 
533	 0,016056735849124 
534	 1,65099013496662E-02 
535	 1,71712440159285E-02 
536	 1,76183843235969E-02 
537	 0,018305446756847 
538	 1,86935344801117E-02 
539	 1,76486364832432E-02 
540	 1,70738636744118E-02 
541	 1,73643769967384E-02 
542	 1,71966892006927E-02 
543	 1,69946954585893E-02 
544	 1,71946285586949E-02 
545	 1,67892300156641E-02 
546	 0,016143734458589 
547	 1,68070765896566E-02 
548	 1,76482897933843E-02 
549	 1,80600667929553E-02 
550	 1,79368667164992E-02 
551	 1,78286538302374E-02 
552	 1,86311790171201E-02 
553	 1,89429177714867E-02 
554	 1,85591524815273E-02 
555	 1,85228781881354E-02 
556	 1,80137667996232E-02 
557	 1,65239736001917E-02 
558	 1,68656932902326E-02 
559	 0,018283420001297 
560	 1,76388032640442E-02 
561	 1,66951713124112E-02 
562	 1,63260531385409E-02 
563	 1,75012028604175E-02 
564	 1,86037437526072E-02 
565	 1,74319828651516E-02 
566	 1,68641800270645E-02 
567	 1,72642791034368E-02 
568	 1,70501008312372E-02 
569	 1,70620631586709E-02 
570	 1,77865329362629E-02 
571	 1,79662018796046E-02 
572	 1,77810156324278E-02 
573	 1,80605150048556E-02 
574	 1,83603603309337E-02 
575	 1,84997786942799E-02 
576	 1,82946867131302E-02 
577	 1,81583697074043E-02 
578	 1,85511461469522E-02 
579	 1,86244833477704E-02 
580	 1,85756798043104E-02 
581	 0,019708689274473 
582	 2,05905786608744E-02 
583	 2,05127589722119E-02 
584	 2,09366781510192E-02 
585	 2,14312991014745E-02 
586	 2,08835905877133E-02 
587	 2,05264361596623E-02 
588	 2,06507769109677E-02 
589	 2,06236461618254E-02 
590	 2,08099045289888E-02 
591	 2,15107683553755E-02 
592	 2,15761764543601E-02 
593	 0,021127462119609 
594	 2,11011008274342E-02 
595	 2,13317352284482E-02 
596	 2,16533892820677E-02 
597	 2,13189961371055E-02 
598	 2,08943473426538E-02 
599	 2,13551704396092E-02 
600	 2,14070553280746E-02 
601	 2,08345795601318E-02 
602	 2,01785141534315E-02 
603	 2,00932744049563E-02 
604	 2,09617193575786E-02 
605	 2,09940385548166E-02 
606	 2,05038635113379E-02 
607	 2,11351070118262E-02 
608	 2,13548738365367E-02 
609	 2,08098234742458E-02 
610	 0,021064157952206 
611	 2,11664655790341E-02 
612	 1,98130474066461E-02 
613	 1,92317818217798E-02 
614	 1,96978678886842E-02 
615	 2,02846502574538E-02 
616	 2,01925080886177E-02 
617	 1,90603461216054E-02 
618	 1,87113068893269E-02 
619	 1,89780579427948E-02 
620	 1,89608314596612E-02 
621	 1,90494135025688E-02 
622	 1,92488139927371E-02 
623	 1,91158075184744E-02 
624	 1,89374693323092E-02 
625	 1,90366078257553E-02 
626	 1,94482289813918E-02 
627	 1,99546990806006E-02 
628	 1,99142769511968E-02 
629	 1,98807304215839E-02 
630	 2,01032061274821E-02 
631	 2,01918204664208E-02 
632	 2,01182630143745E-02 
633	 1,98954867116045E-02 
634	 1,98308440823716E-02 
635	 2,00642864965193E-02 
636	 2,06983560072561E-02 
637	 2,13248412193693E-02 
638	 2,16211329894526E-02 
639	 2,22056203345058E-02 
640	 2,28255041532274E-02 
641	 2,25621077990946E-02 
642	 2,22899659937813E-02 
643	 2,23422286847884E-02 
644	 2,23449002502056E-02 
645	 2,23685756091361E-02 
646	 2,25387662665829E-02 
647	 2,28991699661595E-02 
648	 2,32776295953528E-02 
649	 2,30629802287948E-02 
650	 2,28748450695482E-02 
651	 2,31007994901051E-02 
652	 2,33018186219339E-02 
653	 2,31243524771887E-02 
654	 2,19121203179395E-02 
655	 2,12506417061261E-02 
656	 2,14634588871922E-02 
657	 2,11391469557484E-02 
658	 2,05825263139115E-02 
659	 2,01934878332411E-02 
660	 1,97560247499254E-02 
661	 1,94566955086594E-02 
662	 2,00324393357778E-02 
663	 2,01302161650641E-02 
664	 1,92216818169734E-02 
665	 1,89483503340115E-02 
666	 1,89753940557924E-02 
667	 1,84612441531767E-02 
668	 1,82562457777747E-02 
669	 1,83926162164588E-02 
670	 1,79803692708542E-02 
671	 1,77965507342819E-02 
672	 1,83693707963206E-02 
673	 1,80353529425176E-02 
674	 0,017215941616315 
675	 1,75767450981514E-02 
676	 1,82414129291404E-02 
677	 1,87722987764918E-02 
678	 1,85799810448884E-02 
679	 1,82412700745213E-02 
680	 1,84942284785189E-02 
681	 1,88768513659927E-02 
682	 1,92238227767402E-02 
683	 1,93570058503817E-02 
684	 1,95272238889014E-02 
685	 1,98511417572972E-02 
686	 1,99373413032194E-02 
687	 2,00200570370953E-02 
688	 2,05846141434827E-02 
689	 2,13233033807883E-02 
690	 2,20939505174234E-02 
691	 2,26115884418939E-02 
692	 2,35771276938909E-02 
693	 0,025560780491138 
694	 2,73526386935561E-02 
695	 2,90323619951007E-02 
696	 3,13831924004302E-02 
697	 3,41131876619082E-02 
698	 0,037064307497684 
699	 3,99290142464573E-02 
700	 0,043099806472509 
701	 4,70882170544844E-02 
702	 5,13515396534305E-02 
703	 5,55791424488853E-02 
704	 5,93336926301513E-02 
705	 6,29870790711467E-02 
706	 6,67332494349226E-02 
707	 7,00246820092378E-02 
708	 7,32532592011807E-02 
709	 7,73194897685097E-02 
710	 8,07893781854318E-02 
711	 8,34266137512296E-02 
712	 8,64074377302281E-02 
713	 8,93320031977929E-02 
714	 9,18206224511471E-02 
715	 9,46058282577246E-02 
716	 9,74436598777333E-02 
717	 0,099323991802284 
718	 0,101306102209348 
719	 0,103646408645208 
720	 0,104996457265502 
721	 0,106020407304219 
722	 0,10771035900517 
723	 0,109418169887622 
724	 0,110889370519508 
725	 0,1117865050458 
726	 0,112763086009484 
727	 0,114138302654276 
728	 0,114947833967245 
729	 0,115418444337947 
730	 0,116172116569849 
731	 0,116985294741071 
732	 0,117808576209785 
733	 0,118720596244008 
734	 0,119363622361605 
735	 0,119484767126897 
736	 0,119969873316515 
737	 0,120795786941134 
738	 0,121561116571443 
739	 0,121839320899733 
740	 0,121636083587254 
741	 0,122105559108412 
742	 0,122800717458877 
743	 0,123095617652035 
744	 0,123154331683126 
745	 0,123137300606036 
746	 0,12340528008194 
747	 0,123817132668149 
748	 0,124268867705502 
749	 0,124590364444198 
750	 0,124834840664006 
751	 0,12511630199203 
752	 0,125546036896614 
753	 0,125986659900439 
754	 0,125786978684916 
755	 0,12563628030649 
756	 0,126010037533713 
757	 0,12628335798215 
758	 0,126421627793038 
759	 0,12657967827479 
760	 0,12651287508524 
761	 0,126321145175254 
762	 0,126810198635161 
763	 0,127376362436092 
764	 0,127441563894509 
765	 0,127659076131299 
766	 0,128026981954622 
767	 0,128276354875361 
768	 0,128207878252142 
769	 0,127859002356879 
770	 0,127923047715756 
771	 0,128328248885162 
772	 0,128899197444345 
773	 0,129108260701792 
774	 0,129002520517241 
775	 0,129161877410409 
776	 0,129357024731772 
777	 0,12946959438096 
778	 0,129467971048605 
779	 0,129536553925277 
780	 0,129954701769286 
781	 0,129960027604405 
782	 0,129584165770196 
783	 0,12970375089378 
784	 0,129914479164274 
785	 0,129975864109927 
786	 0,130264535172671 
787	 0,130586094352685 
788	 0,130500247745111 
789	 0,130638378747962 
790	 0,131057317662175 
791	 0,131128459354502 
792	 0,131231761515706 
793	 0,131650202106004 
794	 0,131899162724194 
795	 0,132017961022048 
796	 0,132306661807817 
797	 0,132247568834088 
798	 0,131863857496729 
799	 0,132087131043552 
800	 0,132512792077898 
801	 0,132707995322344 
802	 0,132685617889784 
803	 0,132601294919194 
804	 0,13286271233115 
805	 0,133118802546403 
806	 0,133248279371365 
807	 0,133299010732662 
808	 0,133564329345459 
809	 0,134296928065327 
810	 0,134203845009633 
811	 0,133649903270824 
812	 0,134468783238421 
813	 0,135103715566161 
814	 0,134946991389526 
815	 0,134589304665538 
816	 0,134412949252747 
817	 0,134794081050378 
818	 0,135319886123022 
819	 0,135786936270808 
820	 0,135988641021334 
821	 0,135893144912414 
822	 0,135559921631675 
823	 0,135360863935825 
824	 0,135568134415799 
825	 0,136444283286825 
826	 0,136941266685656 
827	 0,137001499073682 
828	 0,13743962070062 
829	 0,137542789757775 
830	 0,137055134358621 
831	 0,136808761523203 
832	 0,136909825243681 
833	 0,137357020166724 
834	 0,137366829922718 
835	 0,13697462594775 
836	 0,136946535466802 
837	 0,137355337036719 
838	 0,138085661499508 
839	 0,137971721571222 
840	 0,137614555788545 
841	 0,138037063158352 
842	 0,13846776738361 
843	 0,138690137633118 
844	 0,138653319857735 
845	 0,138627570835788 
846	 0,138751291432286 
847	 0,13881667095232 
848	 0,138781921779618 
849	 0,138619503657002 
850	 0,138996077141475 
851	 0,139788948806255 
852	 0,140163296996378 
853	 0,139805361402009 
854	 0,138768946821746 
855	 0,138653162444621 
856	 0,139165349072627 
857	 0,139631221614607 
858	 0,1397265109529 
859	 0,139512608163859 
860	 0,139575653478666 
861	 0,139581072917479 
862	 0,139416017701391 
863	 0,139391891318798 
864	 0,139780332726721 
865	 0,140851597280087 
866	 0,141196583209286 
867	 0,140682991515572 
868	 0,139949461770294 
869	 0,139751150545379 
870	 0,140337894213877 
871	 0,140532164630701 
872	 0,140532065607422 
873	 0,140705952882712 
874	 0,140573686471826 
875	 0,140420260323569 
876	 0,141428044225957 
877	 0,141912914063291 
878	 0,14136449185245 
879	 0,1413137840773 
880	 0,141762453253433 
881	 0,142530796809165 
882	 0,142770650592144 
883	 0,142573710254155 
884	 0,142635840085358 
885	 0,143090190191154 
886	 0,143796857920972 
887	 0,143727813621686 
888	 0,143211973479249 
889	 0,142692477498318 
890	 0,142857493143812 
891	 0,143575169959452 
892	 0,144298708748498 
893	 0,14455071495606 
894	 0,144324873899658 
895	 0,144545723002855 
896	 0,144665744633519 
897	 0,144313857893948 
898	 0,14442221987947 
899	 0,144794549257998 
900	 0,144825790189044 
901	 0,1448286966246 
902	 0,144955054582202 
903	 0,145503976049844 
904	 0,145753685816956 
905	 0,145387766353123 
906	 0,145679021885374 
907	 0,146195022515192 
908	 0,146109117949785 
909	 0,145741027755236 
910	 0,145337027815314 
911	 0,145477178272121 
912	 0,145232477567897 
913	 0,144491823080583 
914	 0,145344061851479 
915	 0,146606637911265 
916	 0,146781685091625 
917	 0,146386867980404 
918	 0,145939113256615 
919	 0,146547718412717 
920	 0,146797578279154 
921	 0,146412985739044 
922	 0,146668651630285 
923	 0,146755179360428 
924	 0,146075982056274 
925	 0,1460184758118 
926	 0,146540412487593 
927	 0,14717075871769 
928	 0,147532719211748 
929	 0,147388282642342 
930	 0,146407832532222 
931	 0,145714019202805 
932	 0,145881363085531 
933	 0,145702669726964 
934	 0,145792050843468 
935	 0,147013886733286 
936	 0,146501025055601 
937	 0,1447391851671 
938	 0,144903740890691 
939	 0,145332206924458 
940	 0,145456972295402 
941	 0,145662991928545 
942	 0,145509366292843 
943	 0,144755236823657 
944	 0,145229006089688 
945	 0,146106436939649 
946	 0,145292734776825 
947	 0,144738975246057 
948	 0,144790220787426 
949	 0,144670161925282 
950	 0,143947488742274 
951	 0,142567522511002 
952	 0,141820341435957 
953	 0,141737758950403 
954	 0,142115243986798 
955	 0,141852414039173 
956	 0,141056561093766 
957	 0,140614425031593 
958	 0,140780412205705 
959	 0,141333694427206 
960	 0,140753136174486 
961	 0,139946628966323 
962	 0,139630881433841 
963	 0,139124025863306 
964	 0,139111227965775 
965	 0,140709188932325 
966	 0,140433942830678 
967	 0,13864282736086 
968	 0,139296487903882 
969	 0,139994051388168 
970	 0,13981387586861 
971	 0,139557031481757 
972	 0,139443875833998 
973	 0,139629313816596 
974	 0,139789992996028 
975	 0,140247807301917 
976	 0,141658821707377 
977	 0,142982964262317 
978	 0,143331170325164 
979	 0,140783800356632 
980	 0,138460924330484 
981	 0,138347584381393 
982	 0,141819845768311 
983	 0,144121097685851 
984	 0,140938216912041 
985	 0,140675760266386 
986	 0,1425021203962 
987	 0,14171969343799 
988	 0,141786876680225 
989	 0,142753178736512 
990	 0,141042482120054 
991	 0,141132713044267 
992	 0,144425430101133 
993	 0,144290603802716 
994	 0,142870673308739 
995	 0,142863257306377 
996	 0,141335827025447 
997	 0,140309170716792 
998	 0,144565700775119 
999	 0,146518799420755 
1000	 0,145271103463559 
1001	 0,146468905904005 
1002	 0,146037517320055 
1003	 0,143044100980998 
1004	 0,144335273925495 
1005	 0,146254353660755 
1006	 0,14499119800757 
1007	 0,14427681553323 
1008	 0,144436479880125 
1009	 0,144866221495412 
1010	 0,146622663988685 
1011	 0,148820441995149 
1012	 0,147652756907778 
1013	 0,147665578075492 
1014	 0,149794585979768 
1015	 0,147688649125415 
1016	 0,145334563991729 
1017	 0,146291112708357 
1018	 0,14865399728025 
1019	 0,149574699850648 
1020	 0,145554635026019 
1021	 0,146318318472497 
1022	 0,151276541052489 
1023	 0,152185597846087 
1024	 0,150518719933231 
1025	 0,147734973443556 
1026	 0,148395969343529 
1027	 0,149910569557568 
1028	 0,150669705576129 
1029	 0,152792629355903 
1030	 0,154784961062337 
1031	 0,154657216322837 
1032	 0,150312251575353 
1033	 0,147253172919182 
1034	 0,157133572375266 
1035	 0,156395429192975 
1036	 0,145507222409505 
1037	 0,151232836326826 
1038	 0,1547005265794 
1039	 0,149152968802415 
1040	 0,147093638996949 
1041	 0,14724468619351 
1042	 0,148159782354668 
1043	 0,151529690115391 
1044	 0,155947740546016 
1045	 0,159063433120858 
1046	 0,157735628702396 
1047	 0,154832276292878 
1048	 0,158728396343982 
1049	 0,158431607291068 
1050	 0,153681251578182 
1051	 0,156964144024542 
1052	 0,160321161297538 
1053	 0,160869704171908 
1054	 0,168726708525819 
1055	 0,166677257028071 
1056	 0,143870419934019 
1057	 0,145929283052725 
1058	 0,158026709584644 
1059	 0,151304011423161 
1060	 0,152416646372479 
1061	 0,159478613039566 
1062	 0,156739018328217 
1063	 0,151385970292081 
1064	 0,148680844344967 
1065	 0,160466352076275 
1066	 0,163667452664451 
1067	 0,152334015063199 
1068	 0,156687820172661 
1069	 0,165675132458676 
1070	 0,168167871102946 
1071	 0,155115364335229 
1072	 0,141579809818206 
1073	 0,146073950976319 
1074	 0,147158367392254 
1075	 0,150413391086195 
