Wavelength	NEUF00519.asd
325	 0,16821948195994 
326	-0,13445932522949 
327	-0,130028160103426 
328	 0,175858834711054 
329	 0,11657441747737 
330	-7,54113509644274E-03 
331	-4,21949667855188E-03 
332	 4,03569746966014E-02 
333	 6,05449897642055E-02 
334	 1,63072131087935E-02 
335	 6,73331544383634E-02 
336	 0,214161011741687 
337	 0,041364684429939 
338	-0,105546278187661 
339	 6,28947617074784E-02 
340	 9,51641266119578E-02 
341	 2,77206595217922E-02 
342	 7,74947480765464E-02 
343	 0,105267736157429 
344	 9,95067781541658E-02 
345	 0,130709158707427 
346	 0,14997765302481 
347	 0,11152111298299 
348	 3,98669357853031E-02 
349	-2,08314439143995E-02 
350	 5,11467444505654E-02 
351	 0,114356816754422 
352	 0,116131202519871 
353	 5,48599025771264E-02 
354	 9,37683092740507E-03 
355	 7,62659978195328E-02 
356	 0,100552411214725 
357	 7,25887674851587E-02 
358	 5,88691697492099E-02 
359	 6,12522524356847E-02 
360	 0,07935828006342 
361	 9,18993776231011E-02 
362	 9,44517582422805E-02 
363	 8,75116612177613E-02 
364	 8,05228566828169E-02 
365	 8,37276185430347E-02 
366	 0,122287214098238 
367	 0,137485171557607 
368	 0,096282833287692 
369	 7,92295961973798E-02 
370	 8,79677547719067E-02 
371	 0,100696300114624 
372	 0,107583692449783 
373	 0,103583784707692 
374	 8,85371517288934E-02 
375	 0,072556677868732 
376	 6,58618361312254E-02 
377	 9,07403432351717E-02 
378	 0,124261873395668 
379	 0,111589439478514 
380	 0,107872557907141 
381	 0,122965524579261 
382	 0,115710102917594 
383	 0,105088249638865 
384	 0,109378221291076 
385	 0,109722997209282 
386	 0,106141524006712 
387	 0,108549493822129 
388	 0,108260570491066 
389	 0,103574221551134 
390	 0,105299641434342 
391	 0,105747169142282 
392	 0,095247992287668 
393	 0,105204024958496 
394	 0,126798131489024 
395	 0,113867037087685 
396	 0,107133058411778 
397	 0,123657678448881 
398	 0,123233128313316 
399	 0,113733647764793 
400	 0,11190469249988 
401	 0,117748800625044 
402	 0,127912731728774 
403	 0,131251778902423 
404	 0,128353392765316 
405	 0,120583988768604 
406	 0,113226102131143 
407	 0,109157972185438 
408	 0,112576927987854 
409	 0,113360753367639 
410	 0,109635896326838 
411	 0,107927124549143 
412	 0,10916338208605 
413	 0,113623666498178 
414	 0,118550465368736 
415	 0,122728491722778 
416	 0,125239402920987 
417	 0,126955592653756 
418	 0,127417172803417 
419	 0,121507548221996 
420	 0,115289512948251 
421	 0,11636541606603 
422	 0,116505788527739 
423	 0,114807941611428 
424	 0,114490889270478 
425	 0,115827499191238 
426	 0,118611959625037 
427	 0,120093958889983 
428	 0,119954769152194 
429	 0,118293238828814 
430	 0,116826701447678 
431	 0,116690029939173 
432	 0,119987473165902 
433	 0,122129688549018 
434	 0,119406506556678 
435	 0,120290448857751 
436	 0,123330359223408 
437	 0,12063857966912 
438	 0,119289352660019 
439	 0,121035792105667 
440	 0,118492854797373 
441	 0,11501379439202 
442	 0,11558765291137 
443	 0,115759053763376 
444	 0,115582057192644 
445	 0,118602840489638 
446	 0,123019398134726 
447	 0,127129640694645 
448	 0,127098725820808 
449	 0,124924122907323 
450	 0,125235337086992 
451	 0,125476802017649 
452	 0,125018323792368 
453	 0,124367725483497 
454	 0,123234574724864 
455	 0,121599488383793 
456	 0,123028475466531 
457	 0,126983241345053 
458	 0,131212259891686 
459	 0,130416577799386 
460	 0,124050349248102 
461	 0,124941587486253 
462	 0,12742191436769 
463	 0,12227787939855 
464	 0,121248964014559 
465	 0,125522041280538 
466	 0,129448960084545 
467	 0,129207801103173 
468	 0,123340677323265 
469	 0,123317991827622 
470	 0,12668619362048 
471	 0,124885229250062 
472	 0,124333047034361 
473	 0,126305298524738 
474	 0,127633426947953 
475	 0,126837720849871 
476	 0,122954983501159 
477	 0,123107358246893 
478	 0,126811006989899 
479	 0,128651928771839 
480	 0,129626393429917 
481	 0,129995843224618 
482	 0,129917484082464 
483	 0,128127375940513 
484	 0,122458198813521 
485	 0,12237265223581 
486	 0,127724744934207 
487	 0,127595585393561 
488	 0,126358821950344 
489	 0,127215520373922 
490	 0,126224014413361 
491	 0,124295971192417 
492	 0,12470377698724 
493	 0,125641724495253 
494	 0,126482928054314 
495	 0,127555319600632 
496	 0,127565956335444 
497	 0,125156321958064 
498	 0,125098064445576 
499	 0,12705840038338 
500	 0,126444902832512 
501	 0,12569145960863 
502	 0,126091300553862 
503	 0,126331830938397 
504	 0,126702355064045 
505	 0,127923632980555 
506	 0,129954686576589 
507	 0,132060341986054 
508	 0,13150364303562 
509	 0,13046923915101 
510	 0,131003140268915 
511	 0,131932074263473 
512	 0,132732009571758 
513	 0,13275220361176 
514	 0,132046450047998 
515	 0,13094204084101 
516	 0,131124286369559 
517	 0,132065149212079 
518	 0,132807995357866 
519	 0,133359765978003 
520	 0,133582569674947 
521	 0,133207678568495 
522	 0,13268043350955 
523	 0,132400489341542 
524	 0,132911224209895 
525	 0,133785331973422 
526	 0,133839768465077 
527	 0,134260740291043 
528	 0,135130881315404 
529	 0,134767887745745 
530	 0,133915946818402 
531	 0,133556157457566 
532	 0,133547780476021 
533	 0,133779692813175 
534	 0,133909226860598 
535	 0,134219694691772 
536	 0,134756129462197 
537	 0,134518203601212 
538	 0,133891954646613 
539	 0,133819581169297 
540	 0,133796525744998 
541	 0,133642864470748 
542	 0,133073134407927 
543	 0,133026164753568 
544	 0,13432646928375 
545	 0,134709769971817 
546	 0,134285966314323 
547	 0,134777623159805 
548	 0,135169686715075 
549	 0,135042416747142 
550	 0,134964522752135 
551	 0,135037854605813 
552	 0,135321119898275 
553	 0,135540138609223 
554	 0,135595366040265 
555	 0,135481050255596 
556	 0,135378380789744 
557	 0,135401871955574 
558	 0,134994897648002 
559	 0,134300638503715 
560	 0,133901706790243 
561	 0,133473011194557 
562	 0,133057801839344 
563	 0,13367829899483 
564	 0,134192217988584 
565	 0,133012461697197 
566	 0,132656634645238 
567	 0,133314471503463 
568	 0,133166965198769 
569	 0,133143453299504 
570	 0,133834108548271 
571	 0,134287237192844 
572	 0,134656957646756 
573	 0,135567030521025 
574	 0,13680248467406 
575	 0,138173184994981 
576	 0,138948668751484 
577	 0,14016772396049 
578	 0,142980331957483 
579	 0,144321550559342 
580	 0,144209253191609 
581	 0,144960355494511 
582	 0,146316709007215 
583	 0,147996715668809 
584	 0,148678179730118 
585	 0,148841648240509 
586	 0,149658527619164 
587	 0,150475124046652 
588	 0,151078024307632 
589	 0,15130231951829 
590	 0,151770806955545 
591	 0,153013949964752 
592	 0,153918050616232 
593	 0,154314627702925 
594	 0,154309936464489 
595	 0,154807225042771 
596	 0,155996891952236 
597	 0,156003803832139 
598	 0,155289736350857 
599	 0,154841683101505 
600	 0,154438896257991 
601	 0,154151577325934 
602	 0,154371044976876 
603	 0,154341126607668 
604	 0,153511446380353 
605	 0,152839457953492 
606	 0,152345622982926 
607	 0,15154101392076 
608	 0,151316447380808 
609	 0,151685158887363 
610	 0,150649809922992 
611	 0,14937090515515 
612	 0,149463758606844 
613	 0,149207358955626 
614	 0,148491701985608 
615	 0,148496175231903 
616	 0,148082886326341 
617	 0,146710495604061 
618	 0,146374210221853 
619	 0,146774945754776 
620	 0,146781989763038 
621	 0,146501345411782 
622	 0,146061599383553 
623	 0,14608188379115 
624	 0,146351607580411 
625	 0,146602734852166 
626	 0,146648365851682 
627	 0,146589059605188 
628	 0,146886009597156 
629	 0,147079797896154 
630	 0,147041822957721 
631	 0,147649093458895 
632	 0,148486234742403 
633	 0,148693462214674 
634	 0,149423535679264 
635	 0,150756324452643 
636	 0,151552909297395 
637	 0,152440325242806 
638	 0,153892947392946 
639	 0,154581802539343 
640	 0,154639627950657 
641	 0,154905541966597 
642	 0,155780719865757 
643	 0,157200241762264 
644	 0,157490909159464 
645	 0,157342518275299 
646	 0,157855905666435 
647	 0,157969375833001 
648	 0,157695091974531 
649	 0,158070012461703 
650	 0,158021255700033 
651	 0,156914335989845 
652	 0,15601402544786 
653	 0,155207443674714 
654	 0,153814259572028 
655	 0,152614055759067 
656	 0,151649756781061 
657	 0,149763609584972 
658	 0,147749064302916 
659	 0,146465422624466 
660	 0,145106288802976 
661	 0,14371438351331 
662	 0,142996773255102 
663	 0,141881990791199 
664	 0,139971373347991 
665	 0,13857211190768 
666	 0,137659741709177 
667	 0,136931434881967 
668	 0,136547877033346 
669	 0,136201561417585 
670	 0,134557769126241 
671	 0,133243790734543 
672	 0,13350943386438 
673	 0,133672676943766 
674	 0,133571397351405 
675	 0,133601446151048 
676	 0,133536304804251 
677	 0,13331781562897 
678	 0,133044960236828 
679	 0,132905336389798 
680	 0,13310049065674 
681	 0,133240782264258 
682	 0,133558719638966 
683	 0,135115577139617 
684	 0,136663536943887 
685	 0,137512520088201 
686	 0,138477470688722 
687	 0,139986924161988 
688	 0,142554127374398 
689	 0,145506371823423 
690	 0,148772067118135 
691	 0,15291793654622 
692	 0,157845963962843 
693	 0,163422627595133 
694	 0,169432160827485 
695	 0,176163264892434 
696	 0,184393978490773 
697	 0,193375418742689 
698	 0,202798933162395 
699	 0,212877257529493 
700	 0,223621412033511 
701	 0,234968427157021 
702	 0,246617574606923 
703	 0,258350491514312 
704	 0,269905081447419 
705	 0,28122303520201 
706	 0,292202618806722 
707	 0,3025503390488 
708	 0,312314573580602 
709	 0,321634367288493 
710	 0,330434600984709 
711	 0,338829357955524 
712	 0,347364352490078 
713	 0,355407103173119 
714	 0,362380797509158 
715	 0,368884982691269 
716	 0,374991026265514 
717	 0,380578363754596 
718	 0,385773087380352 
719	 0,390686091517863 
720	 0,395519761276167 
721	 0,400070171609134 
722	 0,404074442299467 
723	 0,407544227951445 
724	 0,410652418848782 
725	 0,413960651846008 
726	 0,416869034450615 
727	 0,419046890968451 
728	 0,421082287918799 
729	 0,423115035300168 
730	 0,4252055182345 
731	 0,427345429652471 
732	 0,429408380857233 
733	 0,430937129864374 
734	 0,432224525906432 
735	 0,433530436481131 
736	 0,43456740939134 
737	 0,435470652301617 
738	 0,436693192329136 
739	 0,437759608471291 
740	 0,438545351546003 
741	 0,439465502522339 
742	 0,440313176117717 
743	 0,440826257948571 
744	 0,4415372630313 
745	 0,442433698621499 
746	 0,443100238237294 
747	 0,443579509807131 
748	 0,443952715225845 
749	 0,444658899929966 
750	 0,445436556992794 
751	 0,445788709601973 
752	 0,44643131291026 
753	 0,447318819635417 
754	 0,447536175086255 
755	 0,447634576036589 
756	 0,448006359848539 
757	 0,448178718983297 
758	 0,448428067728355 
759	 0,449521549155033 
760	 0,449989552142515 
761	 0,44965723452064 
762	 0,450223300311701 
763	 0,450885007365231 
764	 0,450848086132926 
765	 0,450964716370691 
766	 0,451291739083944 
767	 0,451549191660621 
768	 0,451801825328755 
769	 0,452063008174602 
770	 0,452267953081636 
771	 0,45262678781279 
772	 0,453371047266507 
773	 0,453654564632377 
774	 0,453554658543111 
775	 0,453967754719819 
776	 0,454297624691151 
777	 0,454269534075608 
778	 0,454214103978682 
779	 0,454262947097319 
780	 0,454549172007387 
781	 0,454659920799532 
782	 0,454612869529581 
783	 0,454873577463052 
784	 0,455310307817871 
785	 0,455781977329254 
786	 0,455904925519573 
787	 0,455889766449553 
788	 0,456240601793747 
789	 0,456198528171232 
790	 0,455806778360679 
791	 0,456209157222624 
792	 0,456667991584527 
793	 0,456621229190657 
794	 0,456929822965143 
795	 0,457466774163475 
796	 0,457687026672538 
797	 0,457790357201575 
798	 0,457769159995853 
799	 0,457236058572279 
800	 0,457067363581204 
801	 0,457993140824906 
802	 0,458237878586428 
803	 0,457933823725751 
804	 0,458318455746272 
805	 0,458740973724368 
806	 0,458973479951237 
807	 0,459048098169582 
808	 0,459108597788108 
809	 0,459299224470999 
810	 0,459324911587512 
811	 0,459305575748327 
812	 0,459737330595378 
813	 0,460203022060268 
814	 0,460482900864757 
815	 0,460462843393796 
816	 0,460358087130004 
817	 0,460445075383097 
818	 0,461071012651527 
819	 0,461967688615829 
820	 0,462177018558712 
821	 0,461989259891399 
822	 0,461649653785493 
823	 0,461762359791359 
824	 0,462197332297641 
825	 0,462686723838537 
826	 0,462674646741373 
827	 0,462328416684051 
828	 0,4626272945023 
829	 0,463093423901178 
830	 0,463470403723653 
831	 0,4638677770278 
832	 0,463993406268311 
833	 0,463465262637996 
834	 0,463227309352099 
835	 0,463395911330367 
836	 0,463421745515902 
837	 0,463678589262287 
838	 0,464268778383222 
839	 0,464515242355691 
840	 0,464487977231047 
841	 0,46440281722467 
842	 0,464689230089497 
843	 0,465196314886242 
844	 0,465069937843645 
845	 0,464674041929428 
846	 0,46425793211145 
847	 0,463949605909078 
848	 0,463991451590145 
849	 0,464667154623169 
850	 0,465304204477812 
851	 0,465607153768517 
852	 0,465323610655335 
853	 0,46501627680388 
854	 0,464981741535299 
855	 0,464756347763836 
856	 0,464809267483174 
857	 0,46581283062653 
858	 0,466134263086306 
859	 0,46563149444815 
860	 0,465212508357767 
861	 0,465102623795887 
862	 0,465411931503315 
863	 0,465778340452829 
864	 0,466094247120686 
865	 0,466287665859923 
866	 0,466733578772684 
867	 0,46727794286559 
868	 0,467152959342514 
869	 0,467171092843897 
870	 0,46763835642788 
871	 0,46789685018108 
872	 0,46781908008967 
873	 0,467355898638337 
874	 0,46716872583475 
875	 0,467377888781427 
876	 0,467844304175953 
877	 0,468310517563519 
878	 0,468511927263716 
879	 0,467765802471619 
880	 0,467244048587711 
881	 0,468168898552604 
882	 0,468731650757955 
883	 0,468717461569972 
884	 0,468517619245588 
885	 0,468796593839819 
886	 0,469543767685695 
887	 0,469192418460751 
888	 0,468776170572065 
889	 0,469214795374956 
890	 0,468277769784056 
891	 0,46691198233006 
892	 0,46805567479689 
893	 0,468915861582119 
894	 0,468740662189885 
895	 0,468545429099255 
896	 0,468492213252208 
897	 0,468705247565399 
898	 0,469180864721332 
899	 0,469823492828105 
900	 0,470491795631606 
901	 0,471014367160025 
902	 0,471123209840033 
903	 0,470011857965355 
904	 0,469373208803894 
905	 0,470163841884546 
906	 0,47101499116539 
907	 0,471197388708501 
908	 0,469982907628228 
909	 0,469868871060543 
910	 0,470829000976443 
911	 0,470669972814307 
912	 0,470349940993512 
913	 0,470271606618784 
914	 0,470067937301816 
915	 0,470053602572733 
916	 0,470541110166241 
917	 0,470388680332091 
918	 0,469807463004691 
919	 0,469885216848746 
920	 0,470417304522412 
921	 0,471076061034525 
922	 0,470641394188822 
923	 0,470033527456399 
924	 0,470002671470767 
925	 0,469444429153722 
926	 0,468711812543527 
927	 0,468720365819383 
928	 0,468776826130218 
929	 0,468568330407708 
930	 0,467715239597014 
931	 0,466987791239637 
932	 0,466827196852031 
933	 0,466762528486314 
934	 0,466841613162444 
935	 0,467154109589316 
936	 0,466437789675984 
937	 0,465047392251926 
938	 0,464720105198924 
939	 0,464711282151599 
940	 0,46475839577809 
941	 0,465099300035551 
942	 0,464561291841685 
943	 0,462396401655036 
944	 0,46207038824792 
945	 0,462419943435005 
946	 0,460143197703852 
947	 0,459110015642362 
948	 0,459763771479895 
949	 0,459636065140981 
950	 0,458630584109975 
951	 0,456821243467214 
952	 0,455238637764104 
953	 0,453895314239414 
954	 0,452678370259106 
955	 0,452396469106583 
956	 0,452314143829392 
957	 0,449995546841685 
958	 0,448813769539613 
959	 0,449733943297735 
960	 0,451523918512625 
961	 0,451780752851682 
962	 0,449116710418729 
963	 0,447724167015704 
964	 0,447389255157338 
965	 0,44681933609152 
966	 0,445706252311393 
967	 0,444671057754659 
968	 0,446205958184631 
969	 0,446575683041419 
970	 0,444687634889079 
971	 0,443946419679474 
972	 0,444555538809024 
973	 0,446261628830699 
974	 0,446647375341094 
975	 0,44589062575164 
976	 0,445097926763583 
977	 0,445847086603113 
978	 0,447816541448133 
979	 0,448224782719451 
980	 0,447895774922976 
981	 0,447486795407433 
982	 0,448498762909244 
983	 0,448903131341297 
984	 0,446900252667179 
985	 0,44775188050214 
986	 0,449945276266147 
987	 0,448660479492511 
988	 0,448395613474896 
989	 0,449804945499065 
990	 0,450527579052689 
991	 0,450547543114544 
992	 0,450314235022562 
993	 0,452911956206673 
994	 0,454911946043831 
995	 0,452836908655616 
996	 0,452175917083507 
997	 0,453499441492397 
998	 0,455906685855628 
999	 0,45740346467372 
1000	 0,457502665197757 
1001	 0,457284355765027 
1002	 0,456342710296673 
1003	 0,455011093464913 
1004	 0,455778027835724 
1005	 0,45769051240997 
1006	 0,459527340910076 
1007	 0,460942369764353 
1008	 0,460569036456098 
1009	 0,456291905151267 
1010	 0,45591581773275 
1011	 0,459788995106645 
1012	 0,46136403817136 
1013	 0,463577749087759 
1014	 0,466486628088465 
1015	 0,464834002002456 
1016	 0,461641202024437 
1017	 0,460114800916383 
1018	 0,462476202190833 
1019	 0,465795971618315 
1020	 0,465294264401651 
1021	 0,463555994032717 
1022	 0,462676279273833 
1023	 0,466991030147999 
1024	 0,469414223380593 
1025	 0,468057788621371 
1026	 0,46631203467077 
1027	 0,467930491013841 
1028	 0,473659643729644 
1029	 0,47080792962368 
1030	 0,465181181803866 
1031	 0,464899949615442 
1032	 0,464336885903669 
1033	 0,464136640948371 
1034	 0,467555544610949 
1035	 0,467610092088312 
1036	 0,464931801520337 
1037	 0,469066170851752 
1038	 0,473170224574608 
1039	 0,473828902119843 
1040	 0,471016424283055 
1041	 0,467866711592653 
1042	 0,467423671326786 
1043	 0,47206343016224 
1044	 0,477642472263427 
1045	 0,477970884739034 
1046	 0,473794021501836 
1047	 0,468493282643284 
1048	 0,468975525964021 
1049	 0,47150272421724 
1050	 0,473739276713599 
1051	 0,472179037205275 
1052	 0,467799678185272 
1053	 0,463288687945296 
1054	 0,468652697616723 
1055	 0,476319781086981 
1056	 0,478912482158121 
1057	 0,47817160742371 
1058	 0,475938288886608 
1059	 0,474412293312416 
1060	 0,468944939376028 
1061	 0,464097518716424 
1062	 0,471331663867905 
1063	 0,467360942579782 
1064	 0,453651708767984 
1065	 0,46110314509878 
1066	 0,469741427735279 
1067	 0,471756911134887 
1068	 0,478924900792916 
1069	 0,482315708687762 
1070	 0,476095763202552 
1071	 0,470193238645666 
1072	 0,467940395734286 
1073	 0,47100330307231 
1074	 0,467666500881168 
1075	 0,461688444748354 
