Wavelength	NEUF00498.asd
325	 0,134406602727213 
326	 0,154032992612084 
327	 6,06559688072701E-02 
328	-3,38656628690769E-02 
329	 3,39559683910313E-02 
330	 9,77857790950159E-02 
331	 2,38493290526845E-02 
332	 5,20656141048008E-03 
333	 4,34209828484148E-02 
334	 0,035630240558158 
335	 8,57988596485754E-02 
336	 0,184863361188322 
337	 3,61519810254953E-02 
338	-8,64911542905672E-02 
339	 4,35791485866713E-02 
340	 9,50227570512378E-02 
341	 6,80447719040942E-02 
342	 5,32879405029688E-02 
343	 7,26917205536783E-02 
344	 0,119211555265831 
345	 8,33237736109723E-02 
346	 4,99486654755979E-02 
347	 0,101657518613119 
348	 9,65965035935881E-02 
349	 3,74451712853846E-02 
350	 2,01329248621806E-03 
351	 2,16465207507932E-02 
352	 7,85047268822794E-02 
353	 3,38382114159624E-02 
354	-2,26215735796969E-02 
355	 3,04546050380942E-02 
356	 0,026241438617249 
357	-2,14469265544202E-02 
358	 2,06763601542222E-02 
359	 5,70559774807334E-02 
360	 0,052902935692328 
361	 5,61254825508852E-02 
362	 5,22417054403566E-02 
363	 1,28360441787561E-02 
364	 2,02625993530161E-02 
365	 6,58092351683865E-02 
366	 5,33402967486207E-02 
367	 3,58822728024154E-02 
368	 4,26014112335434E-02 
369	 2,94031720781393E-02 
370	 5,15076947660649E-03 
371	-1,04155511295598E-02 
372	-1,41971151034598E-02 
373	-3,00097642244318E-03 
374	 2,99659757903365E-02 
375	 5,29072440549265E-02 
376	 4,25132133460616E-02 
377	 2,64829856729372E-02 
378	 1,44885237824927E-02 
379	 1,25812274528187E-02 
380	 3,04940428445746E-02 
381	 5,94541922343315E-02 
382	 5,54777175379206E-02 
383	 3,93595445760684E-02 
384	 3,17078123188783E-02 
385	 3,28403714481637E-02 
386	 3,77873007833153E-02 
387	 3,20338255051251E-02 
388	 2,92786473873025E-02 
389	 3,26211814941997E-02 
390	 2,65312790826116E-02 
391	 1,83308303414759E-02 
392	 1,83953959943541E-02 
393	 2,52575377169605E-02 
394	 3,31380819774645E-02 
395	 2,63303128666124E-02 
396	 0,021563376103551 
397	 2,72535247818654E-02 
398	 3,52522530173824E-02 
399	 3,96686626094708E-02 
400	 3,27477307626123E-02 
401	 2,95837514037649E-02 
402	 0,033129629577025 
403	 3,95767358548335E-02 
404	 4,03732968200105E-02 
405	 3,12254388999521E-02 
406	 3,00236294637389E-02 
407	 3,27561602720787E-02 
408	 2,53433991620159E-02 
409	 2,45727830445245E-02 
410	 3,17236225258556E-02 
411	 2,98613854717456E-02 
412	 0,024596341372992 
413	 2,23790609417417E-02 
414	 3,04982093083746E-02 
415	 4,17509845695567E-02 
416	 3,55903310895304E-02 
417	 2,80957623555258E-02 
418	 2,61258046438362E-02 
419	 2,71002096410612E-02 
420	 2,93145720670368E-02 
421	 3,09955455697756E-02 
422	 3,08810725418432E-02 
423	 2,91841487304443E-02 
424	 2,73835833639938E-02 
425	 2,70435040244068E-02 
426	 2,87815694395406E-02 
427	 2,86647593286202E-02 
428	 2,84395852683539E-02 
429	 3,24497589968621E-02 
430	 3,40146137435584E-02 
431	 3,18226845279484E-02 
432	 0,029717109624306 
433	 2,77426075488257E-02 
434	 2,59012038521772E-02 
435	 2,49377332203696E-02 
436	 2,52641384045235E-02 
437	 2,71492686677275E-02 
438	 3,20281305242587E-02 
439	 3,84957954931535E-02 
440	 3,61753157027407E-02 
441	 2,99967007921465E-02 
442	 2,73219587080352E-02 
443	 0,027510685540419 
444	 2,93818401654049E-02 
445	 2,88420417054129E-02 
446	 2,86437470416927E-02 
447	 3,04720020600022E-02 
448	 3,35877408929911E-02 
449	 3,66110040842484E-02 
450	 0,037422475352682 
451	 3,67987095682426E-02 
452	 3,49638108249157E-02 
453	 3,10424269874861E-02 
454	 2,96464593838296E-02 
455	 3,45854250430053E-02 
456	 3,49425297026163E-02 
457	 3,20827065604019E-02 
458	 3,58167833913449E-02 
459	 3,77203176184571E-02 
460	 3,51696358622301E-02 
461	 3,53136767636436E-02 
462	 3,59985939480707E-02 
463	 3,34792616498552E-02 
464	 3,22875140868397E-02 
465	 3,30050433644256E-02 
466	 3,37609613010702E-02 
467	 3,32516001016704E-02 
468	 3,09354267928759E-02 
469	 3,01578925193401E-02 
470	 3,11196133395101E-02 
471	 0,033167349239889 
472	 3,53202596330027E-02 
473	 3,65356043236993E-02 
474	 3,46531131779334E-02 
475	 3,13270260234599E-02 
476	 2,84629818947491E-02 
477	 0,029526902277525 
478	 3,31565848109879E-02 
479	 3,38382563028895E-02 
480	 3,34022095545969E-02 
481	 3,30157042439034E-02 
482	 3,54687799436227E-02 
483	 3,71164727233906E-02 
484	 3,20755581387775E-02 
485	 3,14614726796334E-02 
486	 3,61929596200271E-02 
487	 3,80125346263618E-02 
488	 3,69481855877347E-02 
489	 3,35975724980885E-02 
490	 3,34469126021041E-02 
491	 3,52917866670441E-02 
492	 3,39797492665724E-02 
493	 0,033492536168681 
494	 3,47875868394152E-02 
495	 3,55473305590272E-02 
496	 0,035949597729654 
497	 3,63920842965521E-02 
498	 3,59109770963058E-02 
499	 3,49166935857653E-02 
500	 3,52582626500651E-02 
501	 3,54101178477894E-02 
502	 3,47884652637311E-02 
503	 3,60950705689986E-02 
504	 3,79209972759656E-02 
505	 3,71422198187924E-02 
506	 3,79755851099972E-02 
507	 4,04977874860875E-02 
508	 3,95550975943243E-02 
509	 0,037877124052943 
510	 3,80286648906559E-02 
511	 3,73628800104998E-02 
512	 3,62657043102482E-02 
513	 0,036923654019607 
514	 3,77322356418546E-02 
515	 3,80559024757412E-02 
516	 3,87900171361245E-02 
517	 3,91814199856122E-02 
518	 3,80536865098586E-02 
519	 3,83778677684428E-02 
520	 4,00473776897092E-02 
521	 3,96953500498721E-02 
522	 3,91833974319495E-02 
523	 3,98150347900229E-02 
524	 4,00967870112392E-02 
525	 3,99882681736972E-02 
526	 3,98165553259348E-02 
527	 4,01756805640759E-02 
528	 4,10817775862579E-02 
529	 4,14392087664526E-02 
530	 4,11709232618458E-02 
531	 4,03167007744473E-02 
532	 4,03112141460904E-02 
533	 4,10680908167515E-02 
534	 4,11775499578349E-02 
535	 4,11203317502319E-02 
536	 4,12129316745434E-02 
537	 4,18001491050986E-02 
538	 4,22226179592276E-02 
539	 4,10557508628965E-02 
540	 4,10493373984895E-02 
541	 4,24963630494454E-02 
542	 0,042427191478458 
543	 4,20141611351221E-02 
544	 4,24911887112158E-02 
545	 4,23979371961774E-02 
546	 4,19163697874508E-02 
547	 4,23178568709348E-02 
548	 4,28608475463233E-02 
549	 4,31687457218786E-02 
550	 4,32583605158181E-02 
551	 4,33331842456407E-02 
552	 4,37222534613994E-02 
553	 4,38748373920931E-02 
554	 4,37698147316209E-02 
555	 4,40234666049957E-02 
556	 4,41498791968879E-02 
557	 4,38120058826999E-02 
558	 4,43184256050376E-02 
559	 4,51269242153781E-02 
560	 4,42541040502081E-02 
561	 4,35351421475443E-02 
562	 4,36597311848151E-02 
563	 4,39154646584982E-02 
564	 4,40801968142604E-02 
565	 4,39441572876458E-02 
566	 4,44862730748979E-02 
567	 0,045351769128862 
568	 4,42633508675925E-02 
569	 4,37006851793064E-02 
570	 4,52132720946163E-02 
571	 4,58504695749583E-02 
572	 4,56986763562676E-02 
573	 4,59422835850009E-02 
574	 4,64951014502526E-02 
575	 4,71985887405542E-02 
576	 4,69988694362143E-02 
577	 4,71785661771813E-02 
578	 4,91785016950217E-02 
579	 4,96361626310771E-02 
580	 4,86533010027382E-02 
581	 4,90145567826687E-02 
582	 4,99818971801636E-02 
583	 5,10409287347844E-02 
584	 0,051478366350847 
585	 5,13552055450896E-02 
586	 5,09632946043388E-02 
587	 5,06510217650583E-02 
588	 5,06389167495783E-02 
589	 5,11297770899378E-02 
590	 5,17569274387904E-02 
591	 5,21451743581141E-02 
592	 5,19537612801767E-02 
593	 5,15090951354357E-02 
594	 0,051801445032255 
595	 0,052511455167282 
596	 5,33446223121409E-02 
597	 5,34272665027811E-02 
598	 5,30784353250608E-02 
599	 5,29210805705276E-02 
600	 5,28062529503109E-02 
601	 5,27300284091727E-02 
602	 5,27011483923825E-02 
603	 5,28139218820895E-02 
604	 5,30865565176093E-02 
605	 5,28214043838377E-02 
606	 5,23073599370722E-02 
607	 5,25359763737904E-02 
608	 5,28233795196981E-02 
609	 5,28584112348376E-02 
610	 5,24965765979582E-02 
611	 5,18441795427952E-02 
612	 5,10545591084497E-02 
613	 0,050772595295315 
614	 5,10400038413659E-02 
615	 5,14186423672268E-02 
616	 5,16319759901095E-02 
617	 5,14576979138455E-02 
618	 5,06644326635395E-02 
619	 4,99617536431541E-02 
620	 5,08105953992618E-02 
621	 5,15003765891451E-02 
622	 5,13886689581326E-02 
623	 5,03354945758242E-02 
624	 4,97199390479037E-02 
625	 5,08881263132777E-02 
626	 5,17668710236239E-02 
627	 5,19634483857135E-02 
628	 5,17426932613229E-02 
629	 5,17003694247112E-02 
630	 5,20555488961504E-02 
631	 5,17266576871009E-02 
632	 5,12461456312354E-02 
633	 0,05165339303028 
634	 5,22693553405748E-02 
635	 5,28390556542801E-02 
636	 5,31453527663456E-02 
637	 5,36151478856465E-02 
638	 5,45708918172091E-02 
639	 0,05526077365936 
640	 5,56018049843188E-02 
641	 5,57921914000638E-02 
642	 5,57890439870318E-02 
643	 5,56774944872764E-02 
644	 5,59709402100837E-02 
645	 5,62245067129476E-02 
646	 5,58035420431698E-02 
647	 5,59614622457747E-02 
648	 0,056639110824268 
649	 5,64810841446601E-02 
650	 5,62600903306795E-02 
651	 5,64451221695069E-02 
652	 5,63100584616881E-02 
653	 5,59473534686261E-02 
654	 5,58000058500334E-02 
655	 5,52684327730806E-02 
656	 5,43028496280532E-02 
657	 5,36804076284681E-02 
658	 5,30683850352835E-02 
659	 5,20994899847997E-02 
660	 5,15744759041669E-02 
661	 5,14661984496202E-02 
662	 5,12241455399888E-02 
663	 5,08213710956238E-02 
664	 5,02588170912074E-02 
665	 4,97792712330456E-02 
666	 4,93885884113019E-02 
667	 4,90304310603042E-02 
668	 4,88962871502859E-02 
669	 4,89478900953177E-02 
670	 4,88610356735349E-02 
671	 0,048630255123011 
672	 4,82908806328919E-02 
673	 4,82506287806091E-02 
674	 4,83624977715708E-02 
675	 4,80568020958729E-02 
676	 4,79412425683231E-02 
677	 4,81704152123638E-02 
678	 4,82762900054115E-02 
679	 4,82938967502932E-02 
680	 4,83136534261703E-02 
681	 4,85377727520708E-02 
682	 4,89767931059638E-02 
683	 0,049429140026358 
684	 0,050187604794021 
685	 5,12866913331091E-02 
686	 5,15772993553028E-02 
687	 5,15274085728371E-02 
688	 5,21791853080542E-02 
689	 5,34572555917659E-02 
690	 5,51722386857846E-02 
691	 5,64402168738864E-02 
692	 5,79612520705695E-02 
693	 6,03469561265558E-02 
694	 6,26714924760871E-02 
695	 6,50121705268783E-02 
696	 6,79713041494772E-02 
697	 7,13572600110826E-02 
698	 7,49950511555509E-02 
699	 7,82931352671788E-02 
700	 8,17506116804708E-02 
701	 8,60510666150793E-02 
702	 9,03677473120345E-02 
703	 9,43762810022043E-02 
704	 9,77350466422184E-02 
705	 0,101304197671909 
706	 0,105515338060618 
707	 0,109024438971478 
708	 0,112075331747503 
709	 0,11550728648257 
710	 0,118487434699915 
711	 0,120958349893408 
712	 0,12385814994838 
713	 0,126593912954498 
714	 0,128621938181475 
715	 0,130751622834406 
716	 0,132995068645181 
717	 0,135039842517562 
718	 0,136625986665692 
719	 0,137744940266837 
720	 0,139096205816944 
721	 0,140586193369479 
722	 0,142006745055848 
723	 0,143054392493287 
724	 0,143831007219828 
725	 0,14495641250629 
726	 0,146045327345819 
727	 0,146855044222227 
728	 0,147510606640728 
729	 0,148096844609127 
730	 0,148720433452403 
731	 0,149397057844839 
732	 0,150100808447623 
733	 0,150714753217131 
734	 0,15116315076313 
735	 0,151417353477804 
736	 0,151975275713488 
737	 0,152628332134673 
738	 0,152622485353978 
739	 0,152538406581905 
740	 0,152661897231317 
741	 0,153195733651947 
742	 0,153881626285283 
743	 0,154395592999362 
744	 0,154521638842731 
745	 0,154368481621861 
746	 0,154409098127041 
747	 0,154613670293656 
748	 0,154951347170973 
749	 0,155223057979642 
750	 0,15548061101671 
751	 0,155846855029302 
752	 0,156236759754319 
753	 0,156523010122965 
754	 0,156379206127 
755	 0,156026581455384 
756	 0,155736901595818 
757	 0,15640184446205 
758	 0,15743982088041 
759	 0,157387026548224 
760	 0,157463992323412 
761	 0,15788195615774 
762	 0,15769373970317 
763	 0,157504404654054 
764	 0,1578993643191 
765	 0,158334166109474 
766	 0,158655299892985 
767	 0,15879855169676 
768	 0,15867826650816 
769	 0,158394272302732 
770	 0,158683996478374 
771	 0,159086942311229 
772	 0,158999542662106 
773	 0,158983781444259 
774	 0,159184412270428 
775	 0,159677865567086 
776	 0,160002299356411 
777	 0,159927473835916 
778	 0,159731654694439 
779	 0,159694325765321 
780	 0,160164945800815 
781	 0,160365421750378 
782	 0,160244806039427 
783	 0,160470806761924 
784	 0,160626595428246 
785	 0,160461331726222 
786	 0,160269083630084 
787	 0,160266371843961 
788	 0,160771022148231 
789	 0,161011667118616 
790	 0,160904202759085 
791	 0,16125067962588 
792	 0,161431399356143 
793	 0,161014205620168 
794	 0,161020248566726 
795	 0,161425498927302 
796	 0,161816141530395 
797	 0,162114996697109 
798	 0,162264792717787 
799	 0,162271783530784 
800	 0,162305558453287 
801	 0,162500378030414 
802	 0,162401816365324 
803	 0,162202300223247 
804	 0,162636934830729 
805	 0,162913949760402 
806	 0,162803060466818 
807	 0,162721705475428 
808	 0,16298745597012 
809	 0,163830485894445 
810	 0,163538395651889 
811	 0,162590204749011 
812	 0,163386336687074 
813	 0,164038226929839 
814	 0,163839313228038 
815	 0,163669936890884 
816	 0,163598534691297 
817	 0,163625929783106 
818	 0,164032111852205 
819	 0,164567224777402 
820	 0,164306454564924 
821	 0,164135734357071 
822	 0,16440552221099 
823	 0,164368997782954 
824	 0,164389263623094 
825	 0,165001884278927 
826	 0,165088484366333 
827	 0,164745706518042 
828	 0,165254425384702 
829	 0,165362818070981 
830	 0,164618269485058 
831	 0,164603044342536 
832	 0,165011917769079 
833	 0,165190700174866 
834	 0,165185140184664 
835	 0,165062176785565 
836	 0,165035816349765 
837	 0,165194489302012 
838	 0,165529659878299 
839	 0,165623857922031 
840	 0,165517007707793 
841	 0,165340047235167 
842	 0,165516640210302 
843	 0,165916092351303 
844	 0,165710318069554 
845	 0,165506757417191 
846	 0,165609114919607 
847	 0,165621464538951 
848	 0,16555342074722 
849	 0,165476680213556 
850	 0,165649074205223 
851	 0,166029013535955 
852	 0,16631326037092 
853	 0,166295652828506 
854	 0,165931570761921 
855	 0,16576456911245 
856	 0,165810447554492 
857	 0,165989879953176 
858	 0,166150418220488 
859	 0,16620750298177 
860	 0,166086880236384 
861	 0,165847570526953 
862	 0,16558579552961 
863	 0,165622454067755 
864	 0,165869001765943 
865	 0,166156747003631 
866	 0,16653715667616 
867	 0,166748105210274 
868	 0,165894310537766 
869	 0,165659572656162 
870	 0,166630072511412 
871	 0,166923149648218 
872	 0,166870745845138 
873	 0,167063522027172 
874	 0,166385781068472 
875	 0,165421752374337 
876	 0,166550331224514 
877	 0,167288027628437 
878	 0,166773445322794 
879	 0,16666328970497 
880	 0,166857895822165 
881	 0,167096495077084 
882	 0,16702816498818 
883	 0,166858165697518 
884	 0,167327295471028 
885	 0,167948756187527 
886	 0,168352175970294 
887	 0,167682813231191 
888	 0,166991122093359 
889	 0,167231304894913 
890	 0,166888020896486 
891	 0,166423913351607 
892	 0,167485294125689 
893	 0,168079973463799 
894	 0,167751444220204 
895	 0,167599269439624 
896	 0,167743562424411 
897	 0,168171960297314 
898	 0,168059986974757 
899	 0,167618510090092 
900	 0,167431374675583 
901	 0,167835023890431 
902	 0,168534247462442 
903	 0,167950718067005 
904	 0,16766600362284 
905	 0,168514910494402 
906	 0,168793227006894 
907	 0,168697428453154 
908	 0,168807166687107 
909	 0,168731724412077 
910	 0,168435972725465 
911	 0,1680709370953 
912	 0,167683564583627 
913	 0,167365894305177 
914	 0,167230720786448 
915	 0,167911154758544 
916	 0,169889250162573 
917	 0,169503343703997 
918	 0,16762002237662 
919	 0,168347970184669 
920	 0,16958328293841 
921	 0,170405043394418 
922	 0,170050338846542 
923	 0,168975717195343 
924	 0,167771361589276 
925	 0,167625026762788 
926	 0,168217891279194 
927	 0,168583354787053 
928	 0,169057927815315 
929	 0,169428040702277 
930	 0,168834792232405 
931	 0,167821837766397 
932	 0,166892637308586 
933	 0,166873704347368 
934	 0,167294987154384 
935	 0,167427464070415 
936	 0,167925812663659 
937	 0,168639073675619 
938	 0,168877496222082 
939	 0,168704191754997 
940	 0,168329089667565 
941	 0,168859588231957 
942	 0,168795835745892 
943	 0,167077106945111 
944	 0,167683959531524 
945	 0,169105913321626 
946	 0,167300070795625 
947	 0,166296577512299 
948	 0,166709727098881 
949	 0,166361248112845 
950	 0,165894032304161 
951	 0,165637179139463 
952	 0,16523642695682 
953	 0,165001562738144 
954	 0,165295076783208 
955	 0,165184827702345 
956	 0,164597410660031 
957	 0,163728291879286 
958	 0,164033757251097 
959	 0,165421366545548 
960	 0,164812763720673 
961	 0,164316441052997 
962	 0,165307019546326 
963	 0,164442738489572 
964	 0,163006881028555 
965	 0,163616088853102 
966	 0,164332106734809 
967	 0,164589331978272 
968	 0,164139552114477 
969	 0,163876501624748 
970	 0,164147288235544 
971	 0,164434749116755 
972	 0,164598772389545 
973	 0,164517053078307 
974	 0,163745046910369 
975	 0,163621630298606 
976	 0,166622376343444 
977	 0,167857429097728 
978	 0,166603249340153 
979	 0,16554395023409 
980	 0,164199564249733 
981	 0,162885022529991 
982	 0,164166098221538 
983	 0,166128400868392 
984	 0,166605128886167 
985	 0,165761768021537 
986	 0,16486002856011 
987	 0,166347655411205 
988	 0,166464536120665 
989	 0,164929982955546 
990	 0,164790015585938 
991	 0,165340413662313 
992	 0,166022718045768 
993	 0,165658242847122 
994	 0,165731117421243 
995	 0,167626092393877 
996	 0,167271353101295 
997	 0,166753061002051 
998	 0,171662659034287 
999	 0,172114642418434 
1000	 0,167568505373264 
1001	 0,166713046568265 
1002	 0,166738683563787 
1003	 0,166738792360131 
1004	 0,169346779923611 
1005	 0,172204116647095 
1006	 0,172908154426874 
1007	 0,172640299163192 
1008	 0,171364995940978 
1009	 0,168685495593713 
1010	 0,168711269805166 
1011	 0,171070308155107 
1012	 0,17033583628214 
1013	 0,171056338358531 
1014	 0,174098037154918 
1015	 0,173601942537178 
1016	 0,171493163239074 
1017	 0,170079229687645 
1018	 0,172343221468255 
1019	 0,174896523654773 
1020	 0,172216757270316 
1021	 0,169640851615478 
1022	 0,169359096883075 
1023	 0,174236496740026 
1024	 0,174909806011865 
1025	 0,170093816993623 
1026	 0,17006107922196 
1027	 0,171258738136582 
1028	 0,171481716988387 
1029	 0,173622169059886 
1030	 0,174919053553627 
1031	 0,172323806227003 
1032	 0,172494611005764 
1033	 0,173985562342816 
1034	 0,171243906321595 
1035	 0,169233447523893 
1036	 0,16910518695003 
1037	 0,169215870002511 
1038	 0,17277673845654 
1039	 0,178960286807535 
1040	 0,175507775172574 
1041	 0,171042197214049 
1042	 0,172969672273591 
1043	 0,176224676534528 
1044	 0,179672308874878 
1045	 0,182386223945617 
1046	 0,180918818941457 
1047	 0,17680127503379 
1048	 0,174752321552828 
1049	 0,178180372314516 
1050	 0,185371365765437 
1051	 0,185524361930862 
1052	 0,184372759721513 
1053	 0,184380040352531 
1054	 0,182980991647104 
1055	 0,177182383104616 
1056	 0,166457391721723 
1057	 0,168652079915028 
1058	 0,174600722880746 
1059	 0,168678064555637 
1060	 0,16772734757513 
1061	 0,172877631854237 
1062	 0,178973058450873 
1063	 0,1762017250501 
1064	 0,168953700997075 
1065	 0,186202891040322 
1066	 0,192451429009257 
1067	 0,177112156757506 
1068	 0,179042714058293 
1069	 0,181728496978559 
1070	 0,173349418083975 
1071	 0,172586644114208 
1072	 0,177514265762012 
1073	 0,1826027222581 
1074	 0,179705499910566 
1075	 0,179552849302166 
