Wavelength	NEUF00509.asd
325	 0,105301102629347 
326	 3,00876729375869E-02 
327	 0,130977145273813 
328	 0,309945849955604 
329	 0,233401345973915 
330	 0,129918196639287 
331	 0,158964950955009 
332	 0,171530750828069 
333	 0,147537575442579 
334	 0,111389193567609 
335	 0,125353369569966 
336	 0,181393873381442 
337	 4,50754597727728E-02 
338	-4,98140216641284E-02 
339	 7,93593685266348E-02 
340	 8,87645679608303E-02 
341	 2,08945462112841E-02 
342	 7,60829770131247E-02 
343	 0,123631792642616 
344	 0,141970274791405 
345	 0,103660695232351 
346	 0,061853193654152 
347	 6,44084560621705E-02 
348	 2,35201144822136E-02 
349	-3,77065779520015E-02 
350	-3,48263931548055E-03 
351	 4,43719136938602E-02 
352	 6,98197337247696E-02 
353	 0,055369499146509 
354	 0,029690401554447 
355	 2,98959002739971E-02 
356	 0,031493385702872 
357	 3,20639177690362E-02 
358	 4,40504153309716E-02 
359	 3,13979353945453E-02 
360	-1,39587201782168E-02 
361	-1,07192672580888E-02 
362	 1,89797014386267E-02 
363	 3,44025434361602E-02 
364	 3,99303248093447E-02 
365	 3,82594797803422E-02 
366	 3,92249183137822E-02 
367	 5,76719385829205E-02 
368	 9,45736442720505E-02 
369	 4,90435509256564E-02 
370	-0,022174560656692 
371	-1,40136226615994E-02 
372	 1,74392459663677E-02 
373	 4,55637611713926E-02 
374	 3,34035726142938E-02 
375	 1,81449758973897E-02 
376	 2,84849472630329E-02 
377	 4,48638457342158E-02 
378	 5,25788019321602E-02 
379	 2,31863226837825E-02 
380	 2,09946958815309E-02 
381	 5,64614557311212E-02 
382	 7,67803699463854E-02 
383	 7,58501853302557E-02 
384	 5,15721650888094E-02 
385	 5,21673482515846E-02 
386	 6,22431343276951E-02 
387	 8,54682076649321E-03 
388	-1,23862984161887E-02 
389	 2,63439354456378E-02 
390	 3,89005044789289E-02 
391	 0,02994562510918 
392	 1,31164355241433E-02 
393	 1,13060835955247E-02 
394	 2,19441133004349E-02 
395	 2,03677820081905E-02 
396	 2,07347118407071E-02 
397	 2,81086051704315E-02 
398	 0,025520293363392 
399	 2,02266801608679E-02 
400	 2,51609599957873E-02 
401	 2,96313366561435E-02 
402	 3,10867650391125E-02 
403	 3,11284416677425E-02 
404	 3,01065744159034E-02 
405	 2,81023474422624E-02 
406	 2,22372861652424E-02 
407	 1,64662220498072E-02 
408	 1,94821031639587E-02 
409	 0,020680448072205 
410	 0,018547001062303 
411	 2,20482009235564E-02 
412	 2,52474170164312E-02 
413	 2,25172836178947E-02 
414	 1,88181976875227E-02 
415	 1,74297659470352E-02 
416	 2,46088913638444E-02 
417	 0,029130212184709 
418	 2,61408297108583E-02 
419	 1,71437181561391E-02 
420	 1,18304876709526E-02 
421	 2,13098704053612E-02 
422	 2,45618273539377E-02 
423	 2,06145414275745E-02 
424	 2,33843854987724E-02 
425	 2,66083025588553E-02 
426	 0,026367885537483 
427	 2,39594441487578E-02 
428	 2,13779244600983E-02 
429	 0,021726798039855 
430	 2,18349148998037E-02 
431	 2,07980603240604E-02 
432	 1,88850777249694E-02 
433	 1,78600696537779E-02 
434	 1,90464806657733E-02 
435	 1,80341383646469E-02 
436	 1,57731541916153E-02 
437	 1,64116991839797E-02 
438	 1,91458883833957E-02 
439	 2,24439615040613E-02 
440	 1,93458819995199E-02 
441	 1,49888820061877E-02 
442	 1,65757895023005E-02 
443	 1,68293011150634E-02 
444	 1,54055693123593E-02 
445	 1,72311255274915E-02 
446	 1,87045644976848E-02 
447	 1,80021940649533E-02 
448	 1,95834802561428E-02 
449	 2,23070900020544E-02 
450	 2,31102031214336E-02 
451	 2,29043869701078E-02 
452	 2,17248393551234E-02 
453	 1,86227118935524E-02 
454	 1,56131626464025E-02 
455	 1,47705133941058E-02 
456	 0,016160049328476 
457	 1,93082397531017E-02 
458	 2,35516332690893E-02 
459	 2,55874950250933E-02 
460	 2,41372605706907E-02 
461	 2,17499915201632E-02 
462	 1,95032187038113E-02 
463	 1,84090133383821E-02 
464	 1,81277652483779E-02 
465	 1,87740067314222E-02 
466	 2,17037440196177E-02 
467	 2,18024635893564E-02 
468	 1,65187065396799E-02 
469	 1,49596077916514E-02 
470	 0,01696654488594 
471	 1,95358024498393E-02 
472	 2,08869965236758E-02 
473	 0,02047473137235 
474	 2,00983293002616E-02 
475	 0,019014062770496 
476	 1,65904447270914E-02 
477	 1,75797565809192E-02 
478	 0,020976945231792 
479	 2,16794097786788E-02 
480	 2,08304606685135E-02 
481	 1,91540236191186E-02 
482	 1,83773130830829E-02 
483	 1,79308952334978E-02 
484	 1,65283888551267E-02 
485	 1,75662484801687E-02 
486	 2,06153638538801E-02 
487	 2,09026913087513E-02 
488	 1,99551902589635E-02 
489	 1,90882322556638E-02 
490	 1,90001448600243E-02 
491	 1,90912258166027E-02 
492	 1,72772223185394E-02 
493	 1,74139145351313E-02 
494	 1,99367969158443E-02 
495	 0,019576378473637 
496	 1,79137594053645E-02 
497	 1,71841382184189E-02 
498	 1,81159947865375E-02 
499	 1,98504128639342E-02 
500	 1,92565926442455E-02 
501	 1,81388566254633E-02 
502	 1,76906109264383E-02 
503	 1,86939973483316E-02 
504	 0,02006756622698 
505	 0,019773348450331 
506	 1,96021851864744E-02 
507	 1,99520900283323E-02 
508	 2,02000736141458E-02 
509	 2,01293603451874E-02 
510	 1,95937762031212E-02 
511	 1,91494780265301E-02 
512	 1,86743381020201E-02 
513	 1,72658917146446E-02 
514	 1,70843881173179E-02 
515	 0,018705747428066 
516	 0,019384427447638 
517	 1,90556288297072E-02 
518	 1,80040312625862E-02 
519	 1,82715072373128E-02 
520	 1,97402140497463E-02 
521	 1,97988646200182E-02 
522	 1,97416962684787E-02 
523	 2,04393585078178E-02 
524	 0,020525693953624 
525	 2,00380200887755E-02 
526	 1,93870806740792E-02 
527	 0,019380659960644 
528	 2,01495122579773E-02 
529	 2,05982554637826E-02 
530	 2,06519333248321E-02 
531	 2,03446892179287E-02 
532	 2,03223536080488E-02 
533	 2,05521224857717E-02 
534	 2,03210856965044E-02 
535	 0,020424121035309 
536	 2,11037837047602E-02 
537	 2,02484167647063E-02 
538	 1,87886799309202E-02 
539	 1,89163162898407E-02 
540	 0,019153205412918 
541	 1,91711768658346E-02 
542	 1,96310518993415E-02 
543	 2,00254635402402E-02 
544	 1,98702938728978E-02 
545	 0,020046545395561 
546	 2,04308037277103E-02 
547	 0,020139869930829 
548	 1,99510754935554E-02 
549	 2,01636011878828E-02 
550	 2,00422771834006E-02 
551	 0,019755638542798 
552	 1,96481432800517E-02 
553	 2,02981861430651E-02 
554	 2,13650574564925E-02 
555	 0,020876160801801 
556	 1,99866524632829E-02 
557	 1,97364051009017E-02 
558	 0,020120259538728 
559	 2,07056455727724E-02 
560	 2,04006971943434E-02 
561	 2,00584316754105E-02 
562	 1,99877423677026E-02 
563	 1,99131966452621E-02 
564	 1,96192170506682E-02 
565	 1,88479883519629E-02 
566	 0,01894663657573 
567	 0,019800781746882 
568	 1,97219096087234E-02 
569	 1,94723358665449E-02 
570	 1,96183016220079E-02 
571	 2,02039754449656E-02 
572	 2,08844634864294E-02 
573	 0,020933695665093 
574	 0,020691754573576 
575	 2,04308113911771E-02 
576	 2,08654988505876E-02 
577	 2,15510878244156E-02 
578	 2,19237394938776E-02 
579	 2,19639485432436E-02 
580	 2,19905930529294E-02 
581	 2,31412852116786E-02 
582	 2,37396158439967E-02 
583	 2,30868271158745E-02 
584	 2,38863623313236E-02 
585	 2,51138348009787E-02 
586	 2,43376165709312E-02 
587	 2,36820469158949E-02 
588	 2,37687623864602E-02 
589	 0,024221007408147 
590	 2,46837669515587E-02 
591	 2,48514033835572E-02 
592	 2,51882373864513E-02 
593	 2,55458779593021E-02 
594	 0,025272134567952 
595	 2,50162993304529E-02 
596	 2,50460562137116E-02 
597	 2,48645511667075E-02 
598	 2,47417146576228E-02 
599	 2,51657116396532E-02 
600	 2,51566201238436E-02 
601	 2,47138769899776E-02 
602	 2,50344908006098E-02 
603	 2,51754228807199E-02 
604	 2,44936571275848E-02 
605	 2,48024381513103E-02 
606	 2,56126711904752E-02 
607	 0,024952722203807 
608	 2,43987203733962E-02 
609	 2,44601397596373E-02 
610	 2,45101739830173E-02 
611	 0,024316713435324 
612	 2,36671149089436E-02 
613	 2,30091045472545E-02 
614	 0,022688884609353 
615	 2,33893413296528E-02 
616	 2,41318520556926E-02 
617	 0,024212601316669 
618	 2,35037295836862E-02 
619	 2,26517703204286E-02 
620	 2,29535611659219E-02 
621	 0,023193692777373 
622	 2,30293133196018E-02 
623	 2,28378424321457E-02 
624	 2,28217962501853E-02 
625	 2,31522185859704E-02 
626	 2,34709640143989E-02 
627	 2,35316193217402E-02 
628	 2,27906116848221E-02 
629	 2,25297832496328E-02 
630	 2,32448479292842E-02 
631	 2,30873648317053E-02 
632	 2,28362289536259E-02 
633	 0,024147200089519 
634	 2,46679820095044E-02 
635	 2,41757757902414E-02 
636	 2,48079390059763E-02 
637	 2,55657484580732E-02 
638	 2,55767531097346E-02 
639	 2,54475518869837E-02 
640	 2,55838275174028E-02 
641	 2,68728898949721E-02 
642	 2,74572514902095E-02 
643	 2,67595880820977E-02 
644	 2,64008207943143E-02 
645	 2,64959171769794E-02 
646	 2,69811876095684E-02 
647	 2,69917776863438E-02 
648	 2,65526083555016E-02 
649	 2,65940490068578E-02 
650	 2,68363657412587E-02 
651	 2,70705011861388E-02 
652	 2,72727555740264E-02 
653	 2,72025698878645E-02 
654	 2,63935526408322E-02 
655	 2,55641962675633E-02 
656	 2,50452490086053E-02 
657	 2,50299222811587E-02 
658	 0,024961680934903 
659	 2,42702122377516E-02 
660	 0,023455133711315 
661	 2,27970563011809E-02 
662	 2,27237353751193E-02 
663	 2,28040131278877E-02 
664	 0,022776613247973 
665	 2,25963330717195E-02 
666	 2,22323403926555E-02 
667	 0,021637017327858 
668	 2,13401267247097E-02 
669	 2,14182949275752E-02 
670	 2,14672167504007E-02 
671	 2,15100812896744E-02 
672	 2,15508205964829E-02 
673	 2,12979063795039E-02 
674	 0,021025755078277 
675	 0,021575852183662 
676	 0,021786274847838 
677	 2,13512169484856E-02 
678	 2,12190589920552E-02 
679	 2,12177989406228E-02 
680	 2,10556218087053E-02 
681	 2,14307837774835E-02 
682	 0,022191125053933 
683	 2,23422671895491E-02 
684	 2,24841258204949E-02 
685	 2,29163209627387E-02 
686	 2,29711661601107E-02 
687	 2,30745858104088E-02 
688	 2,41373671273047E-02 
689	 2,50375693434158E-02 
690	 2,55701903929371E-02 
691	 2,64092002701511E-02 
692	 2,75826242191189E-02 
693	 2,90910195759813E-02 
694	 3,08903309904725E-02 
695	 3,30893479894401E-02 
696	 3,59400586851841E-02 
697	 3,92344595611622E-02 
698	 4,28978247800431E-02 
699	 4,70795229425538E-02 
700	 0,051525917548027 
701	 5,58762183904373E-02 
702	 0,061238865153871 
703	 6,74573240418688E-02 
704	 7,30977550818736E-02 
705	 7,87853396886083E-02 
706	 8,48089512924528E-02 
707	 9,01446945000961E-02 
708	 9,52914695285053E-02 
709	 0,101436701205498 
710	 0,107366700160574 
711	 0,112717288973455 
712	 0,117810652702463 
713	 0,122502206820098 
714	 0,126721138728236 
715	 0,13159574585284 
716	 0,13680562424532 
717	 0,141011705173658 
718	 0,144826778041045 
719	 0,148476789797635 
720	 0,151826169827318 
721	 0,154887216974964 
722	 0,157693369288977 
723	 0,160590049895621 
724	 0,163480866656061 
725	 0,165716716341478 
726	 0,167840050665524 
727	 0,170124102468538 
728	 0,171915264647534 
729	 0,17338621540116 
730	 0,174986485195464 
731	 0,176481806450144 
732	 0,177840992447935 
733	 0,179225363536035 
734	 0,180413842395998 
735	 0,181234247069304 
736	 0,18205869790605 
737	 0,182993241221243 
738	 0,18414273187579 
739	 0,185102646026921 
740	 0,185705771230581 
741	 0,186018802891659 
742	 0,186453275357953 
743	 0,1874512963169 
744	 0,187942579921368 
745	 0,188038417189713 
746	 0,188878420875246 
747	 0,189720069493246 
748	 0,190196592293578 
749	 0,190704677083977 
750	 0,19121108995618 
751	 0,191589364033867 
752	 0,192145430803018 
753	 0,192762837231746 
754	 0,192689715431696 
755	 0,192541305258789 
756	 0,192781610579712 
757	 0,193173828397666 
758	 0,193666138292247 
759	 0,194260848392971 
760	 0,194573441722423 
761	 0,194600115556722 
762	 0,195027754474795 
763	 0,195437320477976 
764	 0,195434877103703 
765	 0,195651851140827 
766	 0,196067040650962 
767	 0,196317381007789 
768	 0,196488014347547 
769	 0,196626005397165 
770	 0,196876790943914 
771	 0,197060743711719 
772	 0,19696743977818 
773	 0,197293874475283 
774	 0,197961366507441 
775	 0,198271503897823 
776	 0,198347256480727 
777	 0,198276896308065 
778	 0,198241300727206 
779	 0,198419656159046 
780	 0,199034171151867 
781	 0,199156203736682 
782	 0,19881683994717 
783	 0,199072160906975 
784	 0,19954914885286 
785	 0,199941992054867 
786	 0,199911380587553 
787	 0,199661358916032 
788	 0,199624536839154 
789	 0,19989659813205 
790	 0,200390688007516 
791	 0,200633816715867 
792	 0,200529900955771 
793	 0,20012414819167 
794	 0,200642952294044 
795	 0,201576927316166 
796	 0,201409126793896 
797	 0,201024242362366 
798	 0,200834243342642 
799	 0,201311811261259 
800	 0,201913524399602 
801	 0,202106116514173 
802	 0,202132870244007 
803	 0,202134211063347 
804	 0,202305894818564 
805	 0,202757624956696 
806	 0,203432525377062 
807	 0,203792932253968 
808	 0,203984701405284 
809	 0,204197798324967 
810	 0,204062048680118 
811	 0,203818477379393 
812	 0,20430289648188 
813	 0,204865971823528 
814	 0,205176195516871 
815	 0,205057624537213 
816	 0,204958189204288 
817	 0,205411630977876 
818	 0,205855996241597 
819	 0,20615402771166 
820	 0,206293295266933 
821	 0,206513921338255 
822	 0,206898458458374 
823	 0,207096532562092 
824	 0,20736167956443 
825	 0,208048255476105 
826	 0,208330642032519 
827	 0,208225406426666 
828	 0,208490912337438 
829	 0,208578098455249 
830	 0,208317842664782 
831	 0,208491858734905 
832	 0,209009258755664 
833	 0,209622250050021 
834	 0,209642534534209 
835	 0,209294261032179 
836	 0,209976915384779 
837	 0,210472470782144 
838	 0,210241249060049 
839	 0,210541235086486 
840	 0,210820608491659 
841	 0,210128462236726 
842	 0,210240615372657 
843	 0,211114129867121 
844	 0,211034305759321 
845	 0,210954950765707 
846	 0,21132473014977 
847	 0,21143321693435 
848	 0,211425267884533 
849	 0,211609138622524 
850	 0,211595336591647 
851	 0,211502845093994 
852	 0,212062741816583 
853	 0,212447577282157 
854	 0,212281286640914 
855	 0,21232733418127 
856	 0,212592994332994 
857	 0,212965408869802 
858	 0,212718374894943 
859	 0,212160496375166 
860	 0,212890049529711 
861	 0,213590972296672 
862	 0,213635452789051 
863	 0,213793512144362 
864	 0,213914438877341 
865	 0,213722067480881 
866	 0,214135271802321 
867	 0,214883224309513 
868	 0,214413971650485 
869	 0,214193584078587 
870	 0,214784757869553 
871	 0,214997142616231 
872	 0,214999212834082 
873	 0,215122169668493 
874	 0,215191770311306 
875	 0,215318834617236 
876	 0,215874097770925 
877	 0,216555706731129 
878	 0,21721115491151 
879	 0,217921283072386 
880	 0,218265034286134 
881	 0,217847749240666 
882	 0,217602550390811 
883	 0,217777238643986 
884	 0,218495039427086 
885	 0,218952275583976 
886	 0,218923851352078 
887	 0,219121161018453 
888	 0,219166604347888 
889	 0,218747343568176 
890	 0,218872394877623 
891	 0,219519481757944 
892	 0,22027961530953 
893	 0,220505136321359 
894	 0,220244053088452 
895	 0,220820592845547 
896	 0,221641989717044 
897	 0,222133400813683 
898	 0,221909209278631 
899	 0,22123742846853 
900	 0,220656562299381 
901	 0,221080580956442 
902	 0,222231706417613 
903	 0,221947244755298 
904	 0,221652818725292 
905	 0,222198467396941 
906	 0,222711376116146 
907	 0,22325827221797 
908	 0,2240698318862 
909	 0,224027647381792 
910	 0,223274207479474 
911	 0,223163703825005 
912	 0,223036304251594 
913	 0,222675139947467 
914	 0,222507367961043 
915	 0,222828965382825 
916	 0,223845797275441 
917	 0,224240298112589 
918	 0,224025449149709 
919	 0,2239147067636 
920	 0,224352255331207 
921	 0,225082804829463 
922	 0,223958383997133 
923	 0,222874773960603 
924	 0,223324671574582 
925	 0,222828618060905 
926	 0,22179243644792 
927	 0,221601782449834 
928	 0,222038439957408 
929	 0,222747423257535 
930	 0,222616620129582 
931	 0,222542405087159 
932	 0,222879023210997 
933	 0,222138290501089 
934	 0,221345256708376 
935	 0,221951177745101 
936	 0,222057153550398 
937	 0,221604347620455 
938	 0,221711097297877 
939	 0,221602437793308 
940	 0,221049974955829 
941	 0,220440806746887 
942	 0,219828250207061 
943	 0,219261565581127 
944	 0,218942171358947 
945	 0,21858964198063 
946	 0,217603910274154 
947	 0,217396219013449 
948	 0,2177201169332 
949	 0,216105289507094 
950	 0,214698116041637 
951	 0,21452535932173 
952	 0,213402857379074 
953	 0,212377555775869 
954	 0,212835790659525 
955	 0,211610954121626 
956	 0,209085139996057 
957	 0,207830052908446 
958	 0,20769664950875 
959	 0,208359375781339 
960	 0,208239687733181 
961	 0,208018475543629 
962	 0,208063419118249 
963	 0,206373520821087 
964	 0,204752309202395 
965	 0,206270174050723 
966	 0,207581484890833 
967	 0,207838007882024 
968	 0,207250200893948 
969	 0,206495696573669 
970	 0,205968040027479 
971	 0,2056363512085 
972	 0,205600257116614 
973	 0,205938493675971 
974	 0,206681728708692 
975	 0,207233073583884 
976	 0,206549045575469 
977	 0,206926722525001 
978	 0,208121175099875 
979	 0,206989888222527 
980	 0,205580861448645 
981	 0,205283156238123 
982	 0,207602074439335 
983	 0,209942480188206 
984	 0,209759316311288 
985	 0,210419372023037 
986	 0,211077768246501 
987	 0,208901230941016 
988	 0,208379926438383 
989	 0,209816145337967 
990	 0,209007565631442 
991	 0,20927011922027 
992	 0,211905225969237 
993	 0,213971484479984 
994	 0,214318619444879 
995	 0,212361272175983 
996	 0,212509921093888 
997	 0,214198867111034 
998	 0,214676873465712 
999	 0,214835863189807 
1000	 0,214669975915792 
1001	 0,213111921762499 
1002	 0,213708783868108 
1003	 0,217617312856497 
1004	 0,220347310492333 
1005	 0,221336485805988 
1006	 0,220568058902325 
1007	 0,219560799469368 
1008	 0,218532743970475 
1009	 0,217186619878259 
1010	 0,218869130636241 
1011	 0,221924504650122 
1012	 0,217189640031509 
1013	 0,217285045216408 
1014	 0,225325956520307 
1015	 0,226666386823642 
1016	 0,225018822924523 
1017	 0,224520639840338 
1018	 0,227115698695477 
1019	 0,229498581403599 
1020	 0,226455202457007 
1021	 0,224212928956782 
1022	 0,224774046558798 
1023	 0,229352406064843 
1024	 0,233014168724875 
1025	 0,233664023184592 
1026	 0,231290780834226 
1027	 0,230397719248299 
1028	 0,233012225911494 
1029	 0,230642301399095 
1030	 0,22762162096684 
1031	 0,229682261921962 
1032	 0,230898059210341 
1033	 0,231585658990169 
1034	 0,234754969315525 
1035	 0,235555380555972 
1036	 0,234731335312218 
1037	 0,240557009532886 
1038	 0,241348151557403 
1039	 0,234184034536019 
1040	 0,234035971744208 
1041	 0,237405906875284 
1042	 0,24060859195695 
1043	 0,244968071946117 
1044	 0,247902214419146 
1045	 0,245987898058783 
1046	 0,242733200508602 
1047	 0,241153936057284 
1048	 0,246284946269051 
1049	 0,24543265736141 
1050	 0,238464334982931 
1051	 0,241243814119046 
1052	 0,244439554184188 
1053	 0,243858990659945 
1054	 0,245133972625541 
1055	 0,243111482343135 
1056	 0,234902449022379 
1057	 0,237668231563515 
1058	 0,245565932078872 
1059	 0,247138231723379 
1060	 0,240864098429814 
1061	 0,23481525411459 
1062	 0,246928093855617 
1063	 0,249685146897654 
1064	 0,240939166280824 
1065	 0,245169705340498 
1066	 0,246679608956657 
1067	 0,241022403112971 
1068	 0,244239012557112 
1069	 0,248031629563113 
1070	 0,245794156597419 
1071	 0,241629140114455 
1072	 0,236995938200224 
1073	 0,233965016775878 
1074	 0,244537909835491 
1075	 0,258613399237409 
