Wavelength	NEUF00029.asd
325	 9,19651595224114E-02 
326	-1,79881328550492E-02 
327	-0,144984991593229 
328	-0,152322949364081 
329	-8,63903324352659E-02 
330	-7,11978913549864E-03 
331	 5,21667085854626E-02 
332	 0,099757498890918 
333	 0,11326834752909 
334	 0,135406629943623 
335	 0,102893730147339 
336	 8,07254867598223E-03 
337	-6,81813677235219E-03 
338	 4,24014273990389E-03 
339	-2,06620730758887E-02 
340	-3,76887800841321E-02 
341	-2,09292300679308E-02 
342	 8,28405644382299E-02 
343	 0,091473559630195 
344	-1,01967180265039E-03 
345	-1,69780669131225E-02 
346	 6,04003515462144E-03 
347	 9,20167382207489E-03 
348	 7,84608977028802E-03 
349	 5,07875809427071E-04 
350	-2,47490319947052E-02 
351	-1,69192972697353E-02 
352	 2,59581397600924E-02 
353	 3,14767475748366E-02 
354	 9,07229701325054E-03 
355	-2,24640878325452E-02 
356	-2,76449564840848E-02 
357	-7,61850772210216E-03 
358	 1,40853102946111E-02 
359	 2,22036710883973E-02 
360	 0,013246731766442 
361	 0,011987579884998 
362	 1,76430190723781E-02 
363	 2,49721151317883E-02 
364	 3,50413513473952E-02 
365	 4,41089080828514E-02 
366	 4,90952916599711E-02 
367	 3,85849129248016E-02 
368	 8,18377697999577E-03 
369	 4,06452093764162E-03 
370	 0,017351680614938 
371	 2,04544883918383E-02 
372	 2,15147219258993E-02 
373	 2,05687218689158E-02 
374	 1,06953881559514E-02 
375	 8,33471581671588E-03 
376	 2,49779971594216E-02 
377	 4,47157306018168E-02 
378	 0,052554257214362 
379	 1,98787381465298E-02 
380	 9,04500410548176E-03 
381	 3,32598397766519E-02 
382	 5,02586586773479E-02 
383	 4,83926727715264E-02 
384	 1,97791648157412E-02 
385	 0,003733451025131 
386	 4,43197419458033E-03 
387	 5,34647744362141E-03 
388	 1,55212364010271E-02 
389	 3,10632013616598E-02 
390	 1,99099518009971E-02 
391	 2,34264394158643E-03 
392	 5,56194721291074E-03 
393	 0,010942874827665 
394	 1,41502584484661E-02 
395	 1,29793221583262E-02 
396	 0,021870330059065 
397	 0,041526184805363 
398	 2,99665257373911E-02 
399	 3,41246026858594E-03 
400	-9,76197573399357E-03 
401	-1,19710899198121E-03 
402	 2,20714152578316E-02 
403	 2,72928797627834E-02 
404	 2,68624026437646E-02 
405	 2,95037296204593E-02 
406	 2,87461928368812E-02 
407	 2,53436714288214E-02 
408	 0,022009171691405 
409	 1,88138419411103E-02 
410	 1,61588755037956E-02 
411	 1,47290993844309E-02 
412	 0,015436162777634 
413	 1,87452214859343E-02 
414	 1,94940902107515E-02 
415	 1,70819879864351E-02 
416	 1,15592065164043E-02 
417	 0,010851723691401 
418	 1,65244233070294E-02 
419	 1,52003191418092E-02 
420	 1,30472448867761E-02 
421	 1,91388144848731E-02 
422	 1,91616766467066E-02 
423	 1,33799373017872E-02 
424	 0,013120760362037 
425	 1,45720086101926E-02 
426	 1,53493261271456E-02 
427	 1,61290513378832E-02 
428	 1,66426211255082E-02 
429	 1,60732790756112E-02 
430	 1,90249049871479E-02 
431	 2,39060898006744E-02 
432	 1,78783760794527E-02 
433	 1,15375517963364E-02 
434	 0,014326368338694 
435	 1,64538868893511E-02 
436	 1,60752612793113E-02 
437	 0,012423038114218 
438	 1,28907556934929E-02 
439	 1,87359090355269E-02 
440	 1,78860291216016E-02 
441	 1,42855559782432E-02 
442	 1,42734847841778E-02 
443	 1,38801256195436E-02 
444	 1,26596271305299E-02 
445	 0,011618986553208 
446	 1,24933551101467E-02 
447	 1,59686896463248E-02 
448	 1,85130867665696E-02 
449	 1,95746748170745E-02 
450	 1,90278470415413E-02 
451	 1,98887871012341E-02 
452	 2,19738792135907E-02 
453	 0,019799298592439 
454	 1,67737109507335E-02 
455	 0,016358350124945 
456	 1,67754181080738E-02 
457	 1,78600263161493E-02 
458	 2,07177509314204E-02 
459	 2,01193711826708E-02 
460	 1,52056766485364E-02 
461	 1,59893656587295E-02 
462	 1,81953034117988E-02 
463	 1,48534934355748E-02 
464	 1,39259387460651E-02 
465	 1,66347443948552E-02 
466	 2,10600034017978E-02 
467	 2,05753374484121E-02 
468	 0,012312210708439 
469	 1,27411462473749E-02 
470	 1,79579242957219E-02 
471	 1,50438009358802E-02 
472	 1,39146231595143E-02 
473	 1,65616274701799E-02 
474	 1,78326709624582E-02 
475	 1,66365113403262E-02 
476	 1,25324805914337E-02 
477	 0,013855826038026 
478	 1,87066135408157E-02 
479	 1,68855420724556E-02 
480	 1,54232225111256E-02 
481	 1,71849518618285E-02 
482	 0,018294623974928 
483	 1,81249158702383E-02 
484	 1,63184560722551E-02 
485	 1,56995882550107E-02 
486	 1,68996930428034E-02 
487	 1,92025856814597E-02 
488	 1,99449825339309E-02 
489	 1,74670508401053E-02 
490	 1,65001057942743E-02 
491	 0,017223153457988 
492	 1,81218422976939E-02 
493	 1,92753405544745E-02 
494	 0,020284039595657 
495	 1,98463090702604E-02 
496	 1,81641246458715E-02 
497	 1,56266800053345E-02 
498	 0,015749967163269 
499	 0,017993796440909 
500	 1,82360971443015E-02 
501	 1,74916419907734E-02 
502	 1,65778614885339E-02 
503	 0,017495324906052 
504	 1,89641771563808E-02 
505	 1,83225198626589E-02 
506	 1,75833243313611E-02 
507	 1,74261846001183E-02 
508	 1,79192393534307E-02 
509	 1,87553086156101E-02 
510	 0,019617666190414 
511	 2,03603107494552E-02 
512	 2,06452065449039E-02 
513	 1,97658284933955E-02 
514	 1,85179247998926E-02 
515	 1,75687401424722E-02 
516	 1,83799352329619E-02 
517	 1,97210106997555E-02 
518	 1,97223625508397E-02 
519	 1,98527863183937E-02 
520	 2,04193971680205E-02 
521	 2,12032927422291E-02 
522	 2,18370876853412E-02 
523	 2,20180992993072E-02 
524	 2,14864380053656E-02 
525	 2,07729011879803E-02 
526	 2,11565079944283E-02 
527	 2,12189177262516E-02 
528	 2,07321622455144E-02 
529	 2,13259132572154E-02 
530	 0,021843365521216 
531	 2,08780947795032E-02 
532	 2,06016493666849E-02 
533	 2,12143532072192E-02 
534	 2,17711378008231E-02 
535	 2,19479587871017E-02 
536	 2,15712877315767E-02 
537	 2,10294948797637E-02 
538	 0,020743514378197 
539	 2,13690135449223E-02 
540	 0,021919111447642 
541	 2,20010452535342E-02 
542	 2,14158430654989E-02 
543	 2,11387791514067E-02 
544	 0,022040080464237 
545	 0,022045954497233 
546	 2,13496250678881E-02 
547	 2,16874106949634E-02 
548	 2,22908919360576E-02 
549	 2,26464402028515E-02 
550	 2,17490105012298E-02 
551	 2,08752471617404E-02 
552	 2,21646455173292E-02 
553	 2,32861220070177E-02 
554	 2,35613498107957E-02 
555	 2,32943253561949E-02 
556	 2,28481279255568E-02 
557	 2,25403005261577E-02 
558	 2,24121608028307E-02 
559	 2,22628671402398E-02 
560	 2,14335960900311E-02 
561	 0,021141215439054 
562	 2,17519379354282E-02 
563	 2,22617325566212E-02 
564	 0,02220156351628 
565	 0,021097108164202 
566	 2,12703605839574E-02 
567	 2,24857547448785E-02 
568	 2,15648318866158E-02 
569	 2,07848213340912E-02 
570	 0,02162634954642 
571	 2,19470288599472E-02 
572	 2,19053868072787E-02 
573	 2,26143993664749E-02 
574	 2,31165900685597E-02 
575	 2,31693966104802E-02 
576	 0,023355077691285 
577	 0,023605312381556 
578	 2,37991525242942E-02 
579	 2,39493194236851E-02 
580	 2,42003591142645E-02 
581	 2,50457930395047E-02 
582	 2,56037766499867E-02 
583	 0,025498203662961 
584	 2,61799741602067E-02 
585	 2,69075110143293E-02 
586	 2,59841395024175E-02 
587	 2,57786023087945E-02 
588	 2,66516034571689E-02 
589	 2,67357557502586E-02 
590	 2,64546731252538E-02 
591	 2,63029304354595E-02 
592	 2,66860864135848E-02 
593	 2,72612471331837E-02 
594	 2,67407436080115E-02 
595	 2,67575679281888E-02 
596	 2,78267569569718E-02 
597	 2,79126935581627E-02 
598	 2,74384382629543E-02 
599	 2,73601276926236E-02 
600	 2,73949048531413E-02 
601	 2,73698861916365E-02 
602	 2,68026727406066E-02 
603	 0,026332129923714 
604	 2,64324395501363E-02 
605	 2,63855963231309E-02 
606	 2,61539295901098E-02 
607	 2,59134833632177E-02 
608	 2,59505801364461E-02 
609	 2,62283201726793E-02 
610	 2,58085364860152E-02 
611	 2,52183736139908E-02 
612	 2,51975727912643E-02 
613	 2,49136559894912E-02 
614	 2,44033240074641E-02 
615	 0,024456460119597 
616	 2,45851358624723E-02 
617	 2,44557693708457E-02 
618	 2,40748763587227E-02 
619	 2,36677133007067E-02 
620	 2,36777298771574E-02 
621	 0,023642019641376 
622	 2,34972262234903E-02 
623	 2,37288335122944E-02 
624	 2,39581789004731E-02 
625	 2,37941255993698E-02 
626	 2,39771622419334E-02 
627	 2,43889631693254E-02 
628	 2,42029206162562E-02 
629	 2,40796306574278E-02 
630	 2,43211960994018E-02 
631	 2,44878580241005E-02 
632	 2,45469973868076E-02 
633	 2,45174983004913E-02 
634	 2,46432545070529E-02 
635	 2,50795966357397E-02 
636	 0,026160429996643 
637	 2,69907643567353E-02 
638	 2,68479062066093E-02 
639	 2,67261250898902E-02 
640	 2,66868804581836E-02 
641	 2,62923765047165E-02 
642	 2,62568730026037E-02 
643	 0,026816029243829 
644	 2,74376998888251E-02 
645	 2,79369128629442E-02 
646	 2,81551964386669E-02 
647	 2,84155812324228E-02 
648	 2,85718027833134E-02 
649	 2,77608962031194E-02 
650	 2,71763307055011E-02 
651	 2,75296948456257E-02 
652	 2,74066655121908E-02 
653	 2,70008928734693E-02 
654	 2,72494534263992E-02 
655	 2,66865450453552E-02 
656	 2,52005634715569E-02 
657	 2,48067903805798E-02 
658	 2,45624092201539E-02 
659	 2,34096105853198E-02 
660	 2,26776969497064E-02 
661	 2,25062380810523E-02 
662	 2,24909147084821E-02 
663	 2,23145439735781E-02 
664	 2,18613987092504E-02 
665	 2,18027311978945E-02 
666	 2,16944304597916E-02 
667	 2,07053052315864E-02 
668	 2,01921446399476E-02 
669	 2,03226058104186E-02 
670	 2,00680549823466E-02 
671	 1,98060195786768E-02 
672	 1,98423456577766E-02 
673	 1,98869717560105E-02 
674	 0,019877988946991 
675	 1,97958259963791E-02 
676	 1,96774164010847E-02 
677	 1,95966531319035E-02 
678	 0,019865810111191 
679	 0,020124579470609 
680	 1,99277209888746E-02 
681	 1,97440749089691E-02 
682	 1,98424620961578E-02 
683	 2,06972753430971E-02 
684	 2,15112237685998E-02 
685	 2,17862802257353E-02 
686	 2,16295989447895E-02 
687	 2,16873021737878E-02 
688	 2,30798758537224E-02 
689	 2,42178820438686E-02 
690	 2,48123909566075E-02 
691	 2,58669109730287E-02 
692	 2,73766783548531E-02 
693	 0,029273711414868 
694	 3,10704639775769E-02 
695	 3,31592309485487E-02 
696	 3,67818509188717E-02 
697	 4,06816782813631E-02 
698	 4,43735453383542E-02 
699	 4,83677187566269E-02 
700	 5,28333670518593E-02 
701	 5,78984821005586E-02 
702	 6,31598177716761E-02 
703	 6,85286483287763E-02 
704	 7,41871988805441E-02 
705	 7,97536729711947E-02 
706	 8,49813675923408E-02 
707	 9,01012925630184E-02 
708	 9,51474289381306E-02 
709	 0,100115089335246 
710	 0,104818000704035 
711	 0,109300105664473 
712	 0,114035321881573 
713	 0,118667396124413 
714	 0,122840718892206 
715	 0,126515656352202 
716	 0,129844937911711 
717	 0,133275413791564 
718	 0,136435966377992 
719	 0,13923919570998 
720	 0,142083360594509 
721	 0,144818384477066 
722	 0,147218420297272 
723	 0,149419549886215 
724	 0,151443357464619 
725	 0,153225100265493 
726	 0,154964033017333 
727	 0,156698353451765 
728	 0,157670142623071 
729	 0,158332373877875 
730	 0,159628133162767 
731	 0,161198059639624 
732	 0,162737586208534 
733	 0,163440578161734 
734	 0,163972863173015 
735	 0,164916529120815 
736	 0,165659434858736 
737	 0,166219205088791 
738	 0,166944140656519 
739	 0,167368526283936 
740	 0,167481370309655 
741	 0,168234079025557 
742	 0,169139552898451 
743	 0,169554690100571 
744	 0,169853275895456 
745	 0,170109991824932 
746	 0,170237215184838 
747	 0,170629831868142 
748	 0,171401725895152 
749	 0,171704292326884 
750	 0,171801707666887 
751	 0,172254248349999 
752	 0,172815921843253 
753	 0,173270849536852 
754	 0,173053539293719 
755	 0,172884511100432 
756	 0,17326874779709 
757	 0,173625087694496 
758	 0,173864169555491 
759	 0,173984183661665 
760	 0,174216798767659 
761	 0,174554252539064 
762	 0,17454478069098 
763	 0,174525802889207 
764	 0,174828719160816 
765	 0,175282201535771 
766	 0,175679358424551 
767	 0,175573955181996 
768	 0,175503172059206 
769	 0,175654165279408 
770	 0,175704212973616 
771	 0,175757239944222 
772	 0,175962782868201 
773	 0,176339962986726 
774	 0,176780906903706 
775	 0,177012722679832 
776	 0,177004588486129 
777	 0,176786201774172 
778	 0,176648061408332 
779	 0,176766045393479 
780	 0,177332721466636 
781	 0,177664194994102 
782	 0,1776404813768 
783	 0,177562135716955 
784	 0,177700135392585 
785	 0,178148276713406 
786	 0,17799398039385 
787	 0,17771680065558 
788	 0,178416324542466 
789	 0,178848147816744 
790	 0,178763738422896 
791	 0,178849062101951 
792	 0,17885500448872 
793	 0,178617647819606 
794	 0,178650307274669 
795	 0,178977719435891 
796	 0,179521899465974 
797	 0,179598373398121 
798	 0,179191629266749 
799	 0,179481139143096 
800	 0,180028356858085 
801	 0,180350481111688 
802	 0,180408420248697 
803	 0,180296963656502 
804	 0,18032293424691 
805	 0,180159362350053 
806	 0,179870312949181 
807	 0,180353685884438 
808	 0,181146365533556 
809	 0,181655311695672 
810	 0,181293176766383 
811	 0,180596990279505 
812	 0,181431952523448 
813	 0,182181548836439 
814	 0,182232405580415 
815	 0,182374069363319 
816	 0,18252679776115 
817	 0,182533747561448 
818	 0,18279878645916 
819	 0,183209262930959 
820	 0,183141718299557 
821	 0,183107270886906 
822	 0,183337358622077 
823	 0,183590744826094 
824	 0,183942479370348 
825	 0,184504866347585 
826	 0,184244141919659 
827	 0,183488573532803 
828	 0,184066409759714 
829	 0,184728362784732 
830	 0,184833032258288 
831	 0,184795465579928 
832	 0,184688807617638 
833	 0,184563613751099 
834	 0,184296999108593 
835	 0,18409562013478 
836	 0,184718832751559 
837	 0,185246081349549 
838	 0,185183837608352 
839	 0,184961271509617 
840	 0,184794562613145 
841	 0,184904934771005 
842	 0,185522828615861 
843	 0,186288204869637 
844	 0,185839704832168 
845	 0,185539425250594 
846	 0,186018377797492 
847	 0,185941438254333 
848	 0,185723483081211 
849	 0,186141261352489 
850	 0,186375903165763 
851	 0,186319756276527 
852	 0,186337325486039 
853	 0,186325212112627 
854	 0,186254546873925 
855	 0,186260955894757 
856	 0,186335959243183 
857	 0,186444505377562 
858	 0,186674658260097 
859	 0,186936869021523 
860	 0,186936320366459 
861	 0,186716454519942 
862	 0,186388531513423 
863	 0,186444870815631 
864	 0,186804502616578 
865	 0,187275159375548 
866	 0,18752559438062 
867	 0,187504916957842 
868	 0,187306249092944 
869	 0,187417793365905 
870	 0,187987305307367 
871	 0,188331533614567 
872	 0,188317003378816 
873	 0,187896514589683 
874	 0,187741185701248 
875	 0,187916165258868 
876	 0,188068073306337 
877	 0,188452314380613 
878	 0,188998024352724 
879	 0,18879506274659 
880	 0,188432363661166 
881	 0,188598495757632 
882	 0,188654606351688 
883	 0,188740285391612 
884	 0,189637235050619 
885	 0,190056495928869 
886	 0,189658605065284 
887	 0,189299500397968 
888	 0,189556274387194 
889	 0,190755488943309 
890	 0,190576830530771 
891	 0,189776428364832 
892	 0,191014064158461 
893	 0,191808765737279 
894	 0,191546030441747 
895	 0,191267970105805 
896	 0,191241404991062 
897	 0,19160381106778 
898	 0,191774151909337 
899	 0,191655068793346 
900	 0,19123270190513 
901	 0,191226854106742 
902	 0,191747177422553 
903	 0,192353523478187 
904	 0,192647930576914 
905	 0,192439336682653 
906	 0,192338014745973 
907	 0,192401786648483 
908	 0,192586769790126 
909	 0,192900450135889 
910	 0,193134143067195 
911	 0,192713382518339 
912	 0,192019397524648 
913	 0,191461187416648 
914	 0,192123884694758 
915	 0,193120636838233 
916	 0,193337535224184 
917	 0,192520910610407 
918	 0,191471450060845 
919	 0,192449146236262 
920	 0,192768391843279 
921	 0,191904725901507 
922	 0,192050974937156 
923	 0,19287472838958 
924	 0,193766330091982 
925	 0,192301294811916 
926	 0,190308515713683 
927	 0,191757173316926 
928	 0,192598530414541 
929	 0,191983305478491 
930	 0,191249389885426 
931	 0,191029073791192 
932	 0,191468922959476 
933	 0,190682566909495 
934	 0,189499881201658 
935	 0,189240959963861 
936	 0,18911326414984 
937	 0,189138794681442 
938	 0,189951653863689 
939	 0,190227461974956 
940	 0,189542546701524 
941	 0,188714825683454 
942	 0,188031401186531 
943	 0,187710775340365 
944	 0,187812675540617 
945	 0,187552005599507 
946	 0,185463533949753 
947	 0,184371038576791 
948	 0,18462056911829 
949	 0,184265271455198 
950	 0,183475386980366 
951	 0,182347317420888 
952	 0,18086704693711 
953	 0,179860186505979 
954	 0,180204063482025 
955	 0,179917883687958 
956	 0,178690676661961 
957	 0,17670186064036 
958	 0,176229932429792 
959	 0,177343517654385 
960	 0,176113261560679 
961	 0,174978097201462 
962	 0,175596600162222 
963	 0,17456667033997 
964	 0,173154155055782 
965	 0,173952889530579 
966	 0,174820330582511 
967	 0,175018614165988 
968	 0,173995785380237 
969	 0,173084196541269 
970	 0,17292597591299 
971	 0,173209882881726 
972	 0,173855277056353 
973	 0,174687195868556 
974	 0,174672848244566 
975	 0,17424439890739 
976	 0,174480494990943 
977	 0,175308185377904 
978	 0,176131327600134 
979	 0,174975770898913 
980	 0,173637171956069 
981	 0,173179327886773 
982	 0,173965381691635 
983	 0,174607396090598 
984	 0,173827046479833 
985	 0,173970659685131 
986	 0,17487181633058 
987	 0,175415435590795 
988	 0,175176568022379 
989	 0,174413783503744 
990	 0,174554986049634 
991	 0,175027798010375 
992	 0,175724820178425 
993	 0,178165254547343 
994	 0,179571957701373 
995	 0,177267349610306 
996	 0,175808264250957 
997	 0,176359016880316 
998	 0,17943177657673 
999	 0,181042887436462 
1000	 0,180724897224259 
1001	 0,181922957786543 
1002	 0,181578381050819 
1003	 0,17915849032687 
1004	 0,180696451601893 
1005	 0,183194738075989 
1006	 0,183395703406136 
1007	 0,18347117653891 
1008	 0,183147279918748 
1009	 0,181419551194694 
1010	 0,179490187512279 
1011	 0,178413765499964 
1012	 0,179926382009145 
1013	 0,183717907979109 
1014	 0,188348107351767 
1015	 0,188839651162873 
1016	 0,185335911523424 
1017	 0,179559803534257 
1018	 0,182870155873087 
1019	 0,188407025310324 
1020	 0,183743162006616 
1021	 0,182669924323795 
1022	 0,186177844697038 
1023	 0,187645312304831 
1024	 0,189568317041735 
1025	 0,191585676093533 
1026	 0,189033799410786 
1027	 0,188543460428406 
1028	 0,193229310172774 
1029	 0,191894203874279 
1030	 0,188675050609343 
1031	 0,189456114463155 
1032	 0,187764774865017 
1033	 0,185714408988971 
1034	 0,189847392120137 
1035	 0,189791845656763 
1036	 0,186422309213632 
1037	 0,19414890597026 
1038	 0,197217494889879 
1039	 0,191076124725759 
1040	 0,192961005120586 
1041	 0,196900459012607 
1042	 0,19727727607759 
1043	 0,196173412795537 
1044	 0,196180004785943 
1045	 0,200231099157547 
1046	 0,200946156434287 
1047	 0,199310563084593 
1048	 0,201710204375916 
1049	 0,201257593896734 
1050	 0,197002668045842 
1051	 0,193570919482281 
1052	 0,190823505166817 
1053	 0,190378637023632 
1054	 0,20081445025846 
1055	 0,207581332267465 
1056	 0,198592906102628 
1057	 0,18840116664433 
1058	 0,180938179889949 
1059	 0,178158744229855 
1060	 0,187491343183263 
1061	 0,203292268969199 
1062	 0,212465790646098 
1063	 0,211851561995386 
1064	 0,20418054456111 
1065	 0,204454037816722 
1066	 0,203797996907089 
1067	 0,200244141732177 
1068	 0,20542562222296 
1069	 0,207986772062764 
1070	 0,200403905218512 
1071	 0,195922250742259 
1072	 0,194286940598372 
1073	 0,193789017455962 
1074	 0,20343450734512 
1075	 0,216465678860279 
