Wavelength	NEUF00319.asd
325	 0,274238272329875 
326	-7,56146288987095E-02 
327	-0,2157256470119 
328	-9,37933794379901E-04 
329	 8,33038361383851E-02 
330	 9,46520185104942E-02 
331	 3,02377535470699E-02 
332	 9,29968619104515E-02 
333	 0,182343519628329 
334	 0,125076506341694 
335	 0,118848665256309 
336	 0,181622362667956 
337	 1,81354510078554E-02 
338	-0,118285079678754 
339	-1,85306324182493E-02 
340	 1,20164126611958E-02 
341	-6,75839720943599E-03 
342	 5,69774589471835E-02 
343	 0,102997498205128 
344	 0,120609165124688 
345	 8,91866588215268E-02 
346	 0,059089559978242 
347	 7,50328786478996E-02 
348	 0,058538643086748 
349	 1,47550726230398E-02 
350	-4,99459026723684E-03 
351	 3,49856347304137E-02 
352	 0,1112008718972 
353	 5,42170781464674E-02 
354	-4,18767233474898E-02 
355	-4,39882088516739E-02 
356	-1,36570445771302E-02 
357	 2,38893093416286E-02 
358	 4,51618550698496E-02 
359	 0,043725884939986 
360	 2,41119850521199E-02 
361	 4,63722519373709E-02 
362	 7,07598059018388E-02 
363	 3,76592799280576E-02 
364	 0,031907724285317 
365	 5,63502453279199E-02 
366	 4,39193315121324E-02 
367	 3,25210694463815E-02 
368	 4,20781560977832E-02 
369	 2,68527137518559E-02 
370	 4,07734662738219E-03 
371	 8,69235053681567E-03 
372	 1,78339883805579E-02 
373	 2,49626228632164E-02 
374	 0,034759047784716 
375	 3,20898882795429E-02 
376	 9,32501338797178E-03 
377	 1,55324921305291E-02 
378	 3,84173922977783E-02 
379	 3,49474109566341E-02 
380	 3,66421258240627E-02 
381	 4,93359904396755E-02 
382	 5,67755598997169E-02 
383	 5,50888510455358E-02 
384	 0,042112023326718 
385	 4,52286059908847E-02 
386	 5,59306257192239E-02 
387	 3,56578298376723E-02 
388	 2,71812118769467E-02 
389	 4,28326148900416E-02 
390	 0,049171647847647 
391	 4,31120792822671E-02 
392	 2,45751975954931E-02 
393	 2,56800705835706E-02 
394	 4,19416658274215E-02 
395	 3,93168323245118E-02 
396	 3,49091881457836E-02 
397	 3,76625950300484E-02 
398	 4,47221374882091E-02 
399	 4,70974592121684E-02 
400	 0,031611584041946 
401	 0,020878595972203 
402	 2,14740046634736E-02 
403	 3,37692995725563E-02 
404	 4,33539318640362E-02 
405	 4,06305007330562E-02 
406	 3,58718320977608E-02 
407	 3,12922935346311E-02 
408	 2,73786921868058E-02 
409	 2,77292171813163E-02 
410	 3,11562653057834E-02 
411	 2,78329790508181E-02 
412	 2,19568455212117E-02 
413	 1,82477066024172E-02 
414	 2,14338614793894E-02 
415	 2,86604298129585E-02 
416	 3,14211979255101E-02 
417	 3,22744346899175E-02 
418	 3,21552186359299E-02 
419	 3,10794448818613E-02 
420	 3,00720867234816E-02 
421	 3,03329969552845E-02 
422	 2,56966810418984E-02 
423	 0,019359826998024 
424	 2,60290163451285E-02 
425	 3,25145116229588E-02 
426	 3,09720924072001E-02 
427	 2,93319424282498E-02 
428	 2,81857188231491E-02 
429	 2,63589178083425E-02 
430	 2,68052018896735E-02 
431	 2,95149266086082E-02 
432	 3,08429523549938E-02 
433	 0,030403165240965 
434	 2,82435879750853E-02 
435	 2,83209006583194E-02 
436	 2,95965499219908E-02 
437	 2,71998386499192E-02 
438	 2,62596528769914E-02 
439	 2,80235073832466E-02 
440	 2,65987119686347E-02 
441	 2,55112088903552E-02 
442	 2,98134521505099E-02 
443	 2,80986384209313E-02 
444	 2,16568174369372E-02 
445	 2,38826615855584E-02 
446	 2,85668385175142E-02 
447	 3,16249158992052E-02 
448	 3,33820110302157E-02 
449	 3,35316022115152E-02 
450	 3,14195849150686E-02 
451	 3,09978531215813E-02 
452	 3,23746778538771E-02 
453	 2,94130309636228E-02 
454	 2,68037326817551E-02 
455	 2,89148376549229E-02 
456	 0,028489013551722 
457	 2,67472384732594E-02 
458	 3,11270756640179E-02 
459	 3,32302321868744E-02 
460	 3,03839107698438E-02 
461	 2,96715599746219E-02 
462	 0,03082670421831 
463	 0,032543005083492 
464	 3,35512532686826E-02 
465	 0,03341989031902 
466	 3,24800965736412E-02 
467	 3,03385569077774E-02 
468	 2,72451896043553E-02 
469	 2,79197543017154E-02 
470	 3,03712314647094E-02 
471	 2,92510602760403E-02 
472	 2,85601448675656E-02 
473	 2,93849546923535E-02 
474	 3,08708875595625E-02 
475	 3,15897474436793E-02 
476	 3,03501858357309E-02 
477	 3,13616360197973E-02 
478	 3,34732782809056E-02 
479	 3,11333888152821E-02 
480	 2,86128060035139E-02 
481	 2,79263765545643E-02 
482	 0,027841474484692 
483	 2,79051341202464E-02 
484	 2,75190416025691E-02 
485	 3,00165829497563E-02 
486	 3,42431495136453E-02 
487	 3,29946001666836E-02 
488	 3,03783200082704E-02 
489	 2,96728323899463E-02 
490	 0,030069477908424 
491	 3,10331278047205E-02 
492	 3,15079654375297E-02 
493	 0,032451387974694 
494	 3,36837294006547E-02 
495	 3,28278392240838E-02 
496	 3,10787791433723E-02 
497	 2,99747897667534E-02 
498	 3,04294717535765E-02 
499	 3,19073277793295E-02 
500	 0,032238282979824 
501	 3,16822150117218E-02 
502	 3,06188436863404E-02 
503	 3,08358400956712E-02 
504	 3,20085695829872E-02 
505	 0,033249507827052 
506	 3,35860800266553E-02 
507	 3,29672717498146E-02 
508	 3,27772542170654E-02 
509	 3,27875874253154E-02 
510	 3,27444258084693E-02 
511	 3,29250575173276E-02 
512	 3,30742968863362E-02 
513	 3,23477000109584E-02 
514	 3,19223438806774E-02 
515	 3,23384148366289E-02 
516	 3,34763107230662E-02 
517	 3,43592302551238E-02 
518	 3,37132900676855E-02 
519	 3,29174512711092E-02 
520	 3,24559959310752E-02 
521	 3,24239208648819E-02 
522	 3,29101680302693E-02 
523	 3,38524935274268E-02 
524	 3,39628687645377E-02 
525	 3,35839500681177E-02 
526	 0,033930291287003 
527	 3,44921318185755E-02 
528	 3,50923942662324E-02 
529	 3,58701056765773E-02 
530	 3,58578177198076E-02 
531	 3,40191204205289E-02 
532	 3,42882665386668E-02 
533	 3,62963637230687E-02 
534	 3,59209008274762E-02 
535	 3,52234802643959E-02 
536	 3,53502541875738E-02 
537	 3,51992000788123E-02 
538	 3,49492828510981E-02 
539	 3,52448886186726E-02 
540	 3,48134973465418E-02 
541	 3,37070426758268E-02 
542	 3,40163304333171E-02 
543	 0,034742253082502 
544	 0,034816011866443 
545	 3,45773072668642E-02 
546	 3,44057453594479E-02 
547	 3,52190422853008E-02 
548	 3,59517152710905E-02 
549	 3,60655196109948E-02 
550	 0,035806223213085 
551	 0,035547967924235 
552	 3,57767695419548E-02 
553	 3,67003553699236E-02 
554	 3,78820618259555E-02 
555	 3,74873537939726E-02 
556	 3,66469605338917E-02 
557	 3,63519032251827E-02 
558	 3,61748412020006E-02 
559	 0,036107067451503 
560	 3,63000950473386E-02 
561	 0,036379357707309 
562	 3,61773026771703E-02 
563	 3,57602285946143E-02 
564	 3,53976988209924E-02 
565	 3,54101295901905E-02 
566	 3,62591070136041E-02 
567	 3,73671797373043E-02 
568	 3,62823671775488E-02 
569	 3,54449243775735E-02 
570	 3,64544183638769E-02 
571	 3,70225092863052E-02 
572	 3,72418839960329E-02 
573	 3,81642732743699E-02 
574	 3,87561009496828E-02 
575	 3,87949774941552E-02 
576	 3,91434442753926E-02 
577	 3,95612469837982E-02 
578	 3,97179220564279E-02 
579	 3,99248975371875E-02 
580	 4,03259054517571E-02 
581	 4,11380314373564E-02 
582	 4,19267519732538E-02 
583	 4,24103893646311E-02 
584	 4,26258110824002E-02 
585	 4,25940082094111E-02 
586	 4,23228135457186E-02 
587	 4,21204878674586E-02 
588	 4,22127156931367E-02 
589	 4,30910916408033E-02 
590	 4,36571159642995E-02 
591	 4,29564683039566E-02 
592	 4,28289464071251E-02 
593	 4,33613221636289E-02 
594	 4,37832808923556E-02 
595	 4,39255479205176E-02 
596	 0,04377878950591 
597	 4,41067528920164E-02 
598	 4,46227433707075E-02 
599	 4,48054685028321E-02 
600	 4,42919761155646E-02 
601	 4,32561989586822E-02 
602	 4,26618342501812E-02 
603	 4,27379591897313E-02 
604	 4,35303721179294E-02 
605	 4,35990809302565E-02 
606	 4,31057569356435E-02 
607	 4,30997120547841E-02 
608	 4,31654570901963E-02 
609	 4,31698114427603E-02 
610	 4,31873026439117E-02 
611	 0,04295417603023 
612	 4,21558589423303E-02 
613	 0,041738074729485 
614	 4,19367456785911E-02 
615	 4,27621982326762E-02 
616	 4,30681204258083E-02 
617	 0,042236326651259 
618	 4,19398359697894E-02 
619	 4,20265249455306E-02 
620	 4,16730814860387E-02 
621	 4,14221572201039E-02 
622	 4,13702016423284E-02 
623	 4,10619017338234E-02 
624	 4,10276794271499E-02 
625	 0,041790267378457 
626	 4,21962231902063E-02 
627	 4,21304894879431E-02 
628	 4,19739895999026E-02 
629	 4,22306556321581E-02 
630	 4,30195084178425E-02 
631	 4,29740500424668E-02 
632	 4,26817041288667E-02 
633	 4,33538577028502E-02 
634	 4,39720053556612E-02 
635	 4,43352861216923E-02 
636	 4,49208021443522E-02 
637	 4,54291510488997E-02 
638	 4,56246777462005E-02 
639	 4,59917005060883E-02 
640	 4,64659730251126E-02 
641	 4,66722899076089E-02 
642	 4,67572453354887E-02 
643	 4,68196436911068E-02 
644	 4,70781664684389E-02 
645	 4,74237607269755E-02 
646	 4,76862607392542E-02 
647	 4,79588666467716E-02 
648	 4,82475407528426E-02 
649	 4,85561375202677E-02 
650	 4,86422177630966E-02 
651	 4,84045727192936E-02 
652	 0,048553024617659 
653	 4,87710613553926E-02 
654	 4,82319029705278E-02 
655	 4,73354584850144E-02 
656	 4,63991721859421E-02 
657	 4,62319895109443E-02 
658	 4,61373590900886E-02 
659	 0,045366766695267 
660	 4,47375870601209E-02 
661	 0,044362702144359 
662	 4,40513417268521E-02 
663	 4,37377795622106E-02 
664	 4,33421534468728E-02 
665	 4,26380681499144E-02 
666	 4,19027355380611E-02 
667	 4,15957055434169E-02 
668	 4,13114652354505E-02 
669	 4,09788266125319E-02 
670	 4,07463587654381E-02 
671	 4,07416581854005E-02 
672	 4,09985045208071E-02 
673	 4,06662887148513E-02 
674	 0,040044332833306 
675	 4,01913764634958E-02 
676	 0,040504503881546 
677	 4,07106444655669E-02 
678	 4,05476250685794E-02 
679	 4,03780294450209E-02 
680	 4,06510799562971E-02 
681	 4,07352880137501E-02 
682	 4,06772105428202E-02 
683	 4,10542740807367E-02 
684	 0,041737813818149 
685	 4,25799884142467E-02 
686	 0,043028155003886 
687	 4,33616830475723E-02 
688	 4,41794272554597E-02 
689	 4,54389583396752E-02 
690	 4,69238065529411E-02 
691	 4,75962312417489E-02 
692	 4,87866254612456E-02 
693	 5,16182204992806E-02 
694	 5,40777481140869E-02 
695	 5,63277501808176E-02 
696	 5,97679305872722E-02 
697	 6,36177214032256E-02 
698	 6,74905350544932E-02 
699	 7,10883412068285E-02 
700	 7,48528394664395E-02 
701	 7,93629915954779E-02 
702	 0,083707631645103 
703	 8,78500317485241E-02 
704	 9,25232728315404E-02 
705	 9,71088755637868E-02 
706	 0,101211098274232 
707	 0,105134935035496 
708	 0,108921918768465 
709	 0,112562489160151 
710	 0,115998322043434 
711	 0,119212806073371 
712	 0,122248780261826 
713	 0,124994763370476 
714	 0,127373929637589 
715	 0,12982108760827 
716	 0,132259097998157 
717	 0,134274213549561 
718	 0,136055525857034 
719	 0,1377438378117 
720	 0,139672254263496 
721	 0,141518271721599 
722	 0,142844020071594 
723	 0,144034559933516 
724	 0,145177435669448 
725	 0,146222407310485 
726	 0,147156490993519 
727	 0,147964428211383 
728	 0,148597312233602 
729	 0,14918083446325 
730	 0,149937756169625 
731	 0,150643987703989 
732	 0,151284259790294 
733	 0,1521286215204 
734	 0,152851468237035 
735	 0,153187144529761 
736	 0,153628746922926 
737	 0,154090873125383 
738	 0,154147889495756 
739	 0,153978795607816 
740	 0,153812729039612 
741	 0,154438223833102 
742	 0,155283708774425 
743	 0,155617658798665 
744	 0,155581842385139 
745	 0,155402244878196 
746	 0,155652218841166 
747	 0,156049720901385 
748	 0,156432227130004 
749	 0,156763972141486 
750	 0,157089787853761 
751	 0,157503511056068 
752	 0,157681925280302 
753	 0,157604896286769 
754	 0,157545828787403 
755	 0,157546731908145 
756	 0,157626694237796 
757	 0,157600487656996 
758	 0,157650391573292 
759	 0,158268239853956 
760	 0,158376074318286 
761	 0,157848161371124 
762	 0,157930217979688 
763	 0,158141153690165 
764	 0,158004580279037 
765	 0,158248724373232 
766	 0,158709722408469 
767	 0,158655336682592 
768	 0,158378246065161 
769	 0,158103687332434 
770	 0,158424961578726 
771	 0,158871247577028 
772	 0,158839085245284 
773	 0,15886266643171 
774	 0,159048133271047 
775	 0,159420810128083 
776	 0,159408051530216 
777	 0,158834508189696 
778	 0,158703981903778 
779	 0,159043879788651 
780	 0,159717570917286 
781	 0,159978928978426 
782	 0,159707438811714 
783	 0,159272343047101 
784	 0,159245851536457 
785	 0,159858805380198 
786	 0,1595588942966 
787	 0,158878364440426 
788	 0,159136772203362 
789	 0,15971564315552 
790	 0,160281895553944 
791	 0,160293326013653 
792	 0,160071747007222 
793	 0,159925556120618 
794	 0,160061119963169 
795	 0,160379831755158 
796	 0,160618010170169 
797	 0,160550714953535 
798	 0,160214824508651 
799	 0,160166532092766 
800	 0,160475185385064 
801	 0,161117787822197 
802	 0,16130328195304 
803	 0,161057945863838 
804	 0,160801833214505 
805	 0,160919000842907 
806	 0,161445650887256 
807	 0,161584927093863 
808	 0,16147925606429 
809	 0,161356054106442 
810	 0,161329356542172 
811	 0,161466105309723 
812	 0,161875626599897 
813	 0,162139050014207 
814	 0,162100577481289 
815	 0,162080688934436 
816	 0,162126650651024 
817	 0,162253515594054 
818	 0,162229997088561 
819	 0,162127903772657 
820	 0,162342338666079 
821	 0,162469564185692 
822	 0,162382313015022 
823	 0,162584919431812 
824	 0,162902927386232 
825	 0,163050312159081 
826	 0,162865096264035 
827	 0,16260319981166 
828	 0,16326103705137 
829	 0,163587238049966 
830	 0,163046454095697 
831	 0,162801764565887 
832	 0,162879304862529 
833	 0,163130504891026 
834	 0,162649820751964 
835	 0,161855008220838 
836	 0,162939663574383 
837	 0,163852269523627 
838	 0,163524756898982 
839	 0,162963095750275 
840	 0,162675507183761 
841	 0,163187831237936 
842	 0,163826108400001 
843	 0,164188062248252 
844	 0,163615658629936 
845	 0,16318965626368 
846	 0,163429884623321 
847	 0,163297585420954 
848	 0,16307533426961 
849	 0,163311164326955 
850	 0,163593755309973 
851	 0,163790324262529 
852	 0,163900044495254 
853	 0,163682361913077 
854	 0,163134146024122 
855	 0,163112564327897 
856	 0,163439930946062 
857	 0,163731235174372 
858	 0,163314474525393 
859	 0,162581909071751 
860	 0,163420608288179 
861	 0,16396889506549 
862	 0,163464559092267 
863	 0,163780677855785 
864	 0,16439018140891 
865	 0,164370019231708 
866	 0,163973672610867 
867	 0,163525485301452 
868	 0,16384213021387 
869	 0,164094090537246 
870	 0,163936651043945 
871	 0,163886880430049 
872	 0,164051775779259 
873	 0,164469772645315 
874	 0,164018892403157 
875	 0,163197873603486 
876	 0,164299992053798 
877	 0,164574646241819 
878	 0,163384788678235 
879	 0,164303016407873 
880	 0,165503162772183 
881	 0,164823821493356 
882	 0,164419223730773 
883	 0,164455829948249 
884	 0,164106267664405 
885	 0,16437097584828 
886	 0,165285463313119 
887	 0,165171751486881 
888	 0,164734943650565 
889	 0,164717672153623 
890	 0,164583431009424 
891	 0,164590616928399 
892	 0,16553635906777 
893	 0,165950318873961 
894	 0,165540017599916 
895	 0,165411339080782 
896	 0,165332753463129 
897	 0,165139018176864 
898	 0,165279863573728 
899	 0,165500253907208 
900	 0,16523434971758 
901	 0,165030396656479 
902	 0,16504869713398 
903	 0,165245407289447 
904	 0,16542214027279 
905	 0,165513839377522 
906	 0,166152831357117 
907	 0,166594042812571 
908	 0,16571839968206 
909	 0,165380193331506 
910	 0,165681511928176 
911	 0,165385336388851 
912	 0,16503586319365 
913	 0,164953837116452 
914	 0,165469816177842 
915	 0,166058772295455 
916	 0,166093208610541 
917	 0,165331930850984 
918	 0,164413750930373 
919	 0,165005152874085 
920	 0,16602285568161 
921	 0,166824913261383 
922	 0,166343757634814 
923	 0,165912917192039 
924	 0,166564353620022 
925	 0,1665085585874 
926	 0,166007538326835 
927	 0,166022193971544 
928	 0,166254254716516 
929	 0,166489720229487 
930	 0,166252189413645 
931	 0,165881795476325 
932	 0,165560631145468 
933	 0,164988633717628 
934	 0,164477117471324 
935	 0,16445084748672 
936	 0,164930324722132 
937	 0,165627643777164 
938	 0,165860272643128 
939	 0,165603277894796 
940	 0,164953644276409 
941	 0,164491304827014 
942	 0,164333606259411 
943	 0,164520990142828 
944	 0,164816261185795 
945	 0,164856414676978 
946	 0,164058032782102 
947	 0,16386115797876 
948	 0,164353443704068 
949	 0,164199014146051 
950	 0,164006500283865 
951	 0,163926632074448 
952	 0,16255578690638 
953	 0,161093006529283 
954	 0,161093592505485 
955	 0,161288012894449 
956	 0,161174022959487 
957	 0,160063722232916 
958	 0,159947025522366 
959	 0,160939117783452 
960	 0,160091372511506 
961	 0,159067029850964 
962	 0,159139251268489 
963	 0,158948970059771 
964	 0,159187968157442 
965	 0,161125163264298 
966	 0,160733159520405 
967	 0,158537448030581 
968	 0,159407123155941 
969	 0,160434740373991 
970	 0,160486299829166 
971	 0,160389826792613 
972	 0,16075660079774 
973	 0,161923978299327 
974	 0,161769902309222 
975	 0,160834057958132 
976	 0,160706843165477 
977	 0,161337950339728 
978	 0,162392134287621 
979	 0,162917713436668 
980	 0,161751345373338 
981	 0,159265819661669 
982	 0,16116503310952 
983	 0,163700145395838 
984	 0,162739526505488 
985	 0,160654997337185 
986	 0,159407849424318 
987	 0,161898977193016 
988	 0,163820370003953 
989	 0,163743329537208 
990	 0,161505062426694 
991	 0,160371836091198 
992	 0,161786984587011 
993	 0,162660808020656 
994	 0,16289496743126 
995	 0,1626648409576 
996	 0,161653435241202 
997	 0,161709393534625 
998	 0,166561447693879 
999	 0,166565737595148 
1000	 0,16198951202945 
1001	 0,164510589570915 
1002	 0,166417782536904 
1003	 0,164554285631604 
1004	 0,164690961818703 
1005	 0,165423812382321 
1006	 0,164982490105219 
1007	 0,163246549455481 
1008	 0,162591998540898 
1009	 0,167158058508222 
1010	 0,168065730421597 
1011	 0,16518229114074 
1012	 0,166353405052769 
1013	 0,168362081374474 
1014	 0,169686820090574 
1015	 0,170456140076962 
1016	 0,16867754155271 
1017	 0,163671227653856 
1018	 0,16434538086745 
1019	 0,167200490079582 
1020	 0,165158116849089 
1021	 0,167167926964381 
1022	 0,17175616752219 
1023	 0,168711536999151 
1024	 0,167823927087966 
1025	 0,170908643076733 
1026	 0,170062776360891 
1027	 0,169835421976422 
1028	 0,17292459728603 
1029	 0,176149455541799 
1030	 0,175563115782633 
1031	 0,167818807008074 
1032	 0,163258429289066 
1033	 0,163840946070202 
1034	 0,168727135422209 
1035	 0,168526597999095 
1036	 0,164564264066417 
1037	 0,172853944180448 
1038	 0,176164390237299 
1039	 0,168836790762171 
1040	 0,165838342185788 
1041	 0,167215859859089 
1042	 0,171874614236833 
1043	 0,177475167856165 
1044	 0,181456183546638 
1045	 0,180908221774891 
1046	 0,174025439159427 
1047	 0,167187907751077 
1048	 0,175499738376003 
1049	 0,177809546315168 
1050	 0,170942126132524 
1051	 0,170401781980219 
1052	 0,169719100099962 
1053	 0,167667931718365 
1054	 0,175201754861074 
1055	 0,183141852766647 
1056	 0,182217666400188 
1057	 0,169314904683252 
1058	 0,158154524469936 
1059	 0,166483635582487 
1060	 0,169626447583235 
1061	 0,167958579246188 
1062	 0,175534987784996 
1063	 0,177009003178736 
1064	 0,172475787919457 
1065	 0,179940580623486 
1066	 0,181686765450614 
1067	 0,17382825877434 
1068	 0,18205219670013 
1069	 0,188810849328516 
1070	 0,180701003952902 
1071	 0,166436887709125 
1072	 0,159482948897485 
1073	 0,172883545105653 
1074	 0,178685834984179 
1075	 0,17988116209142 
