Wavelength	NEUF00802.asd
325	 0,133375742154368 
326	 0,126824020660677 
327	 9,62154058802697E-02 
328	 7,11404024361267E-02 
329	 6,75466976293274E-02 
330	 5,82558671228056E-02 
331	 2,42813392315545E-02 
332	 0,122124211735312 
333	 0,199077187437021 
334	 4,55018311022771E-02 
335	 6,87913564607086E-03 
336	 0,144933194612977 
337	 4,95746372359238E-02 
338	-9,83378313823641E-02 
339	-0,103194071942028 
340	 1,49920695124474E-02 
341	 0,167364472830153 
342	 0,132094487337967 
343	 7,94779310327929E-02 
344	 4,92701863944836E-02 
345	 8,95394434144615E-02 
346	 0,118089039126262 
347	 5,93456877343623E-02 
348	 3,18029880712096E-03 
349	-2,58003045120925E-02 
350	 5,3304692794553E-03 
351	 2,71572217632244E-02 
352	 1,75747088649961E-02 
353	 2,39810150297681E-03 
354	-1,22483871288079E-02 
355	-1,94235829360855E-02 
356	 2,68124515896879E-03 
357	 4,14687101629023E-02 
358	 5,91529980357491E-02 
359	 5,34928023863093E-02 
360	 2,78263420206257E-02 
361	 2,38000266750764E-02 
362	 0,027861213161034 
363	 1,27009721583548E-02 
364	 1,33729525593922E-02 
365	 3,15426331955194E-02 
366	 4,71519631474637E-02 
367	 4,93023160640427E-02 
368	 3,25573567061367E-02 
369	 2,85773197446713E-02 
370	 3,71853597367338E-02 
371	 5,08869384674429E-02 
372	 3,70452900121599E-02 
373	 1,93172508501948E-03 
374	 8,04467044799105E-03 
375	 2,44410422186725E-02 
376	 2,69817690749494E-02 
377	 4,08970946191368E-02 
378	 5,05929111284858E-02 
379	 1,04912239347717E-02 
380	 4,19997471558267E-03 
381	 4,65133284611501E-02 
382	 0,073809691452911 
383	 7,57291279874876E-02 
384	 4,64737243784586E-02 
385	 2,77396711488221E-02 
386	 2,28692830494945E-02 
387	 7,47283827610614E-03 
388	 1,64622518574641E-02 
389	 4,97606542028256E-02 
390	 3,45594854539814E-02 
391	 4,20619959795693E-03 
392	 5,41416524727853E-03 
393	 1,82470031493227E-02 
394	 0,030570577392844 
395	 1,80663734966641E-02 
396	 0,016026784657316 
397	 3,73593062472247E-02 
398	 3,68380214554897E-02 
399	 2,31073980666705E-02 
400	 1,45348263174177E-02 
401	 1,83731191362506E-02 
402	 3,00350689196374E-02 
403	 0,024233643025234 
404	 2,07916822672393E-02 
405	 3,14208032309623E-02 
406	 2,72768293302016E-02 
407	 1,57091313199666E-02 
408	 1,94440066534947E-02 
409	 2,13027613127657E-02 
410	 1,77748275632394E-02 
411	 1,65222356063438E-02 
412	 1,56324329819971E-02 
413	 1,32233990748912E-02 
414	 1,47635369107171E-02 
415	 1,84487927670732E-02 
416	 1,76249836785397E-02 
417	 1,65335731217036E-02 
418	 1,66968480680975E-02 
419	 1,53116639655237E-02 
420	 1,68023997274607E-02 
421	 2,68641118526625E-02 
422	 2,64793964598966E-02 
423	 1,63658271626565E-02 
424	 1,23169437517332E-02 
425	 1,43715919636786E-02 
426	 2,14624723792614E-02 
427	 2,46558369831094E-02 
428	 2,33649090961824E-02 
429	 1,85293443731669E-02 
430	 0,017548962402888 
431	 2,08127578413112E-02 
432	 1,89909268795499E-02 
433	 1,49337508631064E-02 
434	 1,17775373305279E-02 
435	 0,012204265828768 
436	 1,44563891844457E-02 
437	 1,23427777032432E-02 
438	 1,27786969665703E-02 
439	 1,70537626803468E-02 
440	 1,59112213519622E-02 
441	 1,24627155847173E-02 
442	 1,16541086409315E-02 
443	 1,12893959857498E-02 
444	 1,15805527683233E-02 
445	 1,47903077751946E-02 
446	 1,73527263142814E-02 
447	 1,73615916376296E-02 
448	 1,89017237418569E-02 
449	 2,09259266437453E-02 
450	 2,05196402197257E-02 
451	 1,96726413098473E-02 
452	 1,87800610944203E-02 
453	 1,65221272949357E-02 
454	 1,46084741419971E-02 
455	 1,46416250816531E-02 
456	 1,39961137989335E-02 
457	 1,35965539466895E-02 
458	 1,76165545822636E-02 
459	 2,01971092900542E-02 
460	 1,90909513059917E-02 
461	 1,75671220065804E-02 
462	 1,64954345413212E-02 
463	 1,65636899936647E-02 
464	 1,70278969507204E-02 
465	 1,72853668444742E-02 
466	 1,63492777111627E-02 
467	 1,41153900021584E-02 
468	 0,011083103567304 
469	 0,012522757406739 
470	 1,59825806360186E-02 
471	 1,51077870875186E-02 
472	 1,45438948638136E-02 
473	 1,53920888830274E-02 
474	 1,61874075192196E-02 
475	 1,52060474032026E-02 
476	 1,11235988157742E-02 
477	 1,05406965234599E-02 
478	 1,34410508224993E-02 
479	 1,61951043990561E-02 
480	 1,70370432729036E-02 
481	 1,53460658776307E-02 
482	 1,45749318626689E-02 
483	 1,38046147205035E-02 
484	 1,09015555080861E-02 
485	 1,16906117946991E-02 
486	 1,60280977579058E-02 
487	 1,74708385148738E-02 
488	 1,75340047554968E-02 
489	 1,74305163298553E-02 
490	 1,68138143249248E-02 
491	 1,58532864528853E-02 
492	 1,47727215959424E-02 
493	 1,41949998138937E-02 
494	 1,43202119901097E-02 
495	 1,47232391110457E-02 
496	 1,51129946533572E-02 
497	 1,52239887477658E-02 
498	 1,59805671928666E-02 
499	 1,69353185421811E-02 
500	 1,61354579677512E-02 
501	 0,015281398034257 
502	 1,53036491378758E-02 
503	 1,51923674184477E-02 
504	 1,51747039907897E-02 
505	 1,58495463395279E-02 
506	 1,67229883995941E-02 
507	 0,017393858042008 
508	 1,70404087314282E-02 
509	 1,63757444195833E-02 
510	 1,60964070173134E-02 
511	 1,64689072472592E-02 
512	 1,66725521654624E-02 
513	 1,40811423658234E-02 
514	 1,31241349228883E-02 
515	 1,53501788056334E-02 
516	 1,73644386530445E-02 
517	 1,78069937056172E-02 
518	 1,53369005593331E-02 
519	 1,38501369145596E-02 
520	 0,014201081518634 
521	 1,50765540276895E-02 
522	 1,60028277774859E-02 
523	 1,65803224509848E-02 
524	 1,64314854296177E-02 
525	 1,61080057182042E-02 
526	 1,70975199202838E-02 
527	 1,73723354269352E-02 
528	 1,64899895649823E-02 
529	 1,61491685612328E-02 
530	 1,60211467690922E-02 
531	 1,55876369327074E-02 
532	 1,53548127844076E-02 
533	 0,015393709037265 
534	 1,55230730767849E-02 
535	 1,59267062355432E-02 
536	 1,65499097050638E-02 
537	 1,60444793127288E-02 
538	 1,51838088017128E-02 
539	 1,57216918088936E-02 
540	 0,016184801679841 
541	 1,61171267206698E-02 
542	 1,56965112099757E-02 
543	 1,52170366811848E-02 
544	 1,49701078239077E-02 
545	 1,51257053956995E-02 
546	 1,55010473785342E-02 
547	 1,54787839515722E-02 
548	 0,015598146453889 
549	 1,59789734275801E-02 
550	 1,55384514136999E-02 
551	 1,49497999238959E-02 
552	 1,54345376511567E-02 
553	 1,57539025897646E-02 
554	 1,57061530357656E-02 
555	 0,016006721122549 
556	 0,016280217016657 
557	 1,62102100867528E-02 
558	 1,60537168578494E-02 
559	 1,58921860917513E-02 
560	 1,57994161162857E-02 
561	 1,56865350074049E-02 
562	 0,015542506969151 
563	 1,56083031022739E-02 
564	 1,53940382149978E-02 
565	 1,42311071636631E-02 
566	 1,43530139394671E-02 
567	 1,56280334029335E-02 
568	 1,54637536085202E-02 
569	 1,50561762096981E-02 
570	 1,52550663419434E-02 
571	 1,56916890742539E-02 
572	 1,62399891315898E-02 
573	 1,68217046450043E-02 
574	 1,68663210312461E-02 
575	 1,63357056963601E-02 
576	 1,61746162030383E-02 
577	 1,64919529873798E-02 
578	 1,72936670583936E-02 
579	 0,017429098524226 
580	 1,71035228186017E-02 
581	 1,78968237943131E-02 
582	 1,87113805542505E-02 
583	 1,89065801920252E-02 
584	 1,87282802182027E-02 
585	 1,83966743566421E-02 
586	 1,82182594388171E-02 
587	 1,81713293955732E-02 
588	 1,82562568105977E-02 
589	 1,84740492970442E-02 
590	 1,85508726181167E-02 
591	 1,82607878155982E-02 
592	 1,81243126231772E-02 
593	 1,82654342530803E-02 
594	 1,87019937677164E-02 
595	 1,91916920076789E-02 
596	 1,95991024137148E-02 
597	 0,020096485380235 
598	 2,02608908465315E-02 
599	 1,94412736223276E-02 
600	 1,88443431993865E-02 
601	 1,87690152883638E-02 
602	 1,88846106317487E-02 
603	 1,87820287885406E-02 
604	 1,82132417071959E-02 
605	 1,82092760942708E-02 
606	 1,86176440726385E-02 
607	 1,85839175377082E-02 
608	 1,88211179708405E-02 
609	 1,93888806379858E-02 
610	 1,92628972216669E-02 
611	 1,84903079486847E-02 
612	 1,72511984768353E-02 
613	 1,71687786380674E-02 
614	 1,81061529793317E-02 
615	 1,82201311729658E-02 
616	 1,77315752519663E-02 
617	 1,68903705450546E-02 
618	 1,66700383754176E-02 
619	 1,68860766126554E-02 
620	 1,68550741221233E-02 
621	 1,68724330635216E-02 
622	 1,69886575577071E-02 
623	 1,71016042211296E-02 
624	 1,71276742907373E-02 
625	 1,70016386374857E-02 
626	 1,71128253924772E-02 
627	 1,73604498955999E-02 
628	 1,71863737088389E-02 
629	 1,70564159929124E-02 
630	 1,71680627456237E-02 
631	 1,70160089058756E-02 
632	 1,69812857641745E-02 
633	 1,77801736868135E-02 
634	 1,83232796824319E-02 
635	 1,84245713386818E-02 
636	 1,87732178206625E-02 
637	 1,92435607609785E-02 
638	 0,019695811104811 
639	 1,99626177893836E-02 
640	 0,020025940715007 
641	 1,98786693662176E-02 
642	 1,99734436734922E-02 
643	 2,04202670910569E-02 
644	 0,020583335793362 
645	 2,05684972638286E-02 
646	 2,05906137254744E-02 
647	 2,09238494858844E-02 
648	 2,13694508191008E-02 
649	 2,10100748553394E-02 
650	 2,04588391206519E-02 
651	 2,01955375024758E-02 
652	 2,06246389090186E-02 
653	 2,10799420568826E-02 
654	 2,00639587353935E-02 
655	 1,92679658440865E-02 
656	 1,91310601114318E-02 
657	 1,87370600414079E-02 
658	 1,82496241994232E-02 
659	 0,017896535729374 
660	 1,79014655675221E-02 
661	 1,80386543796904E-02 
662	 1,74998485247601E-02 
663	 1,70512683445976E-02 
664	 1,70456770217852E-02 
665	 1,70288765958058E-02 
666	 0,01686414769361 
667	 0,016394443110978 
668	 1,65527432635281E-02 
669	 1,71711936351866E-02 
670	 1,64462789955324E-02 
671	 1,57463983161425E-02 
672	 1,61380678528797E-02 
673	 1,62816997551746E-02 
674	 1,61079209761973E-02 
675	 1,60101602905911E-02 
676	 1,59269544250476E-02 
677	 1,58980959294472E-02 
678	 1,61460565557044E-02 
679	 1,64773756408358E-02 
680	 1,66444253019829E-02 
681	 1,65831386663211E-02 
682	 1,64789915448057E-02 
683	 1,69663867701788E-02 
684	 1,74993421003165E-02 
685	 1,77311731509512E-02 
686	 1,76574678725677E-02 
687	 1,76418446336972E-02 
688	 1,83394094484834E-02 
689	 1,88314828250832E-02 
690	 1,89905710337223E-02 
691	 1,95234334610041E-02 
692	 2,03754418911522E-02 
693	 2,14697253269929E-02 
694	 2,27632626626203E-02 
695	 2,43841730291862E-02 
696	 2,66557398171259E-02 
697	 2,92724036980419E-02 
698	 3,20962597368989E-02 
699	 0,035135412283092 
700	 3,84956140416783E-02 
701	 4,22878233513733E-02 
702	 4,66313320433525E-02 
703	 5,14174113340657E-02 
704	 5,61857890395182E-02 
705	 6,12857235998163E-02 
706	 6,67991205864108E-02 
707	 7,15391854871513E-02 
708	 7,59340028771005E-02 
709	 8,10539654376897E-02 
710	 8,64438324170086E-02 
711	 9,18463954718517E-02 
712	 9,68746404674102E-02 
713	 0,101324280324151 
714	 0,105088791273491 
715	 0,109076430330165 
716	 0,113262720774086 
717	 0,117100264862226 
718	 0,120743717839762 
719	 0,124199357268655 
720	 0,127191988918134 
721	 0,129976235166587 
722	 0,132910546765323 
723	 0,135629029538979 
724	 0,137992876528319 
725	 0,139837837532771 
726	 0,141606235452658 
727	 0,143538274101008 
728	 0,145149479498051 
729	 0,146566737189078 
730	 0,148126539347887 
731	 0,149541948399915 
732	 0,150799931126965 
733	 0,15226759826594 
734	 0,153476536513945 
735	 0,154065699289536 
736	 0,15495542656264 
737	 0,156102031116003 
738	 0,156971288963936 
739	 0,157698523121308 
740	 0,158336672903053 
741	 0,158939360388549 
742	 0,159665168921677 
743	 0,160672696708209 
744	 0,161251393900397 
745	 0,161336685561659 
746	 0,161177000003709 
747	 0,161476133895582 
748	 0,162510040551577 
749	 0,163169792198762 
750	 0,163551359097948 
751	 0,164021058540247 
752	 0,164534457131875 
753	 0,165003674952451 
754	 0,165106174106493 
755	 0,165174338093696 
756	 0,165463735272962 
757	 0,165909544637533 
758	 0,166395166443454 
759	 0,166739830268523 
760	 0,166785058286714 
761	 0,166655319244418 
762	 0,167159325165156 
763	 0,167847907317476 
764	 0,168252982032436 
765	 0,168452286638918 
766	 0,168557732675289 
767	 0,168815471383006 
768	 0,169188426087281 
769	 0,169593279609932 
770	 0,169604695384705 
771	 0,16958172198934 
772	 0,169979461450647 
773	 0,170476631162624 
774	 0,170890863303199 
775	 0,170906242555382 
776	 0,170983843035001 
777	 0,171328231431537 
778	 0,171428398418357 
779	 0,171711077512842 
780	 0,172890057262212 
781	 0,173107518534211 
782	 0,172344178398737 
783	 0,172399237129066 
784	 0,172783849686782 
785	 0,173141130228961 
786	 0,173279632760524 
787	 0,173367167300112 
788	 0,173775329215138 
789	 0,174119644032552 
790	 0,174305105280882 
791	 0,174475631577577 
792	 0,174580561624738 
793	 0,174610083914062 
794	 0,174907126794947 
795	 0,175369284591049 
796	 0,175707092911948 
797	 0,175612900719759 
798	 0,175177612509053 
799	 0,175342414278281 
800	 0,175862344906798 
801	 0,17643002181878 
802	 0,176771652218707 
803	 0,176863568312261 
804	 0,176760427018302 
805	 0,176991369039503 
806	 0,17762830731957 
807	 0,177753728019853 
808	 0,177897570480898 
809	 0,178643895903775 
810	 0,178731443310765 
811	 0,178449829071087 
812	 0,179398763085442 
813	 0,180070348085074 
814	 0,179932359386291 
815	 0,17994384179784 
816	 0,180063264138345 
817	 0,180151228646536 
818	 0,180508178497697 
819	 0,18108015403691 
820	 0,181579023138842 
821	 0,181715417459072 
822	 0,181520027472171 
823	 0,182200503662439 
824	 0,183098267144415 
825	 0,183224974839784 
826	 0,182962020222796 
827	 0,182732314783737 
828	 0,183585047133202 
829	 0,184303951481102 
830	 0,184298802791585 
831	 0,184293832772233 
832	 0,18445930681816 
833	 0,184912453509251 
834	 0,18483070556179 
835	 0,184451145708564 
836	 0,185264505463216 
837	 0,186049092364518 
838	 0,186139674352508 
839	 0,185992977521592 
840	 0,185679851113181 
841	 0,185225892976356 
842	 0,185998445267345 
843	 0,187499643921309 
844	 0,186926461585309 
845	 0,186254280720398 
846	 0,186522059552804 
847	 0,186695061954978 
848	 0,187004340879717 
849	 0,187911795492252 
850	 0,188114763146347 
851	 0,187661229124809 
852	 0,187854600271216 
853	 0,188194143912874 
854	 0,188384166005275 
855	 0,188284716253941 
856	 0,188192515986163 
857	 0,188527388149109 
858	 0,188656743219916 
859	 0,188595319978188 
860	 0,188877764616612 
861	 0,189372227862055 
862	 0,189894362669253 
863	 0,1896828390607 
864	 0,189420104088258 
865	 0,190069100393491 
866	 0,190445263121143 
867	 0,19045102087937 
868	 0,190651997586586 
869	 0,191045657729059 
870	 0,191558031263027 
871	 0,191731107478429 
872	 0,191609949323892 
873	 0,191326111401057 
874	 0,191344877467298 
875	 0,191711566387196 
876	 0,192181690007583 
877	 0,192786258776378 
878	 0,193413336968519 
879	 0,193532477636009 
880	 0,19351470662142 
881	 0,193791796028595 
882	 0,193965016905739 
883	 0,194067254792839 
884	 0,194356108860722 
885	 0,194820647277726 
886	 0,195337163995949 
887	 0,195263522020655 
888	 0,195358046574138 
889	 0,196223956008259 
890	 0,195665768316086 
891	 0,194612179754881 
892	 0,195963232716736 
893	 0,197096672167868 
894	 0,197326575594969 
895	 0,197786164138163 
896	 0,19784802940117 
897	 0,19711002645904 
898	 0,196714775198568 
899	 0,196719788514043 
900	 0,196847363354307 
901	 0,197379890112124 
902	 0,198217289598749 
903	 0,198850181053707 
904	 0,19908898210767 
905	 0,198892077102006 
906	 0,198825982805283 
907	 0,199102427085815 
908	 0,199884793377909 
909	 0,199675394161099 
910	 0,198749574152008 
911	 0,199289599736047 
912	 0,199425264497782 
913	 0,198580204707982 
914	 0,19878055714444 
915	 0,19972671731346 
916	 0,200813599453087 
917	 0,200909940912001 
918	 0,200320055131199 
919	 0,200443955223225 
920	 0,200897674691842 
921	 0,201249877243514 
922	 0,199985225554884 
923	 0,198786963440362 
924	 0,199037943859196 
925	 0,199167633845083 
926	 0,199187070782403 
927	 0,199574839923759 
928	 0,199811809827089 
929	 0,199727584612192 
930	 0,199254214811452 
931	 0,199026338323498 
932	 0,199366232258925 
933	 0,199708829235258 
934	 0,199765819661737 
935	 0,199274037135399 
936	 0,198294228610639 
937	 0,197510212836902 
938	 0,198861711932302 
939	 0,199298692637861 
940	 0,197949570660531 
941	 0,197072928592588 
942	 0,196403782972304 
943	 0,195610445191936 
944	 0,194833157052595 
945	 0,194073676973987 
946	 0,193238175860943 
947	 0,193794893097182 
948	 0,195214308600193 
949	 0,194102353839872 
950	 0,19268033507135 
951	 0,192153782955852 
952	 0,191429084565455 
953	 0,190064812817014 
954	 0,187774621024962 
955	 0,187115711039702 
956	 0,187515968852708 
957	 0,185906918525262 
958	 0,185290634205474 
959	 0,186184211565216 
960	 0,186043134403151 
961	 0,185827148458059 
962	 0,186004471907113 
963	 0,183408096506911 
964	 0,180662067231059 
965	 0,182307276438575 
966	 0,183997152017954 
967	 0,184477112643532 
968	 0,183370816528885 
969	 0,182935653163711 
970	 0,183882495273183 
971	 0,18402895761784 
972	 0,183850985731517 
973	 0,183936824100311 
974	 0,184544639331538 
975	 0,185003508526084 
976	 0,183999665939521 
977	 0,184649575084945 
978	 0,18667974291025 
979	 0,186129109301181 
980	 0,184814006362829 
981	 0,183943522066127 
982	 0,184815650354218 
983	 0,185989218916221 
984	 0,185945200209447 
985	 0,185797382558973 
986	 0,186034638004474 
987	 0,187281495054638 
988	 0,187198043306805 
989	 0,185809378902344 
990	 0,185542855690624 
991	 0,187086384633396 
992	 0,190038614175287 
993	 0,189891382233332 
994	 0,188710400982394 
995	 0,18911661364795 
996	 0,190982970011429 
997	 0,19304735756776 
998	 0,192943056609297 
999	 0,192310180261153 
1000	 0,191951540599293 
1001	 0,192914357109357 
1002	 0,193515319249022 
1003	 0,193139190734435 
1004	 0,193569362293629 
1005	 0,194605350442751 
1006	 0,195914146405668 
1007	 0,197770766994301 
1008	 0,198619619560553 
1009	 0,195808576360498 
1010	 0,194745615853823 
1011	 0,196250305738723 
1012	 0,197486869132467 
1013	 0,200028257940555 
1014	 0,203636055611591 
1015	 0,204391991225385 
1016	 0,203935446690403 
1017	 0,204041513287971 
1018	 0,206321231130883 
1019	 0,207197242396344 
1020	 0,201348716587531 
1021	 0,199097818978036 
1022	 0,202134514392817 
1023	 0,208071034411359 
1024	 0,210715444743015 
1025	 0,208824293420337 
1026	 0,208929197465024 
1027	 0,208786970664181 
1028	 0,207324341712472 
1029	 0,20810111096626 
1030	 0,209278807065998 
1031	 0,208485819350457 
1032	 0,208849414493059 
1033	 0,210865156807454 
1034	 0,214409434407165 
1035	 0,213928363453971 
1036	 0,210068388270399 
1037	 0,210590894237413 
1038	 0,214398982036739 
1039	 0,219298875050005 
1040	 0,215733872108387 
1041	 0,21329621423452 
1042	 0,218940537042253 
1043	 0,219048707696299 
1044	 0,216234376656276 
1045	 0,216610095518726 
1046	 0,219326238159059 
1047	 0,221988019754643 
1048	 0,219540831965716 
1049	 0,216727886983935 
1050	 0,215599718009243 
1051	 0,217567313195685 
1052	 0,217515058755377 
1053	 0,215197387090884 
1054	 0,225745822561405 
1055	 0,230863216941845 
1056	 0,216982080873488 
1057	 0,218848190579305 
1058	 0,224397104079885 
1059	 0,211243338028183 
1060	 0,210411918834083 
1061	 0,221879820309598 
1062	 0,230786664186132 
1063	 0,234407063411885 
1064	 0,232036972631121 
1065	 0,227572918290672 
1066	 0,222204036924517 
1067	 0,219094529649639 
1068	 0,229448920148601 
1069	 0,235964161813894 
1070	 0,226929218415353 
1071	 0,219254763282981 
1072	 0,216666462787755 
1073	 0,22089614860946 
1074	 0,230448759103951 
1075	 0,235416968563484 
