Wavelength	NEUF00788.asd
325	 0,278534612122398 
326	 0,126486672888859 
327	-6,55796889666721E-02 
328	-7,71932018558583E-02 
329	 5,32572794192247E-02 
330	 0,134033501791917 
331	-1,73277507360447E-02 
332	 1,69723559622341E-02 
333	 0,156752972623227 
334	 0,161631892893142 
335	 0,149009109082248 
336	 0,134680015173463 
337	 7,63032309071249E-02 
338	 0,015306976535291 
339	-7,77894071215194E-03 
340	 6,11113026687815E-02 
341	 0,161184139898162 
342	 0,118610384960923 
343	 0,106762442202658 
344	 0,152021144239171 
345	 0,16618991406118 
346	 0,165680589544387 
347	 0,175325254062279 
348	 0,128925981695661 
349	 5,46820067923055E-02 
350	 7,02413176761532E-02 
351	 0,110465787390374 
352	 0,138977729414553 
353	 0,106647237603564 
354	 6,42616211134687E-02 
355	 7,94112099035415E-02 
356	 0,106793910821344 
357	 0,133058424386131 
358	 0,157283975505884 
359	 0,159707870544759 
360	 0,134055400709921 
361	 0,104117559803901 
362	 8,36596818577152E-02 
363	 7,83375695921065E-02 
364	 0,102632141341101 
365	 0,142093027994755 
366	 0,157501740853822 
367	 0,147765327480395 
368	 0,114596207566758 
369	 0,110153359363822 
370	 0,120569406981866 
371	 0,10612363900203 
372	 0,106422151552855 
373	 0,123967339946287 
374	 0,125366274640568 
375	 0,119411014679604 
376	 0,11439521292696 
377	 0,117866832191024 
378	 0,124214569030457 
379	 0,117217871679012 
380	 0,120508294453867 
381	 0,136941213781623 
382	 0,146773273545297 
383	 0,145552830471996 
384	 0,130786459860914 
385	 0,130290250766903 
386	 0,139226563113238 
387	 0,128108937636147 
388	 0,124246795990128 
389	 0,135513829018615 
390	 0,142779045901828 
391	 0,142192751231289 
392	 0,131053047122638 
393	 0,125710489317879 
394	 0,128724784587244 
395	 0,136766541193744 
396	 0,141192413056406 
397	 0,138087356606269 
398	 0,138910902980923 
399	 0,138223527235712 
400	 0,125669628374471 
401	 0,122662997617112 
402	 0,132598930560742 
403	 0,148361360136907 
404	 0,15584681606665 
405	 0,146799965503235 
406	 0,139319854165766 
407	 0,136013455177604 
408	 0,136365676400934 
409	 0,136233558779412 
410	 0,133496831556673 
411	 0,124307480843954 
412	 0,12062676520985 
413	 0,132457662799131 
414	 0,138522554770972 
415	 0,137195467240491 
416	 0,134403419016914 
417	 0,135038950610895 
418	 0,139569665116702 
419	 0,135797967735211 
420	 0,130171821105393 
421	 0,13180248498472 
422	 0,130455254019077 
423	 0,126188770199412 
424	 0,126077423418042 
425	 0,129283121433276 
426	 0,134453478027419 
427	 0,135763116149098 
428	 0,134035647057908 
429	 0,131766034167551 
430	 0,133279662693906 
431	 0,137641093069221 
432	 0,134021077273692 
433	 0,131025398223534 
434	 0,136118249280479 
435	 0,138392604444542 
436	 0,137299534807822 
437	 0,136252191242493 
438	 0,137171087625995 
439	 0,140041440160102 
440	 0,139003702791112 
441	 0,136546385852458 
442	 0,136451812633257 
443	 0,137169290243534 
444	 0,138368350748275 
445	 0,140078243633466 
446	 0,141771806502931 
447	 0,142891726711803 
448	 0,141802298933683 
449	 0,140018463748903 
450	 0,140621004039379 
451	 0,141762798488902 
452	 0,142597830160736 
453	 0,141896809072703 
454	 0,141968205355889 
455	 0,144670434017843 
456	 0,143468826635002 
457	 0,139809315690206 
458	 0,140635780328153 
459	 0,142534480957999 
460	 0,143983810107298 
461	 0,144957102159887 
462	 0,144580823733436 
463	 0,141744475657564 
464	 0,142685651619119 
465	 0,147126047579599 
466	 0,148975359553034 
467	 0,14688092095129 
468	 0,140847043223526 
469	 0,139411787527946 
470	 0,141613789253247 
471	 0,142780402892413 
472	 0,144161859402477 
473	 0,145557621539875 
474	 0,145533266443364 
475	 0,144143423391208 
476	 0,141752707031356 
477	 0,14381205267986 
478	 0,148369003802904 
479	 0,147102420441659 
480	 0,145407011730923 
481	 0,145544781136034 
482	 0,144923557049178 
483	 0,143416759112704 
484	 0,141013331375678 
485	 0,142346747563298 
486	 0,146668587975475 
487	 0,146657874514144 
488	 0,144575571480572 
489	 0,142507761334821 
490	 0,142812598852185 
491	 0,144241709307645 
492	 0,142598279869398 
493	 0,142865383558737 
494	 0,145835343849154 
495	 0,146267117426473 
496	 0,145142331911199 
497	 0,144048545094129 
498	 0,144562816815021 
499	 0,146026493347012 
500	 0,145113243512554 
501	 0,14416676092464 
502	 0,144496309685798 
503	 0,145059824035021 
504	 0,145991140662948 
505	 0,147842843178952 
506	 0,149058081152876 
507	 0,149248071051007 
508	 0,148966931685826 
509	 0,149346615590706 
510	 0,15126036194729 
511	 0,152684786128256 
512	 0,152942881205534 
513	 0,151177629231258 
514	 0,150278223893057 
515	 0,151480687749695 
516	 0,153447434845428 
517	 0,155022665526516 
518	 0,154906131036641 
519	 0,154023023827818 
520	 0,153223412585247 
521	 0,154497158187124 
522	 0,155468908642189 
523	 0,154575596374581 
524	 0,154800016163325 
525	 0,155653383821857 
526	 0,154832159986808 
527	 0,154725785737739 
528	 0,155796145380498 
529	 0,156012756482254 
530	 0,155445677716347 
531	 0,154378395730508 
532	 0,154377745391847 
533	 0,155188622167103 
534	 0,154699117628844 
535	 0,154351055289271 
536	 0,154911881270044 
537	 0,155315773887812 
538	 0,155434705260416 
539	 0,155273148332847 
540	 0,155474370463186 
541	 0,15595566574326 
542	 0,155218722215821 
543	 0,154655344261867 
544	 0,155603955445129 
545	 0,155904468640305 
546	 0,155720208386597 
547	 0,156859148753574 
548	 0,157752981015131 
549	 0,1576630385615 
550	 0,157057500285382 
551	 0,156825275574616 
552	 0,158260400530068 
553	 0,159165198419027 
554	 0,15902055510375 
555	 0,158694407875556 
556	 0,158099188706055 
557	 0,157214291757248 
558	 0,156860941412012 
559	 0,15679813954623 
560	 0,155985966451509 
561	 0,155316078952862 
562	 0,15511010461355 
563	 0,155028149787814 
564	 0,154765320994828 
565	 0,153966183057124 
566	 0,153825670822469 
567	 0,154442695241003 
568	 0,154969522860629 
569	 0,155504706794147 
570	 0,156132871397529 
571	 0,157089854948879 
572	 0,158157680964623 
573	 0,158698307305838 
574	 0,159926832349712 
575	 0,161946832148321 
576	 0,16280831189746 
577	 0,163619817097639 
578	 0,165743626467423 
579	 0,167400510590521 
580	 0,168519623858039 
581	 0,170361895149054 
582	 0,171530081916711 
583	 0,171482098205766 
584	 0,172533103646282 
585	 0,174168728947138 
586	 0,174960025774967 
587	 0,175456530987362 
588	 0,175952572986812 
589	 0,177079231949055 
590	 0,178197395832242 
591	 0,178709474771329 
592	 0,179294509032756 
593	 0,179964046916926 
594	 0,180296940269257 
595	 0,181061487684932 
596	 0,182327259197601 
597	 0,182062502389342 
598	 0,181197910021112 
599	 0,181432258596714 
600	 0,181635876634819 
601	 0,181471721074663 
602	 0,180861803686222 
603	 0,180120153674578 
604	 0,179534982839122 
605	 0,179383842969298 
606	 0,179358198234634 
607	 0,178585229382513 
608	 0,177855963815218 
609	 0,177383581611351 
610	 0,176607525997904 
611	 0,175596618622971 
612	 0,174492248363675 
613	 0,173714339248797 
614	 0,173381862929644 
615	 0,17352650055302 
616	 0,17342727224901 
617	 0,17266700021369 
618	 0,172026315544492 
619	 0,171659633873008 
620	 0,171606374794862 
621	 0,171769358416674 
622	 0,171979515142453 
623	 0,171680185382222 
624	 0,171399158309295 
625	 0,171695212652943 
626	 0,172024952061639 
627	 0,172263497824473 
628	 0,172391361754313 
629	 0,17262138250744 
630	 0,173052007372676 
631	 0,173488349545172 
632	 0,173920449883684 
633	 0,174363958922971 
634	 0,17491721354756 
635	 0,17569892436699 
636	 0,177026078194227 
637	 0,178437446629933 
638	 0,179527036795882 
639	 0,180443082426819 
640	 0,181218164660385 
641	 0,181862750366087 
642	 0,182557428812706 
643	 0,18334583483359 
644	 0,183997143331938 
645	 0,184409886711988 
646	 0,184488172650126 
647	 0,184731978607364 
648	 0,185055378101157 
649	 0,184700995179579 
650	 0,184179958622651 
651	 0,183768906757276 
652	 0,182675899516885 
653	 0,181152152418229 
654	 0,179938326156077 
655	 0,178413322727514 
656	 0,176528765346588 
657	 0,17508157226868 
658	 0,173388664290882 
659	 0,170748526792131 
660	 0,168702042161212 
661	 0,167288387422039 
662	 0,165560997682536 
663	 0,163937533484822 
664	 0,162573951228818 
665	 0,161097021866217 
666	 0,15964756995254 
667	 0,158500642515398 
668	 0,157552697484241 
669	 0,156729851952378 
670	 0,155760788047276 
671	 0,155211391482199 
672	 0,155460570141614 
673	 0,155346665386239 
674	 0,154925733168225 
675	 0,154920365827058 
676	 0,154649537203023 
677	 0,154000407462268 
678	 0,153735038238406 
679	 0,153727213598433 
680	 0,15375137534555 
681	 0,154456499963701 
682	 0,155717338334027 
683	 0,156635310572206 
684	 0,157766674937406 
685	 0,15940626751878 
686	 0,161050552057005 
687	 0,162987799409073 
688	 0,165774309579236 
689	 0,169332035105016 
690	 0,173611480886348 
691	 0,178360329212788 
692	 0,183819909409626 
693	 0,190210283342284 
694	 0,197494577261274 
695	 0,205848785769729 
696	 0,215729483670686 
697	 0,226106388960968 
698	 0,236610363650135 
699	 0,248000815276211 
700	 0,260209302570199 
701	 0,272993524916247 
702	 0,285841988808035 
703	 0,298531013642387 
704	 0,310904739441774 
705	 0,323417458428373 
706	 0,3361705680261 
707	 0,347589999879594 
708	 0,358055966076935 
709	 0,368683083050836 
710	 0,378723241696999 
711	 0,388053290478741 
712	 0,397114467795043 
713	 0,405675550838054 
714	 0,41352302106269 
715	 0,420939026845184 
716	 0,427837395309023 
717	 0,433832654870245 
718	 0,439595976227728 
719	 0,445351451979351 
720	 0,450466839261893 
721	 0,455054406012107 
722	 0,459348836755507 
723	 0,463396188819513 
724	 0,467151790742087 
725	 0,470293135846006 
726	 0,473538898287612 
727	 0,477158092283597 
728	 0,479515822452201 
729	 0,481149856227791 
730	 0,483380693402678 
731	 0,485677786402169 
732	 0,487860548545706 
733	 0,489840467973235 
734	 0,491335437077554 
735	 0,49216958410771 
736	 0,493217590682479 
737	 0,494567607026271 
738	 0,496046337548476 
739	 0,497127754216078 
740	 0,497736509652019 
741	 0,498832312250425 
742	 0,499995653201338 
743	 0,500662871710624 
744	 0,501299809655642 
745	 0,501947490389228 
746	 0,502373382424518 
747	 0,502829889988461 
748	 0,503473451824989 
749	 0,504357376870746 
750	 0,505207409541463 
751	 0,505600983652567 
752	 0,506002948263202 
753	 0,506492896237119 
754	 0,506848038898216 
755	 0,507152656829115 
756	 0,50746414850843 
757	 0,507668060839481 
758	 0,507908472967794 
759	 0,508525354506984 
760	 0,508975249036628 
761	 0,50915571988725 
762	 0,509512194478856 
763	 0,509949152252233 
764	 0,510349862936959 
765	 0,510631428401743 
766	 0,510863687237994 
767	 0,511278914730805 
768	 0,51170840728454 
769	 0,512012141430249 
770	 0,511777997371375 
771	 0,511646967989773 
772	 0,512379693934397 
773	 0,512797508967391 
774	 0,512838737339843 
775	 0,513241127113723 
776	 0,513498849607026 
777	 0,513384945783572 
778	 0,513173092297552 
779	 0,513208950463852 
780	 0,513943867251671 
781	 0,514114318318513 
782	 0,513684092716205 
783	 0,513824243489674 
784	 0,514181435026964 
785	 0,514486309978861 
786	 0,51452356486364 
787	 0,514498664820493 
788	 0,514855688472774 
789	 0,515003118107633 
790	 0,514888422507139 
791	 0,515099994025141 
792	 0,515249850615799 
793	 0,515064241579378 
794	 0,515175211063349 
795	 0,51553163608024 
796	 0,515820451403343 
797	 0,515954447449064 
798	 0,515901388053641 
799	 0,515727971760683 
800	 0,515682718166529 
801	 0,515955632796616 
802	 0,51585708845033 
803	 0,51565105833975 
804	 0,516398631045221 
805	 0,516911881685369 
806	 0,516840530739182 
807	 0,516910606156518 
808	 0,517097882905609 
809	 0,517309056211637 
810	 0,517145094556034 
811	 0,516942093963641 
812	 0,517958512089243 
813	 0,518493245213316 
814	 0,518000026919202 
815	 0,51794907523676 
816	 0,518292549281762 
817	 0,518801795210381 
818	 0,519020002911439 
819	 0,519044050786268 
820	 0,519564478969506 
821	 0,519983603155832 
822	 0,520033287358211 
823	 0,519934721075356 
824	 0,519994320428122 
825	 0,520556506365429 
826	 0,520648874144219 
827	 0,520441410227349 
828	 0,521335892443393 
829	 0,521829453262597 
830	 0,521325775909172 
831	 0,521540525302571 
832	 0,521952363521057 
833	 0,52161304566963 
834	 0,52134662224603 
835	 0,521374103813243 
836	 0,521736975265805 
837	 0,521980672126354 
838	 0,521898384410054 
839	 0,522044899759287 
840	 0,522162873523051 
841	 0,521813275689711 
842	 0,521842215798497 
843	 0,522193356109709 
844	 0,521884442182231 
845	 0,521843090886833 
846	 0,522379213263843 
847	 0,521773819340433 
848	 0,521115873194507 
849	 0,522162458281568 
850	 0,522964841949971 
851	 0,523145911282987 
852	 0,523277968516809 
853	 0,523171687745815 
854	 0,522832839113111 
855	 0,52288215480894 
856	 0,523133701115539 
857	 0,523234570189802 
858	 0,523066812109638 
859	 0,522682833040407 
860	 0,522210602804295 
861	 0,522606371868424 
862	 0,524039497402513 
863	 0,524068598937633 
864	 0,523505280763434 
865	 0,523745872141678 
866	 0,524225013065408 
867	 0,524632266440386 
868	 0,524239306681165 
869	 0,524625479687351 
870	 0,526171422244891 
871	 0,52624825651756 
872	 0,525606408163331 
873	 0,525444358813227 
874	 0,525157474196523 
875	 0,52505030308155 
876	 0,526432098926136 
877	 0,526909301016008 
878	 0,525789052325596 
879	 0,525567827439866 
880	 0,525842784356333 
881	 0,525972960027101 
882	 0,526293004647268 
883	 0,526686816692969 
884	 0,526707224370545 
885	 0,526977396346717 
886	 0,527482200347143 
887	 0,526980046442591 
888	 0,5262471313473 
889	 0,52606251659351 
890	 0,525816612533904 
891	 0,525732783653047 
892	 0,526519898659752 
893	 0,527254742569219 
894	 0,52754297960464 
895	 0,527223422717349 
896	 0,526908348888761 
897	 0,52708679904844 
898	 0,527506839630686 
899	 0,527855958463836 
900	 0,527655085915402 
901	 0,527618790899651 
902	 0,527851194789601 
903	 0,527891501584779 
904	 0,527935164491002 
905	 0,528085692257123 
906	 0,528162754243184 
907	 0,528167929232088 
908	 0,528134602815817 
909	 0,528442187146407 
910	 0,528976597040784 
911	 0,529232974216048 
912	 0,528591249196384 
913	 0,527130372894802 
914	 0,527132736490408 
915	 0,527757633431121 
916	 0,527852767078519 
917	 0,528085153587847 
918	 0,528451437081587 
919	 0,528722025491087 
920	 0,528631492737948 
921	 0,528261263186558 
922	 0,528582031088647 
923	 0,528553557202885 
924	 0,527431754547477 
925	 0,527136742417548 
926	 0,527253025658461 
927	 0,526437785491932 
928	 0,526427219091787 
929	 0,527173954810509 
930	 0,526726023257994 
931	 0,525896966661564 
932	 0,525295277270477 
933	 0,525558797759882 
934	 0,525802412566563 
935	 0,524857768322803 
936	 0,524951144063755 
937	 0,525759318736328 
938	 0,525071912940686 
939	 0,523699930871506 
940	 0,522152760848136 
941	 0,521390258414998 
942	 0,520901134550892 
943	 0,520299182998668 
944	 0,521435037177238 
945	 0,522431154916132 
946	 0,519307431127347 
947	 0,517326959211772 
948	 0,517526790757917 
949	 0,517643512665092 
950	 0,517482112621487 
951	 0,516837734093 
952	 0,515556878112177 
953	 0,514266181280949 
954	 0,513686285748167 
955	 0,512616297941932 
956	 0,511132557129742 
957	 0,509956297484109 
958	 0,509758842036036 
959	 0,510364499524419 
960	 0,509731730749851 
961	 0,509010241818772 
962	 0,508990016578234 
963	 0,508072028077931 
964	 0,506892567671853 
965	 0,506729481839685 
966	 0,507583328244908 
967	 0,508721297996662 
968	 0,507935963600342 
969	 0,506974350638929 
970	 0,506797224096737 
971	 0,508281806959199 
972	 0,508682784755117 
973	 0,505922478653092 
974	 0,506256939675471 
975	 0,507686829013994 
976	 0,504672948448442 
977	 0,504868784826576 
978	 0,508407159966183 
979	 0,508335495328845 
980	 0,507538882320769 
981	 0,507407015209437 
982	 0,507362099065534 
983	 0,507427884953347 
984	 0,507641764063852 
985	 0,507911398503518 
986	 0,508390729835505 
987	 0,509490202326943 
988	 0,509150573828794 
989	 0,507719103868477 
990	 0,50873243170294 
991	 0,509544551349003 
992	 0,5092168559416 
993	 0,511052000801901 
994	 0,513453246226946 
995	 0,51441892944269 
996	 0,513847632879653 
997	 0,513635659558344 
998	 0,517642102412885 
999	 0,516558350231139 
1000	 0,511363956749847 
1001	 0,515507017141835 
1002	 0,519396312068199 
1003	 0,518608530810323 
1004	 0,517875977234155 
1005	 0,518301144541011 
1006	 0,520333188560066 
1007	 0,520318982841633 
1008	 0,518850872063914 
1009	 0,518129258653584 
1010	 0,519790740010733 
1011	 0,522791308623149 
1012	 0,521726364740758 
1013	 0,522614129859125 
1014	 0,526931778074426 
1015	 0,528430504877555 
1016	 0,526184699497161 
1017	 0,520950825865374 
1018	 0,5238273300669 
1019	 0,528932745776792 
1020	 0,52530741066465 
1021	 0,525816315278822 
1022	 0,530317709806112 
1023	 0,529733726319801 
1024	 0,52963948923812 
1025	 0,531071269540986 
1026	 0,530164381644198 
1027	 0,529931925512431 
1028	 0,531803820048152 
1029	 0,530516629398749 
1030	 0,529628287647758 
1031	 0,533277185476046 
1032	 0,531164830869211 
1033	 0,52632211757419 
1034	 0,528747914539431 
1035	 0,529712814023623 
1036	 0,529572166542294 
1037	 0,539129747254674 
1038	 0,541764487701867 
1039	 0,533424926495254 
1040	 0,537193187424034 
1041	 0,541144892057337 
1042	 0,536143866440552 
1043	 0,539168204016329 
1044	 0,54433605192685 
1045	 0,540856240107436 
1046	 0,538178985188151 
1047	 0,538230740951481 
1048	 0,540804278406161 
1049	 0,539905134571756 
1050	 0,535025653944375 
1051	 0,532072998556048 
1052	 0,531122317870268 
1053	 0,532972367204502 
1054	 0,540265105028779 
1055	 0,549620796736802 
1056	 0,556716998488218 
1057	 0,553792548758536 
1058	 0,544433093472367 
1059	 0,535157423256709 
1060	 0,525005840564768 
1061	 0,520407087699704 
1062	 0,533065982234799 
1063	 0,540669405392208 
1064	 0,539031218061284 
1065	 0,542082137516551 
1066	 0,538693124914709 
1067	 0,528055377441388 
1068	 0,531633375439649 
1069	 0,542089523256106 
1070	 0,550207412141599 
1071	 0,537698746765712 
1072	 0,52448833927862 
1073	 0,53612332566867 
1074	 0,551226317391946 
1075	 0,558330427576463 
