Wavelength	NEUF00674.asd
325	 0,223863117374568 
326	 3,88474700791268E-02 
327	-0,106688626275199 
328	-0,068136513137326 
329	-0,017720862595678 
330	-2,70044456786902E-03 
331	-7,65900785607551E-02 
332	 2,70724863303948E-02 
333	 0,165359525653129 
334	 0,149112122442466 
335	 0,090485491825956 
336	 0,021009922646394 
337	 2,79464327006296E-03 
338	 2,37525569469339E-02 
339	 5,24174498302843E-02 
340	 3,41131646093373E-02 
341	 2,13057976543803E-04 
342	 4,13250383339751E-02 
343	 7,09090998194101E-02 
344	 8,15395015022404E-02 
345	 0,100749605584358 
346	 9,94896574503198E-02 
347	 5,50165751861312E-02 
348	 1,93562511346768E-02 
349	-3,5060502306247E-03 
350	-2,89955731344348E-02 
351	-1,25438206618113E-02 
352	 3,92532129123014E-02 
353	 2,89395894916524E-02 
354	-4,62097113217103E-03 
355	-5,26173599721207E-03 
356	-7,18683483468831E-03 
357	-6,62716649065204E-03 
358	 2,77647726654792E-02 
359	 4,29197165748725E-02 
360	 2,45636002062311E-02 
361	 4,60244787453241E-02 
362	 6,74786962534873E-02 
363	 2,67148443550101E-02 
364	 2,46216900625027E-02 
365	 6,54082951623394E-02 
366	 8,06417055010981E-02 
367	 6,73543797147447E-02 
368	 2,49657134572667E-02 
369	 1,18600664490145E-04 
370	 3,76502156443728E-03 
371	 3,59602193276187E-02 
372	 0,053197968110056 
373	 4,57538393834197E-02 
374	 3,83922802002807E-02 
375	 3,58590909737265E-02 
376	 4,04386598058162E-02 
377	 3,94186777283605E-02 
378	 3,26534000235629E-02 
379	 2,06745079829539E-02 
380	 3,10372694900357E-02 
381	 0,062838839598772 
382	 7,77336768930263E-02 
383	 6,54679661706808E-02 
384	 2,04128231599207E-02 
385	 2,01174954746917E-02 
386	 5,22232441310591E-02 
387	 4,08080390866645E-02 
388	 4,02792355664678E-02 
389	 6,15534069906832E-02 
390	 4,50945426716945E-02 
391	 0,019667714794507 
392	 0,025056275058083 
393	 3,47493935170262E-02 
394	 4,04573729831768E-02 
395	 3,46906960508417E-02 
396	 3,42203522728381E-02 
397	 4,50513598714077E-02 
398	 4,49306920443221E-02 
399	 3,73477119847466E-02 
400	 3,00508809427314E-02 
401	 3,18846116544894E-02 
402	 4,01617684752067E-02 
403	 3,40744202970363E-02 
404	 3,64897478505859E-02 
405	 5,89043991784138E-02 
406	 5,19368856853686E-02 
407	 2,90609449834034E-02 
408	 3,02830727288478E-02 
409	 3,38060701144032E-02 
410	 3,28514022415932E-02 
411	 2,46017167084873E-02 
412	 1,88596866564987E-02 
413	 2,44830529745636E-02 
414	 3,65358307055182E-02 
415	 4,67569037397617E-02 
416	 3,76516089476181E-02 
417	 3,05930162387124E-02 
418	 0,033212062463081 
419	 3,13735632841261E-02 
420	 3,10035840886699E-02 
421	 4,08534855380884E-02 
422	 4,18909626385165E-02 
423	 0,034295662907288 
424	 3,29030581338969E-02 
425	 3,43701998596118E-02 
426	 3,63498112840825E-02 
427	 3,68705108800802E-02 
428	 0,036649260029272 
429	 0,037540141230677 
430	 3,87730607568728E-02 
431	 3,96971683911891E-02 
432	 3,88522320677065E-02 
433	 3,68100226259299E-02 
434	 3,43307282222723E-02 
435	 3,36316057035505E-02 
436	 3,45162244690317E-02 
437	 3,52982177746305E-02 
438	 3,68954813700911E-02 
439	 3,87516466751015E-02 
440	 3,63617612264237E-02 
441	 3,19953726926586E-02 
442	 2,89876933012212E-02 
443	 3,01394030165919E-02 
444	 3,46478020611322E-02 
445	 0,037181025982775 
446	 3,98018533826247E-02 
447	 4,33306184086064E-02 
448	 4,39679958718781E-02 
449	 4,28769208307007E-02 
450	 4,30591306292917E-02 
451	 0,043422448004204 
452	 4,33809172625992E-02 
453	 4,14989612576744E-02 
454	 0,039587822875814 
455	 3,94406334452525E-02 
456	 0,040102336298172 
457	 4,10807086466274E-02 
458	 0,041513524368704 
459	 4,26652948035005E-02 
460	 4,45362857018741E-02 
461	 4,40115750219358E-02 
462	 4,20294016179322E-02 
463	 4,02030084707641E-02 
464	 4,13510764232309E-02 
465	 4,50062992923383E-02 
466	 0,047579595738193 
467	 4,62568593103601E-02 
468	 4,01918035151118E-02 
469	 3,94695168865322E-02 
470	 4,25787816793481E-02 
471	 4,33492880821532E-02 
472	 4,43970483619425E-02 
473	 4,58687328814935E-02 
474	 4,56914206562564E-02 
475	 0,044278211351279 
476	 4,23021023875396E-02 
477	 4,33233691342554E-02 
478	 4,62103341180658E-02 
479	 0,045934144239936 
480	 4,49609419186121E-02 
481	 4,44927788444585E-02 
482	 4,49992055821596E-02 
483	 4,44891640866873E-02 
484	 3,97378747258776E-02 
485	 4,05113080715403E-02 
486	 4,66579490775219E-02 
487	 4,74323837028206E-02 
488	 4,59447531858961E-02 
489	 4,48082276573695E-02 
490	 4,43786919773309E-02 
491	 4,48467234954044E-02 
492	 4,64726889281856E-02 
493	 4,72719387560265E-02 
494	 4,67365333634874E-02 
495	 4,67830990947291E-02 
496	 4,64488445647982E-02 
497	 4,45439849244845E-02 
498	 4,45098917309088E-02 
499	 4,64277955465684E-02 
500	 4,82979194200723E-02 
501	 4,88409997422678E-02 
502	 4,76207051936788E-02 
503	 4,77969364063047E-02 
504	 4,88894070254974E-02 
505	 4,93039544144238E-02 
506	 4,97682757483272E-02 
507	 5,03433627632893E-02 
508	 5,05025462342535E-02 
509	 5,08178908233147E-02 
510	 0,051732562570346 
511	 5,16166272046947E-02 
512	 5,06995032799478E-02 
513	 5,02893847308039E-02 
514	 5,01941937329828E-02 
515	 5,04316929003121E-02 
516	 5,14471004820229E-02 
517	 5,23544245637507E-02 
518	 5,19103865303026E-02 
519	 5,17432532693131E-02 
520	 5,22366101309563E-02 
521	 5,31390615161953E-02 
522	 5,37753545733232E-02 
523	 5,36965754431195E-02 
524	 5,35781470385712E-02 
525	 5,37178290697302E-02 
526	 5,46249530719867E-02 
527	 5,48571860978961E-02 
528	 5,42582265539516E-02 
529	 0,055107265514714 
530	 5,57662226218818E-02 
531	 5,42445728502067E-02 
532	 5,45560478357391E-02 
533	 5,64693530045073E-02 
534	 0,05624359208626 
535	 5,60376912638147E-02 
536	 5,69708544197767E-02 
537	 5,72547622947664E-02 
538	 5,70722978999008E-02 
539	 5,71926814070322E-02 
540	 0,057167509211698 
541	 5,71131389162688E-02 
542	 5,81688108672361E-02 
543	 5,90020199678454E-02 
544	 5,83406928945595E-02 
545	 5,79262977855895E-02 
546	 5,81957650491359E-02 
547	 5,93856270179978E-02 
548	 6,01354223775242E-02 
549	 5,98411821767901E-02 
550	 5,94662763662268E-02 
551	 5,96395822903503E-02 
552	 6,11936505970096E-02 
553	 6,16857455790586E-02 
554	 6,09043091734829E-02 
555	 6,12079912138615E-02 
556	 6,14197637911269E-02 
557	 6,06164849178503E-02 
558	 6,05402029834877E-02 
559	 6,10174044825808E-02 
560	 6,07708582873968E-02 
561	 6,07716978460778E-02 
562	 6,12702172258817E-02 
563	 6,14086553863768E-02 
564	 6,13135814935675E-02 
565	 6,12531508546496E-02 
566	 6,14269418001297E-02 
567	 6,17286050854739E-02 
568	 6,14738822858818E-02 
569	 0,06155079670805 
570	 6,25080120305154E-02 
571	 6,31561514680668E-02 
572	 6,37451833182021E-02 
573	 6,54267531999615E-02 
574	 6,59653099642322E-02 
575	 6,50243377838424E-02 
576	 6,52563126364181E-02 
577	 6,63915740253106E-02 
578	 6,78655859833505E-02 
579	 6,84611542947618E-02 
580	 6,84272879737146E-02 
581	 6,97053570678262E-02 
582	 7,04765912773438E-02 
583	 0,06992869238586 
584	 7,03563020384726E-02 
585	 0,071176662094218 
586	 7,07874278637788E-02 
587	 7,07912359025864E-02 
588	 7,15792418346577E-02 
589	 7,27547157251858E-02 
590	 0,073163987427517 
591	 7,18989860949856E-02 
592	 7,19329554210165E-02 
593	 7,30646127814808E-02 
594	 7,29276926258529E-02 
595	 7,32501253773878E-02 
596	 7,45297810450415E-02 
597	 0,07467248835612 
598	 7,41619765804849E-02 
599	 7,40452155013632E-02 
600	 7,40686228963349E-02 
601	 7,41205584077044E-02 
602	 0,073881591988797 
603	 7,37527192004173E-02 
604	 0,074012899430183 
605	 7,39878251552481E-02 
606	 7,37777056298441E-02 
607	 7,39407928051762E-02 
608	 7,40359128100738E-02 
609	 0,073839213527161 
610	 7,30946084093593E-02 
611	 7,23017413588722E-02 
612	 7,20845739885814E-02 
613	 7,25805714916809E-02 
614	 7,33536656693759E-02 
615	 7,29543741828891E-02 
616	 7,21909885009095E-02 
617	 7,16457522353955E-02 
618	 7,14959120575608E-02 
619	 7,15677947992924E-02 
620	 7,14021284321141E-02 
621	 7,16530947723395E-02 
622	 7,22506995760258E-02 
623	 7,17936020097044E-02 
624	 7,13558976523092E-02 
625	 7,20795191909715E-02 
626	 7,27027083727193E-02 
627	 7,29229400364461E-02 
628	 7,27324367925939E-02 
629	 7,23196221455401E-02 
630	 7,19922209685191E-02 
631	 7,30504556445915E-02 
632	 0,074373376702739 
633	 7,39114874691889E-02 
634	 7,37436354378819E-02 
635	 7,43343340009469E-02 
636	 7,49261121584212E-02 
637	 7,54475665309382E-02 
638	 7,58459392960524E-02 
639	 7,60685109054362E-02 
640	 7,62457893547604E-02 
641	 7,67445465000861E-02 
642	 7,71314278712004E-02 
643	 7,72335002095365E-02 
644	 7,71452231715021E-02 
645	 7,71585856104502E-02 
646	 7,76262170910929E-02 
647	 7,82404562333115E-02 
648	 7,87170375639797E-02 
649	 7,84612376911022E-02 
650	 7,80217393501331E-02 
651	 7,77751685482802E-02 
652	 7,75208529061928E-02 
653	 7,71761226367508E-02 
654	 7,66460731561793E-02 
655	 7,58635217682935E-02 
656	 7,48972847504661E-02 
657	 7,41557830410528E-02 
658	 7,34885702226712E-02 
659	 7,27160487105892E-02 
660	 7,20783755156849E-02 
661	 7,15243530244706E-02 
662	 7,06690435745922E-02 
663	 7,03324091543797E-02 
664	 7,06719807900288E-02 
665	 6,96508025099731E-02 
666	 6,81764913110168E-02 
667	 6,80082866768649E-02 
668	 6,80479188661426E-02 
669	 6,78731227955647E-02 
670	 6,69862370257029E-02 
671	 6,64850737870158E-02 
672	 6,71560458651447E-02 
673	 6,72961515379999E-02 
674	 6,69302764020732E-02 
675	 6,68013589978881E-02 
676	 6,70433695446767E-02 
677	 6,76242683460553E-02 
678	 6,78745840609619E-02 
679	 6,79981987193632E-02 
680	 6,83046341480699E-02 
681	 6,84118043564364E-02 
682	 6,84170806285631E-02 
683	 6,88220784658027E-02 
684	 6,95826566365161E-02 
685	 7,05950405501364E-02 
686	 0,071162323955023 
687	 7,17740689805911E-02 
688	 7,34781982096627E-02 
689	 7,51411414495817E-02 
690	 7,64649900432728E-02 
691	 7,76873188943076E-02 
692	 0,079490820534774 
693	 8,23873287631013E-02 
694	 8,47942253015105E-02 
695	 8,70262968264215E-02 
696	 9,07699399906955E-02 
697	 9,43708911861778E-02 
698	 9,72075778390918E-02 
699	 0,100037325050735 
700	 0,103061072970396 
701	 0,106418479432995 
702	 0,110084841175325 
703	 0,113859270739851 
704	 0,117252225367336 
705	 0,120192844226042 
706	 0,122639321021552 
707	 0,124649479870401 
708	 0,126638146336775 
709	 0,129328348874847 
710	 0,131728915428839 
711	 0,133640550709667 
712	 0,135749817624708 
713	 0,137692632818486 
714	 0,139125078868147 
715	 0,14034384735066 
716	 0,141613866270516 
717	 0,14351612645056 
718	 0,145016890623873 
719	 0,145794638944411 
720	 0,146834176389007 
721	 0,147962903529906 
722	 0,14884475952475 
723	 0,149781968010393 
724	 0,150676917037206 
725	 0,150950821639405 
726	 0,151284382501505 
727	 0,15203993900155 
728	 0,152392423888379 
729	 0,15265620616701 
730	 0,153593743810569 
731	 0,154435793855642 
732	 0,154987690739692 
733	 0,155565921966823 
734	 0,155973341816458 
735	 0,156068664128524 
736	 0,156396754350135 
737	 0,156924785351458 
738	 0,157369606979215 
739	 0,157429728241579 
740	 0,157163164186492 
741	 0,157647582112579 
742	 0,158359125279592 
743	 0,158592874013569 
744	 0,158499359416943 
745	 0,1583122200377 
746	 0,158649191511475 
747	 0,158994332371986 
748	 0,159106532727751 
749	 0,159346149853221 
750	 0,159754940771465 
751	 0,16032826842845 
752	 0,161032228160468 
753	 0,161609635822851 
754	 0,161223520822159 
755	 0,160777264225333 
756	 0,160937563877475 
757	 0,16123992651375 
758	 0,161564581039289 
759	 0,1618345178694 
760	 0,161973924503716 
761	 0,161969090501724 
762	 0,161878224179429 
763	 0,161935120126131 
764	 0,162325779746462 
765	 0,16250158063103 
766	 0,162555534520582 
767	 0,163066583619663 
768	 0,163354479299739 
769	 0,163253582411902 
770	 0,163489845426721 
771	 0,163864346550379 
772	 0,164070216275222 
773	 0,164035549476716 
774	 0,163920621526544 
775	 0,164319738981417 
776	 0,164475350316461 
777	 0,16410797654503 
778	 0,164225640331296 
779	 0,164602462431052 
780	 0,164747019864908 
781	 0,164651281091894 
782	 0,1644870323598 
783	 0,164889949747284 
784	 0,165410107333774 
785	 0,165682327725562 
786	 0,165315380750739 
787	 0,164893764923633 
788	 0,16554673738746 
789	 0,166145815189909 
790	 0,16637653936821 
791	 0,166497933283646 
792	 0,166617644130286 
793	 0,166799435137853 
794	 0,166736191416802 
795	 0,166638631485089 
796	 0,167103528901257 
797	 0,167176006589587 
798	 0,166789005373488 
799	 0,167276463907209 
800	 0,16785870958602 
801	 0,167764548672327 
802	 0,167535825307284 
803	 0,167367798300272 
804	 0,167471479551647 
805	 0,167676716045545 
806	 0,167898519421543 
807	 0,168049585272782 
808	 0,168244522485028 
809	 0,168587919843882 
810	 0,168438175133049 
811	 0,168054432036065 
812	 0,168544828292544 
813	 0,168938032990813 
814	 0,168895454254776 
815	 0,16907073243841 
816	 0,169217512680355 
817	 0,169005228476006 
818	 0,169273496638611 
819	 0,169917017260564 
820	 0,170076030336159 
821	 0,169996788602261 
822	 0,169854727091204 
823	 0,170027223516298 
824	 0,170344952618399 
825	 0,170534959335238 
826	 0,170594412957587 
827	 0,170587503221576 
828	 0,170806653211894 
829	 0,170668765959338 
830	 0,170047405778821 
831	 0,170247386572742 
832	 0,17077216060746 
833	 0,170757006261845 
834	 0,170569459394587 
835	 0,170429797910832 
836	 0,17081117634286 
837	 0,171024272162181 
838	 0,170772120098724 
839	 0,170857215773899 
840	 0,171044258525666 
841	 0,170879160867544 
842	 0,171179471864508 
843	 0,171714161233697 
844	 0,171013129630113 
845	 0,17047378112836 
846	 0,170785700836322 
847	 0,170879989124277 
848	 0,170834459881567 
849	 0,170925422794035 
850	 0,171038715354994 
851	 0,171117989869616 
852	 0,171032067243139 
853	 0,171119903926235 
854	 0,17150316521735 
855	 0,171656115161567 
856	 0,171661218268027 
857	 0,171717399923791 
858	 0,171375163439885 
859	 0,170856979298149 
860	 0,171218977523067 
861	 0,171446483363852 
862	 0,171119164743341 
863	 0,17120639634158 
864	 0,171515866093708 
865	 0,171666771350539 
866	 0,17153101584324 
867	 0,171294598865889 
868	 0,171668414476655 
869	 0,171872781799291 
870	 0,171634307710187 
871	 0,171802086710835 
872	 0,171939442716751 
873	 0,171463198272701 
874	 0,17126177663201 
875	 0,171517948816343 
876	 0,172254596897329 
877	 0,172422395315808 
878	 0,171772424896741 
879	 0,17181569933475 
880	 0,172117408070404 
881	 0,172100810073317 
882	 0,172336651040047 
883	 0,172707279999412 
884	 0,172643982177819 
885	 0,172548422899658 
886	 0,17250774314531 
887	 0,172164611638519 
888	 0,171971877524242 
889	 0,172292893481508 
890	 0,171932148933269 
891	 0,171361814735644 
892	 0,172112921209762 
893	 0,172547629494798 
894	 0,172453203378962 
895	 0,173504744443822 
896	 0,174182126107936 
897	 0,173378506665792 
898	 0,172819247937488 
899	 0,172589981983467 
900	 0,172305949092741 
901	 0,172487115923261 
902	 0,173069810689278 
903	 0,173277589685776 
904	 0,173524956784198 
905	 0,174023883581077 
906	 0,174380202924199 
907	 0,174463853870803 
908	 0,174176096450034 
909	 0,173758848691935 
910	 0,173482160610232 
911	 0,174081544429016 
912	 0,173771350327709 
913	 0,172151293440454 
914	 0,172262430200683 
915	 0,173076508029992 
916	 0,17319320360829 
917	 0,173890961734512 
918	 0,174874208118913 
919	 0,174878408085677 
920	 0,174534126290254 
921	 0,174064442133151 
922	 0,173320559359364 
923	 0,173192176138841 
924	 0,174271880627113 
925	 0,174909466450691 
926	 0,174885764370621 
927	 0,174321166909153 
928	 0,174225170773924 
929	 0,174652311740971 
930	 0,174579226344291 
931	 0,174236584775958 
932	 0,173786228876348 
933	 0,173156109392466 
934	 0,173289660989053 
935	 0,175258257241562 
936	 0,175532390833886 
937	 0,174347202228751 
938	 0,174756894818303 
939	 0,175192909803263 
940	 0,175148213810668 
941	 0,175057589370202 
942	 0,174707708908073 
943	 0,173994266684768 
944	 0,173987637367952 
945	 0,174251039221483 
946	 0,173608283358274 
947	 0,173554164112524 
948	 0,174301184791478 
949	 0,175233645077312 
950	 0,174864712570965 
951	 0,172786026641624 
952	 0,1722644084946 
953	 0,172884567274044 
954	 0,173650611696346 
955	 0,174093761556294 
956	 0,173930920136184 
957	 0,172708896220069 
958	 0,172500766992947 
959	 0,173624671870419 
960	 0,173612224194045 
961	 0,17406398262243 
962	 0,175781682635059 
963	 0,174376371806859 
964	 0,1719405777146 
965	 0,172547433982506 
966	 0,174067982898283 
967	 0,175235711230679 
968	 0,173524906815111 
969	 0,1735593761748 
970	 0,176305817481017 
971	 0,175484893592354 
972	 0,173569918657528 
973	 0,173183104544571 
974	 0,173106719881212 
975	 0,173573020741611 
976	 0,175272468077931 
977	 0,17582250897168 
978	 0,175200695381214 
979	 0,176018092445084 
980	 0,175962232731838 
981	 0,174267534636429 
982	 0,173386109609709 
983	 0,173528020917786 
984	 0,174578005910902 
985	 0,175389769696537 
986	 0,175569341803116 
987	 0,174876467099076 
988	 0,174626336922948 
989	 0,174860693980849 
990	 0,173881145313518 
991	 0,174223936550574 
992	 0,176693627970396 
993	 0,177769536876503 
994	 0,177532193733389 
995	 0,176522920168192 
996	 0,175850252822505 
997	 0,176601786639123 
998	 0,180398580642614 
999	 0,18190768257444 
1000	 0,18042491513177 
1001	 0,179788599820187 
1002	 0,178536421316548 
1003	 0,176844422280838 
1004	 0,179520616163006 
1005	 0,182422722193078 
1006	 0,181354056234038 
1007	 0,179161330452418 
1008	 0,177254824782565 
1009	 0,177146758880712 
1010	 0,17810370883624 
1011	 0,179341108988016 
1012	 0,178800308992888 
1013	 0,179999439532328 
1014	 0,183346013211125 
1015	 0,182856854726085 
1016	 0,180387461152166 
1017	 0,178278511033962 
1018	 0,180239173961472 
1019	 0,182349190065435 
1020	 0,178201425469574 
1021	 0,178049772668002 
1022	 0,181889361208339 
1023	 0,182709465788219 
1024	 0,182643030116716 
1025	 0,182312646591526 
1026	 0,181870660880447 
1027	 0,181704452371176 
1028	 0,181860220609296 
1029	 0,18102306639855 
1030	 0,178954529616352 
1031	 0,175888862079056 
1032	 0,176804866726931 
1033	 0,180642724074683 
1034	 0,183301931107415 
1035	 0,182574845051249 
1036	 0,180488937867437 
1037	 0,18746164997525 
1038	 0,189444587332314 
1039	 0,182787780721755 
1040	 0,185578299661809 
1041	 0,188644663495793 
1042	 0,184764826788593 
1043	 0,185591413292925 
1044	 0,187447372079162 
1045	 0,18357157177931 
1046	 0,183515641004534 
1047	 0,18571979026271 
1048	 0,181592773640219 
1049	 0,181158129704828 
1050	 0,184958830329178 
1051	 0,182672086494607 
1052	 0,179745652014107 
1053	 0,179879205791004 
1054	 0,18724611384932 
1055	 0,191974555802664 
1056	 0,185842714048004 
1057	 0,177414823380385 
1058	 0,17356367091058 
1059	 0,180692018853271 
1060	 0,181295093469842 
1061	 0,176577362414095 
1062	 0,178321102010376 
1063	 0,179936483808346 
1064	 0,180209144581167 
1065	 0,181750390310206 
1066	 0,181106221230645 
1067	 0,17949630222521 
1068	 0,191944114796137 
1069	 0,201349628208215 
1070	 0,195472545063681 
1071	 0,18734466714711 
1072	 0,180801680245889 
1073	 0,179083832770481 
1074	 0,189502357537082 
1075	 0,201788115982719 
