Wavelength	NEUF00240.asd
325	 0,315769556990931 
326	 0,105091327538448 
327	 6,29527879877732E-02 
328	 0,215602216024912 
329	 0,251866214251091 
330	 0,261121977261682 
331	 0,29113047595094 
332	 0,252960500352457 
333	 0,199828165936549 
334	 0,19085681042789 
335	 0,228064044399235 
336	 0,295580839731403 
337	 0,242691314143009 
338	 0,132759134578088 
339	 0,051456211886643 
340	 4,79087649127646E-02 
341	 0,107022820326061 
342	 0,188973324957275 
343	 0,172611594508303 
344	 6,95431388389692E-02 
345	 0,10865148706107 
346	 0,194649660637795 
347	 0,213380794522037 
348	 0,159469879003407 
349	 7,27190667888698E-02 
350	 0,080284991855677 
351	 0,106282998992023 
352	 0,11691696334447 
353	 0,100070777301303 
354	 7,11368052406314E-02 
355	 5,26109656400567E-02 
356	 6,70311289742198E-02 
357	 9,80247993577145E-02 
358	 8,81936716902505E-02 
359	 9,58150508515988E-02 
360	 0,136391653066525 
361	 0,110689725234248 
362	 0,063926685645576 
363	 0,064190426335322 
364	 0,104414421007948 
365	 0,155331758579042 
366	 0,149547378006321 
367	 0,126263210977705 
368	 0,109618618106516 
369	 0,101950872122914 
370	 0,10215675501523 
371	 0,104146800498668 
372	 0,110989165001321 
373	 0,117987980377249 
374	 0,106876783789423 
375	 9,36608001971816E-02 
376	 0,092159538056765 
377	 0,109010914490172 
378	 0,12979514532258 
379	 0,123071387998054 
380	 0,117307615140102 
381	 0,119690973767032 
382	 0,117977470311015 
383	 0,110072552924757 
384	 9,50868722639691E-02 
385	 9,69710552372531E-02 
386	 0,105996383331334 
387	 8,18339505162476E-02 
388	 7,22563150931331E-02 
389	 9,11448820048221E-02 
390	 9,86187847131045E-02 
391	 0,10198746678973 
392	 0,11271927935225 
393	 0,115744646075756 
394	 0,109609317728839 
395	 9,81475590358497E-02 
396	 8,86445141729443E-02 
397	 8,62126544557762E-02 
398	 0,090388549701566 
399	 0,09499228827357 
400	 9,14890786045213E-02 
401	 8,57395609286103E-02 
402	 8,26251191707399E-02 
403	 9,27469803296445E-02 
404	 0,10528363624431 
405	 0,111561246522212 
406	 0,108466617461421 
407	 9,92007615753029E-02 
408	 8,99870889360428E-02 
409	 8,57824859270641E-02 
410	 8,61165365922022E-02 
411	 7,96420026373961E-02 
412	 7,60890702763139E-02 
413	 8,41311981881841E-02 
414	 8,67542146766305E-02 
415	 8,42047370456716E-02 
416	 8,48168874085031E-02 
417	 8,85775789874191E-02 
418	 9,35614558562925E-02 
419	 8,69094201689127E-02 
420	 7,99361367919137E-02 
421	 8,75685190831963E-02 
422	 8,98028935579195E-02 
423	 8,46505959412011E-02 
424	 8,04124286569476E-02 
425	 8,05406538313127E-02 
426	 8,60453781203602E-02 
427	 8,59334926189002E-02 
428	 8,26448904492455E-02 
429	 8,30333340947966E-02 
430	 8,42601966812357E-02 
431	 8,51624517407434E-02 
432	 8,39662602172599E-02 
433	 8,29849980766765E-02 
434	 8,42526435500251E-02 
435	 8,63296336713437E-02 
436	 8,70138477300419E-02 
437	 8,05555382793293E-02 
438	 7,90395315537728E-02 
439	 8,53938039343813E-02 
440	 0,085233068583993 
441	 8,22465024469125E-02 
442	 8,27173603679027E-02 
443	 8,25787686155025E-02 
444	 8,19313925841852E-02 
445	 8,38040547852046E-02 
446	 8,68648933556145E-02 
447	 0,089963484284285 
448	 9,12657074652696E-02 
449	 9,10026371246684E-02 
450	 8,99394796557043E-02 
451	 9,05735541581452E-02 
452	 9,25488785587198E-02 
453	 9,00662546777394E-02 
454	 8,77133272021347E-02 
455	 8,98007046558894E-02 
456	 9,02444377417277E-02 
457	 8,95334740162205E-02 
458	 9,22871428304759E-02 
459	 9,42891967527337E-02 
460	 9,37337265963327E-02 
461	 9,10460851857281E-02 
462	 8,95947176279847E-02 
463	 9,37158586112231E-02 
464	 9,44501928016074E-02 
465	 9,19302469845129E-02 
466	 9,60022258846243E-02 
467	 9,59471796735046E-02 
468	 8,64319692561726E-02 
469	 8,68408856370623E-02 
470	 9,34599059010721E-02 
471	 9,34004607220004E-02 
472	 9,19778685034397E-02 
473	 0,090793377846963 
474	 9,05258940962202E-02 
475	 8,97596764841205E-02 
476	 0,087230220058884 
477	 8,77639628593237E-02 
478	 9,03264594265912E-02 
479	 8,92467125083573E-02 
480	 8,87001969426428E-02 
481	 9,03203200411399E-02 
482	 9,14622013356009E-02 
483	 9,13493253373313E-02 
484	 8,91883144899802E-02 
485	 8,95136930340805E-02 
486	 9,21630236176394E-02 
487	 9,16442836148667E-02 
488	 9,00565898900954E-02 
489	 8,91006891102489E-02 
490	 8,84229811348326E-02 
491	 8,81524610778368E-02 
492	 8,89490850612207E-02 
493	 8,77052346156517E-02 
494	 8,46459738365051E-02 
495	 8,73615353848734E-02 
496	 9,08164849609194E-02 
497	 8,88682445131947E-02 
498	 8,75453622352037E-02 
499	 8,79511790273776E-02 
500	 8,92674502583585E-02 
501	 8,95055071979327E-02 
502	 0,087971707798517 
503	 8,90659427268675E-02 
504	 0,09150292876644 
505	 9,21440112641792E-02 
506	 9,22691983166804E-02 
507	 9,23518508118023E-02 
508	 9,30163519744277E-02 
509	 9,34757720850543E-02 
510	 9,30891949187336E-02 
511	 0,093824706405614 
512	 9,52925293478363E-02 
513	 9,54047705349642E-02 
514	 0,096059985877821 
515	 9,77235016422689E-02 
516	 9,79732128355339E-02 
517	 9,74743971951547E-02 
518	 9,74386802481191E-02 
519	 9,81909020185038E-02 
520	 9,93459291642534E-02 
521	 9,91863939651123E-02 
522	 9,86991440743292E-02 
523	 9,86422282515333E-02 
524	 9,87556196223497E-02 
525	 9,91995434515428E-02 
526	 0,100709007722509 
527	 0,100580396428176 
528	 9,85703814484818E-02 
529	 9,89604847167795E-02 
530	 9,99305341223946E-02 
531	 9,90735122988644E-02 
532	 9,83829622284608E-02 
533	 9,82303919824919E-02 
534	 9,83236400696355E-02 
535	 9,84539741283435E-02 
536	 9,84473241196754E-02 
537	 9,80501609986675E-02 
538	 9,76320197313026E-02 
539	 9,78811887307422E-02 
540	 0,098541907313679 
541	 0,09934303817855 
542	 9,95168282914095E-02 
543	 9,95349291718758E-02 
544	 9,98634875963752E-02 
545	 9,95158116242233E-02 
546	 9,89265078736996E-02 
547	 9,98906499563559E-02 
548	 0,100530374543107 
549	 0,100104502848602 
550	 0,10036184270916 
551	 0,100890737982817 
552	 0,100741827186544 
553	 0,100800641460157 
554	 0,10115777802251 
555	 0,101257527459607 
556	 0,100881138414605 
557	 9,99439111122118E-02 
558	 9,96516351346472E-02 
559	 9,97296132228515E-02 
560	 9,88632982178699E-02 
561	 9,81092308099151E-02 
562	 9,78401737792722E-02 
563	 9,76802483065414E-02 
564	 9,71047673369035E-02 
565	 9,54736813808145E-02 
566	 9,52030944470878E-02 
567	 9,63052442830283E-02 
568	 9,63708930908556E-02 
569	 9,66179793738034E-02 
570	 0,097850710174731 
571	 9,91479525161851E-02 
572	 0,100492480663365 
573	 0,102178695270072 
574	 0,103976257756003 
575	 0,10574356734533 
576	 0,107188483843369 
577	 0,108804058039954 
578	 0,111134382837908 
579	 0,112675414365289 
580	 0,113583888414921 
581	 0,115506829214547 
582	 0,117354287395677 
583	 0,118560685091916 
584	 0,119867929945449 
585	 0,121011388672172 
586	 0,1213343349244 
587	 0,121882642569596 
588	 0,122952881838198 
589	 0,124271818809649 
590	 0,125336611354018 
591	 0,125735459376374 
592	 0,126497862657449 
593	 0,127460125561507 
594	 0,127538321073044 
595	 0,127842796576255 
596	 0,128731624197655 
597	 0,129024054282409 
598	 0,128613903956614 
599	 0,127516742350912 
600	 0,126959433625748 
601	 0,127053915050144 
602	 0,126636883999034 
603	 0,126117336943386 
604	 0,125772509009501 
605	 0,124688218303143 
606	 0,123342854338087 
607	 0,123286225765869 
608	 0,123058514700068 
609	 0,122165649650152 
610	 0,121234764328203 
611	 0,1202459282083 
612	 0,119113134873163 
613	 0,118237959669144 
614	 0,117724353391359 
615	 0,117601971529737 
616	 0,11723432001991 
617	 0,116249898889576 
618	 0,115197273990992 
619	 0,11459475946461 
620	 0,115315888987464 
621	 0,11584697914597 
622	 0,115664945025814 
623	 0,115054301840389 
624	 0,114600406068438 
625	 0,114875498994699 
626	 0,115495496494809 
627	 0,116147549272698 
628	 0,116254435218715 
629	 0,116177858719666 
630	 0,116213826061184 
631	 0,116915423239906 
632	 0,1180976410401 
633	 0,119378389980001 
634	 0,120295904993588 
635	 0,120826780446977 
636	 0,121526975819352 
637	 0,122614135633377 
638	 0,124219476414503 
639	 0,125728803969664 
640	 0,127076625288622 
641	 0,128497903536944 
642	 0,129740890874582 
643	 0,130657635773439 
644	 0,131073259010119 
645	 0,131344328543394 
646	 0,131945363735896 
647	 0,132210042806054 
648	 0,131997848252453 
649	 0,131352892587577 
650	 0,131073688784876 
651	 0,131470458155215 
652	 0,130171579863135 
653	 0,127792035854088 
654	 0,126310812008643 
655	 0,124492971296318 
656	 0,122152524033845 
657	 0,120269775068808 
658	 0,118223750194153 
659	 0,115360396949491 
660	 0,113118859832869 
661	 0,111467613672827 
662	 0,109462110348745 
663	 0,106929327401291 
664	 0,104011347462672 
665	 0,102443394517762 
666	 0,101506332563396 
667	 0,099759666814648 
668	 0,098165538399724 
669	 9,69978033618144E-02 
670	 9,62521390079596E-02 
671	 9,55923308150497E-02 
672	 9,47810297139046E-02 
673	 9,43958727307282E-02 
674	 9,42668289734304E-02 
675	 9,37125799433902E-02 
676	 9,34886263512552E-02 
677	 9,37272022861174E-02 
678	 9,35184350074936E-02 
679	 9,32606345582832E-02 
680	 9,35076198996287E-02 
681	 9,41432300449465E-02 
682	 9,50689252839961E-02 
683	 9,59544652848627E-02 
684	 9,73263426792683E-02 
685	 9,94452853458908E-02 
686	 0,101556590805448 
687	 0,104120463930496 
688	 0,108085530722251 
689	 0,112693019664903 
690	 0,117797359744353 
691	 0,123723812520772 
692	 0,130551936349897 
693	 0,13832697550787 
694	 0,147014483229874 
695	 0,156740570806614 
696	 0,167794069269614 
697	 0,179609046551581 
698	 0,191926078521849 
699	 0,204941327856406 
700	 0,218455339983146 
701	 0,232138652124509 
702	 0,245502388216827 
703	 0,258496523337326 
704	 0,271527510678354 
705	 0,284258680695753 
706	 0,296441497305714 
707	 0,30818627607519 
708	 0,319091594644744 
709	 0,32830213280321 
710	 0,337456574691338 
711	 0,346894098085559 
712	 0,35547445320502 
713	 0,363337195466262 
714	 0,370660174390677 
715	 0,377341423427204 
716	 0,383491190187805 
717	 0,389438389906834 
718	 0,394945684931996 
719	 0,399907179402218 
720	 0,404268557976998 
721	 0,408161346975108 
722	 0,411767935051465 
723	 0,415374933666011 
724	 0,418923106479528 
725	 0,421972861334501 
726	 0,424533544131958 
727	 0,426644074560781 
728	 0,428614152416559 
729	 0,430565942350851 
730	 0,432606796082571 
731	 0,434463650008531 
732	 0,43611435424987 
733	 0,437963551667196 
734	 0,439353182109786 
735	 0,439803147039901 
736	 0,440934830753926 
737	 0,442511389368842 
738	 0,443158708588033 
739	 0,443743117303894 
740	 0,444583028704027 
741	 0,445557528022751 
742	 0,446559356438958 
743	 0,447472503589968 
744	 0,448289097448719 
745	 0,44886773618177 
746	 0,448739255075508 
747	 0,448835732515583 
748	 0,449615256245394 
749	 0,450359853486108 
750	 0,450954053641051 
751	 0,451355668587492 
752	 0,451918926094573 
753	 0,452611538020797 
754	 0,452967876534476 
755	 0,452995238310164 
756	 0,452787792538117 
757	 0,453069470153633 
758	 0,453786761122873 
759	 0,454635142326112 
760	 0,455059460309261 
761	 0,454985701698011 
762	 0,455159022165348 
763	 0,45540400246327 
764	 0,455542433632272 
765	 0,456006628021471 
766	 0,456617860050817 
767	 0,456728586877661 
768	 0,456739406294582 
769	 0,456845489731368 
770	 0,457178582345062 
771	 0,457592284870174 
772	 0,457897672948157 
773	 0,458056209866602 
774	 0,458147899587243 
775	 0,45848475067873 
776	 0,458687899920045 
777	 0,458581961627112 
778	 0,458396521471608 
779	 0,458374663294164 
780	 0,458819180757627 
781	 0,459154635102609 
782	 0,459234759445235 
783	 0,459174108224831 
784	 0,459145329403942 
785	 0,459244811171328 
786	 0,459170269407071 
787	 0,459131893129124 
788	 0,459587316085555 
789	 0,459850664388023 
790	 0,45983617503298 
791	 0,460207840230664 
792	 0,460318364754376 
793	 0,459734114320265 
794	 0,459700342724757 
795	 0,460049327952906 
796	 0,459963823846211 
797	 0,459828421009273 
798	 0,45978706312919 
799	 0,459936795078634 
800	 0,460155518742147 
801	 0,460321210500603 
802	 0,460458919367051 
803	 0,460624695145932 
804	 0,460933244218739 
805	 0,461407325549274 
806	 0,461947365750997 
807	 0,462042890093825 
808	 0,461931829445041 
809	 0,461909565982452 
810	 0,461824703491561 
811	 0,461799883917397 
812	 0,462211223326565 
813	 0,462745132665337 
814	 0,463151508289987 
815	 0,462907232029294 
816	 0,462521099135474 
817	 0,462648623736417 
818	 0,463235469271081 
819	 0,4639573387027 
820	 0,463875254461888 
821	 0,463864849951106 
822	 0,464299372932335 
823	 0,464670811816759 
824	 0,464936608571506 
825	 0,465108931204041 
826	 0,465281834188875 
827	 0,465545652375808 
828	 0,466140853967818 
829	 0,466487710570061 
830	 0,466310720712562 
831	 0,465959217314579 
832	 0,465933021536719 
833	 0,466823172820301 
834	 0,467169412816569 
835	 0,466886038905121 
836	 0,466970259120788 
837	 0,467325175835881 
838	 0,467794885779614 
839	 0,467599257658958 
840	 0,467136313315593 
841	 0,467084693410747 
842	 0,467366309473618 
843	 0,467791970283097 
844	 0,467784142198349 
845	 0,467767849874983 
846	 0,467910118327143 
847	 0,467589722279959 
848	 0,467307155412732 
849	 0,467834282738874 
850	 0,468401776849934 
851	 0,468710613189773 
852	 0,4685407862577 
853	 0,468229629672571 
854	 0,467983856918388 
855	 0,467730639708904 
856	 0,467590729989505 
857	 0,467721324531502 
858	 0,467796439697643 
859	 0,46781334660013 
860	 0,468012688078163 
861	 0,468501019875008 
862	 0,469130739718448 
863	 0,468540056149454 
864	 0,467815996967536 
865	 0,468511060943185 
866	 0,46883622760469 
867	 0,468746809694795 
868	 0,46952737486675 
869	 0,469855451616861 
870	 0,469352472635695 
871	 0,469884028580028 
872	 0,470574396906717 
873	 0,470201065563419 
874	 0,4697156793962 
875	 0,469602996867127 
876	 0,470636354787626 
877	 0,47153755343127 
878	 0,471698148517693 
879	 0,471200593605465 
880	 0,470996338052663 
881	 0,472019121690936 
882	 0,472651456549349 
883	 0,472738711714814 
884	 0,47273847833293 
885	 0,47318033077542 
886	 0,473988054790527 
887	 0,473548279601152 
888	 0,473041957244545 
889	 0,473573508808153 
890	 0,473448863265868 
891	 0,473153613063208 
892	 0,474457303065417 
893	 0,475219531207742 
894	 0,475033992266031 
895	 0,475504002687119 
896	 0,475905969557661 
897	 0,47569420238546 
898	 0,475665465087422 
899	 0,475741301421417 
900	 0,475560072559724 
901	 0,475394113094104 
902	 0,475340427695645 
903	 0,475405067643354 
904	 0,475650186576075 
905	 0,476089259497806 
906	 0,476609388814577 
907	 0,476914087094893 
908	 0,476633936042549 
909	 0,476500991399432 
910	 0,47651927999078 
911	 0,476085260171282 
912	 0,475484378897008 
913	 0,475022845246263 
914	 0,475521817358606 
915	 0,476411220167903 
916	 0,476933920264119 
917	 0,476416426797911 
918	 0,475604546689574 
919	 0,476842900173628 
920	 0,477568499659618 
921	 0,47700059592694 
922	 0,476024268717833 
923	 0,475343050119866 
924	 0,475444832908155 
925	 0,475256336080931 
926	 0,474835843976376 
927	 0,474596495387253 
928	 0,474735628649789 
929	 0,474950231224578 
930	 0,473846891063054 
931	 0,473114483117112 
932	 0,473562714999247 
933	 0,473283234764882 
934	 0,472950561955041 
935	 0,473633831163253 
936	 0,473330335119252 
937	 0,471993779544854 
938	 0,470654483800805 
939	 0,470037032586328 
940	 0,470321647008439 
941	 0,470600036692303 
942	 0,470305218218082 
943	 0,469149208559836 
944	 0,469212440155709 
945	 0,469321282401091 
946	 0,466629975166602 
947	 0,464896525146685 
948	 0,464960480909201 
949	 0,465715547474568 
950	 0,465563855638217 
951	 0,463676882949279 
952	 0,461378674489196 
953	 0,459784740030664 
954	 0,459923167381465 
955	 0,459067344455909 
956	 0,457412171563376 
957	 0,457026201398497 
958	 0,456885331020853 
959	 0,456588778823687 
960	 0,455878352272539 
961	 0,45536617214655 
962	 0,455355775588949 
963	 0,454153352790753 
964	 0,452691563689901 
965	 0,452727802484735 
966	 0,453186928776255 
967	 0,453518808141499 
968	 0,453063822571604 
969	 0,451648533699643 
970	 0,449884580544359 
971	 0,451007329083433 
972	 0,453164903682312 
973	 0,454266409715086 
974	 0,453135299129422 
975	 0,451116225024628 
976	 0,450946826240451 
977	 0,452130211052938 
978	 0,453852302546744 
979	 0,453876925847057 
980	 0,452820695836604 
981	 0,451450562019691 
982	 0,452050701933388 
983	 0,453574309457642 
984	 0,45469584877547 
985	 0,455115488031238 
986	 0,455238928627238 
987	 0,456182853589783 
988	 0,454408108602317 
989	 0,450900941195631 
990	 0,452678051137533 
991	 0,455423973044031 
992	 0,456773627471757 
993	 0,457907537945533 
994	 0,458164624149155 
995	 0,456999929832735 
996	 0,456655418109864 
997	 0,457873411892591 
998	 0,461281419968215 
999	 0,461964783109834 
1000	 0,459786666784703 
1001	 0,459979685014771 
1002	 0,459849521518469 
1003	 0,458972215491397 
1004	 0,462739751387701 
1005	 0,466784814305133 
1006	 0,46667754168755 
1007	 0,465604279744459 
1008	 0,463834023545905 
1009	 0,460866039792859 
1010	 0,460459628666551 
1011	 0,462745345360454 
1012	 0,46460766537444 
1013	 0,465725303189555 
1014	 0,465963077241632 
1015	 0,46640056837142 
1016	 0,466330873978967 
1017	 0,46544198433131 
1018	 0,46685335902745 
1019	 0,468836388548362 
1020	 0,468237506493388 
1021	 0,468079880374303 
1022	 0,46909386393282 
1023	 0,471302489942472 
1024	 0,473183741432728 
1025	 0,473731811649251 
1026	 0,471315038606678 
1027	 0,470824752199439 
1028	 0,47433399826507 
1029	 0,471996984777673 
1030	 0,468142656710824 
1031	 0,469190612777436 
1032	 0,478028877867631 
1033	 0,486848193662887 
1034	 0,479631549821754 
1035	 0,472450407355392 
1036	 0,470726984693018 
1037	 0,475957820124663 
1038	 0,479973684566756 
1039	 0,480029267356359 
1040	 0,485164674049909 
1041	 0,48734942664794 
1042	 0,481500266663471 
1043	 0,484186371984954 
1044	 0,488654711964287 
1045	 0,482964388985977 
1046	 0,478578615537936 
1047	 0,478165427307482 
1048	 0,482006410806877 
1049	 0,481776385406513 
1050	 0,478164049563038 
1051	 0,486081834753355 
1052	 0,487512243976027 
1053	 0,47708043348698 
1054	 0,478052842666216 
1055	 0,485719068458146 
1056	 0,493294007736107 
1057	 0,49062034761113 
1058	 0,482790545499398 
1059	 0,479157882049443 
1060	 0,482899876570389 
1061	 0,488956891963811 
1062	 0,485149835746143 
1063	 0,479948377678237 
1064	 0,476888691640831 
1065	 0,478724745118103 
1066	 0,479361550971148 
1067	 0,478468237380381 
1068	 0,492326607711453 
1069	 0,494969144001895 
1070	 0,472028411606665 
1071	 0,469903425799274 
1072	 0,481596116585408 
1073	 0,490583158855977 
1074	 0,486745757750939 
1075	 0,47627062710007 
