Wavelength	NEUF00516.asd
325	 0,35843935538592 
326	 0,270215565226192 
327	 0,195349972665101 
328	 0,208906619311432 
329	 0,277304444870306 
330	 0,354239434630329 
331	 0,402426358538859 
332	 0,29514916131631 
333	 0,182687187755232 
334	 0,219990829338844 
335	 0,253448408562829 
336	 0,231113585795509 
337	 0,126604607527699 
338	 0,070532947358536 
339	 0,150129376449125 
340	 0,172515688573202 
341	 0,148927525604118 
342	 0,166424166278261 
343	 0,156586385433232 
344	 0,119475350956069 
345	 0,16493296475978 
346	 0,197695085628758 
347	 0,127634367697408 
348	 7,60398979057871E-02 
349	 6,51713494025524E-02 
350	 0,100543747498246 
351	 0,136380533764519 
352	 0,151217759383896 
353	 0,132304425663017 
354	 0,096441256401005 
355	 6,79445739296687E-02 
356	 0,101671566146021 
357	 0,164087836574017 
358	 0,138903441351659 
359	 0,116480830117992 
360	 0,129543125693736 
361	 0,120047815697659 
362	 0,1044073685061 
363	 0,110250585612248 
364	 0,132832530702461 
365	 0,15565118880364 
366	 0,138626600246398 
367	 0,130160742200226 
368	 0,156017239645853 
369	 0,150621755822993 
370	 0,121234005662318 
371	 9,11707874714145E-02 
372	 9,70113512390778E-02 
373	 0,133653961387109 
374	 0,134070131022842 
375	 0,120159451683391 
376	 0,111366038790193 
377	 0,11459006972349 
378	 0,122321948154416 
379	 0,112496865216262 
380	 0,124031285367442 
381	 0,157811083354182 
382	 0,166462819842392 
383	 0,158300711871496 
384	 0,142704604739562 
385	 0,125760544360259 
386	 0,115299086058053 
387	 0,121082096862016 
388	 0,136211542268435 
389	 0,150021715658817 
390	 0,129819156176808 
391	 0,106217783757147 
392	 0,118756329863182 
393	 0,136682118172999 
394	 0,145909792468341 
395	 0,123658531319049 
396	 0,116408527303443 
397	 0,141817520287844 
398	 0,138924722861147 
399	 0,122902669946151 
400	 0,124637622559506 
401	 0,129472900425367 
402	 0,133184541531071 
403	 0,132718851748728 
404	 0,135754025864917 
405	 0,145640295350192 
406	 0,142038157781257 
407	 0,129891830639187 
408	 0,124135304888635 
409	 0,121101556150051 
410	 0,119643187463825 
411	 0,117994475126062 
412	 0,117339953680232 
413	 0,118830728693755 
414	 0,121659265456059 
415	 0,125433787563759 
416	 0,130563166502635 
417	 0,133592645756681 
418	 0,131916574527059 
419	 0,11849341816704 
420	 0,109732610675045 
421	 0,125634496070263 
422	 0,131565634777079 
423	 0,123905812378173 
424	 0,118082886007329 
425	 0,116495265060186 
426	 0,120077748931848 
427	 0,121944545728113 
428	 0,121788956429409 
429	 0,120844919689849 
430	 0,120937784443179 
431	 0,122113496375039 
432	 0,121617355630385 
433	 0,120862604618047 
434	 0,121174568864626 
435	 0,121766300024733 
436	 0,122144984430938 
437	 0,120778517101539 
438	 0,123236948760201 
439	 0,129450317981356 
440	 0,125264706279993 
441	 0,1175271960212 
442	 0,116383590957334 
443	 0,118575787016387 
444	 0,122053302173242 
445	 0,122305259658608 
446	 0,12287148691782 
447	 0,125587656148071 
448	 0,12641423837914 
449	 0,126344242320876 
450	 0,128331087377953 
451	 0,128985367089088 
452	 0,127735030658034 
453	 0,12702856248712 
454	 0,12617130810481 
455	 0,124547785170531 
456	 0,123349645018569 
457	 0,123778647264203 
458	 0,129040379300403 
459	 0,131116462376115 
460	 0,127432670688175 
461	 0,125839645421809 
462	 0,125519546031182 
463	 0,124290393513163 
464	 0,125681339497146 
465	 0,129239248024723 
466	 0,131055288569309 
467	 0,130119970130383 
468	 0,126319523895929 
469	 0,124827926379893 
470	 0,125622914623607 
471	 0,126853224017416 
472	 0,1287949800627 
473	 0,130648187614756 
474	 0,129437419140525 
475	 0,126785899178771 
476	 0,124565893992924 
477	 0,125091903256245 
478	 0,127134453409316 
479	 0,125922661769517 
480	 0,12460988606975 
481	 0,124713720243286 
482	 0,125978715249396 
483	 0,127048611916952 
484	 0,12596868524121 
485	 0,12628995525119 
486	 0,128150390104825 
487	 0,128373025495335 
488	 0,127931506599403 
489	 0,127579537727514 
490	 0,126829470188187 
491	 0,125827508311401 
492	 0,124796317887656 
493	 0,124871880684401 
494	 0,126005518930356 
495	 0,125525053393807 
496	 0,124732966733839 
497	 0,12530305737831 
498	 0,126966117842558 
499	 0,12861428057088 
500	 0,127265235224928 
501	 0,125433199796515 
502	 0,124787291365098 
503	 0,126107601496817 
504	 0,128051156239892 
505	 0,12818151733657 
506	 0,128120178833758 
507	 0,128375051469352 
508	 0,128931779696082 
509	 0,129821375701951 
510	 0,130995821543044 
511	 0,131447046400717 
512	 0,131242754876482 
513	 0,131097492785753 
514	 0,130749199333708 
515	 0,130373766678492 
516	 0,131598056036556 
517	 0,133060005356259 
518	 0,132706540487889 
519	 0,132414887351289 
520	 0,132557400552911 
521	 0,1325579861365 
522	 0,13269608993883 
523	 0,133130674909951 
524	 0,133321063706982 
525	 0,133235198767287 
526	 0,133014602945149 
527	 0,13265102454144 
528	 0,13232977613296 
529	 0,132952498781427 
530	 0,133496801893629 
531	 0,132764576060351 
532	 0,132943439006906 
533	 0,133960813090243 
534	 0,134039353860575 
535	 0,133726081504235 
536	 0,133372819201969 
537	 0,133146783620338 
538	 0,13300418329334 
539	 0,132798585965177 
540	 0,132571988275399 
541	 0,132305986731725 
542	 0,131686423349631 
543	 0,131756389047957 
544	 0,133421085139549 
545	 0,13408158259006 
546	 0,133686263485814 
547	 0,133629645060739 
548	 0,134033571266754 
549	 0,134763616566871 
550	 0,134031925679871 
551	 0,133155596201052 
552	 0,134512238021674 
553	 0,135050414681313 
554	 0,134358714451877 
555	 0,134639170516021 
556	 0,134632353860344 
557	 0,133390497784228 
558	 0,133205296614605 
559	 0,133727904137612 
560	 0,1330250387606 
561	 0,1322643146721 
562	 0,13191749031622 
563	 0,131973216109839 
564	 0,131887480798544 
565	 0,130949365961797 
566	 0,130889482975738 
567	 0,13168670982322 
568	 0,131532319433827 
569	 0,131613936245389 
570	 0,132658991316241 
571	 0,133112251352668 
572	 0,13342042548055 
573	 0,135185701241531 
574	 0,136332624494137 
575	 0,136465840006603 
576	 0,137595902411635 
577	 0,139313960906392 
578	 0,14098155191366 
579	 0,142038736782074 
580	 0,142698677845985 
581	 0,144160830150133 
582	 0,145475636205547 
583	 0,146168608568351 
584	 0,147040769451622 
585	 0,147886192471675 
586	 0,148120553551567 
587	 0,148744586950246 
588	 0,1498821749842 
589	 0,150595231161368 
590	 0,151224528358256 
591	 0,152093782924778 
592	 0,152603761051187 
593	 0,152714180775841 
594	 0,152493955572783 
595	 0,152915411767641 
596	 0,154247686803325 
597	 0,154985836840923 
598	 0,154795173062304 
599	 0,153434740379481 
600	 0,15248811331757 
601	 0,15233112653891 
602	 0,15229431221095 
603	 0,152208966046569 
604	 0,151942518217416 
605	 0,151541250075212 
606	 0,151160787614398 
607	 0,151184241419712 
608	 0,151086579036007 
609	 0,150625155399734 
610	 0,149756524882714 
611	 0,14874872884259 
612	 0,147928971209239 
613	 0,147230317445426 
614	 0,146820477953778 
615	 0,147427632837312 
616	 0,147331110270268 
617	 0,145633040793881 
618	 0,144881415785343 
619	 0,144983042795175 
620	 0,144966843557168 
621	 0,145203315265727 
622	 0,145535507027548 
623	 0,14482154435751 
624	 0,144210754694662 
625	 0,144911803516122 
626	 0,145875203038733 
627	 0,146566757850722 
628	 0,146152032461044 
629	 0,145809413945265 
630	 0,14615368100125 
631	 0,14665275669631 
632	 0,147260264563228 
633	 0,148011886684802 
634	 0,148628790450328 
635	 0,149166555648635 
636	 0,150287980044558 
637	 0,151251343146684 
638	 0,151482767009323 
639	 0,152211567186612 
640	 0,153337877058078 
641	 0,154035744653412 
642	 0,154709997133342 
643	 0,155443661877678 
644	 0,155885315118637 
645	 0,156065624556706 
646	 0,156061809358172 
647	 0,156678048010378 
648	 0,157537514043656 
649	 0,1565921659875 
650	 0,155612682713263 
651	 0,155662355568916 
652	 0,154884424905752 
653	 0,153369515819069 
654	 0,151772815730438 
655	 0,150608937352379 
656	 0,149898818802221 
657	 0,14864075511359 
658	 0,146995954524719 
659	 0,145195698189468 
660	 0,143028822483805 
661	 0,140994689004592 
662	 0,140658962413944 
663	 0,139867132824103 
664	 0,137771724289587 
665	 0,136846980386561 
666	 0,136476598088915 
667	 0,135241530797949 
668	 0,13443488461418 
669	 0,134164536970816 
670	 0,133395339685618 
671	 0,132653323351535 
672	 0,132350820499211 
673	 0,131898338991197 
674	 0,131440910942642 
675	 0,131540322406279 
676	 0,131903325090781 
677	 0,132288416630326 
678	 0,132059319380845 
679	 0,131701518087172 
680	 0,131848102000032 
681	 0,132044081739928 
682	 0,132332387504582 
683	 0,133112980837441 
684	 0,134186074707329 
685	 0,135430335986845 
686	 0,13684020909725 
687	 0,138527464250885 
688	 0,140631332475558 
689	 0,143512035731355 
690	 0,147222481165644 
691	 0,151365880235693 
692	 0,155980014147398 
693	 0,161148828633382 
694	 0,16749827826542 
695	 0,175063613464376 
696	 0,183586898076934 
697	 0,192643578898885 
698	 0,202041744426414 
699	 0,212036091904263 
700	 0,222656370062484 
701	 0,233849603946149 
702	 0,245424746738485 
703	 0,257179791901973 
704	 0,268864148379309 
705	 0,280017818775376 
706	 0,290382930302763 
707	 0,300646870453676 
708	 0,310681473303609 
709	 0,320003445445399 
710	 0,329086069471869 
711	 0,337942185980993 
712	 0,345973311354968 
713	 0,353415855020732 
714	 0,360508328262226 
715	 0,366996652176373 
716	 0,372924921102678 
717	 0,3784789298339 
718	 0,383917986056298 
719	 0,389290199571941 
720	 0,394086554446873 
721	 0,39823369350439 
722	 0,40172903637052 
723	 0,405093240217526 
724	 0,408411770149441 
725	 0,411405285273225 
726	 0,414211366887368 
727	 0,416851151719156 
728	 0,418813508463729 
729	 0,420518544277165 
730	 0,422820038726905 
731	 0,424889839623868 
732	 0,426573273533753 
733	 0,428416614125856 
734	 0,429932148435643 
735	 0,430745549011655 
736	 0,43187468004669 
737	 0,433275556332462 
738	 0,43436448503122 
739	 0,435264488928529 
740	 0,43604504502459 
741	 0,436936710520194 
742	 0,43779011352822 
743	 0,438413914433018 
744	 0,438871292990964 
745	 0,439264283285251 
746	 0,439839492413751 
747	 0,440378239501457 
748	 0,440814088313441 
749	 0,441526420676173 
750	 0,442390380914886 
751	 0,443163631361944 
752	 0,443556200850708 
753	 0,443607849104413 
754	 0,443799960255978 
755	 0,444074094478015 
756	 0,444419277103109 
757	 0,445168826459199 
758	 0,446074416564836 
759	 0,44659140611831 
760	 0,446747853895576 
761	 0,446687857931887 
762	 0,447079045596747 
763	 0,447512824412537 
764	 0,447604726742723 
765	 0,448044740240685 
766	 0,448680280019317 
767	 0,448787230838729 
768	 0,44885029209837 
769	 0,449046761920199 
770	 0,449188501511717 
771	 0,449472721256465 
772	 0,450125340399927 
773	 0,450331111666945 
774	 0,450187188293659 
775	 0,450596392770611 
776	 0,451072037813691 
777	 0,451318383613866 
778	 0,451095056919257 
779	 0,450925321306937 
780	 0,45160588411561 
781	 0,451846877762746 
782	 0,451606018490678 
783	 0,452019233496985 
784	 0,452645813108938 
785	 0,453116724639026 
786	 0,452936144210893 
787	 0,452592254545968 
788	 0,453093819167849 
789	 0,453332293964122 
790	 0,453157563997644 
791	 0,45344426540255 
792	 0,453627932445535 
793	 0,453308917098893 
794	 0,453362270233644 
795	 0,453812627569533 
796	 0,454455089308237 
797	 0,454625707768618 
798	 0,454260311921981 
799	 0,454326028755977 
800	 0,454602798799709 
801	 0,454826112583853 
802	 0,454900669887 
803	 0,454933401204205 
804	 0,455256352043407 
805	 0,455662951215954 
806	 0,455982068874339 
807	 0,455734446987516 
808	 0,455565203433689 
809	 0,45614480665514 
810	 0,45613356214248 
811	 0,455779569841451 
812	 0,456559928395853 
813	 0,457447591962679 
814	 0,457907029447353 
815	 0,457608140184872 
816	 0,45715270803441 
817	 0,457282725665489 
818	 0,457587343179292 
819	 0,458018116547237 
820	 0,45878021117241 
821	 0,459133359084874 
822	 0,458839659906063 
823	 0,458882254183835 
824	 0,459293723583457 
825	 0,459963504565544 
826	 0,459836626247882 
827	 0,459162803833767 
828	 0,459588375019652 
829	 0,46012580699628 
830	 0,46026156048012 
831	 0,460187547879576 
832	 0,460193815660794 
833	 0,460643103604412 
834	 0,460618189340534 
835	 0,460206879722448 
836	 0,460458665358108 
837	 0,460854214861065 
838	 0,461079950824745 
839	 0,461033995950587 
840	 0,46094395118579 
841	 0,461145666988009 
842	 0,461312827834639 
843	 0,461336817523756 
844	 0,461150606051533 
845	 0,460949542780925 
846	 0,46088133470549 
847	 0,46105926263638 
848	 0,46137432328557 
849	 0,461652742371707 
850	 0,462132628387975 
851	 0,462615199863667 
852	 0,462283505444027 
853	 0,462059928312666 
854	 0,462377517223923 
855	 0,462419410159922 
856	 0,462355759099809 
857	 0,462534714712859 
858	 0,462787851684429 
859	 0,462962913075688 
860	 0,462662187870376 
861	 0,462615532406591 
862	 0,463114669792458 
863	 0,463326522604195 
864	 0,463378053797497 
865	 0,463551485486748 
866	 0,4636550703059 
867	 0,463688334945181 
868	 0,463705823135626 
869	 0,464080994465595 
870	 0,464805260537183 
871	 0,464683665153452 
872	 0,464237498771086 
873	 0,46422267734411 
874	 0,464232868484066 
875	 0,46427345901527 
876	 0,464605206841194 
877	 0,464806668946531 
878	 0,464726451945123 
879	 0,464638058896656 
880	 0,464689639891893 
881	 0,46499555432246 
882	 0,465172891705325 
883	 0,465218305325123 
884	 0,465271211620217 
885	 0,465834368708845 
886	 0,466785485921986 
887	 0,466542420492167 
888	 0,46591809880523 
889	 0,465761741415294 
890	 0,465630464808854 
891	 0,465624599152237 
892	 0,466077757259154 
893	 0,466736826172132 
894	 0,467288585871765 
895	 0,466851144824498 
896	 0,466461933525532 
897	 0,466856999070038 
898	 0,466580983949047 
899	 0,466123495420412 
900	 0,466730281789923 
901	 0,467329425446379 
902	 0,467617267176059 
903	 0,467779559911228 
904	 0,467568878085748 
905	 0,467029819777681 
906	 0,467628543479926 
907	 0,468483352659299 
908	 0,468111844035601 
909	 0,467434852125469 
910	 0,466867886438847 
911	 0,466968861969912 
912	 0,467017510361348 
913	 0,46679465253363 
914	 0,467313060475846 
915	 0,467587179818538 
916	 0,466570723492238 
917	 0,46695802278816 
918	 0,468201467214438 
919	 0,467420864420694 
920	 0,46710651355825 
921	 0,467808367082067 
922	 0,467968248758799 
923	 0,467567636655394 
924	 0,466687850810024 
925	 0,465577767663367 
926	 0,464851033960857 
927	 0,465448722755744 
928	 0,466240584899665 
929	 0,46666648583999 
930	 0,466269602783461 
931	 0,465061612154828 
932	 0,463436628656636 
933	 0,463791667215838 
934	 0,464568335075762 
935	 0,463484411603888 
936	 0,463017023907059 
937	 0,46327320003421 
938	 0,463079524910105 
939	 0,46233754574943 
940	 0,461223233779456 
941	 0,460996328895904 
942	 0,460925413898679 
943	 0,460377755995402 
944	 0,460644563160855 
945	 0,460934088245666 
946	 0,459458563848343 
947	 0,457725547414443 
948	 0,456340627963564 
949	 0,455806088083794 
950	 0,454691358152742 
951	 0,452558350876366 
952	 0,452295723918173 
953	 0,452658712751523 
954	 0,451804207759353 
955	 0,450585762225896 
956	 0,449094235530371 
957	 0,446886749822387 
958	 0,446544125166598 
959	 0,448214559241766 
960	 0,44812788248489 
961	 0,447182892551321 
962	 0,446225185896202 
963	 0,44520577407767 
964	 0,444978086373159 
965	 0,446732341454122 
966	 0,446437257411724 
967	 0,444356300626264 
968	 0,444706729247169 
969	 0,444809132874412 
970	 0,443869941089569 
971	 0,443735874406046 
972	 0,44456029373959 
973	 0,446172981043471 
974	 0,446485457637314 
975	 0,445982914105425 
976	 0,446228221978959 
977	 0,446414953460919 
978	 0,446390674461679 
979	 0,446355670757494 
980	 0,445967198342982 
981	 0,445243066474704 
982	 0,44527611258682 
983	 0,445440241256333 
984	 0,445134515384768 
985	 0,446220544568541 
986	 0,447807904634707 
987	 0,447588455407719 
988	 0,44739230663812 
989	 0,447593298228203 
990	 0,447374762744076 
991	 0,448073682218098 
992	 0,450134152336139 
993	 0,452011233131923 
994	 0,452664355088601 
995	 0,451338824239694 
996	 0,449877391570927 
997	 0,450588673231722 
998	 0,457273322018104 
999	 0,458293168487778 
1000	 0,453240465741564 
1001	 0,453724183529879 
1002	 0,454786005315217 
1003	 0,454311472540032 
1004	 0,454827244548743 
1005	 0,455718394762045 
1006	 0,456128914805896 
1007	 0,45478470969055 
1008	 0,453490110827397 
1009	 0,455692286726628 
1010	 0,458646683488658 
1011	 0,460631304550963 
1012	 0,458062607821612 
1013	 0,459765581309909 
1014	 0,467102917208503 
1015	 0,465604295522168 
1016	 0,461552762080196 
1017	 0,461147760161214 
1018	 0,46413360940842 
1019	 0,466968064680469 
1020	 0,46457130537607 
1021	 0,463839247426945 
1022	 0,465735871526584 
1023	 0,468544591045784 
1024	 0,467813047271674 
1025	 0,4639251680188 
1026	 0,4665108423741 
1027	 0,468276732156218 
1028	 0,465102919103681 
1029	 0,464846804429513 
1030	 0,4657996810596 
1031	 0,465177358044991 
1032	 0,466008648701473 
1033	 0,468521822838115 
1034	 0,472164103430049 
1035	 0,472112822498222 
1036	 0,469554077946337 
1037	 0,473830826291368 
1038	 0,477661933317992 
1039	 0,478246810907584 
1040	 0,480312133822892 
1041	 0,47953056803793 
1042	 0,47339345745669 
1043	 0,471302320442343 
1044	 0,473007851105115 
1045	 0,476060353797584 
1046	 0,477373709281135 
1047	 0,476191486912645 
1048	 0,472646272971859 
1049	 0,472521373536026 
1050	 0,475516044125111 
1051	 0,472825856756841 
1052	 0,467965077887081 
1053	 0,464886504289725 
1054	 0,473204318987348 
1055	 0,484358036205371 
1056	 0,488963355569868 
1057	 0,479326868261168 
1058	 0,466280067007792 
1059	 0,465422482982386 
1060	 0,465271575858682 
1061	 0,465715591491515 
1062	 0,471946289886434 
1063	 0,472563099697177 
1064	 0,46975938344809 
1065	 0,48565590779237 
1066	 0,494206345500204 
1067	 0,485395794095295 
1068	 0,476496241611091 
1069	 0,472182763332287 
1070	 0,474439872016541 
1071	 0,474450960649655 
1072	 0,477226105081318 
1073	 0,488444731469408 
1074	 0,484660168697492 
1075	 0,471102813980238 
