Wavelength	NEUF00427.asd
325	 0,24795132772232 
326	-7,83359009247077E-02 
327	-0,194022768767385 
328	 2,73376436601928E-02 
329	 0,136189112716861 
330	 0,131143930343852 
331	-6,54258703081771E-02 
332	 1,61476888909453E-02 
333	 0,226659736733244 
334	 0,262107191697118 
335	 0,223312926825717 
336	 0,123672599254193 
337	 3,74072581444361E-02 
338	-0,020557649201171 
339	-4,99843730693472E-02 
340	 2,40207571891594E-02 
341	 0,134059712388248 
342	 8,46252051796462E-02 
343	 8,02938935132208E-02 
344	 0,145460494693014 
345	 0,130945993119467 
346	 8,03959860905959E-02 
347	 5,09026683332428E-02 
348	 1,76400858616602E-02 
349	-8,32340165827854E-03 
350	 1,83812018722035E-02 
351	 5,19794623453609E-02 
352	 0,07251340677861 
353	 7,80015820808527E-02 
354	 6,22838057470846E-02 
355	 1,96817540931718E-02 
356	 1,46435476296482E-02 
357	 0,047074320377314 
358	 0,082416307128732 
359	 9,28328005538192E-02 
360	 7,08137730346342E-02 
361	 6,10535159371116E-02 
362	 5,23593334885865E-02 
363	 0,017119928345794 
364	 2,81880059136086E-02 
365	 7,64231304933049E-02 
366	 7,88847822593604E-02 
367	 6,38870954453594E-02 
368	 4,83299995722861E-02 
369	 3,69816457311105E-02 
370	 0,034308544995821 
371	 4,21090171607824E-02 
372	 5,27553322995082E-02 
373	 6,12317068139355E-02 
374	 6,30279089109121E-02 
375	 5,77836974399568E-02 
376	 4,73557009476356E-02 
377	 0,054140410411081 
378	 6,74595949318282E-02 
379	 5,43436361010114E-02 
380	 6,16577344212824E-02 
381	 9,31581154921049E-02 
382	 9,99524533215825E-02 
383	 0,091935291746256 
384	 8,00393342736424E-02 
385	 7,06101067831244E-02 
386	 6,38667105050747E-02 
387	 5,06943170471011E-02 
388	 5,15425817504953E-02 
389	 6,67326930934734E-02 
390	 5,01528914440982E-02 
391	 3,02956528767459E-02 
392	 4,52763066834237E-02 
393	 0,059814430587021 
394	 6,55984247173696E-02 
395	 6,20741177910048E-02 
396	 6,00267679447594E-02 
397	 6,48047129556475E-02 
398	 0,070819096762781 
399	 7,10090505864397E-02 
400	 5,52311175847209E-02 
401	 4,86518418211828E-02 
402	 5,49309645515258E-02 
403	 6,11595897605373E-02 
404	 6,83432467031922E-02 
405	 7,52260232329062E-02 
406	 6,17572387289194E-02 
407	 4,26708950478646E-02 
408	 0,052378874841308 
409	 6,01960878831059E-02 
410	 0,058402474954759 
411	 5,61224664798433E-02 
412	 0,053076276015766 
413	 4,89895286201907E-02 
414	 5,08788616453421E-02 
415	 5,70785903399997E-02 
416	 6,08858849947333E-02 
417	 6,34685467754814E-02 
418	 6,46046377777441E-02 
419	 6,13298726957516E-02 
420	 5,76516552082245E-02 
421	 5,85304297335977E-02 
422	 5,95581171950048E-02 
423	 5,93081421305471E-02 
424	 5,66118392837692E-02 
425	 0,054318607054106 
426	 5,42098151788458E-02 
427	 5,45402164814427E-02 
428	 5,60555856984502E-02 
429	 0,061015189808575 
430	 6,23866192936981E-02 
431	 5,89953388227735E-02 
432	 5,55237981075695E-02 
433	 5,45064305903209E-02 
434	 5,75964963638509E-02 
435	 5,74408504848946E-02 
436	 5,52462703900624E-02 
437	 5,76769527343182E-02 
438	 6,04385105386867E-02 
439	 6,14324888621695E-02 
440	 5,91115127562644E-02 
441	 0,056366587440791 
442	 5,69784008615022E-02 
443	 5,66947595805785E-02 
444	 5,55186245387899E-02 
445	 5,66257881982463E-02 
446	 5,94306473235867E-02 
447	 6,30730709156791E-02 
448	 6,40783500465005E-02 
449	 6,29219108752644E-02 
450	 6,13273978526067E-02 
451	 6,04543543699745E-02 
452	 6,05151743669413E-02 
453	 5,97218615259485E-02 
454	 5,97486686791898E-02 
455	 6,19998881182169E-02 
456	 6,20501182859047E-02 
457	 6,10360133164691E-02 
458	 6,49453482542785E-02 
459	 6,54044462452464E-02 
460	 6,02356282496251E-02 
461	 5,93357876474799E-02 
462	 6,12127719704212E-02 
463	 0,06256851767853 
464	 6,23908983292391E-02 
465	 0,061498965686024 
466	 6,48251251175999E-02 
467	 6,48729334674805E-02 
468	 5,78971143121228E-02 
469	 5,72911913091802E-02 
470	 6,12906354879884E-02 
471	 6,25810070649612E-02 
472	 6,21616994581188E-02 
473	 6,07413855351484E-02 
474	 0,06136858758573 
475	 0,062119421699055 
476	 6,10427975586339E-02 
477	 6,12698806567508E-02 
478	 6,25344971445947E-02 
479	 6,24170453245973E-02 
480	 6,19895183899414E-02 
481	 6,17859004700633E-02 
482	 6,24297119049349E-02 
483	 6,17384806048988E-02 
484	 5,61829160344305E-02 
485	 5,69045541859984E-02 
486	 0,063456340533273 
487	 6,23124886735171E-02 
488	 5,94725950817009E-02 
489	 5,95389164917893E-02 
490	 5,92732165640469E-02 
491	 0,058997770167868 
492	 6,05989754821483E-02 
493	 6,17875490503017E-02 
494	 0,061747146904588 
495	 6,10542327081532E-02 
496	 6,00726373399333E-02 
497	 5,91654668540024E-02 
498	 5,95552807109613E-02 
499	 6,08223373004581E-02 
500	 6,07004463558578E-02 
501	 0,061122180561136 
502	 6,28814565634691E-02 
503	 0,063203999528538 
504	 6,26266259217768E-02 
505	 0,062577700752826 
506	 6,38186096390764E-02 
507	 6,58339789735236E-02 
508	 0,065348796421068 
509	 0,064384042847505 
510	 6,48259119072933E-02 
511	 6,49350573526838E-02 
512	 6,45232619898556E-02 
513	 6,37556793755426E-02 
514	 6,37121752727895E-02 
515	 6,47597665456631E-02 
516	 6,59204596015467E-02 
517	 6,64666422407965E-02 
518	 6,55665741858004E-02 
519	 6,51569362369337E-02 
520	 6,56444865187467E-02 
521	 0,06645245977057 
522	 6,69012427337899E-02 
523	 6,65724141535083E-02 
524	 6,65025048603738E-02 
525	 6,68024031255322E-02 
526	 6,73384316745669E-02 
527	 6,77831643971871E-02 
528	 6,80139668698749E-02 
529	 6,83222738478171E-02 
530	 6,81971636513932E-02 
531	 6,70679346735685E-02 
532	 6,67168705611889E-02 
533	 6,72098747520664E-02 
534	 6,73196972674095E-02 
535	 6,75179442136524E-02 
536	 0,067945483156757 
537	 6,75266888026111E-02 
538	 6,66680814465287E-02 
539	 6,63189233317958E-02 
540	 0,066309951636691 
541	 6,65599361516992E-02 
542	 6,68332441946651E-02 
543	 6,70514156441319E-02 
544	 6,71367422399297E-02 
545	 6,66000812901373E-02 
546	 6,59360618488001E-02 
547	 6,67502404030747E-02 
548	 6,76873682889329E-02 
549	 6,79827941008968E-02 
550	 6,73379108364527E-02 
551	 6,65652996523839E-02 
552	 6,69096154438133E-02 
553	 6,81702498554596E-02 
554	 6,96525211157493E-02 
555	 6,90441287708414E-02 
556	 6,77726048396249E-02 
557	 6,71180504111345E-02 
558	 6,69312364381062E-02 
559	 6,69598782820215E-02 
560	 6,64965954157637E-02 
561	 0,066451564079625 
562	 6,69769550899628E-02 
563	 0,06678265578737 
564	 6,59529096755684E-02 
565	 6,47436004003571E-02 
566	 6,52366837154314E-02 
567	 0,066940909208462 
568	 0,065983853569566 
569	 6,53324576235692E-02 
570	 6,68895584421396E-02 
571	 6,76179086422808E-02 
572	 6,77907620144403E-02 
573	 6,90861451099778E-02 
574	 7,01238394065676E-02 
575	 0,070638655223458 
576	 7,18464242013001E-02 
577	 7,32262770857706E-02 
578	 7,41058470220902E-02 
579	 7,45908668923764E-02 
580	 0,075144612975522 
581	 7,72220653705414E-02 
582	 7,87661354880527E-02 
583	 7,88248294698628E-02 
584	 8,00466838931955E-02 
585	 8,14579104788268E-02 
586	 8,07054564576139E-02 
587	 8,02071998362752E-02 
588	 0,080770419948492 
589	 8,23210853448491E-02 
590	 8,37922356506026E-02 
591	 8,42054665136161E-02 
592	 0,084181320709989 
593	 8,41040259031923E-02 
594	 8,46350687218621E-02 
595	 8,51699288910655E-02 
596	 8,54095357161269E-02 
597	 8,54438290979521E-02 
598	 8,53838186397553E-02 
599	 8,53828200203563E-02 
600	 0,085337275269079 
601	 8,51400689612594E-02 
602	 8,44958148432369E-02 
603	 8,37946786360957E-02 
604	 8,33582914725277E-02 
605	 8,31195382880569E-02 
606	 8,28728910130137E-02 
607	 0,082031380669993 
608	 8,18451079622838E-02 
609	 8,24627124074485E-02 
610	 8,18559250158051E-02 
611	 8,05908364479665E-02 
612	 7,95823924798381E-02 
613	 7,90684069141309E-02 
614	 7,90406367472621E-02 
615	 7,92398556220842E-02 
616	 7,89826071956828E-02 
617	 7,79302932665086E-02 
618	 7,73113213638173E-02 
619	 7,71272764639038E-02 
620	 7,69785631101818E-02 
621	 7,70117286673731E-02 
622	 7,72005028745359E-02 
623	 7,73162422028358E-02 
624	 7,73513947305854E-02 
625	 7,73325333019829E-02 
626	 7,78745654681755E-02 
627	 7,84775308381836E-02 
628	 7,71466357971963E-02 
629	 7,65435222309551E-02 
630	 7,78650784001344E-02 
631	 7,88773330157819E-02 
632	 7,93963963298205E-02 
633	 7,95801866156494E-02 
634	 7,98880544240778E-02 
635	 8,05267645657539E-02 
636	 8,15947174463431E-02 
637	 8,26892525980923E-02 
638	 8,34604280044475E-02 
639	 8,39980043557429E-02 
640	 8,45159397821985E-02 
641	 0,085542182459824 
642	 8,64379710417613E-02 
643	 8,69231464316784E-02 
644	 8,70857852002284E-02 
645	 8,71420876145183E-02 
646	 8,73547864875005E-02 
647	 8,77641926197703E-02 
648	 8,80914931635805E-02 
649	 8,73263470402413E-02 
650	 8,66601497221899E-02 
651	 8,67608647236909E-02 
652	 8,58950953262274E-02 
653	 8,44247209993404E-02 
654	 8,36368630876139E-02 
655	 8,24422889853586E-02 
656	 0,080668939270533 
657	 7,92125387100289E-02 
658	 7,79055169833525E-02 
659	 7,65155966219659E-02 
660	 7,51664987805228E-02 
661	 7,39042773599095E-02 
662	 7,28175640804722E-02 
663	 7,16461850014148E-02 
664	 7,03069014748329E-02 
665	 6,92437741463318E-02 
666	 6,82915620267058E-02 
667	 6,70984604702598E-02 
668	 6,61507579213745E-02 
669	 6,56259890771232E-02 
670	 6,56415449149023E-02 
671	 0,06556962711787 
672	 6,49471965905441E-02 
673	 0,064581029375428 
674	 6,44702186194138E-02 
675	 6,42520853484123E-02 
676	 6,41296446451116E-02 
677	 6,41391171541066E-02 
678	 6,40893108013111E-02 
679	 6,40802525125582E-02 
680	 6,42455353456489E-02 
681	 6,43230504428024E-02 
682	 6,44925208151114E-02 
683	 6,54599458417662E-02 
684	 6,67148531191964E-02 
685	 6,79506858018462E-02 
686	 0,069338254219065 
687	 7,08650305700582E-02 
688	 7,24254367764171E-02 
689	 7,45783130463259E-02 
690	 0,077545031973971 
691	 8,12855954547448E-02 
692	 8,55704169984405E-02 
693	 9,02372057882013E-02 
694	 9,61450444113422E-02 
695	 0,103264217799326 
696	 0,110978199718067 
697	 0,119666994021307 
698	 0,129357356558253 
699	 0,139297798383402 
700	 0,149973406533271 
701	 0,162026092736106 
702	 0,174407562495661 
703	 0,186778921820256 
704	 0,199089836146268 
705	 0,211475635538528 
706	 0,223956915102497 
707	 0,236126447298368 
708	 0,247847253231073 
709	 0,258974553359377 
710	 0,269588094457581 
711	 0,279811333554774 
712	 0,290069398062266 
713	 0,299749451799246 
714	 0,30830583099861 
715	 0,316366359467773 
716	 0,324178133450785 
717	 0,332134101531097 
718	 0,339365127651547 
719	 0,345583304419406 
720	 0,35154346381781 
721	 0,357016503773768 
722	 0,361642731503101 
723	 0,36632465546764 
724	 0,371030656663071 
725	 0,374819593401221 
726	 0,378337322694931 
727	 0,381888711517286 
728	 0,384524216736768 
729	 0,386769742378904 
730	 0,389775118312793 
731	 0,392374134242638 
732	 0,394375650533494 
733	 0,396589380779658 
734	 0,398622760474182 
735	 0,400129460657296 
736	 0,401476869571666 
737	 0,40281909214562 
738	 0,404398490790705 
739	 0,405605529364653 
740	 0,406351123684796 
741	 0,407595081730218 
742	 0,408867926530748 
743	 0,409554393073625 
744	 0,410284492550413 
745	 0,411156631376497 
746	 0,411988463826287 
747	 0,412840935539813 
748	 0,413723032608534 
749	 0,414535146269717 
750	 0,415114603305609 
751	 0,415206882226761 
752	 0,415972665800924 
753	 0,417293981567166 
754	 0,417412033139208 
755	 0,417428532615429 
756	 0,418135457260514 
757	 0,418820251472004 
758	 0,419434798493769 
759	 0,420155833238769 
760	 0,420427510034457 
761	 0,420250930552786 
762	 0,420510587635059 
763	 0,420995193945236 
764	 0,421462000292708 
765	 0,42204201750101 
766	 0,422571167230667 
767	 0,422591614077836 
768	 0,422614927812782 
769	 0,422828128559413 
770	 0,422907397200025 
771	 0,423212072201793 
772	 0,424159192173778 
773	 0,424421326286695 
774	 0,424140271691691 
775	 0,424789958864543 
776	 0,425267562722891 
777	 0,425066441647136 
778	 0,424850337494454 
779	 0,424891011055481 
780	 0,425465759697297 
781	 0,425730897936357 
782	 0,425622406639004 
783	 0,425784264692447 
784	 0,42618303262586 
785	 0,426719176480464 
786	 0,426713374380645 
787	 0,426565494440284 
788	 0,427183072293475 
789	 0,427528558746673 
790	 0,427371333012563 
791	 0,427165092235883 
792	 0,426948046528905 
793	 0,426776470436079 
794	 0,426899361504322 
795	 0,427263092386151 
796	 0,427726060652512 
797	 0,427742440933174 
798	 0,427308369966638 
799	 0,427425442367528 
800	 0,427706337640914 
801	 0,427755967232503 
802	 0,427962920250469 
803	 0,42827080550102 
804	 0,428314178902146 
805	 0,428667614045252 
806	 0,429437177262029 
807	 0,43002801114907 
808	 0,430270180013332 
809	 0,430055826090543 
810	 0,42974001711542 
811	 0,429628275009228 
812	 0,430298713211907 
813	 0,43087728633036 
814	 0,431031232779036 
815	 0,431397457812487 
816	 0,431520764628234 
817	 0,430850885630027 
818	 0,430862977079032 
819	 0,431645354636965 
820	 0,432454031083697 
821	 0,43282114703722 
822	 0,432615680235143 
823	 0,432795744203021 
824	 0,433285615091221 
825	 0,433846237695269 
826	 0,433974077764185 
827	 0,433797816583162 
828	 0,434138544793081 
829	 0,434629510333532 
830	 0,435034591493377 
831	 0,435113146955894 
832	 0,435138316928656 
833	 0,435515127423381 
834	 0,435600759763017 
835	 0,435429773178619 
836	 0,435636045769963 
837	 0,435899471476272 
838	 0,436072398298128 
839	 0,43641742573891 
840	 0,43669764180257 
841	 0,436555769610208 
842	 0,436765249766204 
843	 0,437198638734905 
844	 0,436712176007532 
845	 0,436447285688373 
846	 0,436904866549513 
847	 0,436766419698482 
848	 0,436563915946675 
849	 0,437234519538877 
850	 0,437510475246914 
851	 0,437324219903834 
852	 0,437604011623905 
853	 0,437712817309879 
854	 0,437403906708209 
855	 0,437451233282986 
856	 0,437669932489777 
857	 0,437692368427376 
858	 0,437578676690548 
859	 0,437423359265865 
860	 0,437439206308319 
861	 0,437760976617498 
862	 0,438336535673657 
863	 0,438322158946079 
864	 0,438156637198348 
865	 0,438520351448614 
866	 0,439095648246108 
867	 0,439593046040289 
868	 0,439309968668342 
869	 0,439396671647174 
870	 0,440206719078319 
871	 0,440219385920888 
872	 0,43991138032259 
873	 0,440020499504725 
874	 0,4402589104355 
875	 0,440660008054664 
876	 0,441525472629025 
877	 0,44210107628202 
878	 0,442101656104206 
879	 0,442023842703667 
880	 0,442036650584571 
881	 0,442271381849271 
882	 0,44256470100377 
883	 0,442918260607732 
884	 0,443430336302121 
885	 0,444070097122832 
886	 0,444633077931459 
887	 0,444258313175301 
888	 0,443746589041336 
889	 0,443851384808936 
890	 0,443578652560353 
891	 0,443281283720767 
892	 0,444072918825542 
893	 0,445072636900544 
894	 0,445843338542982 
895	 0,446010244639758 
896	 0,44575356589121 
897	 0,445310389103268 
898	 0,44528249515056 
899	 0,445486359604821 
900	 0,445391343795135 
901	 0,44548921302641 
902	 0,445776039946957 
903	 0,445620620719108 
904	 0,44600173998689 
905	 0,447282646477413 
906	 0,447375645064561 
907	 0,446949884395436 
908	 0,447318081121235 
909	 0,447539493820071 
910	 0,44739969934182 
911	 0,446906498887916 
912	 0,4464673173292 
913	 0,446338689787713 
914	 0,446674496848755 
915	 0,446916431996246 
916	 0,446461140846714 
917	 0,445765739467508 
918	 0,445342108291675 
919	 0,446287083956178 
920	 0,446796748922701 
921	 0,44634237286055 
922	 0,445834706102029 
923	 0,445363938737734 
924	 0,444994445623867 
925	 0,444734300202716 
926	 0,444646343893206 
927	 0,44484488517733 
928	 0,444944225507021 
929	 0,444710812184523 
930	 0,443732259511397 
931	 0,443168500462785 
932	 0,443506654212162 
933	 0,443000227827747 
934	 0,442146477323642 
935	 0,44180654823565 
936	 0,440580946354911 
937	 0,439029337150515 
938	 0,439615179526204 
939	 0,439717013712358 
940	 0,438550551569847 
941	 0,437782272234744 
942	 0,43690269809545 
943	 0,435492164167884 
944	 0,434867198522126 
945	 0,434362788924945 
946	 0,432334618556378 
947	 0,430992382968402 
948	 0,430721095420631 
949	 0,430504017645281 
950	 0,429815406006553 
951	 0,428363132242016 
952	 0,426579080450978 
953	 0,424787422152715 
954	 0,42331190584422 
955	 0,421943603385693 
956	 0,420578043594943 
957	 0,418960034648445 
958	 0,41816263202048 
959	 0,41820002600297 
960	 0,417372854469325 
961	 0,416136519077162 
962	 0,414895458166774 
963	 0,413265941895145 
964	 0,412511571482464 
965	 0,414520372220979 
966	 0,41483208772522 
967	 0,413430711222495 
968	 0,414215109835473 
969	 0,413820387748985 
970	 0,411680892714926 
971	 0,41259600657991 
972	 0,414139186452652 
973	 0,413875150386907 
974	 0,413449798485941 
975	 0,412994794989135 
976	 0,41223314144237 
977	 0,413522301071026 
978	 0,415834092636485 
979	 0,41330230892823 
980	 0,41096427004955 
981	 0,411244636692759 
982	 0,412223822379203 
983	 0,412863182048242 
984	 0,412464355853531 
985	 0,414043067698984 
986	 0,416515171476002 
987	 0,416870324530998 
988	 0,415334433637556 
989	 0,413300129608451 
990	 0,415573173620712 
991	 0,417083989957984 
992	 0,416027603357186 
993	 0,419356676129406 
994	 0,422211735445817 
995	 0,419408017146715 
996	 0,417892900970157 
997	 0,418959202610612 
998	 0,422543425639238 
999	 0,424970474221414 
1000	 0,425337464217453 
1001	 0,425333016028129 
1002	 0,424230007536024 
1003	 0,422534661600919 
1004	 0,424541389014435 
1005	 0,427885558514357 
1006	 0,429724442957164 
1007	 0,428355107429437 
1008	 0,42522279918748 
1009	 0,423360475152176 
1010	 0,426688523460341 
1011	 0,433344706636683 
1012	 0,43350485631081 
1013	 0,43353483010299 
1014	 0,435550319768217 
1015	 0,435646417229696 
1016	 0,434442648462342 
1017	 0,432986902863945 
1018	 0,434265975112241 
1019	 0,435906483449012 
1020	 0,433854019521175 
1021	 0,433901609847767 
1022	 0,437293648929191 
1023	 0,444025081747477 
1024	 0,446430125410297 
1025	 0,442972779980811 
1026	 0,440655254026947 
1027	 0,439295520211164 
1028	 0,438772950617835 
1029	 0,438879612911777 
1030	 0,439681537013404 
1031	 0,441159343548613 
1032	 0,441423183105527 
1033	 0,44074529683106 
1034	 0,44046549365892 
1035	 0,441084596786468 
1036	 0,442890736550146 
1037	 0,446430877011182 
1038	 0,448047107874325 
1039	 0,446367098576188 
1040	 0,444245751339367 
1041	 0,443209762224404 
1042	 0,443996955841728 
1043	 0,442908087040207 
1044	 0,442445604326899 
1045	 0,446525990964086 
1046	 0,4517532678054 
1047	 0,454468890574203 
1048	 0,448496473662692 
1049	 0,443444473983103 
1050	 0,443232585519457 
1051	 0,449810854977705 
1052	 0,449530943409741 
1053	 0,439693875797523 
1054	 0,44741097224112 
1055	 0,45406533228113 
1056	 0,444615100539775 
1057	 0,449683053380034 
1058	 0,454981491994708 
1059	 0,436713527678713 
1060	 0,436336456953898 
1061	 0,449065312385894 
1062	 0,44383301429082 
1063	 0,44177553529208 
1064	 0,447583272700893 
1065	 0,457701792023399 
1066	 0,455968860523854 
1067	 0,441024132956726 
1068	 0,449841199377747 
1069	 0,457887789406868 
1070	 0,447327283436881 
1071	 0,439415320631245 
1072	 0,437622360588043 
1073	 0,442809407654517 
1074	 0,45125233468784 
1075	 0,460262831369495 
