Wavelength	NEUF00461.asd
325	 0,144907679258824 
326	 2,15152912248348E-02 
327	-0,044977083383476 
328	 1,27383915060716E-02 
329	 3,02787766742946E-03 
330	-2,57523778515665E-02 
331	-4,04314183841044E-02 
332	 7,55400480647541E-02 
333	 0,173700902659185 
334	 0,116602734634598 
335	 7,55581627070553E-02 
336	 0,089663189044937 
337	 6,94454538047009E-02 
338	 2,17478288917651E-02 
339	-3,10485307051016E-02 
340	-3,91783325287911E-02 
341	-8,22502886192357E-04 
342	 7,14572314426409E-02 
343	 0,104976145961721 
344	 9,87445607991995E-02 
345	 6,89841900694838E-02 
346	 5,11220260333599E-02 
347	 6,99875006793109E-02 
348	 2,50857014705411E-02 
349	-5,04205446434573E-02 
350	-6,36188536122351E-03 
351	 5,93452418282475E-02 
352	 9,95163960676281E-02 
353	 0,074344477288813 
354	 2,18395503490554E-02 
355	-5,36084814420498E-03 
356	-6,14467898245336E-04 
357	 2,45648314144382E-02 
358	 3,87949499785802E-02 
359	 3,82793172956519E-02 
360	 2,44725018704233E-02 
361	 2,74803146661814E-02 
362	 3,27338659467989E-02 
363	 1,54516388138155E-02 
364	 9,47699694073218E-03 
365	 1,72189413311318E-02 
366	 1,27200171407146E-02 
367	 0,017137721565065 
368	 3,84831377977402E-02 
369	 1,16914141279505E-02 
370	-0,024598970987492 
371	 3,90346182442005E-03 
372	 1,70571070775349E-02 
373	 3,46364741916028E-03 
374	 1,60903046181082E-02 
375	 2,89373521730269E-02 
376	 2,22063377494237E-02 
377	 1,56117906937211E-02 
378	 1,67502079606999E-02 
379	 0,036527430576171 
380	 4,46628089952119E-02 
381	 3,73198555434641E-02 
382	 5,40426147983301E-02 
383	 0,056591979718239 
384	 1,09394558706948E-02 
385	 6,32261958076886E-03 
386	 3,41439736258658E-02 
387	 2,47905770760946E-02 
388	 1,34579807937428E-02 
389	 1,32269333701349E-02 
390	 1,45979414719778E-02 
391	 0,018518554730785 
392	 2,64916467030001E-02 
393	 2,77794172617994E-02 
394	 2,31265706570235E-02 
395	 2,07719823522214E-02 
396	 2,24625116465629E-02 
397	 2,75649397118521E-02 
398	 2,66673434220134E-02 
399	 1,99785987102202E-02 
400	 8,29601029843069E-03 
401	 1,12142578105527E-02 
402	 2,92477717830346E-02 
403	 4,83721999521189E-02 
404	 5,29093293020842E-02 
405	 3,44875734400725E-02 
406	 1,74064658410728E-02 
407	 8,21861819730371E-03 
408	 1,16952807991152E-02 
409	 1,69293887135963E-02 
410	 1,90817812049293E-02 
411	 1,47513947048146E-02 
412	 9,11776618338074E-03 
413	 7,47588043218009E-03 
414	 1,58381324202188E-02 
415	 2,80041391453744E-02 
416	 2,68999598995269E-02 
417	 2,42545736531778E-02 
418	 2,45430834709117E-02 
419	 2,36942718573741E-02 
420	 2,26230243399678E-02 
421	 2,27945722736336E-02 
422	 0,021507208271432 
423	 1,92292564086032E-02 
424	 1,92907082658169E-02 
425	 2,00625172504574E-02 
426	 0,020463079106846 
427	 2,04797548784579E-02 
428	 2,02668719055882E-02 
429	 1,98410514562294E-02 
430	 2,23799121557822E-02 
431	 2,68001795739355E-02 
432	 2,45053760591095E-02 
433	 2,13570938780971E-02 
434	 2,26200559638027E-02 
435	 2,20646183525325E-02 
436	 2,06745215011724E-02 
437	 2,44670605053918E-02 
438	 0,024411484302246 
439	 1,85107685858273E-02 
440	 1,79309062901722E-02 
441	 1,98543719553866E-02 
442	 1,94598772880878E-02 
443	 1,90703777331068E-02 
444	 1,98671464187372E-02 
445	 2,44787260535993E-02 
446	 2,75230325767654E-02 
447	 0,026059735602449 
448	 2,53387796694941E-02 
449	 0,025701112088781 
450	 2,63381603868461E-02 
451	 2,72096036726576E-02 
452	 2,76465727078006E-02 
453	 2,50055358048557E-02 
454	 2,27970598436192E-02 
455	 2,43067534360976E-02 
456	 2,57546804028921E-02 
457	 2,64661067187225E-02 
458	 2,69034898814143E-02 
459	 2,63573861802665E-02 
460	 2,48520844786444E-02 
461	 2,42483988309569E-02 
462	 2,42991650617917E-02 
463	 2,43900619974147E-02 
464	 2,53737234493062E-02 
465	 2,70218138863732E-02 
466	 2,82760471109074E-02 
467	 2,79594071814733E-02 
468	 0,025668713907594 
469	 2,48702034356806E-02 
470	 2,59782161278519E-02 
471	 0,028927004880423 
472	 2,98410397498179E-02 
473	 2,81850384795607E-02 
474	 2,90413023800956E-02 
475	 2,80844036693459E-02 
476	 2,13481954181319E-02 
477	 2,20810602115105E-02 
478	 2,89250674848064E-02 
479	 3,11940446370014E-02 
480	 3,01989040378515E-02 
481	 2,69614449531952E-02 
482	 2,58638541012103E-02 
483	 2,56815090906559E-02 
484	 2,36574559348145E-02 
485	 2,47387533846299E-02 
486	 2,88119117814013E-02 
487	 3,10814092358265E-02 
488	 3,05195341107421E-02 
489	 2,69305597600938E-02 
490	 2,63217843714194E-02 
491	 2,81356780217306E-02 
492	 2,87353827348326E-02 
493	 2,88919228072765E-02 
494	 2,88140056714983E-02 
495	 2,90756987177069E-02 
496	 0,028891512687318 
497	 0,027374467356847 
498	 0,027459010547574 
499	 2,89285965627772E-02 
500	 2,89724111260059E-02 
501	 2,89486282791927E-02 
502	 2,95290813683206E-02 
503	 2,97314193387766E-02 
504	 2,97612778047721E-02 
505	 3,01095367074818E-02 
506	 3,12471300192632E-02 
507	 3,27852619070695E-02 
508	 3,25350130368676E-02 
509	 3,20455946377522E-02 
510	 3,26794498031798E-02 
511	 3,17803158615876E-02 
512	 2,99649827148574E-02 
513	 3,00052543882571E-02 
514	 3,02768312862344E-02 
515	 3,02616723118815E-02 
516	 3,14596814342074E-02 
517	 3,23234730225396E-02 
518	 3,05154978562367E-02 
519	 3,05325073482218E-02 
520	 3,26448157958952E-02 
521	 3,34891022603926E-02 
522	 3,32589715819775E-02 
523	 0,032298422732459 
524	 3,24500597842815E-02 
525	 3,33093525951293E-02 
526	 3,32458220910772E-02 
527	 3,31012516673086E-02 
528	 3,31919325061364E-02 
529	 3,37818502269039E-02 
530	 3,41888662543831E-02 
531	 3,36447774968902E-02 
532	 3,41037075224131E-02 
533	 0,035326919770086 
534	 3,50866774264825E-02 
535	 0,034976485412356 
536	 0,035724235146047 
537	 3,51278020699348E-02 
538	 3,38781560277027E-02 
539	 3,36979445709369E-02 
540	 0,034022450511508 
541	 3,45433046632172E-02 
542	 3,46108366251584E-02 
543	 3,44644683887345E-02 
544	 3,43800730847154E-02 
545	 3,43038153627173E-02 
546	 0,034395048741636 
547	 3,51452364699179E-02 
548	 0,035676382900395 
549	 3,55809566383607E-02 
550	 3,53296814184623E-02 
551	 3,52548655157517E-02 
552	 3,57710643605278E-02 
553	 3,62841009340298E-02 
554	 3,65771596242867E-02 
555	 3,65972166678766E-02 
556	 3,65782987264751E-02 
557	 3,67161409430094E-02 
558	 3,68897166745713E-02 
559	 0,037033043361275 
560	 3,69681192752332E-02 
561	 3,73216270896736E-02 
562	 3,80430878436975E-02 
563	 3,72583635961043E-02 
564	 3,59434446734601E-02 
565	 3,55737075674394E-02 
566	 3,58947618848553E-02 
567	 3,65377643635341E-02 
568	 3,63199927347779E-02 
569	 3,63488094558921E-02 
570	 3,72840568400831E-02 
571	 3,74795873695531E-02 
572	 3,73630875093444E-02 
573	 3,84961375334981E-02 
574	 3,91934579224475E-02 
575	 3,90670502554544E-02 
576	 3,93664956011387E-02 
577	 4,00235848089461E-02 
578	 0,040840591181761 
579	 4,09434141232893E-02 
580	 4,07181593964424E-02 
581	 4,21679809138673E-02 
582	 0,043083042012244 
583	 4,24158769207024E-02 
584	 4,25867068619007E-02 
585	 4,32588504610733E-02 
586	 4,32682775529797E-02 
587	 4,32521780883373E-02 
588	 4,34242366543573E-02 
589	 4,38827177443288E-02 
590	 4,43819458906102E-02 
591	 4,46803425437745E-02 
592	 4,46933418851752E-02 
593	 4,46589994320085E-02 
594	 4,53268700640336E-02 
595	 0,04569195680429 
596	 4,53901650382188E-02 
597	 4,54266226154369E-02 
598	 0,045710997050312 
599	 4,59506824314153E-02 
600	 4,60015811530402E-02 
601	 4,57880386538767E-02 
602	 0,045222057692504 
603	 4,47871258316619E-02 
604	 4,48486929103702E-02 
605	 4,49781781790642E-02 
606	 4,50411124104279E-02 
607	 0,044909135085305 
608	 4,48195154302068E-02 
609	 4,48270609550763E-02 
610	 4,46893209391874E-02 
611	 4,44400951352524E-02 
612	 4,41469978677137E-02 
613	 4,39801476262159E-02 
614	 4,40080055699805E-02 
615	 4,43702994989623E-02 
616	 0,044357898315099 
617	 4,36005376659972E-02 
618	 4,31412512065829E-02 
619	 4,30584194733504E-02 
620	 4,31779262845614E-02 
621	 4,33244941819392E-02 
622	 4,34353391803192E-02 
623	 0,043646424317158 
624	 4,38220021930925E-02 
625	 4,38278512592456E-02 
626	 4,40143000034724E-02 
627	 4,42774178682618E-02 
628	 4,40835780083481E-02 
629	 4,38978136998794E-02 
630	 4,39741307024674E-02 
631	 4,42219637368364E-02 
632	 4,45644186693846E-02 
633	 4,48933153665358E-02 
634	 4,52720025269669E-02 
635	 4,57172489280174E-02 
636	 4,62337003074233E-02 
637	 4,67937393915288E-02 
638	 4,73629674274715E-02 
639	 4,78858614523275E-02 
640	 4,81837713444966E-02 
641	 4,77261843594165E-02 
642	 4,78656380088942E-02 
643	 4,88754643112519E-02 
644	 4,86444575278119E-02 
645	 4,81535485500204E-02 
646	 4,89118540083098E-02 
647	 0,049364713562579 
648	 4,93099649684449E-02 
649	 4,95178175556625E-02 
650	 4,95034826416535E-02 
651	 4,90459552100609E-02 
652	 4,93094623508144E-02 
653	 4,97186244396684E-02 
654	 4,87335455585577E-02 
655	 4,79314154949354E-02 
656	 4,76179376782094E-02 
657	 4,64553520899022E-02 
658	 4,53095942578162E-02 
659	 4,51158422654954E-02 
660	 4,49122690430472E-02 
661	 4,46209361133609E-02 
662	 4,47268138676549E-02 
663	 4,45218873761377E-02 
664	 4,37111823201811E-02 
665	 4,29471601950663E-02 
666	 4,24392808300711E-02 
667	 4,23770265811495E-02 
668	 4,22641168240873E-02 
669	 4,19893457726163E-02 
670	 4,17451024263305E-02 
671	 4,16701529563737E-02 
672	 4,18427158596018E-02 
673	 4,18727724602512E-02 
674	 4,17237499442643E-02 
675	 4,13998574897982E-02 
676	 4,15469988884158E-02 
677	 4,22356382685488E-02 
678	 0,042327979790153 
679	 4,21976786335844E-02 
680	 4,23985410168021E-02 
681	 4,25405239743683E-02 
682	 0,042684199781207 
683	 4,32633763626481E-02 
684	 4,39550391356326E-02 
685	 4,45509960010465E-02 
686	 4,49930045916405E-02 
687	 4,55858103348365E-02 
688	 4,68809834776299E-02 
689	 4,81676358484171E-02 
690	 4,93401537217122E-02 
691	 5,09516361251258E-02 
692	 5,27565402327755E-02 
693	 5,45547778355492E-02 
694	 5,70429733914004E-02 
695	 6,01656909739828E-02 
696	 0,063449971576528 
697	 6,68525490646279E-02 
698	 7,03031944851334E-02 
699	 7,36790853221714E-02 
700	 7,72598094614138E-02 
701	 8,13880707658819E-02 
702	 8,54244720952348E-02 
703	 8,92930170730627E-02 
704	 9,34125307911624E-02 
705	 9,72407788499344E-02 
706	 0,100488966244958 
707	 0,103892867463408 
708	 0,107326696495065 
709	 0,110342905655069 
710	 0,113180717640699 
711	 0,115961543507715 
712	 0,11887232380485 
713	 0,121690228651812 
714	 0,124188953410409 
715	 0,12620737665432 
716	 0,127942817248731 
717	 0,129997570570655 
718	 0,131880401880064 
719	 0,133426164139033 
720	 0,134952476612348 
721	 0,13631133361125 
722	 0,137287130178566 
723	 0,138388188002837 
724	 0,139642446656247 
725	 0,140690071948771 
726	 0,14162157725439 
727	 0,142448708954088 
728	 0,142809613731529 
729	 0,143073730012156 
730	 0,143949183169874 
731	 0,145005247999784 
732	 0,145987445145024 
733	 0,146459467107451 
734	 0,146779068063489 
735	 0,147269961592745 
736	 0,147721534727545 
737	 0,148127831642973 
738	 0,148599687089573 
739	 0,148798699341081 
740	 0,148700405970583 
741	 0,148904952402106 
742	 0,149366770225852 
743	 0,149961099051554 
744	 0,150270798841374 
745	 0,150294572700678 
746	 0,150356161888079 
747	 0,150518172241538 
748	 0,150823755998177 
749	 0,151206087208106 
750	 0,151633125429118 
751	 0,152077954911469 
752	 0,152447452818346 
753	 0,152647256874078 
754	 0,152437310447862 
755	 0,152294563903373 
756	 0,152556355815626 
757	 0,152849755227927 
758	 0,153127393725743 
759	 0,153451753888257 
760	 0,153503976351071 
761	 0,153329229196188 
762	 0,153671192035082 
763	 0,154028744153464 
764	 0,153934046393688 
765	 0,154149055094935 
766	 0,154640851933947 
767	 0,15500550300475 
768	 0,1550432560496 
769	 0,154767887965024 
770	 0,154831054267935 
771	 0,155122206387631 
772	 0,155433934954098 
773	 0,15558228084625 
774	 0,155607259879199 
775	 0,15581775246928 
776	 0,155952171627217 
777	 0,155909990571918 
778	 0,155963401584799 
779	 0,156152606520754 
780	 0,156490199420374 
781	 0,156667383587244 
782	 0,156647954933706 
783	 0,156635957418435 
784	 0,156717519643688 
785	 0,156906547087742 
786	 0,156708501355409 
787	 0,156581714398745 
788	 0,157479593924891 
789	 0,158082051881031 
790	 0,158075982794443 
791	 0,158041486508229 
792	 0,157970670163253 
793	 0,157876579768706 
794	 0,157974855878612 
795	 0,158270748100271 
796	 0,158754435267959 
797	 0,158773174071679 
798	 0,158319889098181 
799	 0,158538053657498 
800	 0,158965781451823 
801	 0,159123221658268 
802	 0,15933109290671 
803	 0,159511247567058 
804	 0,159275582708616 
805	 0,159369335553856 
806	 0,159928115617635 
807	 0,160016779983898 
808	 0,159998289854393 
809	 0,160298364021853 
810	 0,160012536680841 
811	 0,159532407532184 
812	 0,160488280355425 
813	 0,161240871937987 
814	 0,161167582402544 
815	 0,161170783476591 
816	 0,161120323976263 
817	 0,16079864488181 
818	 0,161051790535175 
819	 0,161723341588326 
820	 0,161749016532615 
821	 0,161792015342279 
822	 0,162080671411361 
823	 0,161998203357476 
824	 0,161823560472304 
825	 0,161979616975209 
826	 0,161996792716688 
827	 0,161912960431286 
828	 0,162206079973138 
829	 0,162495146998883 
830	 0,162566532240884 
831	 0,162421201740352 
832	 0,162364778876603 
833	 0,162800042600298 
834	 0,162762770957803 
835	 0,16231497118847 
836	 0,162429243621043 
837	 0,162882468632982 
838	 0,163451260441282 
839	 0,163506474280982 
840	 0,163181491671923 
841	 0,162778479075159 
842	 0,163080368553931 
843	 0,163761143680442 
844	 0,162922973133956 
845	 0,162575689754409 
846	 0,163559199062619 
847	 0,163372915364893 
848	 0,16273892037602 
849	 0,163054000839198 
850	 0,163304562010857 
851	 0,163295009612989 
852	 0,163181445312108 
853	 0,163252537004556 
854	 0,163617432233477 
855	 0,163843374937972 
856	 0,163847269433993 
857	 0,163598362358094 
858	 0,163434952760531 
859	 0,163442766300888 
860	 0,163565176254958 
861	 0,163693511663636 
862	 0,163735967409722 
863	 0,163545285843043 
864	 0,1633549128436 
865	 0,163477028140832 
866	 0,163648719444492 
867	 0,163702953175193 
868	 0,163270086186002 
869	 0,163219528710073 
870	 0,163842641653164 
871	 0,164122815072167 
872	 0,164128579940406 
873	 0,164058351313353 
874	 0,163490690869891 
875	 0,162895558567404 
876	 0,163893113479343 
877	 0,164459943610043 
878	 0,163934449642664 
879	 0,163952968319608 
880	 0,164236976972928 
881	 0,16436090809435 
882	 0,16456604298953 
883	 0,16487355096885 
884	 0,165252906297504 
885	 0,165619122451032 
886	 0,165840320413071 
887	 0,165545695176871 
888	 0,165054440093621 
889	 0,164690940764203 
890	 0,164172410020785 
891	 0,164050623060657 
892	 0,165665768574352 
893	 0,166686597092497 
894	 0,166579023343484 
895	 0,16691844874881 
896	 0,16699029578462 
897	 0,16631183667295 
898	 0,166101951409252 
899	 0,166206975805444 
900	 0,165982454237636 
901	 0,166058737453896 
902	 0,166471957845343 
903	 0,166723777027318 
904	 0,166832027101548 
905	 0,166826454116255 
906	 0,16685438354362 
907	 0,166937911087575 
908	 0,167073742484247 
909	 0,167012889289333 
910	 0,166805275702538 
911	 0,166901828972477 
912	 0,166527705265511 
913	 0,165520836478269 
914	 0,165019577424914 
915	 0,165579225034148 
916	 0,167503676654495 
917	 0,167456870771539 
918	 0,166235068917403 
919	 0,167783122718522 
920	 0,168867824770804 
921	 0,168511524602074 
922	 0,167623551649726 
923	 0,167066042096803 
924	 0,167464655781243 
925	 0,167805920030038 
926	 0,167774146317388 
927	 0,167120872914462 
928	 0,166682205350397 
929	 0,166712702124668 
930	 0,167125406388037 
931	 0,167384436359324 
932	 0,167157618789751 
933	 0,166498110222185 
934	 0,166293017974657 
935	 0,167569433064868 
936	 0,16759790661605 
937	 0,166810316061888 
938	 0,168385808465322 
939	 0,169175458043934 
940	 0,168185673251832 
941	 0,166939076638365 
942	 0,166080631497127 
943	 0,166099159775465 
944	 0,166729027370003 
945	 0,167103875841974 
946	 0,165721216697826 
947	 0,165351976801924 
948	 0,166288267948572 
949	 0,166462669010782 
950	 0,166417492890167 
951	 0,166290994387788 
952	 0,164927599683359 
953	 0,163650041094587 
954	 0,164113237939008 
955	 0,165007327027843 
956	 0,16542353601712 
957	 0,163733165727673 
958	 0,162697079773086 
959	 0,163101022590475 
960	 0,163477464109674 
961	 0,164007669623207 
962	 0,164606556932985 
963	 0,163091995843033 
964	 0,161506232980507 
965	 0,163333199816384 
966	 0,164474736256355 
967	 0,164357765673373 
968	 0,164627814591854 
969	 0,164489185801188 
970	 0,163905567005295 
971	 0,164233356645757 
972	 0,16507223208766 
973	 0,165809558136502 
974	 0,164816527001904 
975	 0,163453883797198 
976	 0,164603973152532 
977	 0,165900117888999 
978	 0,166248112311676 
979	 0,164161529276692 
980	 0,162862644657275 
981	 0,163814282138663 
982	 0,165077368754209 
983	 0,165615422151718 
984	 0,164755868954899 
985	 0,165223537033081 
986	 0,166787832163791 
987	 0,168113239166792 
988	 0,16712298091608 
989	 0,16448656239959 
990	 0,16514115476167 
991	 0,165025832083233 
992	 0,162903615164141 
993	 0,164989134277308 
994	 0,167457239652008 
995	 0,166046929747487 
996	 0,164941234901441 
997	 0,165824866718945 
998	 0,17057382889421 
999	 0,171157221100963 
1000	 0,167836107682553 
1001	 0,171015297228982 
1002	 0,171792599736319 
1003	 0,167244045834647 
1004	 0,16789536936581 
1005	 0,1708599879522 
1006	 0,172343936550382 
1007	 0,170903088347948 
1008	 0,168332631498012 
1009	 0,168317775052239 
1010	 0,169839301455271 
1011	 0,171591791238588 
1012	 0,169860895155492 
1013	 0,170021633558335 
1014	 0,173275251649822 
1015	 0,172614983968642 
1016	 0,171383267450372 
1017	 0,172465839451412 
1018	 0,172697062260399 
1019	 0,171612530481877 
1020	 0,169300214965323 
1021	 0,170105696397869 
1022	 0,17299290942617 
1023	 0,17188577006016 
1024	 0,170900683142032 
1025	 0,171419858392012 
1026	 0,172997856917611 
1027	 0,17487820056656 
1028	 0,17595289190812 
1029	 0,172288030715139 
1030	 0,169717478375684 
1031	 0,174700662919972 
1032	 0,175354489638284 
1033	 0,172578039381879 
1034	 0,173209635827013 
1035	 0,169471595752027 
1036	 0,163763039392965 
1037	 0,172202072615128 
1038	 0,176567352077214 
1039	 0,170802560602174 
1040	 0,171272396096257 
1041	 0,173772612775904 
1042	 0,174281656549435 
1043	 0,174933536854327 
1044	 0,177502765881683 
1045	 0,183548498363873 
1046	 0,181128472097349 
1047	 0,173558722821924 
1048	 0,174421900915129 
1049	 0,17581423890751 
1050	 0,175450771785664 
1051	 0,174305941977993 
1052	 0,17017021875485 
1053	 0,165205762417285 
1054	 0,176395308745375 
1055	 0,187465453216224 
1056	 0,183919063720629 
1057	 0,177749599895694 
1058	 0,171933565325424 
1059	 0,168096991894338 
1060	 0,173135740273503 
1061	 0,181445899967464 
1062	 0,178533457033704 
1063	 0,175530735202113 
1064	 0,176575252149162 
1065	 0,185749011323937 
1066	 0,18241964302311 
1067	 0,164386818310069 
1068	 0,175170716940668 
1069	 0,183689853856957 
1070	 0,169343423617636 
1071	 0,173466138437202 
1072	 0,184517240443974 
1073	 0,183077684586074 
1074	 0,175863182666649 
1075	 0,174716745310788 
