Wavelength	NEUF00780.asd
325	 0,360974097996999 
326	 0,412939910865222 
327	 0,339265636765611 
328	 0,200695321586234 
329	 0,179801373028667 
330	 0,226171808603597 
331	 0,35457383379444 
332	 0,40820747861445 
333	 0,373800608844151 
334	 0,366996123678688 
335	 0,416157544063287 
336	 0,488454636003257 
337	 0,266405040488193 
338	 4,23401831611009E-02 
339	 7,46549355661673E-02 
340	 0,146117509137301 
341	 0,215320685286943 
342	 0,249205287724347 
343	 0,238317402053873 
344	 0,196356575678291 
345	 0,201113121736588 
346	 0,221617320464863 
347	 0,218603336775175 
348	 0,178183235617638 
349	 0,119890700004375 
350	 0,114173103522073 
351	 0,130718045341717 
352	 0,147142846221085 
353	 0,119707731379325 
354	 8,39504006938077E-02 
355	 8,89523526346247E-02 
356	 0,104516720235663 
357	 0,119340074645549 
358	 0,121898943866988 
359	 0,131224739633706 
360	 0,155017709258046 
361	 0,171796840623898 
362	 0,173896435038425 
363	 0,15745795658245 
364	 0,153335187435045 
365	 0,164636540724875 
366	 0,170162301140929 
367	 0,175779842795625 
368	 0,181994468604414 
369	 0,160609781508198 
370	 0,130933203422709 
371	 0,124063781479923 
372	 0,140419909133624 
373	 0,164710383673117 
374	 0,136858660994841 
375	 0,109774236513677 
376	 0,122884351207246 
377	 0,126309850476634 
378	 0,124610854655999 
379	 0,145707406596737 
380	 0,15979147690769 
381	 0,161014975185141 
382	 0,179491479967501 
383	 0,179980452343177 
384	 0,131848780878688 
385	 0,132688578095175 
386	 0,168832669092589 
387	 0,151627433167201 
388	 0,146903087157329 
389	 0,170194615599014 
390	 0,160138491934092 
391	 0,135880844551169 
392	 0,126358297061246 
393	 0,135902127344021 
394	 0,152342606406524 
395	 0,136332112191506 
396	 0,127176427496055 
397	 0,141799695190841 
398	 0,142468140150672 
399	 0,134730647636366 
400	 0,1317746832753 
401	 0,134878811692014 
402	 0,143664792784399 
403	 0,157095546526367 
404	 0,160028958467386 
405	 0,144437210901369 
406	 0,136771208627915 
407	 0,13675031063872 
408	 0,13579475061398 
409	 0,135079168552148 
410	 0,133754706541009 
411	 0,127946451317778 
412	 0,123306567892872 
413	 0,125068822169298 
414	 0,131009829535378 
415	 0,136927288229399 
416	 0,133605280256891 
417	 0,132830307730075 
418	 0,138055283764749 
419	 0,138089290145236 
420	 0,136349160749366 
421	 0,138319331768378 
422	 0,135739942697785 
423	 0,130011609428494 
424	 0,13093485009488 
425	 0,134392877061089 
426	 0,137381867287628 
427	 0,138192710906342 
428	 0,136928716495112 
429	 0,134013735413651 
430	 0,133089480478532 
431	 0,13450490711293 
432	 0,133880944663991 
433	 0,133759464304629 
434	 0,136234580461854 
435	 0,135533889619231 
436	 0,133280757157207 
437	 0,136281659548368 
438	 0,139285941417735 
439	 0,139701474501717 
440	 0,135504345405268 
441	 0,13162071902532 
442	 0,134378642645802 
443	 0,135693466001808 
444	 0,134696650898636 
445	 0,135406841405087 
446	 0,136805997617362 
447	 0,138119510820324 
448	 0,138232456668798 
449	 0,137922524610795 
450	 0,138787708297452 
451	 0,141313890101548 
452	 0,144065370727471 
453	 0,140059576464036 
454	 0,136245501648326 
455	 0,13919426926058 
456	 0,141643752200618 
457	 0,142719722171621 
458	 0,144206148759088 
459	 0,144446886721685 
460	 0,142887547054497 
461	 0,140354622303896 
462	 0,138574861532466 
463	 0,13960828617892 
464	 0,142586071231074 
465	 0,145906997520745 
466	 0,145822023001949 
467	 0,142839196858232 
468	 0,13812371860534 
469	 0,138830436323006 
470	 0,142479440508063 
471	 0,141912817972912 
472	 0,14223078855999 
473	 0,14401608934536 
474	 0,142713128209896 
475	 0,140678184635246 
476	 0,14043103005594 
477	 0,140806489371829 
478	 0,14158576533858 
479	 0,143074589708441 
480	 0,1433932676445 
481	 0,141812422836514 
482	 0,140331652505824 
483	 0,138856949234361 
484	 0,136675303165201 
485	 0,138537327710453 
486	 0,143496197129497 
487	 0,143556915647881 
488	 0,141826522536485 
489	 0,140807857258255 
490	 0,139924394047985 
491	 0,139299948427067 
492	 0,139180531491054 
493	 0,139411781482467 
494	 0,139845268852189 
495	 0,140016589411519 
496	 0,140505517078174 
497	 0,141971997109116 
498	 0,141984390517584 
499	 0,14083303791535 
500	 0,141269925782926 
501	 0,141217541493204 
502	 0,139880599714255 
503	 0,140513384655378 
504	 0,142619387396524 
505	 0,144848570175242 
506	 0,144939694921128 
507	 0,143344040300275 
508	 0,14539939379492 
509	 0,147924391966336 
510	 0,147932245734968 
511	 0,148258085850895 
512	 0,148705780534048 
513	 0,147246953438253 
514	 0,146269851946284 
515	 0,146774236222139 
516	 0,147799365026963 
517	 0,148558681700302 
518	 0,14810416604607 
519	 0,14880261821318 
520	 0,150508689094752 
521	 0,150384737447583 
522	 0,150105166876315 
523	 0,150801017413821 
524	 0,150562239814602 
525	 0,149984773378003 
526	 0,151212518990495 
527	 0,151524561842406 
528	 0,150438207373798 
529	 0,150857445219423 
530	 0,151366938680505 
531	 0,150155571606276 
532	 0,149764816037036 
533	 0,1503444702628 
534	 0,15046521167045 
535	 0,150537319227819 
536	 0,150724697102881 
537	 0,150429273666702 
538	 0,149956436820928 
539	 0,149966877962098 
540	 0,1502345244425 
541	 0,15060018558157 
542	 0,150714542443477 
543	 0,150549831383636 
544	 0,150151566816159 
545	 0,150644880892103 
546	 0,151696137469438 
547	 0,151755570406246 
548	 0,151593022807384 
549	 0,151618782546296 
550	 0,152000220936763 
551	 0,152489157813087 
552	 0,152662583094243 
553	 0,152941676718037 
554	 0,153293013161504 
555	 0,153200762365113 
556	 0,152732323245941 
557	 0,152022280259255 
558	 0,151955947115176 
559	 0,152098608010939 
560	 0,150915541458422 
561	 0,149664561454511 
562	 0,149016549983187 
563	 0,149719807252172 
564	 0,150188142596796 
565	 0,14828421012544 
566	 0,147856146996394 
567	 0,149072661479283 
568	 0,148642297024938 
569	 0,148787461063524 
570	 0,150851923574902 
571	 0,151929964844494 
572	 0,152327037547281 
573	 0,153800367218057 
574	 0,154787825946361 
575	 0,155093427722814 
576	 0,15646590993702 
577	 0,158520349073918 
578	 0,160656246285803 
579	 0,162027456375628 
580	 0,162791113913908 
581	 0,164155207999724 
582	 0,16562030664946 
583	 0,166924422951709 
584	 0,168285242606948 
585	 0,169484336881403 
586	 0,170141567794947 
587	 0,170363699725387 
588	 0,170427133421117 
589	 0,171290642880718 
590	 0,172190894397603 
591	 0,172437198298025 
592	 0,173442223926678 
593	 0,174883430968409 
594	 0,175210580481562 
595	 0,175187031846559 
596	 0,175209762012312 
597	 0,175475436062932 
598	 0,175849281770799 
599	 0,176094168120775 
600	 0,176117273389424 
601	 0,17581915620396 
602	 0,174973030549496 
603	 0,174111038787565 
604	 0,173661383326265 
605	 0,173421370368415 
606	 0,17317047356208 
607	 0,172405952734368 
608	 0,172026356144781 
609	 0,172090708389166 
610	 0,170859364316481 
611	 0,169257623373938 
612	 0,168587485329901 
613	 0,168183462534156 
614	 0,167941375239638 
615	 0,168162180295258 
616	 0,167824652528363 
617	 0,166399839108667 
618	 0,165392048980234 
619	 0,164979783250223 
620	 0,165043048639191 
621	 0,16514953033292 
622	 0,165094766772999 
623	 0,164782499553289 
624	 0,164737921842478 
625	 0,165471929726362 
626	 0,166152068776598 
627	 0,166508179216514 
628	 0,166346117085846 
629	 0,166212992223638 
630	 0,166420160244012 
631	 0,166720699798378 
632	 0,167409970301962 
633	 0,169061009740196 
634	 0,169778796107717 
635	 0,169540246106278 
636	 0,170733645827693 
637	 0,172359345061265 
638	 0,173510370859743 
639	 0,1746269818374 
640	 0,175649721049398 
641	 0,176257359021684 
642	 0,176979620665889 
643	 0,177966532246725 
644	 0,178770088203293 
645	 0,179085014561829 
646	 0,178583388429873 
647	 0,178743624712626 
648	 0,179479809259821 
649	 0,179106833979358 
650	 0,178390865437714 
651	 0,177813072460155 
652	 0,176842564018536 
653	 0,175530929681085 
654	 0,174122899511273 
655	 0,172454816046016 
656	 0,170573355706209 
657	 0,168932653337411 
658	 0,167067570902733 
659	 0,164516955501065 
660	 0,162697072465305 
661	 0,161607412850192 
662	 0,160420207355638 
663	 0,158647967810473 
664	 0,156245506315938 
665	 0,154961030232231 
666	 0,154223290514402 
667	 0,152805296773917 
668	 0,151675750379424 
669	 0,150969895833987 
670	 0,150084194732398 
671	 0,149502092589331 
672	 0,149525587212076 
673	 0,148773602888117 
674	 0,147713707663547 
675	 0,148083922197442 
676	 0,14840982164607 
677	 0,148199363383336 
678	 0,14792921681464 
679	 0,14785233846777 
680	 0,148217024906118 
681	 0,148867309083123 
682	 0,149711343533216 
683	 0,150535112769877 
684	 0,15176451514673 
685	 0,153573457413013 
686	 0,155045500077838 
687	 0,156799938569293 
688	 0,160111542676642 
689	 0,163876797081527 
690	 0,167873068957137 
691	 0,172516334853534 
692	 0,178207454509118 
693	 0,185222833508249 
694	 0,192566797429348 
695	 0,200559676017569 
696	 0,210492912738227 
697	 0,221123693216351 
698	 0,231955204724046 
699	 0,243501413548308 
700	 0,255496210798115 
701	 0,267488452033478 
702	 0,280239704584958 
703	 0,293588606784732 
704	 0,306571069785133 
705	 0,31885775163063 
706	 0,330278644345716 
707	 0,341578708897564 
708	 0,352655021793118 
709	 0,363095240022014 
710	 0,372722788174349 
711	 0,381612365623398 
712	 0,390342878276646 
713	 0,398867426196272 
714	 0,407066346699021 
715	 0,41407603222684 
716	 0,420177340900509 
717	 0,426591897803655 
718	 0,432547335710364 
719	 0,437732752012823 
720	 0,442133935406304 
721	 0,446340855835621 
722	 0,451100242216379 
723	 0,455133630712496 
724	 0,458324309839893 
725	 0,461368660372214 
726	 0,464310856326409 
727	 0,467141007440341 
728	 0,469478106823723 
729	 0,471513845380587 
730	 0,473652189514842 
731	 0,475818434190129 
732	 0,477943201977819 
733	 0,479885692131902 
734	 0,48131673222593 
735	 0,482020456172509 
736	 0,482884207488026 
737	 0,484046491665646 
738	 0,485429082526022 
739	 0,486518959836909 
740	 0,487192400085372 
741	 0,488122347457097 
742	 0,489041720573556 
743	 0,489590135504031 
744	 0,490190962805403 
745	 0,490824330624075 
746	 0,491089617297563 
747	 0,491413238606781 
748	 0,492016789469368 
749	 0,492717943995772 
750	 0,493288589854883 
751	 0,493408235862779 
752	 0,493793594914857 
753	 0,494496658962861 
754	 0,494939611781722 
755	 0,495106114751371 
756	 0,495050731835594 
757	 0,495330630185315 
758	 0,49595257771602 
759	 0,496794756678921 
760	 0,497156344205491 
761	 0,496971943122687 
762	 0,497242514981901 
763	 0,497561803419434 
764	 0,497529028258392 
765	 0,497708441128534 
766	 0,498100278976333 
767	 0,498431232974223 
768	 0,498745498461519 
769	 0,499031511206126 
770	 0,499164878711652 
771	 0,499407435058004 
772	 0,500056016218614 
773	 0,500165141882207 
774	 0,49985848477272 
775	 0,500200682187699 
776	 0,500622728615793 
777	 0,500783947539412 
778	 0,500416509282546 
779	 0,500160621686625 
780	 0,500980911266178 
781	 0,50152886275585 
782	 0,501490535276391 
783	 0,501130278439403 
784	 0,501013119692759 
785	 0,50145446887613 
786	 0,50165236577261 
787	 0,501634485779279 
788	 0,501656284966772 
789	 0,501796754026047 
790	 0,502074500143707 
791	 0,502487823501059 
792	 0,502508480452742 
793	 0,501851483611884 
794	 0,50216525455505 
795	 0,50304741114375 
796	 0,503075551413824 
797	 0,502731735435918 
798	 0,50230272946181 
799	 0,502394080943566 
800	 0,502815761843073 
801	 0,503316029003569 
802	 0,503461724686711 
803	 0,503309641356897 
804	 0,503166669715622 
805	 0,503499292523173 
806	 0,504293047230622 
807	 0,504322094585105 
808	 0,504227483668016 
809	 0,504743311835644 
810	 0,504679266928889 
811	 0,504250889504774 
812	 0,504728093813137 
813	 0,505271531592367 
814	 0,505487621063155 
815	 0,505277866441991 
816	 0,50511082444032 
817	 0,505536099107847 
818	 0,505956242390556 
819	 0,506298025720543 
820	 0,506836132752476 
821	 0,507109634605368 
822	 0,506956596731837 
823	 0,506811014295085 
824	 0,507038745286304 
825	 0,50801265195453 
826	 0,508024303111882 
827	 0,507280796641714 
828	 0,507858450291919 
829	 0,508382938801819 
830	 0,50820471023206 
831	 0,508020922697326 
832	 0,508011197821186 
833	 0,508310490042918 
834	 0,508720439986782 
835	 0,509047456022002 
836	 0,508869360105662 
837	 0,508745509948934 
838	 0,508962663340135 
839	 0,509211798503907 
840	 0,509239912484904 
841	 0,508754109156199 
842	 0,508832088322535 
843	 0,509408152904304 
844	 0,509273684170292 
845	 0,509166734500155 
846	 0,509443740846773 
847	 0,509556465720883 
848	 0,509697917502312 
849	 0,510213962487625 
850	 0,510591503033698 
851	 0,510647572025543 
852	 0,510258428366819 
853	 0,509921385561933 
854	 0,509896457920368 
855	 0,509798574453197 
856	 0,509777190991397 
857	 0,510083057846984 
858	 0,509979534671702 
859	 0,509586419203254 
860	 0,509884010092583 
861	 0,510278210011846 
862	 0,510467707198217 
863	 0,510651789903366 
864	 0,5107716705321 
865	 0,51074101721997 
866	 0,51097021523283 
867	 0,511411184281542 
868	 0,511666723760565 
869	 0,511531724694952 
870	 0,511116686179925 
871	 0,511803625843205 
872	 0,51259422971022 
873	 0,512175789054048 
874	 0,511695648289642 
875	 0,511621364084395 
876	 0,51261182725151 
877	 0,513027567281692 
878	 0,512424622920069 
879	 0,512794391383487 
880	 0,513302728691224 
881	 0,512939660922218 
882	 0,512825287715609 
883	 0,513056172550376 
884	 0,513343465395388 
885	 0,513288380585707 
886	 0,512865489564468 
887	 0,512838338651152 
888	 0,51301529011115 
889	 0,51316964669978 
890	 0,513348562719906 
891	 0,513547391786445 
892	 0,513793746455798 
893	 0,513695259584478 
894	 0,513386817829769 
895	 0,514096400380675 
896	 0,514608155673976 
897	 0,514048989548975 
898	 0,513994556775969 
899	 0,514137909804383 
900	 0,513461974657741 
901	 0,513468661721058 
902	 0,514313939679649 
903	 0,514941954645399 
904	 0,515153632455436 
905	 0,5149289034665 
906	 0,515194209314341 
907	 0,51555494812306 
908	 0,515291882132495 
909	 0,515218618944462 
910	 0,515370611232762 
911	 0,515268783375536 
912	 0,514726481223354 
913	 0,514017097431755 
914	 0,515379059338152 
915	 0,51662870761169 
916	 0,515299451419806 
917	 0,514768867909278 
918	 0,515274018264933 
919	 0,515649351308578 
920	 0,515807084777508 
921	 0,515670283891113 
922	 0,515431858581493 
923	 0,514848997565653 
924	 0,513850904649314 
925	 0,513707979526141 
926	 0,514165583626257 
927	 0,514401658215082 
928	 0,514307194893938 
929	 0,513903612449856 
930	 0,513614265482913 
931	 0,512887135767323 
932	 0,511660620439145 
933	 0,51172767648962 
934	 0,51229685840682 
935	 0,512101172399206 
936	 0,511567038668702 
937	 0,511046429515762 
938	 0,511373978367222 
939	 0,511173691232557 
940	 0,510211333038947 
941	 0,510277038811905 
942	 0,510275864751675 
943	 0,509264424155817 
944	 0,508863734930987 
945	 0,508677677486919 
946	 0,507497294512141 
947	 0,506194762965539 
948	 0,505275477391757 
949	 0,505586015440552 
950	 0,505671695213648 
951	 0,504790876904242 
952	 0,504231054376394 
953	 0,503615218967623 
954	 0,502371039784967 
955	 0,501233804688458 
956	 0,500130283550091 
957	 0,498202114285691 
958	 0,49806136816576 
959	 0,499755708941495 
960	 0,498954101951892 
961	 0,498240488679371 
962	 0,499363652707731 
963	 0,49886729967213 
964	 0,49720646429195 
965	 0,495827102226266 
966	 0,49627014584387 
967	 0,497919118642625 
968	 0,497676726157223 
969	 0,496436844028191 
970	 0,495034896374789 
971	 0,495806013348053 
972	 0,496781443808389 
973	 0,496040599924535 
974	 0,494329109593147 
975	 0,493505533902506 
976	 0,496597155305879 
977	 0,498168103332736 
978	 0,497464875324946 
979	 0,49774598138508 
980	 0,497252743012576 
981	 0,49563993516611 
982	 0,495777018726895 
983	 0,496827667269651 
984	 0,497667209439816 
985	 0,498280298335043 
986	 0,498611195094154 
987	 0,49871161050554 
988	 0,497919255995295 
989	 0,496688225286845 
990	 0,496979688269802 
991	 0,498589202157634 
992	 0,501003889381725 
993	 0,502388331570061 
994	 0,502380067001148 
995	 0,500970588029181 
996	 0,499824350059216 
997	 0,500359125509496 
998	 0,504620276832049 
999	 0,506039596271086 
1000	 0,504154186657855 
1001	 0,504912396406372 
1002	 0,505582867865177 
1003	 0,505297595672092 
1004	 0,507037999269822 
1005	 0,509207473420724 
1006	 0,510075864561472 
1007	 0,510349657519885 
1008	 0,509932646160558 
1009	 0,508503906604888 
1010	 0,508210809977605 
1011	 0,509049452847265 
1012	 0,508247589983658 
1013	 0,511453539575561 
1014	 0,518347401461663 
1015	 0,514482676362374 
1016	 0,508667049121455 
1017	 0,509072597784064 
1018	 0,513066005179825 
1019	 0,515965429596709 
1020	 0,51170276572767 
1021	 0,512852294585864 
1022	 0,519333802778359 
1023	 0,522620542979765 
1024	 0,521729808355808 
1025	 0,517391372483715 
1026	 0,515408324353313 
1027	 0,514692013948051 
1028	 0,514881352768821 
1029	 0,518736849658719 
1030	 0,523682714157149 
1031	 0,526223072313942 
1032	 0,522344734008265 
1033	 0,516464758712404 
1034	 0,518706922102056 
1035	 0,521518236427925 
1036	 0,523647823079743 
1037	 0,528768879567359 
1038	 0,531075548576611 
1039	 0,528655414774858 
1040	 0,527503745858857 
1041	 0,52430867908328 
1042	 0,518021057425529 
1043	 0,524314677912877 
1044	 0,534825608224206 
1045	 0,535114870412138 
1046	 0,529305089030665 
1047	 0,522499763938063 
1048	 0,52408353247349 
1049	 0,525912208790821 
1050	 0,526683056253712 
1051	 0,532044098107999 
1052	 0,534908447416717 
1053	 0,532308283318261 
1054	 0,529025750908541 
1055	 0,530221816827743 
1056	 0,538651713574231 
1057	 0,539749574073714 
1058	 0,536644583508861 
1059	 0,536769807550057 
1060	 0,537828134223411 
1061	 0,539722930891428 
1062	 0,543696176875211 
1063	 0,538518266287651 
1064	 0,527865389580324 
1065	 0,537276765618447 
1066	 0,544218155868756 
1067	 0,540128518040517 
1068	 0,539871463839977 
1069	 0,540746823223929 
1070	 0,539858092229032 
1071	 0,534191598779383 
1072	 0,531642627570137 
1073	 0,540619288351768 
1074	 0,5380867418888 
1075	 0,530449879090324 
