Wavelength	NEUF00616.asd
325	 7,76570757486788E-02 
326	-2,67554266137406E-02 
327	-7,67302647187256E-02 
328	-3,74898390505609E-02 
329	 5,3929139095244E-03 
330	 6,38195490161811E-02 
331	 0,158663135624565 
332	 0,181062051434186 
333	 0,120818439279994 
334	 3,58342574693419E-03 
335	 3,55335334460788E-02 
336	 0,231388660276361 
337	 0,075770288691715 
338	-0,10300055936404 
339	-1,41187501362814E-03 
340	 4,82380525481001E-02 
341	 4,06445251532283E-02 
342	 5,38013117987585E-02 
343	 8,21218454964017E-02 
344	 0,11785579760783 
345	 6,52195097280968E-02 
346	 1,18906695892892E-02 
347	 4,11227650671159E-02 
348	 3,69493480280652E-02 
349	 1,28249311540197E-03 
350	-3,0377730131617E-03 
351	 2,46168276794795E-02 
352	 6,86075383769834E-02 
353	 6,05903659602814E-02 
354	 2,61832963148086E-02 
355	 4,01564053622869E-03 
356	 2,68528570470167E-02 
357	 7,10535554474848E-02 
358	 5,71124848635966E-02 
359	 4,07849929245523E-02 
360	 4,50090387639571E-02 
361	 6,07182077340271E-02 
362	 6,13222343150721E-02 
363	 1,24818553252594E-02 
364	 1,69445379627326E-02 
365	 0,067593638492003 
366	 5,54502115806953E-02 
367	 2,65493063546775E-02 
368	 1,06689611385854E-02 
369	 2,30297464611575E-02 
370	 4,50692329203068E-02 
371	 4,50983577073387E-02 
372	 3,81468381283866E-02 
373	 3,08265602621606E-02 
374	 3,09990859095634E-02 
375	 3,77157266569656E-02 
376	 4,85063680178817E-02 
377	 4,65801583145683E-02 
378	 0,040403729369049 
379	 0,054610812722038 
380	 6,28425639434716E-02 
381	 5,91119891448086E-02 
382	 6,07292125684621E-02 
383	 6,08037664353773E-02 
384	 5,26119249132367E-02 
385	 4,87830716564827E-02 
386	 4,99476456849529E-02 
387	 5,11523982252375E-02 
388	 4,79554721312736E-02 
389	 4,01184957881093E-02 
390	 3,61628116944923E-02 
391	 3,44917492523615E-02 
392	 3,27616896320889E-02 
393	 3,54655201376561E-02 
394	 4,03739364031749E-02 
395	 3,67986411498406E-02 
396	 4,32097579046911E-02 
397	 6,39695547343195E-02 
398	 6,61736068430016E-02 
399	 5,49402935208095E-02 
400	 4,16662356847394E-02 
401	 0,036857950317371 
402	 4,30719053792519E-02 
403	 5,79465248461032E-02 
404	 6,76539340856529E-02 
405	 6,30872296848963E-02 
406	 5,40159991907744E-02 
407	 4,46765565479142E-02 
408	 3,88206920761694E-02 
409	 4,16297701577533E-02 
410	 5,01706345385723E-02 
411	 0,044281468597431 
412	 3,65793517428268E-02 
413	 3,93920168596965E-02 
414	 4,30304815446068E-02 
415	 0,045265091212917 
416	 0,044814472090432 
417	 4,69349736537778E-02 
418	 5,19884282749951E-02 
419	 0,047359365301825 
420	 4,27451173508323E-02 
421	 5,11917543157635E-02 
422	 5,17464416202962E-02 
423	 4,38660410632339E-02 
424	 4,09351894291537E-02 
425	 4,26786090273798E-02 
426	 4,81477923858502E-02 
427	 5,10950147172475E-02 
428	 5,05670833460075E-02 
429	 4,60562430646268E-02 
430	 4,65237474390332E-02 
431	 5,23495839157637E-02 
432	 5,24190786860408E-02 
433	 5,00835829406382E-02 
434	 4,88820347205274E-02 
435	 5,00423690612942E-02 
436	 5,23865744212935E-02 
437	 5,21111449725145E-02 
438	 5,26351482820742E-02 
439	 5,44574301287889E-02 
440	 5,21459249796726E-02 
441	 4,92780598189027E-02 
442	 5,08965520493688E-02 
443	 0,050981607907901 
444	 4,94264143890749E-02 
445	 5,07796755937795E-02 
446	 5,26936862215824E-02 
447	 5,38554008090729E-02 
448	 5,63788904255051E-02 
449	 5,87433409694954E-02 
450	 5,76031183886475E-02 
451	 5,74596369221832E-02 
452	 5,88446867802717E-02 
453	 5,72728894358464E-02 
454	 5,56191075934744E-02 
455	 5,65351856371699E-02 
456	 0,054590596660282 
457	 5,15012435692266E-02 
458	 5,46548568613382E-02 
459	 0,05725589796363 
460	 5,66473081007884E-02 
461	 5,58137790880012E-02 
462	 0,055076889907059 
463	 5,44641403693066E-02 
464	 5,55570631728664E-02 
465	 0,058122040956845 
466	 6,06574094111616E-02 
467	 0,059774473566043 
468	 5,43058449203222E-02 
469	 5,51837862432928E-02 
470	 5,96465023020501E-02 
471	 5,87667486058454E-02 
472	 0,059563514848025 
473	 6,27276800395608E-02 
474	 6,15514468655642E-02 
475	 0,058266862405308 
476	 5,55728317101818E-02 
477	 5,63160642197695E-02 
478	 5,95744708319256E-02 
479	 6,16113223939236E-02 
480	 6,09140410631168E-02 
481	 5,75836126007603E-02 
482	 5,84773419607362E-02 
483	 0,060489275486096 
484	 5,77926000257954E-02 
485	 6,00258102293398E-02 
486	 6,65827217157044E-02 
487	 6,59273255013116E-02 
488	 6,24335303351869E-02 
489	 5,99272616318085E-02 
490	 6,07125677262847E-02 
491	 6,36045775452533E-02 
492	 6,53108223634831E-02 
493	 6,46510892699781E-02 
494	 6,21533074448942E-02 
495	 6,39103065089787E-02 
496	 6,59921238022778E-02 
497	 6,35842657618738E-02 
498	 6,29578569530961E-02 
499	 6,47512871991709E-02 
500	 6,65529451099373E-02 
501	 6,74996117134243E-02 
502	 6,71665322467466E-02 
503	 6,68911471746514E-02 
504	 6,70606886958764E-02 
505	 6,80561069960884E-02 
506	 6,83180972010053E-02 
507	 6,76279457183002E-02 
508	 6,72690634082114E-02 
509	 6,72237275096708E-02 
510	 6,74461347726114E-02 
511	 0,068561104052445 
512	 6,96454511340846E-02 
513	 6,79209762484792E-02 
514	 6,68768852938186E-02 
515	 6,79556978873236E-02 
516	 6,96728952432044E-02 
517	 7,10261293514807E-02 
518	 7,09080277173277E-02 
519	 7,06256608995321E-02 
520	 7,06964897683986E-02 
521	 7,14984996085079E-02 
522	 7,24899041968002E-02 
523	 7,31954627220369E-02 
524	 7,30576160660541E-02 
525	 7,25662022963962E-02 
526	 7,29248827238247E-02 
527	 7,36859576588413E-02 
528	 7,45892743226744E-02 
529	 7,51586260791723E-02 
530	 7,52106514291271E-02 
531	 7,46140604309618E-02 
532	 7,48061449409001E-02 
533	 7,58135733337517E-02 
534	 7,66291487538161E-02 
535	 7,71754805800674E-02 
536	 7,73428910779995E-02 
537	 7,67929317215462E-02 
538	 0,076173614078637 
539	 7,66782135852597E-02 
540	 7,75346082329492E-02 
541	 7,82692917763505E-02 
542	 7,78740341638994E-02 
543	 7,77716021391224E-02 
544	 7,92893032192154E-02 
545	 7,98756003870604E-02 
546	 7,96236287067819E-02 
547	 8,03729018841638E-02 
548	 8,08599768959175E-02 
549	 8,06260893583229E-02 
550	 8,08720980054645E-02 
551	 8,13985209912107E-02 
552	 8,16763020493576E-02 
553	 8,20646282322215E-02 
554	 8,26645082758434E-02 
555	 8,36984731947843E-02 
556	 8,38951233632998E-02 
557	 8,24336319108716E-02 
558	 8,29272237409419E-02 
559	 8,47404725321187E-02 
560	 8,46409036928855E-02 
561	 8,42427265780531E-02 
562	 8,41626906144826E-02 
563	 8,43403300606175E-02 
564	 8,44510624401222E-02 
565	 8,40600976557134E-02 
566	 8,43508585757291E-02 
567	 8,53023037801167E-02 
568	 8,57466008513859E-02 
569	 8,60045193670576E-02 
570	 0,086312395654228 
571	 8,67313999552198E-02 
572	 8,71596427080052E-02 
573	 8,72951571356292E-02 
574	 8,77470374981729E-02 
575	 0,088547642340028 
576	 8,85893076318265E-02 
577	 8,86841246585446E-02 
578	 8,97886661523346E-02 
579	 9,00464365593506E-02 
580	 8,95298940244994E-02 
581	 8,98618954991984E-02 
582	 9,02090277682625E-02 
583	 0,09016541284675 
584	 9,03847258110824E-02 
585	 9,07102152748085E-02 
586	 9,07104262261314E-02 
587	 9,08466788679336E-02 
588	 9,12567290269349E-02 
589	 9,19447564686076E-02 
590	 9,23880827536697E-02 
591	 9,21309437276139E-02 
592	 9,17934158814333E-02 
593	 9,16597295518163E-02 
594	 9,20094594067853E-02 
595	 9,28730907559465E-02 
596	 9,40241490941641E-02 
597	 9,40306402748742E-02 
598	 9,35031539466955E-02 
599	 9,35795185302916E-02 
600	 9,37993809954055E-02 
601	 9,38947922274687E-02 
602	 9,31227688522414E-02 
603	 9,28910135991824E-02 
604	 9,41548707314581E-02 
605	 9,43900185388269E-02 
606	 9,37975397718112E-02 
607	 9,39318631373602E-02 
608	 9,43407145741238E-02 
609	 9,47027359531156E-02 
610	 9,39276386641489E-02 
611	 0,093132784901227 
612	 9,37795173724378E-02 
613	 9,43538037758267E-02 
614	 9,45194384862975E-02 
615	 9,44964867979481E-02 
616	 9,45468603618278E-02 
617	 9,47607646885779E-02 
618	 0,094197300917949 
619	 9,35309962103805E-02 
620	 9,43966676623259E-02 
621	 9,48498674792556E-02 
622	 9,44091116282182E-02 
623	 9,40848406295743E-02 
624	 0,094056263466059 
625	 9,44294992708881E-02 
626	 9,48041134393314E-02 
627	 9,50140174217076E-02 
628	 9,48465731237268E-02 
629	 9,49221126940688E-02 
630	 9,54455905285931E-02 
631	 9,52680793529243E-02 
632	 9,49953983484078E-02 
633	 9,58286523796099E-02 
634	 9,64283491740213E-02 
635	 9,65676000084298E-02 
636	 0,097062174652538 
637	 9,75841828537143E-02 
638	 9,78298049472576E-02 
639	 9,78139958884695E-02 
640	 9,76574360440895E-02 
641	 0,097627765290265 
642	 9,76768747547584E-02 
643	 9,77802960066351E-02 
644	 9,78407086832207E-02 
645	 0,097881785972247 
646	 9,79465324651484E-02 
647	 9,81485255783539E-02 
648	 9,84370204903109E-02 
649	 9,85031920324783E-02 
650	 9,87363558336504E-02 
651	 9,92917324858112E-02 
652	 9,91139256212377E-02 
653	 9,84087830741161E-02 
654	 0,097855467100719 
655	 9,76845209183569E-02 
656	 9,78291070759296E-02 
657	 9,74015288923571E-02 
658	 9,67360163179834E-02 
659	 9,62419915418487E-02 
660	 9,59314670571122E-02 
661	 9,58853670066341E-02 
662	 9,63805797140062E-02 
663	 9,64638810029436E-02 
664	 9,57738645254003E-02 
665	 9,56201915790176E-02 
666	 9,56722829685683E-02 
667	 9,51603914998088E-02 
668	 9,48736047183739E-02 
669	 9,49077256019942E-02 
670	 9,46919467662596E-02 
671	 9,45701547504877E-02 
672	 9,47887912257871E-02 
673	 9,47365973396049E-02 
674	 9,45533527383122E-02 
675	 9,48114140433279E-02 
676	 9,52341300870844E-02 
677	 9,56566098402138E-02 
678	 9,57707771517786E-02 
679	 9,57641829052027E-02 
680	 9,58931376920015E-02 
681	 9,63319129227345E-02 
682	 9,70402289178701E-02 
683	 9,77960033805198E-02 
684	 9,82896957871864E-02 
685	 9,83807788616063E-02 
686	 9,85255631454276E-02 
687	 9,89716493738142E-02 
688	 0,100023219383183 
689	 0,101130472967848 
690	 0,102044511467466 
691	 0,1025526039551 
692	 0,103222085052416 
693	 0,104533006776342 
694	 0,105710859528674 
695	 0,106874464902232 
696	 0,108693095261195 
697	 0,11065986537135 
698	 0,112617954939313 
699	 0,115059829613315 
700	 0,1173717526908 
701	 0,118721124995514 
702	 0,120626373637483 
703	 0,123248547569498 
704	 0,125812504794472 
705	 0,128084106009799 
706	 0,129898371257244 
707	 0,131340265558997 
708	 0,132775815348851 
709	 0,134833940149079 
710	 0,136789859063621 
711	 0,138397292019868 
712	 0,139696849120017 
713	 0,140972756300425 
714	 0,142460630141854 
715	 0,143583741785676 
716	 0,144491309008136 
717	 0,145884479892452 
718	 0,147139617056435 
719	 0,148030662952209 
720	 0,148847391388734 
721	 0,149766040126944 
722	 0,150973849207205 
723	 0,151646418899157 
724	 0,151876097576798 
725	 0,152667780958735 
726	 0,153564541140173 
727	 0,154240286941497 
728	 0,15447266625751 
729	 0,154620070249673 
730	 0,155366047315797 
731	 0,156165450263515 
732	 0,156815205702613 
733	 0,157238232176543 
734	 0,157592936314061 
735	 0,158016771297916 
736	 0,158379978467779 
737	 0,158680259846933 
738	 0,15898149855557 
739	 0,159137902495518 
740	 0,159193641497096 
741	 0,159663059055487 
742	 0,160332346064335 
743	 0,160900398579726 
744	 0,161144066808538 
745	 0,161133378600239 
746	 0,16124850265855 
747	 0,161481235119561 
748	 0,161820446686084 
749	 0,162082403615443 
750	 0,162460584725163 
751	 0,163287189350892 
752	 0,164103854070969 
753	 0,164578218304145 
754	 0,164043713442281 
755	 0,163530855958108 
756	 0,163805020258482 
757	 0,164410281894835 
758	 0,165041064592505 
759	 0,165302935321136 
760	 0,164962875976996 
761	 0,164319216810082 
762	 0,165089851857483 
763	 0,166108321350567 
764	 0,166215591037431 
765	 0,166180424018929 
766	 0,166148488724816 
767	 0,166056056727492 
768	 0,166320356573202 
769	 0,166976317311231 
770	 0,1671598943775 
771	 0,167158065657729 
772	 0,167394466430719 
773	 0,167576313149362 
774	 0,167725001535229 
775	 0,16810640766808 
776	 0,168417850351375 
777	 0,168506664765921 
778	 0,168490101711247 
779	 0,168587162579768 
780	 0,169095599036853 
781	 0,169244340530461 
782	 0,169012148010058 
783	 0,169074911772386 
784	 0,169419173091326 
785	 0,169960694616487 
786	 0,170051084496049 
787	 0,169944586518219 
788	 0,17026237387006 
789	 0,170652755740039 
790	 0,170981135756843 
791	 0,171173633187922 
792	 0,171187948864847 
793	 0,171037777725429 
794	 0,171169509840659 
795	 0,17152434745678 
796	 0,171845668506417 
797	 0,171800581904946 
798	 0,171487371932824 
799	 0,171968522025604 
800	 0,172690509091216 
801	 0,173063369611901 
802	 0,173014033086947 
803	 0,172749843200647 
804	 0,172832075492225 
805	 0,172967185694967 
806	 0,173100144660402 
807	 0,173475833583904 
808	 0,173828579776894 
809	 0,173871183826805 
810	 0,173852960658423 
811	 0,173909334096588 
812	 0,174265717161076 
813	 0,174586456745954 
814	 0,174678639142877 
815	 0,174387258277502 
816	 0,174074325577827 
817	 0,174177293775923 
818	 0,174569801757451 
819	 0,175046448497924 
820	 0,175127918043859 
821	 0,175053202921622 
822	 0,174993550582848 
823	 0,175234097591102 
824	 0,175616210447033 
825	 0,175892814873575 
826	 0,175805880547156 
827	 0,175548694700751 
828	 0,175913123525198 
829	 0,176466018596091 
830	 0,17686431098734 
831	 0,176491694591948 
832	 0,17591338899308 
833	 0,175980450802966 
834	 0,176071562097629 
835	 0,176138592431253 
836	 0,176525178806366 
837	 0,176912911982578 
838	 0,1770779630518 
839	 0,176834880776698 
840	 0,17647440316962 
841	 0,176420209278117 
842	 0,17688124657429 
843	 0,177606630533384 
844	 0,177640613861689 
845	 0,177472194145212 
846	 0,177348428773164 
847	 0,176905553719877 
848	 0,176707635618113 
849	 0,177561740812904 
850	 0,177930239217224 
851	 0,177618358494224 
852	 0,177428207751899 
853	 0,177156146164329 
854	 0,176781537313556 
855	 0,17671944457799 
856	 0,177006033724032 
857	 0,177611584844646 
858	 0,177813971849274 
859	 0,177614442414354 
860	 0,17764244379194 
861	 0,177896897069973 
862	 0,178299293504909 
863	 0,178237555315784 
864	 0,178089648571885 
865	 0,178419039300284 
866	 0,178480731204632 
867	 0,178194279935994 
868	 0,177806538061739 
869	 0,177706336914085 
870	 0,178065878053302 
871	 0,178596404132828 
872	 0,178953931575024 
873	 0,178784643554353 
874	 0,17843409035916 
875	 0,178197274372758 
876	 0,17869417768757 
877	 0,178882704878372 
878	 0,178451980187975 
879	 0,178382296305551 
880	 0,178704879791124 
881	 0,179308814001798 
882	 0,179016750056697 
883	 0,17834767404286 
884	 0,179440199290146 
885	 0,179887653342505 
886	 0,179110184965594 
887	 0,178955514305063 
888	 0,179080275602808 
889	 0,179050374875659 
890	 0,178701169364682 
891	 0,178489261325752 
892	 0,179529811214689 
893	 0,180187280271875 
894	 0,180030411210647 
895	 0,179841949840452 
896	 0,17962342031951 
897	 0,179406601227586 
898	 0,179573121259133 
899	 0,179825382666169 
900	 0,179517869085791 
901	 0,179546581787669 
902	 0,180093949176736 
903	 0,180958344349923 
904	 0,181037984907497 
905	 0,179932406033232 
906	 0,180105931631372 
907	 0,180975691800364 
908	 0,181266155085718 
909	 0,181080207689078 
910	 0,1806343805289 
911	 0,180660477085308 
912	 0,180427799130532 
913	 0,179818928487027 
914	 0,180227765985889 
915	 0,180980613407383 
916	 0,181175495639705 
917	 0,180453799176238 
918	 0,179695089605222 
919	 0,181458337449047 
920	 0,182302500855274 
921	 0,181423867822512 
922	 0,181231795395364 
923	 0,181429387841594 
924	 0,181656799359766 
925	 0,181665965788248 
926	 0,181687952752019 
927	 0,182230024126578 
928	 0,182677680406168 
929	 0,182798779540486 
930	 0,182420986358994 
931	 0,182377473650885 
932	 0,182925820701683 
933	 0,182086933545219 
934	 0,181262640675251 
935	 0,182425606041174 
936	 0,18248064670085 
937	 0,181538357798861 
938	 0,18194485052074 
939	 0,182152519392579 
940	 0,181929388411751 
941	 0,183230612487205 
942	 0,183949816657016 
943	 0,182416502067578 
944	 0,1823263112983 
945	 0,183095464114355 
946	 0,182439907012981 
947	 0,182527597933978 
948	 0,183448470587197 
949	 0,183446317485856 
950	 0,182498901736976 
951	 0,180997759179052 
952	 0,181485474155866 
953	 0,182560492435067 
954	 0,182242474850288 
955	 0,18210394199498 
956	 0,182128956805634 
957	 0,181313495983744 
958	 0,181631516633978 
959	 0,183198133681584 
960	 0,183073455795384 
961	 0,183358542469297 
962	 0,185150711417923 
963	 0,182935149497153 
964	 0,17967989139496 
965	 0,180978005206706 
966	 0,183510218518105 
967	 0,185292768560206 
968	 0,182707083333136 
969	 0,181252327057756 
970	 0,182765659292224 
971	 0,182664265530133 
972	 0,183250957289524 
973	 0,186375305012524 
974	 0,186236911383704 
975	 0,184063369941918 
976	 0,183779645885321 
977	 0,184602867131218 
978	 0,185873490480105 
979	 0,186135609117112 
980	 0,184314218092335 
981	 0,180873503319064 
982	 0,181591410312365 
983	 0,183628879760806 
984	 0,183768847123925 
985	 0,185068632008329 
986	 0,18677220710272 
987	 0,186592720163669 
988	 0,185212519455756 
989	 0,183509039497483 
990	 0,183601416422053 
991	 0,184694908215465 
992	 0,18610214815566 
993	 0,186828194622409 
994	 0,186619499774646 
995	 0,185429461362897 
996	 0,183899277472542 
997	 0,183954921450496 
998	 0,188998788398873 
999	 0,190963643751 
1000	 0,189102697029056 
1001	 0,19027305603251 
1002	 0,190091858293947 
1003	 0,187271178817443 
1004	 0,187408921621658 
1005	 0,188622555878769 
1006	 0,188766418853114 
1007	 0,189918820016199 
1008	 0,190600424588018 
1009	 0,187726787498864 
1010	 0,18762675901532 
1011	 0,189745555701609 
1012	 0,185901328819367 
1013	 0,184906062408446 
1014	 0,189071252547087 
1015	 0,189022914216574 
1016	 0,186835661968404 
1017	 0,185341617534389 
1018	 0,190073665580134 
1019	 0,194450364458358 
1020	 0,187974686608583 
1021	 0,185943455504713 
1022	 0,189550043073999 
1023	 0,191431639808418 
1024	 0,192648728216356 
1025	 0,193018171215261 
1026	 0,191487054143419 
1027	 0,190516123779055 
1028	 0,191439375697557 
1029	 0,191291403246188 
1030	 0,190199209489546 
1031	 0,188829882810065 
1032	 0,189054938611509 
1033	 0,190770465412616 
1034	 0,193001393189777 
1035	 0,192419271198465 
1036	 0,19019750342085 
1037	 0,194691536478102 
1038	 0,194772217183545 
1039	 0,188194348521025 
1040	 0,192234946707036 
1041	 0,19777480227226 
1042	 0,196817296571726 
1043	 0,194016093547393 
1044	 0,193124744913666 
1045	 0,198105998488365 
1046	 0,199408389163143 
1047	 0,199035180167641 
1048	 0,207467056668896 
1049	 0,205326254480754 
1050	 0,192538111282436 
1051	 0,193316626121938 
1052	 0,19262358169363 
1053	 0,186161102093382 
1054	 0,193973477607819 
1055	 0,200751574035167 
1056	 0,193347522286939 
1057	 0,187922368944814 
1058	 0,185184205284866 
1059	 0,182704097155193 
1060	 0,18453529415145 
1061	 0,191061460513535 
1062	 0,202480616739369 
1063	 0,201412548597119 
1064	 0,188653020989137 
1065	 0,187297077120027 
1066	 0,189117776803529 
1067	 0,191610351291527 
1068	 0,202049630659833 
1069	 0,204191400133148 
1070	 0,189334327736227 
1071	 0,188127213400492 
1072	 0,191568614206673 
1073	 0,185616758601494 
1074	 0,19359867984652 
1075	 0,208067381105486 
