Wavelength	NEUF00726.asd
325	 6,82782018659881E-02 
326	 0,133698418588612 
327	 0,154584870563236 
328	 0,116183734977427 
329	 3,97817583334273E-02 
330	 1,78952332844157E-02 
331	 0,165593052329452 
332	 0,196156452679624 
333	 0,13067025891787 
334	 0,172881102580107 
335	 0,169228401032598 
336	 8,90664548888943E-02 
337	 6,59350823527857E-02 
338	 0,079813490880733 
339	 9,15574598605932E-02 
340	 7,03899731053031E-02 
341	 6,04192782784915E-02 
342	 0,173457353030579 
343	 0,217389067082897 
344	 0,178817967023002 
345	 0,148686370796343 
346	 0,141951220075552 
347	 0,156269767947394 
348	 0,103738826770897 
349	 1,97954199418077E-02 
350	 5,91850524922421E-02 
351	 0,116687253402265 
352	 0,141991653096365 
353	 8,83891918897539E-02 
354	 2,21680828597059E-02 
355	 0,031411356973179 
356	 0,043429005324372 
357	 0,049122468770593 
358	 6,94702888814911E-02 
359	 8,77781821698718E-02 
360	 9,86343002678679E-02 
361	 0,103211978355793 
362	 0,101454191598268 
363	 0,093648133184614 
364	 9,76459739157164E-02 
365	 0,10561299486213 
366	 7,28421447319085E-02 
367	 6,00660286375388E-02 
368	 0,100176695816014 
369	 0,102970946645478 
370	 8,26929891324367E-02 
371	 8,52592307546471E-02 
372	 0,103766336689568 
373	 0,126296903149503 
374	 0,112904865688457 
375	 9,82173074279647E-02 
376	 0,108553400544832 
377	 0,120530625879861 
378	 0,123998129246236 
379	 0,102875405306491 
380	 9,96042082590298E-02 
381	 0,120993235224159 
382	 0,131197187388501 
383	 0,124047691936999 
384	 0,096925220535665 
385	 0,101613966059328 
386	 0,126694110102532 
387	 0,11385715703323 
388	 0,111672152066389 
389	 0,131088502471932 
390	 0,122637921443629 
391	 0,105448309307219 
392	 0,106834098393233 
393	 0,108586103935216 
394	 0,107739752816936 
395	 0,106093665656646 
396	 0,109122966813041 
397	 0,117930317501676 
398	 0,12317206956978 
399	 0,121109318870201 
400	 0,106919093565079 
401	 0,10195910750007 
402	 0,109784576012195 
403	 0,121752888979796 
404	 0,129881008988987 
405	 0,128233118341308 
406	 0,114246503939596 
407	 9,94432202005589E-02 
408	 0,106578032264787 
409	 0,11374004586537 
410	 0,11401541669872 
411	 0,107766224055185 
412	 0,103399806015855 
413	 0,108169943334486 
414	 0,112373554840547 
415	 0,113609336903355 
416	 0,109843685568939 
417	 0,111273853218119 
418	 0,119803462429759 
419	 0,118794539388406 
420	 0,114633291899798 
421	 0,117028830332802 
422	 0,11482907907005 
423	 0,108930237593868 
424	 0,109702615554945 
425	 0,112614847378766 
426	 0,114522927136032 
427	 0,114159286962167 
428	 0,113165367063822 
429	 0,114716005335781 
430	 0,117183969906541 
431	 0,118901510863488 
432	 0,115036634262723 
433	 0,11136186435751 
434	 0,113000411333325 
435	 0,115842980404376 
436	 0,117222371685288 
437	 0,111480748311348 
438	 0,111170479598253 
439	 0,118878023127973 
440	 0,117267651468053 
441	 0,111998568098904 
442	 0,112115055039494 
443	 0,114492952636992 
444	 0,117837331464018 
445	 0,120378390305811 
446	 0,121216195170078 
447	 0,120190251115889 
448	 0,120924944297209 
449	 0,122571060883857 
450	 0,122562289367405 
451	 0,122535118279497 
452	 0,122813612650897 
453	 0,122777605664636 
454	 0,122012362066909 
455	 0,120344244548161 
456	 0,120572567616954 
457	 0,122269834999986 
458	 0,122814012524839 
459	 0,123484899689754 
460	 0,124648332701696 
461	 0,125701702769112 
462	 0,125768000720104 
463	 0,123795633331791 
464	 0,121913473843784 
465	 0,121845296131478 
466	 0,128235116022183 
467	 0,129833542966443 
468	 0,120776878700358 
469	 0,119254425278278 
470	 0,123643616211978 
471	 0,125304097034918 
472	 0,125879425966988 
473	 0,125834868708855 
474	 0,126748118523734 
475	 0,126580935178832 
476	 0,123477649691003 
477	 0,122985762781127 
478	 0,12505995725383 
479	 0,126544261454617 
480	 0,126455164995707 
481	 0,124895817951577 
482	 0,127244889276602 
483	 0,129197367260642 
484	 0,123555884161997 
485	 0,12140025080111 
486	 0,124276742369447 
487	 0,125874532099087 
488	 0,126006155909752 
489	 0,124736955809261 
490	 0,123959932477491 
491	 0,123784445953107 
492	 0,123588781979126 
493	 0,123383916125495 
494	 0,123350607183047 
495	 0,124896150564458 
496	 0,125367654496888 
497	 0,121836754200415 
498	 0,12277765164775 
499	 0,127317719819028 
500	 0,126823509525531 
501	 0,125336198494348 
502	 0,125245789347278 
503	 0,126402129531672 
504	 0,128080251489484 
505	 0,129047066251276 
506	 0,130037149351775 
507	 0,131017558918454 
508	 0,131012923235021 
509	 0,131156113341067 
510	 0,132423181344223 
511	 0,133268754420424 
512	 0,133567526900798 
513	 0,133608106931016 
514	 0,134522376073693 
515	 0,136517763663391 
516	 0,137530705088831 
517	 0,137568389064059 
518	 0,136920105590597 
519	 0,137274413293385 
520	 0,138540297741022 
521	 0,138624648658766 
522	 0,138257777071876 
523	 0,138028120923659 
524	 0,13799532264673 
525	 0,138271801636433 
526	 0,139256576939136 
527	 0,139117693951443 
528	 0,137725820965514 
529	 0,138204665093581 
530	 0,1390371431343 
531	 0,138263793587737 
532	 0,138026025762078 
533	 0,13838800778724 
534	 0,137909408824323 
535	 0,137793514412187 
536	 0,138579351011871 
537	 0,138509355957024 
538	 0,137973456080838 
539	 0,13814264586204 
540	 0,138200123764845 
541	 0,137930471082363 
542	 0,137435368733136 
543	 0,137234124980596 
544	 0,137773038263708 
545	 0,137740570996627 
546	 0,137498907263851 
547	 0,138907943384725 
548	 0,140113137396295 
549	 0,140218323366336 
550	 0,139869630158338 
551	 0,139555684820964 
552	 0,139894293019247 
553	 0,140343364351363 
554	 0,140593353807898 
555	 0,140202546795503 
556	 0,139448791221289 
557	 0,138622400677593 
558	 0,138203416800712 
559	 0,137944340122455 
560	 0,13691045601962 
561	 0,136090509431119 
562	 0,135893651977234 
563	 0,136151416878005 
564	 0,136292936930891 
565	 0,135608368589774 
566	 0,135444017259819 
567	 0,135765212404176 
568	 0,13490711436943 
569	 0,135019503384129 
570	 0,137390663461388 
571	 0,138993209108978 
572	 0,139857610776691 
573	 0,141170415210197 
574	 0,142392365534713 
575	 0,143609847017306 
576	 0,146022916716422 
577	 0,148625303231166 
578	 0,150224935280668 
579	 0,152069340790916 
580	 0,154281161581382 
581	 0,15640216687971 
582	 0,158166537349752 
583	 0,159432118238233 
584	 0,16038306057996 
585	 0,161401361373273 
586	 0,163108123175398 
587	 0,164529680357068 
588	 0,16545933598293 
589	 0,166526020041659 
590	 0,167417481642713 
591	 0,167885534421571 
592	 0,169340098622422 
593	 0,171105240020376 
594	 0,170528166002222 
595	 0,170181711611161 
596	 0,171113511548306 
597	 0,171597400095445 
598	 0,171732746040545 
599	 0,171967225296038 
600	 0,171532570364247 
601	 0,170529609868901 
602	 0,170081760186285 
603	 0,16999325235452 
604	 0,169978851279539 
605	 0,168724860542563 
606	 0,166985980832006 
607	 0,167200597639162 
608	 0,16721285024195 
609	 0,166242176822787 
610	 0,164825936450352 
611	 0,163498268659287 
612	 0,162846316123682 
613	 0,161993708837188 
614	 0,160962502241222 
615	 0,160586137690431 
616	 0,160240093846176 
617	 0,15953622711031 
618	 0,158773573224155 
619	 0,158252364390428 
620	 0,158513059730142 
621	 0,158516741905649 
622	 0,158066654618713 
623	 0,158076833347776 
624	 0,158287103187806 
625	 0,158377227887497 
626	 0,158451981580866 
627	 0,158540757273376 
628	 0,158643058062883 
629	 0,158937367425583 
630	 0,159527437928605 
631	 0,160384650374301 
632	 0,161337367665804 
633	 0,162125818649071 
634	 0,162984508184355 
635	 0,164018886613333 
636	 0,165383487564309 
637	 0,166700338965467 
638	 0,16766935865314 
639	 0,168818105088706 
640	 0,169987439139824 
641	 0,170460910585188 
642	 0,171328621244581 
643	 0,172796950586725 
644	 0,173231644024747 
645	 0,173294714983641 
646	 0,174036986843385 
647	 0,174313304732766 
648	 0,173963377580259 
649	 0,173450848712457 
650	 0,172932680056796 
651	 0,172426066683901 
652	 0,171058434095392 
653	 0,169075012967181 
654	 0,167223505238669 
655	 0,165154918692411 
656	 0,162852373895428 
657	 0,160609447883383 
658	 0,158437975763355 
659	 0,156311590541853 
660	 0,153958201772395 
661	 0,15147820215088 
662	 0,149341179392664 
663	 0,147139551192925 
664	 0,144766434175008 
665	 0,14296836442654 
666	 0,141386323947264 
667	 0,139311554111697 
668	 0,137684050803875 
669	 0,136687230257319 
670	 0,135847366198819 
671	 0,135264982482923 
672	 0,134967868556709 
673	 0,134200712474352 
674	 0,133286674741712 
675	 0,133329827811301 
676	 0,133478128582238 
677	 0,13338623572696 
678	 0,13298468288853 
679	 0,132711827184945 
680	 0,133084430194839 
681	 0,133767654429448 
682	 0,134725959686708 
683	 0,136036336729012 
684	 0,137801834976203 
685	 0,140051892962589 
686	 0,142373900878197 
687	 0,145182525285635 
688	 0,149267818879039 
689	 0,15399017962986 
690	 0,159172267703569 
691	 0,164846029147703 
692	 0,171400649793968 
693	 0,179169998608503 
694	 0,188093718962259 
695	 0,197964003140836 
696	 0,208284121823834 
697	 0,219117870047064 
698	 0,230478111884138 
699	 0,242535607902685 
700	 0,254799289165206 
701	 0,266573834496118 
702	 0,278659983568583 
703	 0,290942248902132 
704	 0,302456913681398 
705	 0,313516421470962 
706	 0,324277313699114 
707	 0,334469167316251 
708	 0,34404305806068 
709	 0,352944803796386 
710	 0,36127620089367 
711	 0,369089845522508 
712	 0,376429603391646 
713	 0,383125073684598 
714	 0,38906253206822 
715	 0,394942691899574 
716	 0,400639421351205 
717	 0,405412877435166 
718	 0,410077532830608 
719	 0,414853224941578 
720	 0,418791972311661 
721	 0,422278522902769 
722	 0,425920952830983 
723	 0,429159163592049 
724	 0,431935242402437 
725	 0,434478735279493 
726	 0,436874625553518 
727	 0,439139663175095 
728	 0,440916307246769 
729	 0,442501665653638 
730	 0,444503960070743 
731	 0,446241480928977 
732	 0,447623955542386 
733	 0,449261971425111 
734	 0,450640269062539 
735	 0,451345464682334 
736	 0,452229404334347 
737	 0,453357050790288 
738	 0,454534021487063 
739	 0,455338128088681 
740	 0,455693919069265 
741	 0,456270266421186 
742	 0,45698484254371 
743	 0,457673547433963 
744	 0,458337177507576 
745	 0,458867893827711 
746	 0,458948260847529 
747	 0,459053147802751 
748	 0,459481989776344 
749	 0,460329174611664 
750	 0,461177830937339 
751	 0,461376629118878 
752	 0,461748617793335 
753	 0,462330989313602 
754	 0,462380290507766 
755	 0,462270046355787 
756	 0,462316074307251 
757	 0,462673403899468 
758	 0,463229506179754 
759	 0,463724496484952 
760	 0,464057388572884 
761	 0,464192045020705 
762	 0,464191531034519 
763	 0,464312426259902 
764	 0,464754708955498 
765	 0,464812468675016 
766	 0,464702547948783 
767	 0,465429248059575 
768	 0,465731095618815 
769	 0,465315550142815 
770	 0,465590878291764 
771	 0,466225057917473 
772	 0,466683394797705 
773	 0,466952872388639 
774	 0,467076846990293 
775	 0,467287101778145 
776	 0,467340671700179 
777	 0,467161014848513 
778	 0,467101891004006 
779	 0,467183264922645 
780	 0,467367343428764 
781	 0,467538662052898 
782	 0,467595822113532 
783	 0,467284358621713 
784	 0,467244069082148 
785	 0,467780418464057 
786	 0,467605201109211 
787	 0,467168515195614 
788	 0,467614529933145 
789	 0,467780095203032 
790	 0,467530217333591 
791	 0,46787836654923 
792	 0,46804553665562 
793	 0,467463092732267 
794	 0,467132633171385 
795	 0,467211320265884 
796	 0,467692222401502 
797	 0,467921119760394 
798	 0,467725108036454 
799	 0,467597557984137 
800	 0,467447214278739 
801	 0,467208058018614 
802	 0,467519231186325 
803	 0,468109923505114 
804	 0,46796034769278 
805	 0,467984762865336 
806	 0,468449059092467 
807	 0,46887153495558 
808	 0,469215545894697 
809	 0,469465834170141 
810	 0,469308299118 
811	 0,468999118435256 
812	 0,469428827157667 
813	 0,46974513439288 
814	 0,469636975237361 
815	 0,469585748195436 
816	 0,469606612180082 
817	 0,469674917990164 
818	 0,470083009104865 
819	 0,470652894510952 
820	 0,470681688388645 
821	 0,470673107749928 
822	 0,470855503877846 
823	 0,47095173440365 
824	 0,47134140164469 
825	 0,472507358976443 
826	 0,472601448496629 
827	 0,47182250295764 
828	 0,472285812660908 
829	 0,47288177031745 
830	 0,473040675968001 
831	 0,472972654409156 
832	 0,472920921398432 
833	 0,473187754761332 
834	 0,473071302735998 
835	 0,472747985786022 
836	 0,473399502138252 
837	 0,473943592583271 
838	 0,473825538089769 
839	 0,473648165196326 
840	 0,473558167374406 
841	 0,473658287995682 
842	 0,473878453767158 
843	 0,474056343992905 
844	 0,473716771003809 
845	 0,473546942589795 
846	 0,473862208173365 
847	 0,473934785548194 
848	 0,473952477441764 
849	 0,474295281630493 
850	 0,473942464135276 
851	 0,473180804533073 
852	 0,473854025826295 
853	 0,474228526880986 
854	 0,473523071768076 
855	 0,473381930310036 
856	 0,473411040501694 
857	 0,472836702677281 
858	 0,473092431540865 
859	 0,474001438201857 
860	 0,473863649470433 
861	 0,473665959251963 
862	 0,47389621225354 
863	 0,474236426791209 
864	 0,474460875282722 
865	 0,474333035699761 
866	 0,474734754932214 
867	 0,475469274456445 
868	 0,475222951673514 
869	 0,475221342839171 
870	 0,47595880492187 
871	 0,476647394528398 
872	 0,477019052248457 
873	 0,476860408985851 
874	 0,476337193708941 
875	 0,475977741591462 
876	 0,477164286076486 
877	 0,477996615428421 
878	 0,47773136831057 
879	 0,477266442476042 
880	 0,477182031608975 
881	 0,477973414395953 
882	 0,478666032323736 
883	 0,479057848228522 
884	 0,479260834870679 
885	 0,47918908167914 
886	 0,478969942111902 
887	 0,479308870172729 
888	 0,479736850339995 
889	 0,479774763451262 
890	 0,479548162530859 
891	 0,479425546665387 
892	 0,480236518908881 
893	 0,480257531580315 
894	 0,479417759258694 
895	 0,480095784582657 
896	 0,480923286616234 
897	 0,480799368755733 
898	 0,48057645945138 
899	 0,480414918402509 
900	 0,48034240213271 
901	 0,480782870332236 
902	 0,48158036397448 
903	 0,481770062805595 
904	 0,481565132686166 
905	 0,481233018546406 
906	 0,481600396607578 
907	 0,48228596210221 
908	 0,482595121920928 
909	 0,48231120184534 
910	 0,481784787506601 
911	 0,482385269365438 
912	 0,482600289917275 
913	 0,481894572994954 
914	 0,481537847499621 
915	 0,482031724598527 
916	 0,483643072716056 
917	 0,483518059665624 
918	 0,482221924866036 
919	 0,482800739346886 
920	 0,483103002615928 
921	 0,482648231246436 
922	 0,482728596121793 
923	 0,482790281010868 
924	 0,482390656902528 
925	 0,482349742338455 
926	 0,482379947026986 
927	 0,481736672221015 
928	 0,481209388491349 
929	 0,481042658670511 
930	 0,481284202931715 
931	 0,481167814906164 
932	 0,480426398687932 
933	 0,480597258598301 
934	 0,481056941783099 
935	 0,480796688288464 
936	 0,480120771777229 
937	 0,479426926111511 
938	 0,479685712196733 
939	 0,479638489872605 
940	 0,478917534171014 
941	 0,478434541800182 
942	 0,477696253758256 
943	 0,47641906200856 
944	 0,476910814023059 
945	 0,477740045024026 
946	 0,47552616313466 
947	 0,474675821733477 
948	 0,475585424268878 
949	 0,474956066459127 
950	 0,473458714315174 
951	 0,471655174775734 
952	 0,470424923148128 
953	 0,469956175875644 
954	 0,470233561278337 
955	 0,469253583163616 
956	 0,467584115456755 
957	 0,467881236525092 
958	 0,468104369656512 
959	 0,467632355905911 
960	 0,467116037576187 
961	 0,466296572799072 
962	 0,465056385438154 
963	 0,463905251840402 
964	 0,463566083507855 
965	 0,464946651633872 
966	 0,465681297905604 
967	 0,465284726585729 
968	 0,464327529756749 
969	 0,463400648744931 
970	 0,46311644689246 
971	 0,464857029219752 
972	 0,466124904893568 
973	 0,464868710468072 
974	 0,465373492963219 
975	 0,466854069105938 
976	 0,4666242131475 
977	 0,466438324861123 
978	 0,466520424947913 
979	 0,466085239692467 
980	 0,465234653539531 
981	 0,46437812020226 
982	 0,465370093909062 
983	 0,46702108122484 
984	 0,467906868822246 
985	 0,467597806780516 
986	 0,466746738590383 
987	 0,46679533964001 
988	 0,466866585545889 
989	 0,46712899430501 
990	 0,469259468970026 
991	 0,469773994822117 
992	 0,467792868523467 
993	 0,470052115837105 
994	 0,472798965786477 
995	 0,471758385453891 
996	 0,470986257091028 
997	 0,471695926442318 
998	 0,474898896671989 
999	 0,474856869822334 
1000	 0,472011694827135 
1001	 0,474184878132151 
1002	 0,477388177642168 
1003	 0,479074955629197 
1004	 0,476992399318638 
1005	 0,475923796087303 
1006	 0,480057903571971 
1007	 0,481373273135933 
1008	 0,479317538909393 
1009	 0,475547151812483 
1010	 0,474731339402001 
1011	 0,47703177332475 
1012	 0,47784216741968 
1013	 0,47985810044914 
1014	 0,483296098937557 
1015	 0,483634078199958 
1016	 0,484001331832296 
1017	 0,486778429572622 
1018	 0,487005747008617 
1019	 0,485433861906557 
1020	 0,484303658169821 
1021	 0,484713797386601 
1022	 0,486232246088087 
1023	 0,486885130250827 
1024	 0,48575066805105 
1025	 0,483331325618749 
1026	 0,482848713964689 
1027	 0,485945218852979 
1028	 0,492112350871433 
1029	 0,490464611936863 
1030	 0,487424175055241 
1031	 0,491237432279707 
1032	 0,49047223939726 
1033	 0,486615204507909 
1034	 0,486986032239097 
1035	 0,486657653077694 
1036	 0,486649914471061 
1037	 0,495798792902086 
1038	 0,499283689575352 
1039	 0,492720944771431 
1040	 0,493287581917305 
1041	 0,493295430259624 
1042	 0,487065443410416 
1043	 0,487265546734588 
1044	 0,490921116356183 
1045	 0,491609228636168 
1046	 0,491733085692198 
1047	 0,492021106522303 
1048	 0,493594041915776 
1049	 0,490395592137157 
1050	 0,484382215937287 
1051	 0,490713093325052 
1052	 0,49237716284064 
1053	 0,484855595079387 
1054	 0,494651134833939 
1055	 0,503361756496845 
1056	 0,495134291013795 
1057	 0,48933161259538 
1058	 0,490462978679322 
1059	 0,499488621065391 
1060	 0,487430847019608 
1061	 0,469350288890427 
1062	 0,490598445422515 
1063	 0,503191173368935 
1064	 0,498107627738862 
1065	 0,499662060530471 
1066	 0,494866683381021 
1067	 0,48292048118643 
1068	 0,489526900058465 
1069	 0,496562868440524 
1070	 0,490030843853368 
1071	 0,479133088298806 
1072	 0,473895344167991 
1073	 0,484067509368303 
1074	 0,496095723463059 
1075	 0,499860750092833 
