Wavelength	NEUF00225.asd
325	 0,131020421478437 
326	-2,66129908878619E-04 
327	-6,82478501703703E-02 
328	-2,68874354388905E-03 
329	 7,39586738662368E-02 
330	 0,123399304300362 
331	 9,13701528309982E-02 
332	 2,14767256090425E-02 
333	 3,98824739862321E-04 
334	 6,85173626471295E-02 
335	 0,110810872653824 
336	 9,01201676179659E-02 
337	 5,36619957144399E-02 
338	 1,82038289897559E-02 
339	-2,59298023738398E-03 
340	 3,42769464174884E-02 
341	 0,100541893969799 
342	 0,110697712120291 
343	 9,88466260073951E-02 
344	 7,76244183495268E-02 
345	 7,21173119787639E-02 
346	 0,079540218203488 
347	 9,04255203521548E-02 
348	 5,67861681564305E-02 
349	-6,38152356341032E-03 
350	-0,034908629019154 
351	 1,85198818784919E-02 
352	 0,123433256626087 
353	 5,91440109912986E-02 
354	-4,43030642070036E-02 
355	-7,58847357702133E-03 
356	 3,49491958551624E-02 
357	 5,22353377898126E-02 
358	 4,65511547434471E-02 
359	 2,92237623056797E-02 
360	 8,65821842667359E-03 
361	 1,91761390195289E-02 
362	 3,50608814261747E-02 
363	 1,71691545932291E-02 
364	 2,96289356968251E-02 
365	 6,82435137765299E-02 
366	 7,87947935079544E-02 
367	 0,05732623327139 
368	 5,10201530993424E-03 
369	-5,3995944727738E-03 
370	 1,59571128920211E-02 
371	 3,15100268958665E-02 
372	 3,79340906203556E-02 
373	 3,47199710806069E-02 
374	 3,15551535763487E-02 
375	 3,78802026799638E-02 
376	 5,70672192600526E-02 
377	 4,52544139448802E-02 
378	 1,81738015929968E-02 
379	 2,09669401054705E-02 
380	 3,67184968457042E-02 
381	 5,42751353920567E-02 
382	 5,31961098747568E-02 
383	 4,84209970856997E-02 
384	 5,39010248227585E-02 
385	 5,35445411568803E-02 
386	 4,71859000276952E-02 
387	 4,14927807358373E-02 
388	 3,82551444314529E-02 
389	 3,74852184689987E-02 
390	 3,31440076673918E-02 
391	 2,28098169426476E-02 
392	 5,26606885193222E-03 
393	 1,18781374049036E-02 
394	 3,24026690337283E-02 
395	 1,57897236956694E-02 
396	 7,74459871062626E-03 
397	 2,79817324211777E-02 
398	 3,74038827330396E-02 
399	 3,25218210543169E-02 
400	 1,26414835306917E-02 
401	 1,20703391604874E-02 
402	 2,99529085745464E-02 
403	 2,89860462207185E-02 
404	 2,35760405369627E-02 
405	 2,35366106693956E-02 
406	 1,67372694636408E-02 
407	 9,03295103867087E-03 
408	 1,51956368884162E-02 
409	 1,97313828514089E-02 
410	 1,91646753524896E-02 
411	 2,12016023942991E-02 
412	 2,01155151671748E-02 
413	 1,13166201490492E-02 
414	 1,56213524266375E-02 
415	 2,69740272367305E-02 
416	 0,02116383752754 
417	 1,46296654612251E-02 
418	 1,37572664071611E-02 
419	 1,30515041005007E-02 
420	 1,38938261265493E-02 
421	 1,85349138124127E-02 
422	 1,86063293899495E-02 
423	 1,41570756080758E-02 
424	 0,011319914361131 
425	 0,011296026682059 
426	 1,45987024209444E-02 
427	 1,87944168822439E-02 
428	 2,17521365102922E-02 
429	 2,06138501869392E-02 
430	 1,95449450573901E-02 
431	 1,95552944131517E-02 
432	 0,018853387817281 
433	 1,76972043716387E-02 
434	 1,65447750992911E-02 
435	 1,80855342611097E-02 
436	 2,06254008475121E-02 
437	 1,83318776878723E-02 
438	 1,85148667730885E-02 
439	 0,022176799609537 
440	 1,63488091376144E-02 
441	 1,03079204554253E-02 
442	 1,70104103730902E-02 
443	 1,84696477482861E-02 
444	 1,33247940952027E-02 
445	 1,18035963878883E-02 
446	 1,35713352441242E-02 
447	 0,017919027905657 
448	 2,00104802589387E-02 
449	 2,11179935628833E-02 
450	 2,53868226392045E-02 
451	 2,61090109493282E-02 
452	 2,21973539184454E-02 
453	 1,84318698205291E-02 
454	 1,61712250467013E-02 
455	 1,64002123511259E-02 
456	 0,015064781977093 
457	 1,38520051006476E-02 
458	 2,01960554895574E-02 
459	 2,31314661328529E-02 
460	 1,90368451878959E-02 
461	 1,74362732068096E-02 
462	 1,69653637560467E-02 
463	 1,45298586154514E-02 
464	 0,015130570270677 
465	 1,85511789468379E-02 
466	 2,02145733612763E-02 
467	 0,019366705029864 
468	 0,0160591370995 
469	 1,56970383716252E-02 
470	 1,70752456367826E-02 
471	 1,58910340259794E-02 
472	 1,62892930330725E-02 
473	 1,86494276992928E-02 
474	 1,86583320580365E-02 
475	 1,76954489940041E-02 
476	 1,73589210459502E-02 
477	 1,75004595793756E-02 
478	 1,76854285451545E-02 
479	 1,64929450616019E-02 
480	 1,62813691369697E-02 
481	 1,78684988061688E-02 
482	 1,90047525764928E-02 
483	 1,82257787514911E-02 
484	 1,35486220700256E-02 
485	 1,49446785494945E-02 
486	 2,16924630191193E-02 
487	 2,04483557709547E-02 
488	 1,76263520891955E-02 
489	 1,80282174910959E-02 
490	 1,69681345956568E-02 
491	 1,53481714086154E-02 
492	 1,69310538353003E-02 
493	 1,77335582292924E-02 
494	 1,67354081354384E-02 
495	 1,64912513962196E-02 
496	 1,66267579211056E-02 
497	 0,016520655352726 
498	 1,78879206593259E-02 
499	 2,00988043840466E-02 
500	 2,03790661306847E-02 
501	 1,97161653267966E-02 
502	 1,88761932389246E-02 
503	 1,93450057497599E-02 
504	 1,99943953361314E-02 
505	 1,83817219946425E-02 
506	 1,80729310031905E-02 
507	 0,019517379581527 
508	 1,98503446648889E-02 
509	 1,95030650429786E-02 
510	 1,89901003224762E-02 
511	 1,82785589017953E-02 
512	 1,77198786819325E-02 
513	 1,81362094786916E-02 
514	 1,85535111925816E-02 
515	 1,85778324210817E-02 
516	 0,01880786219572 
517	 1,88973639256462E-02 
518	 1,82865644575587E-02 
519	 0,018026916853884 
520	 1,83441671395126E-02 
521	 1,89993300099341E-02 
522	 1,94201735732112E-02 
523	 1,91711122077613E-02 
524	 1,80641997088053E-02 
525	 1,72086742419707E-02 
526	 0,019337170319742 
527	 2,02070183038502E-02 
528	 1,88807492934183E-02 
529	 1,90945953471565E-02 
530	 1,97345872354604E-02 
531	 1,92358653344569E-02 
532	 1,87455986888435E-02 
533	 1,83855138883992E-02 
534	 1,75331223675468E-02 
535	 1,74233218412954E-02 
536	 1,86323517461783E-02 
537	 0,019655165548964 
538	 1,97751728168652E-02 
539	 1,80089216111056E-02 
540	 1,69871444007545E-02 
541	 1,74208748364225E-02 
542	 1,80941923434757E-02 
543	 1,86182580494977E-02 
544	 1,86733251015693E-02 
545	 0,018223060722827 
546	 1,76923377143428E-02 
547	 1,82618259098765E-02 
548	 1,87115549675425E-02 
549	 1,84813723128148E-02 
550	 1,80759844597223E-02 
551	 1,80372556896406E-02 
552	 1,91193952156599E-02 
553	 1,99224279291852E-02 
554	 2,00329323911592E-02 
555	 1,97829732177816E-02 
556	 1,91151438595081E-02 
557	 1,80769931988831E-02 
558	 1,78293292842233E-02 
559	 0,018231777295276 
560	 1,84645928354345E-02 
561	 0,018189184137493 
562	 1,74641701471865E-02 
563	 1,78130517074196E-02 
564	 1,84132241004873E-02 
565	 0,018008404008334 
566	 1,81113670748256E-02 
567	 1,86542980573232E-02 
568	 0,017932688067924 
569	 1,75504498541825E-02 
570	 1,85078196252444E-02 
571	 1,88934490396599E-02 
572	 1,87952539721895E-02 
573	 0,019065400680648 
574	 1,94264042814525E-02 
575	 1,97628901521643E-02 
576	 1,97960319868655E-02 
577	 2,00966180461866E-02 
578	 2,12733521155948E-02 
579	 2,09179373587458E-02 
580	 1,96143669609252E-02 
581	 2,10093732463606E-02 
582	 2,23144832544852E-02 
583	 2,20989370546126E-02 
584	 2,24930519666954E-02 
585	 2,31529566808701E-02 
586	 2,30388158033535E-02 
587	 2,24267690269537E-02 
588	 2,17568006527447E-02 
589	 2,25004090983472E-02 
590	 2,34494656055322E-02 
591	 0,023440345372359 
592	 2,32847774234865E-02 
593	 0,023220194606012 
594	 2,34918166088841E-02 
595	 2,35730416851326E-02 
596	 2,32952232089092E-02 
597	 2,33368221303092E-02 
598	 2,35852809387535E-02 
599	 2,37883254139755E-02 
600	 2,33486001909559E-02 
601	 2,24710152971074E-02 
602	 2,26581668941062E-02 
603	 2,29136630014884E-02 
604	 2,24619553942923E-02 
605	 2,20638831344727E-02 
606	 2,19552421686618E-02 
607	 2,24331884571499E-02 
608	 2,27613987501857E-02 
609	 2,26371001116375E-02 
610	 2,22904440478214E-02 
611	 2,18271414280472E-02 
612	 2,13521900904611E-02 
613	 2,11003191718447E-02 
614	 2,11113577236229E-02 
615	 2,12910116348157E-02 
616	 2,14716883206229E-02 
617	 2,14754893241477E-02 
618	 2,07921525238917E-02 
619	 2,00029666640799E-02 
620	 2,04037447684547E-02 
621	 2,05949098275476E-02 
622	 2,02451248464327E-02 
623	 2,01162048442482E-02 
624	 2,02262419514944E-02 
625	 2,05454669850523E-02 
626	 0,021046532040573 
627	 2,15747244796073E-02 
628	 2,18351191423518E-02 
629	 2,17005499393843E-02 
630	 2,12099619664924E-02 
631	 2,11542559495321E-02 
632	 2,13421014834239E-02 
633	 0,021274857884402 
634	 2,15264577204496E-02 
635	 2,21783920524637E-02 
636	 2,29294323718842E-02 
637	 0,023432443888397 
638	 2,34504971902413E-02 
639	 2,38497198780989E-02 
640	 2,43961110621789E-02 
641	 0,023930856185914 
642	 2,42071823189103E-02 
643	 2,55789685271081E-02 
644	 2,56223136831761E-02 
645	 2,49088722301188E-02 
646	 2,44675260751687E-02 
647	 2,48818850232406E-02 
648	 2,59023494833143E-02 
649	 2,61092926348815E-02 
650	 2,58066579850271E-02 
651	 2,52905734212445E-02 
652	 2,53303783709402E-02 
653	 2,56203396754704E-02 
654	 2,53231321078906E-02 
655	 2,46459793815712E-02 
656	 2,37805943998061E-02 
657	 2,33621505552099E-02 
658	 2,29943141906216E-02 
659	 2,22516016916303E-02 
660	 2,19913750391375E-02 
661	 2,21806546890789E-02 
662	 2,23063082884243E-02 
663	 2,18740121202985E-02 
664	 2,07993497923169E-02 
665	 0,020548831793555 
666	 2,06485802066612E-02 
667	 2,00646806912423E-02 
668	 1,99061071811915E-02 
669	 2,01619503949048E-02 
670	 1,95046072328651E-02 
671	 1,89798708564122E-02 
672	 1,93813564350513E-02 
673	 1,94577880537847E-02 
674	 1,92228587727025E-02 
675	 1,92411029691851E-02 
676	 1,93368151446993E-02 
677	 1,93853938264761E-02 
678	 1,89759153309248E-02 
679	 1,85855544748853E-02 
680	 1,88073015712601E-02 
681	 1,94385101127292E-02 
682	 2,01400642367534E-02 
683	 0,020055085538668 
684	 1,98683730704742E-02 
685	 1,99918058825728E-02 
686	 2,01068644437879E-02 
687	 2,04665350899992E-02 
688	 2,15879005283902E-02 
689	 2,26182193321118E-02 
690	 2,33807622971929E-02 
691	 2,43054603907209E-02 
692	 2,57215488620004E-02 
693	 2,78502204508807E-02 
694	 2,97064571662011E-02 
695	 3,15818626737475E-02 
696	 3,46477822242327E-02 
697	 3,83198725763028E-02 
698	 4,22391986593551E-02 
699	 4,57153156008926E-02 
700	 4,95389378623347E-02 
701	 5,47688775085497E-02 
702	 6,00755403732318E-02 
703	 6,52829570881469E-02 
704	 7,10342344587201E-02 
705	 7,69379986708729E-02 
706	 8,26826371013036E-02 
707	 8,79762499627002E-02 
708	 9,31001122634358E-02 
709	 9,86373091887154E-02 
710	 0,104142302804702 
711	 0,109441658298629 
712	 0,114486758001096 
713	 0,119198558056882 
714	 0,123540238902964 
715	 0,127969954090424 
716	 0,132397358829315 
717	 0,136360968421995 
718	 0,140213575235174 
719	 0,143960337339022 
720	 0,146734726400746 
721	 0,149125874094109 
722	 0,151978461785666 
723	 0,154985853741357 
724	 0,157871463635282 
725	 0,159999563352762 
726	 0,161827247939376 
727	 0,163620827677258 
728	 0,165076784946781 
729	 0,166374398026931 
730	 0,167871785282378 
731	 0,169318841335493 
732	 0,170668956567724 
733	 0,172121761293426 
734	 0,173242565284813 
735	 0,173704802387296 
736	 0,174409803810038 
737	 0,175307351113852 
738	 0,175788054243278 
739	 0,17640192271813 
740	 0,177280349025716 
741	 0,177956697005378 
742	 0,178467867504609 
743	 0,178903937314802 
744	 0,179164682622158 
745	 0,179310208925913 
746	 0,179533009839777 
747	 0,179881770445369 
748	 0,180348907698758 
749	 0,180648777231231 
750	 0,180844938252147 
751	 0,18107705055698 
752	 0,181656656753956 
753	 0,182397747994458 
754	 0,182298452695481 
755	 0,182012217179253 
756	 0,182049007074724 
757	 0,182324790065694 
758	 0,182703949291931 
759	 0,182946812108819 
760	 0,183045788808836 
761	 0,183024259982166 
762	 0,183031109884561 
763	 0,18312061180579 
764	 0,183325065516737 
765	 0,183454063958522 
766	 0,183562077711956 
767	 0,183939508014948 
768	 0,184106039269172 
769	 0,183925939027809 
770	 0,183791654350576 
771	 0,183914126386764 
772	 0,184475439354605 
773	 0,184631872865752 
774	 0,184423716109817 
775	 0,184665816951058 
776	 0,184746772241325 
777	 0,184428285655677 
778	 0,184320406262349 
779	 0,184479783057916 
780	 0,184886286768519 
781	 0,184991504713345 
782	 0,184736267854239 
783	 0,18447850159032 
784	 0,184470884992485 
785	 0,184835316207917 
786	 0,185048033783904 
787	 0,18513172358252 
788	 0,185296809759887 
789	 0,185181896442397 
790	 0,184840333172034 
791	 0,184942701560608 
792	 0,185055614319289 
793	 0,184847113309157 
794	 0,18477777714673 
795	 0,184865253053376 
796	 0,185023068826292 
797	 0,184892328339156 
798	 0,184447736491654 
799	 0,184199358925234 
800	 0,184214738833688 
801	 0,184496623067757 
802	 0,184561786935693 
803	 0,184441710331455 
804	 0,184520890441743 
805	 0,184359711765711 
806	 0,183969260048979 
807	 0,184246513566417 
808	 0,184769177260258 
809	 0,185012219377665 
810	 0,184928694759327 
811	 0,184828013892964 
812	 0,185680570186822 
813	 0,18619923656703 
814	 0,185936629493052 
815	 0,185828479305233 
816	 0,185920304563362 
817	 0,186164150130584 
818	 0,18655391456249 
819	 0,187025258491207 
820	 0,187484575906474 
821	 0,187651976374437 
822	 0,187503447454067 
823	 0,187838599330915 
824	 0,188324528364862 
825	 0,188435713415253 
826	 0,188698536665605 
827	 0,189110399768978 
828	 0,189283608060628 
829	 0,189428971601116 
830	 0,189595275411088 
831	 0,189340828515939 
832	 0,189078569316498 
833	 0,189414896125609 
834	 0,189470624172207 
835	 0,189251368628251 
836	 0,189515791953121 
837	 0,189837702929265 
838	 0,189997932146539 
839	 0,190245825295418 
840	 0,19029588740217 
841	 0,189727496457988 
842	 0,190025707923779 
843	 0,190905239864101 
844	 0,190050882273685 
845	 0,189471911487874 
846	 0,190120948882768 
847	 0,190273426822178 
848	 0,190184756902657 
849	 0,19048195088352 
850	 0,19058983608962 
851	 0,190490079207969 
852	 0,190605185576787 
853	 0,190660197112864 
854	 0,190528485857822 
855	 0,190407050573666 
856	 0,19034974714831 
857	 0,190395009663478 
858	 0,19027204080461 
859	 0,190071323515035 
860	 0,190296619040645 
861	 0,190600712668059 
862	 0,190747689571306 
863	 0,190473609801022 
864	 0,19020471828443 
865	 0,190513381762051 
866	 0,190896119728239 
867	 0,19110511348979 
868	 0,190743117606801 
869	 0,190651663583348 
870	 0,191096488256491 
871	 0,190942055933815 
872	 0,190657488006699 
873	 0,190913073388912 
874	 0,191077078212703 
875	 0,191222323181378 
876	 0,192049139974195 
877	 0,19236803081829 
878	 0,191884963312925 
879	 0,192059288416539 
880	 0,192622952045681 
881	 0,193117053257156 
882	 0,19271738239747 
883	 0,191926169996263 
884	 0,192461998602158 
885	 0,19340806781997 
886	 0,194201629739025 
887	 0,193812980474619 
888	 0,19322653220661 
889	 0,193366076434024 
890	 0,192876812800876 
891	 0,192396649024025 
892	 0,193854483890389 
893	 0,194934188834239 
894	 0,194980512396281 
895	 0,194896447965067 
896	 0,194632855208612 
897	 0,19423348292009 
898	 0,194611839259176 
899	 0,195063923512132 
900	 0,194063866435063 
901	 0,193772824518399 
902	 0,194563894662607 
903	 0,195446934263366 
904	 0,195569867334561 
905	 0,194665198463037 
906	 0,195102044842898 
907	 0,195870416532593 
908	 0,195142025034658 
909	 0,19461330032575 
910	 0,194562712686534 
911	 0,194526848244105 
912	 0,194388037260565 
913	 0,194098769024475 
914	 0,193728395762063 
915	 0,193882046799205 
916	 0,195097994097344 
917	 0,19521317022258 
918	 0,194536182232582 
919	 0,195050414754232 
920	 0,195519263531469 
921	 0,195483426200475 
922	 0,194777691828477 
923	 0,194311070084531 
924	 0,194731354932496 
925	 0,194533362005852 
926	 0,193782434089908 
927	 0,193004724345288 
928	 0,193011905377878 
929	 0,193576539185367 
930	 0,192818266799908 
931	 0,192343198123944 
932	 0,192900583261829 
933	 0,192664527094242 
934	 0,192212086227439 
935	 0,192496461402761 
936	 0,191951945063044 
937	 0,190826237721663 
938	 0,190725083238657 
939	 0,190905547459613 
940	 0,191081840777705 
941	 0,191382768347387 
942	 0,190973374474774 
943	 0,189353391100472 
944	 0,189262726771657 
945	 0,189789181410492 
946	 0,18834308431559 
947	 0,187748420525356 
948	 0,18812353757673 
949	 0,186967098111198 
950	 0,18521822832801 
951	 0,183616740723117 
952	 0,183031252450818 
953	 0,182856909204083 
954	 0,182256951993201 
955	 0,18214504215116 
956	 0,182013261771261 
957	 0,179980318887178 
958	 0,179050969903114 
959	 0,179818642444953 
960	 0,17958730670615 
961	 0,179803028659063 
962	 0,181213626570088 
963	 0,1800892080499 
964	 0,177837460340619 
965	 0,177393871663053 
966	 0,178090411908989 
967	 0,179066493729528 
968	 0,178104796393449 
969	 0,177192501671394 
970	 0,177077063840911 
971	 0,176600426058331 
972	 0,176794293382594 
973	 0,178340361020019 
974	 0,177386903513421 
975	 0,176052682009366 
976	 0,179282515263974 
977	 0,180190607318661 
978	 0,178343910388726 
979	 0,179340846751765 
980	 0,179249231586057 
981	 0,177014524873552 
982	 0,178281217031387 
983	 0,180302444723806 
984	 0,180020414662408 
985	 0,180417642156802 
986	 0,181252049601369 
987	 0,181076219130779 
988	 0,18135521461659 
989	 0,18164738719231 
990	 0,178476026559098 
991	 0,177544907642139 
992	 0,180977877625307 
993	 0,181887042292208 
994	 0,181434358490757 
995	 0,181453168495554 
996	 0,181521185192012 
997	 0,181835052259048 
998	 0,182769173410923 
999	 0,184240858373814 
1000	 0,185589466495681 
1001	 0,184951084892576 
1002	 0,183150736082355 
1003	 0,181575677565441 
1004	 0,185308779619542 
1005	 0,188540870532406 
1006	 0,185774246825051 
1007	 0,184040604482837 
1008	 0,18398909115455 
1009	 0,184492254928682 
1010	 0,184696305086365 
1011	 0,18424444358623 
1012	 0,182361551184928 
1013	 0,184729403985839 
1014	 0,19162287272174 
1015	 0,191008221306007 
1016	 0,187730593090564 
1017	 0,186877736100333 
1018	 0,190795355925022 
1019	 0,193793440376787 
1020	 0,187309755119524 
1021	 0,187146188506155 
1022	 0,192911250515714 
1023	 0,192727673631885 
1024	 0,18996750286752 
1025	 0,186990753484994 
1026	 0,189467458815691 
1027	 0,192450932535907 
1028	 0,192533924631004 
1029	 0,191086928257059 
1030	 0,190422685099085 
1031	 0,192844879366753 
1032	 0,194921002136804 
1033	 0,195621625612316 
1034	 0,194422042202989 
1035	 0,194892195203997 
1036	 0,197210219810501 
1037	 0,198530113732663 
1038	 0,196377566905365 
1039	 0,191279058816354 
1040	 0,192935246950704 
1041	 0,195005305327121 
1042	 0,192874032970391 
1043	 0,197232610478235 
1044	 0,202945703663786 
1045	 0,201353092867499 
1046	 0,201911573253798 
1047	 0,204188269395243 
1048	 0,202425858092277 
1049	 0,201327965406177 
1050	 0,202645600589396 
1051	 0,207415151572146 
1052	 0,208678505075713 
1053	 0,205072155484602 
1054	 0,211505245164026 
1055	 0,213712980708461 
1056	 0,200493852212216 
1057	 0,19426239241372 
1058	 0,192339230394156 
1059	 0,186380854345943 
1060	 0,187365912224882 
1061	 0,19496742773364 
1062	 0,203879589601988 
1063	 0,208933487765514 
1064	 0,209132845855622 
1065	 0,209419266721855 
1066	 0,207445836652402 
1067	 0,204070135346248 
1068	 0,208862300400173 
1069	 0,211132261564016 
1070	 0,203091097055459 
1071	 0,190883271687941 
1072	 0,18504085467458 
1073	 0,195965562488945 
1074	 0,204942837645906 
1075	 0,210866247633884 
