Wavelength	NEUF00515.asd
325	 0,35819468911072 
326	 0,18302615944555 
327	 8,00104525902825E-03 
328	 4,44705676375324E-02 
329	 0,192544161246322 
330	 0,273822206368548 
331	 0,100436448639612 
332	 8,97852871773796E-02 
333	 0,218042576662388 
334	 0,2882253962675 
335	 0,299753083338014 
336	 0,225725231650425 
337	 5,79982073761845E-02 
338	-3,16979760820836E-02 
339	 6,35125705937507E-02 
340	 8,89214536928488E-02 
341	 7,41755564694477E-02 
342	 0,168381732087732 
343	 0,178667604329257 
344	 9,89449440638994E-02 
345	 0,115453075331846 
346	 0,159565487031248 
347	 0,147519156567578 
348	 7,85591473638121E-02 
349	 5,69333050231692E-03 
350	 8,91446677472922E-02 
351	 0,172926761211136 
352	 0,193224108331358 
353	 0,123476414505183 
354	 4,71042796945392E-02 
355	 7,12904081821873E-02 
356	 9,60178515884681E-02 
357	 0,107439663433177 
358	 0,137364932882568 
359	 0,138374632229428 
360	 0,100517645295385 
361	 0,117117296792634 
362	 0,150437956551288 
363	 0,138248314001025 
364	 0,146649296661153 
365	 0,173038657115336 
366	 0,161449997321763 
367	 0,140803296370148 
368	 0,126924365192091 
369	 0,101235459857755 
370	 8,08615813713146E-02 
371	 0,09034736096159 
372	 0,10878758119191 
373	 0,124627947685761 
374	 0,126952079399139 
375	 0,111582998772355 
376	 8,01015157512398E-02 
377	 7,83342197454334E-02 
378	 0,100920739304751 
379	 0,121779369711299 
380	 0,140766463024991 
381	 0,150248107510105 
382	 0,131276695561229 
383	 0,109859926566305 
384	 0,109920856889683 
385	 0,12232119534684 
386	 0,133240250767542 
387	 0,110661207774418 
388	 0,107377233621062 
389	 0,136199800297119 
390	 0,143480170412943 
391	 0,1349291861887 
392	 0,122312215500064 
393	 0,124670804219881 
394	 0,135840314681793 
395	 0,123633772608517 
396	 0,114094673847495 
397	 0,120037086687117 
398	 0,126049871173589 
399	 0,127647410460995 
400	 0,120237375442305 
401	 0,11840049198619 
402	 0,1238162955867 
403	 0,128321436653747 
404	 0,129103239341285 
405	 0,125112764722091 
406	 0,125622087481291 
407	 0,126904849755864 
408	 0,118104749051849 
409	 0,114521148225473 
410	 0,118164478438571 
411	 0,116224257869858 
412	 0,1135924711652 
413	 0,11528898949392 
414	 0,117849436920563 
415	 0,120074748221578 
416	 0,120424765680601 
417	 0,12293353772342 
418	 0,127458249397937 
419	 0,122644689330435 
420	 0,115606293844119 
421	 0,11596916373445 
422	 0,119105775872933 
423	 0,122307336404581 
424	 0,121049340291632 
425	 0,117370108822571 
426	 0,113648856691845 
427	 0,118344559668709 
428	 0,124526752624613 
429	 0,117797422377468 
430	 0,115660820170956 
431	 0,120545403396893 
432	 0,119038153757325 
433	 0,11611092041582 
434	 0,11669382881418 
435	 0,120674730843673 
436	 0,124571409112589 
437	 0,118987762212392 
438	 0,117291578408292 
439	 0,122983382272448 
440	 0,122264448130098 
441	 0,118664524987011 
442	 0,118173047208967 
443	 0,117444257649896 
444	 0,116526817684859 
445	 0,117741865952815 
446	 0,119601248877643 
447	 0,12131797898887 
448	 0,124976080002128 
449	 0,128376094548866 
450	 0,127088997071339 
451	 0,125329224419878 
452	 0,124498016244829 
453	 0,124260723001921 
454	 0,1234462470571 
455	 0,121223351297959 
456	 0,121557664904358 
457	 0,124245208966804 
458	 0,127320651026133 
459	 0,127434925744403 
460	 0,123872332330203 
461	 0,122495042797692 
462	 0,122807535612926 
463	 0,123298230514435 
464	 0,124652924495471 
465	 0,126195958048493 
466	 0,125273886364666 
467	 0,124783516319695 
468	 0,126422304616262 
469	 0,127288733392526 
470	 0,126879262412401 
471	 0,124894021240363 
472	 0,124454452520753 
473	 0,125994748163662 
474	 0,126398643676156 
475	 0,124907105525336 
476	 0,121249809990714 
477	 0,12236925509376 
478	 0,126628677353408 
479	 0,125573278357013 
480	 0,124100958722552 
481	 0,124363374377033 
482	 0,125078877032025 
483	 0,124720689191008 
484	 0,121114748596753 
485	 0,120656828654567 
486	 0,123884075997432 
487	 0,126010735943477 
488	 0,126213046949454 
489	 0,124216606729511 
490	 0,123578946390388 
491	 0,124472501303892 
492	 0,126150076608306 
493	 0,125900863485113 
494	 0,123440332027123 
495	 0,123156195162432 
496	 0,124010532352983 
497	 0,1244420257195 
498	 0,124822963959236 
499	 0,12509745879338 
500	 0,125106665395699 
501	 0,12476453092168 
502	 0,124150081488476 
503	 0,12409893454882 
504	 0,124658197396821 
505	 0,125732237756809 
506	 0,126764295570734 
507	 0,127290791037795 
508	 0,126127710661823 
509	 0,125923365431751 
510	 0,128841587309068 
511	 0,129783326391436 
512	 0,128917610352243 
513	 0,129386529097229 
514	 0,129500425439181 
515	 0,128915244023929 
516	 0,130048689025632 
517	 0,131289467002403 
518	 0,130128903283567 
519	 0,129072327283254 
520	 0,128931186955921 
521	 0,129973869138344 
522	 0,131154521128776 
523	 0,131643780631333 
524	 0,131286405023445 
525	 0,130581977755907 
526	 0,130718748574616 
527	 0,130603465419241 
528	 0,130026172038377 
529	 0,129843800276755 
530	 0,130040314603042 
531	 0,130510412904779 
532	 0,130388349591211 
533	 0,129801182438913 
534	 0,129774101210059 
535	 0,130067884426591 
536	 0,130462750880594 
537	 0,130381913109465 
538	 0,129953713219185 
539	 0,129495267530932 
540	 0,129637948001707 
541	 0,130394247388919 
542	 0,130771396289882 
543	 0,130918205111565 
544	 0,131019611980339 
545	 0,130650123999421 
546	 0,130165510465017 
547	 0,130680511474138 
548	 0,131549588475891 
549	 0,132278488630913 
550	 0,131828306979626 
551	 0,131091972302745 
552	 0,131617579431956 
553	 0,132290161037899 
554	 0,132615244023645 
555	 0,13195667554972 
556	 0,131361833569907 
557	 0,131663700532001 
558	 0,131784648884447 
559	 0,131454779708308 
560	 0,130428582561055 
561	 0,129694429118238 
562	 0,129645287039807 
563	 0,129779110708585 
564	 0,12973916154539 
565	 0,129128210588098 
566	 0,129212456158809 
567	 0,129860802387041 
568	 0,129345277342844 
569	 0,128945098154511 
570	 0,129567338115612 
571	 0,130715856883142 
572	 0,13203804712565 
573	 0,132966999898157 
574	 0,133990906217996 
575	 0,135165040523614 
576	 0,135784301846131 
577	 0,136716937185089 
578	 0,1389314031348 
579	 0,140079321623253 
580	 0,140223059077507 
581	 0,14136165985208 
582	 0,142567108743952 
583	 0,143359499733594 
584	 0,144178667815102 
585	 0,145060277699516 
586	 0,146005126750365 
587	 0,146633403215228 
588	 0,146937722866892 
589	 0,147439183023667 
590	 0,148068371447618 
591	 0,148739087200436 
592	 0,149532414744556 
593	 0,150297530875451 
594	 0,150588837650962 
595	 0,151015362415991 
596	 0,151740385129717 
597	 0,151853087588008 
598	 0,151587481142262 
599	 0,151431237894542 
600	 0,151336263886486 
601	 0,151177720311839 
602	 0,150431202803462 
603	 0,149739741246613 
604	 0,149587672870341 
605	 0,149311859464459 
606	 0,148901108025496 
607	 0,148603834299006 
608	 0,14845595942183 
609	 0,148261488942214 
610	 0,146771322458806 
611	 0,145287418703365 
612	 0,145501762473514 
613	 0,145549830878747 
614	 0,14508591225033 
615	 0,144574856233726 
616	 0,144273319398721 
617	 0,144249991045943 
618	 0,143391949680825 
619	 0,142392391931192 
620	 0,142976045231659 
621	 0,143169995060286 
622	 0,142581550814993 
623	 0,142744010243131 
624	 0,142931880370616 
625	 0,142362308839346 
626	 0,142393474595562 
627	 0,143051780251969 
628	 0,143615773880331 
629	 0,143840896659361 
630	 0,14368776781956 
631	 0,144075998311963 
632	 0,144700080701808 
633	 0,144873170765823 
634	 0,145101950856151 
635	 0,145737768447245 
636	 0,147570539520141 
637	 0,149427748820615 
638	 0,150294756210474 
639	 0,150730353600013 
640	 0,150973709388921 
641	 0,151246505663294 
642	 0,15203634390362 
643	 0,153341289112907 
644	 0,153831099213462 
645	 0,153743209775338 
646	 0,153557141389179 
647	 0,153834337598139 
648	 0,154346992601562 
649	 0,153666490875936 
650	 0,153105529925309 
651	 0,153396418521071 
652	 0,152680498905562 
653	 0,151240356007651 
654	 0,150214888708449 
655	 0,148980224506975 
656	 0,147461927925613 
657	 0,146223553273085 
658	 0,144787962155124 
659	 0,142672102908959 
660	 0,141178742048543 
661	 0,140210831549225 
662	 0,138620879175184 
663	 0,137009647389066 
664	 0,135714089449762 
665	 0,134839913857414 
666	 0,134189250073166 
667	 0,133455182545244 
668	 0,132464443576863 
669	 0,131347657700354 
670	 0,130783707747211 
671	 0,13052468863967 
672	 0,130334894444249 
673	 0,130060677862516 
674	 0,129719646992795 
675	 0,129435657852147 
676	 0,129241091973213 
677	 0,12916773479131 
678	 0,129267677185002 
679	 0,129400992614835 
680	 0,129403002590009 
681	 0,129414181713921 
682	 0,129707358624848 
683	 0,130969510625945 
684	 0,132482208512846 
685	 0,133787550921254 
686	 0,134889308321796 
687	 0,136270636277346 
688	 0,138748635601786 
689	 0,14162272809132 
690	 0,144766361496302 
691	 0,14846601639313 
692	 0,152983781386852 
693	 0,15853324094646 
694	 0,165028365639116 
695	 0,172404348238601 
696	 0,180455647107713 
697	 0,18946387593361 
698	 0,199427194126372 
699	 0,209703400701665 
700	 0,220340822579947 
701	 0,231431768066317 
702	 0,242852165098673 
703	 0,254452480139505 
704	 0,265977143954544 
705	 0,277270073591807 
706	 0,288152883439344 
707	 0,298248950239164 
708	 0,307777579842013 
709	 0,317186298573287 
710	 0,326421897458696 
711	 0,335303166158184 
712	 0,34309046450847 
713	 0,350280395406979 
714	 0,357357726018701 
715	 0,36393995725522 
716	 0,370052579552078 
717	 0,37598823903853 
718	 0,381408696859234 
719	 0,386211042374394 
720	 0,390643452694032 
721	 0,394759151062831 
722	 0,398604699231434 
723	 0,4022008745962 
724	 0,405494210375555 
725	 0,408235760992966 
726	 0,410885968485779 
727	 0,41364597669846 
728	 0,415648818606502 
729	 0,417311956470918 
730	 0,419563495114864 
731	 0,421760261706605 
732	 0,423679170225821 
733	 0,425311732200384 
734	 0,426554419906134 
735	 0,427377081521481 
736	 0,428534633583146 
737	 0,429943435931753 
738	 0,431014282920443 
739	 0,43206636739263 
740	 0,433100679796379 
741	 0,433509213859558 
742	 0,433831196082055 
743	 0,434729934871629 
744	 0,435709607529242 
745	 0,436537177416994 
746	 0,436873017241215 
747	 0,437139578905733 
748	 0,437624328573952 
749	 0,438564863866057 
750	 0,439520233406963 
751	 0,439771633785436 
752	 0,440178139972517 
753	 0,440818276482765 
754	 0,441054467576794 
755	 0,44114881464411 
756	 0,441339623204387 
757	 0,441909962679694 
758	 0,442655013103891 
759	 0,443096299421926 
760	 0,443299730645647 
761	 0,443373549037748 
762	 0,443775765420581 
763	 0,44416747100434 
764	 0,444235349383312 
765	 0,444509112433764 
766	 0,445006116575822 
767	 0,445547959644632 
768	 0,445852934577695 
769	 0,445881677458076 
770	 0,446182481037966 
771	 0,446655354262377 
772	 0,44711668847024 
773	 0,44713129580124 
774	 0,446953502296264 
775	 0,447749625916546 
776	 0,448226158142718 
777	 0,447822402832258 
778	 0,447662124403692 
779	 0,447911868328687 
780	 0,448621205458661 
781	 0,448872138770346 
782	 0,448577785795899 
783	 0,448411835936287 
784	 0,448468977060564 
785	 0,448787985680286 
786	 0,44905158577302 
787	 0,449261002868163 
788	 0,449521082836709 
789	 0,449718920640689 
790	 0,449824312913215 
791	 0,449866116138645 
792	 0,449890248224685 
793	 0,449949086654537 
794	 0,45015449214691 
795	 0,450500780795083 
796	 0,450980248401878 
797	 0,451138514524094 
798	 0,45091852657866 
799	 0,450866766863717 
800	 0,451038787975821 
801	 0,451417503483558 
802	 0,451384302358102 
803	 0,451098084806611 
804	 0,451246316866562 
805	 0,451583052007709 
806	 0,451990364172184 
807	 0,452267424378799 
808	 0,452550450382878 
809	 0,452976016776571 
810	 0,452852938905795 
811	 0,452476643975264 
812	 0,453079022834954 
813	 0,453588070334521 
814	 0,453598089483679 
815	 0,453655354553335 
816	 0,453651014754587 
817	 0,453429061508461 
818	 0,453900898576041 
819	 0,454831143696195 
820	 0,454882517150317 
821	 0,454944995101149 
822	 0,455361293526254 
823	 0,455478150663265 
824	 0,455542661508343 
825	 0,455938078583295 
826	 0,455920310687969 
827	 0,45569803961642 
828	 0,456561691459824 
829	 0,457095060747206 
830	 0,456683468806271 
831	 0,456607216018315 
832	 0,456723816348344 
833	 0,456648993545819 
834	 0,4566911434249 
835	 0,456870054400378 
836	 0,45700906318426 
837	 0,45716007171167 
838	 0,457356092021852 
839	 0,457675573525534 
840	 0,457898690704494 
841	 0,457718139010726 
842	 0,457741710301902 
843	 0,4579581055221 
844	 0,457767505801876 
845	 0,457590703521936 
846	 0,457666118496984 
847	 0,457906632537088 
848	 0,458131210925982 
849	 0,458105304081697 
850	 0,458182814319215 
851	 0,458441054835538 
852	 0,458848699094456 
853	 0,459119710857893 
854	 0,45908404875435 
855	 0,458761768354845 
856	 0,45860640074918 
857	 0,459204247810699 
858	 0,458955469673025 
859	 0,458066769933326 
860	 0,458504144019578 
861	 0,459059007990054 
862	 0,459188381844282 
863	 0,459737073416148 
864	 0,460211032924154 
865	 0,459900669314039 
866	 0,459991209716809 
867	 0,460440947290578 
868	 0,460157943824024 
869	 0,46015462862849 
870	 0,460774249693229 
871	 0,461025294763545 
872	 0,460849143783528 
873	 0,460323006994709 
874	 0,460224521439596 
875	 0,460609329429479 
876	 0,461096152347928 
877	 0,461390688073911 
878	 0,461379582535428 
879	 0,461367739833719 
880	 0,461505678192168 
881	 0,461885791574373 
882	 0,461676982842455 
883	 0,461144881490754 
884	 0,461414660821842 
885	 0,46184469066998 
886	 0,462120331595322 
887	 0,461855638526678 
888	 0,46165432754856 
889	 0,462028970196746 
890	 0,461630191046349 
891	 0,461150907310258 
892	 0,462705071551181 
893	 0,463537125288257 
894	 0,462993817821441 
895	 0,462583552594749 
896	 0,462279019765274 
897	 0,46206434508749 
898	 0,462148818282471 
899	 0,462541251241761 
900	 0,463241712395503 
901	 0,463172996850526 
902	 0,462519301685928 
903	 0,463204887346944 
904	 0,464169589424494 
905	 0,464635127498516 
906	 0,464242767720805 
907	 0,463635367639275 
908	 0,463784819303668 
909	 0,463202533199613 
910	 0,46214930072277 
911	 0,462537585663302 
912	 0,463182072548166 
913	 0,463476203204659 
914	 0,463409590613971 
915	 0,463438849399055 
916	 0,464015973854901 
917	 0,46369063046238 
918	 0,463129614837483 
919	 0,464934561517305 
920	 0,465706006959683 
921	 0,464519190744607 
922	 0,463086760814281 
923	 0,462274989511544 
924	 0,462645680771664 
925	 0,462803563890705 
926	 0,462535941404315 
927	 0,461862285718672 
928	 0,462343848343839 
929	 0,463597932488059 
930	 0,462497390657122 
931	 0,461178071373925 
932	 0,460918858488795 
933	 0,46110457073926 
934	 0,461214444418168 
935	 0,460672864054421 
936	 0,459947120443183 
937	 0,459267626195344 
938	 0,458874749694663 
939	 0,458883869210322 
940	 0,459142116275375 
941	 0,458789084159095 
942	 0,457830081055086 
943	 0,456451278988372 
944	 0,455984789674861 
945	 0,455812783403802 
946	 0,454340153618042 
947	 0,45326882974134 
948	 0,453034947056348 
949	 0,453559840936286 
950	 0,452847106040395 
951	 0,450092388907455 
952	 0,448083310249762 
953	 0,447241090168476 
954	 0,447594027313872 
955	 0,447536400638322 
956	 0,446720917034098 
957	 0,445262475717974 
958	 0,44422308810899 
959	 0,443917015785487 
960	 0,443630200949994 
961	 0,443467918810388 
962	 0,443429233615477 
963	 0,442677292490342 
964	 0,441946844862149 
965	 0,442505505867273 
966	 0,443151133144313 
967	 0,443344681504838 
968	 0,442505736097735 
969	 0,441296049595169 
970	 0,440322426696335 
971	 0,440762908579406 
972	 0,441695260379059 
973	 0,442084451114619 
974	 0,441106915059081 
975	 0,439797698961142 
976	 0,440182625895079 
977	 0,442159235656838 
978	 0,44448188112429 
979	 0,443086055903396 
980	 0,441303536766709 
981	 0,440879685785248 
982	 0,44122608556159 
983	 0,441586475375264 
984	 0,44133110834555 
985	 0,442121464420566 
986	 0,443454070421142 
987	 0,443855782534791 
988	 0,443302223870441 
989	 0,44252079812491 
990	 0,444163109989914 
991	 0,445630232536111 
992	 0,445834572910915 
993	 0,447487544501081 
994	 0,448860356348763 
995	 0,448073074726895 
996	 0,447287061237429 
997	 0,447511486529982 
998	 0,449940211413782 
999	 0,449875172490214 
1000	 0,447707227485153 
1001	 0,450299032699596 
1002	 0,45118479379134 
1003	 0,448478105411047 
1004	 0,451459322547516 
1005	 0,455316275778981 
1006	 0,455008866511341 
1007	 0,455203958836079 
1008	 0,455597404908019 
1009	 0,454356091578087 
1010	 0,452632788867744 
1011	 0,451477625948705 
1012	 0,452766122422228 
1013	 0,456197599667571 
1014	 0,460521888083477 
1015	 0,460953867557506 
1016	 0,460375307201249 
1017	 0,461286451941625 
1018	 0,461224707353574 
1019	 0,459974813031712 
1020	 0,457793689110246 
1021	 0,458332142171617 
1022	 0,461774499205886 
1023	 0,466496743080363 
1024	 0,466909454809217 
1025	 0,462251351408252 
1026	 0,458342027803015 
1027	 0,459909790100833 
1028	 0,468226321556083 
1029	 0,470016329261163 
1030	 0,466990185243377 
1031	 0,46337365320316 
1032	 0,463389418965877 
1033	 0,465439079088792 
1034	 0,464166527660392 
1035	 0,464256029632315 
1036	 0,466443151314101 
1037	 0,468943997503542 
1038	 0,469902454211958 
1039	 0,468810375694909 
1040	 0,468705088503462 
1041	 0,467668722722984 
1042	 0,464600633999892 
1043	 0,464155353592065 
1044	 0,466447554249683 
1045	 0,470433177954955 
1046	 0,471244085023812 
1047	 0,470374703085785 
1048	 0,474221919832448 
1049	 0,475537067830606 
1050	 0,473345445654802 
1051	 0,473341630361435 
1052	 0,471865714919399 
1053	 0,468592847198233 
1054	 0,471642031591198 
1055	 0,474809629713138 
1056	 0,473273144688481 
1057	 0,478996092334309 
1058	 0,483503961236689 
1059	 0,473978773059924 
1060	 0,471171784731941 
1061	 0,472113899913369 
1062	 0,458842699801394 
1063	 0,455654782621238 
1064	 0,465772151466594 
1065	 0,472407758334852 
1066	 0,481505778919875 
1067	 0,492228443166334 
1068	 0,490248449564526 
1069	 0,48117646283924 
1070	 0,471175672724577 
1071	 0,46571325803528 
1072	 0,466225419516318 
1073	 0,472616584466922 
1074	 0,477965481104098 
1075	 0,478328242598245 
