Wavelength	NEUF00275.asd
325	 0,424124094734782 
326	 0,210696173351775 
327	 6,87807947406967E-02 
328	 0,169065692882958 
329	 0,235385361124576 
330	 0,299342365139367 
331	 0,384151736177894 
332	 0,372825723080608 
333	 0,321953392662049 
334	 0,364802436891105 
335	 0,396753680347972 
336	 0,377695008951012 
337	 0,272055989763986 
338	 0,202783754761739 
339	 0,255124179586141 
340	 0,238569753810082 
341	 0,189482863697398 
342	 0,256369519254801 
343	 0,293862883998559 
344	 0,289301436037789 
345	 0,294383940653244 
346	 0,320468327926559 
347	 0,369884245421444 
348	 0,351958051666506 
349	 0,282277588272763 
350	 0,248719894738094 
351	 0,280041409786925 
352	 0,355314249114214 
353	 0,336846663058412 
354	 0,281265206007262 
355	 0,271128471722665 
356	 0,329777144843654 
357	 0,407209597449275 
358	 0,365093364916967 
359	 0,313071380577642 
360	 0,298445255068879 
361	 0,326818922351844 
362	 0,360115893331559 
363	 0,351767162250912 
364	 0,356481110119004 
365	 0,377047175988981 
366	 0,378634634956345 
367	 0,385439883084833 
368	 0,406242622630285 
369	 0,368792574510323 
370	 0,319505945330663 
371	 0,342925116353189 
372	 0,363213435156374 
373	 0,367263522075595 
374	 0,401445197700366 
375	 0,413435368506871 
376	 0,368937577126359 
377	 0,359237530642742 
378	 0,376567738065912 
379	 0,371421583440189 
380	 0,37265951943211 
381	 0,384538089504389 
382	 0,389682608121226 
383	 0,388160281473842 
384	 0,381405531226637 
385	 0,389152033912371 
386	 0,405630421485559 
387	 0,408816762768509 
388	 0,402882433950898 
389	 0,392406690317116 
390	 0,390418538261224 
391	 0,395178742298737 
392	 0,403131908610375 
393	 0,404976262793651 
394	 0,401079054549372 
395	 0,398990074923889 
396	 0,396670580190328 
397	 0,394881995236505 
398	 0,40538859744297 
399	 0,414488785280631 
400	 0,399542579290488 
401	 0,400021798577518 
402	 0,417964097240265 
403	 0,423140321936173 
404	 0,424252757199516 
405	 0,427012648618184 
406	 0,422728671818812 
407	 0,414684278763979 
408	 0,41067429431868 
409	 0,410582961226933 
410	 0,41345697785678 
411	 0,415169268255112 
412	 0,414113737756236 
413	 0,40971384436011 
414	 0,414516816003224 
415	 0,424053520410453 
416	 0,421821753655104 
417	 0,41908929916899 
418	 0,419897672023386 
419	 0,418760062175697 
420	 0,417832767730616 
421	 0,420237608566322 
422	 0,421217925689099 
423	 0,420576992245648 
424	 0,421464544960159 
425	 0,422554750381356 
426	 0,422815208488033 
427	 0,420906726583325 
428	 0,418399490109554 
429	 0,418364210670593 
430	 0,416980260050491 
431	 0,414267689184502 
432	 0,414748677554217 
433	 0,417331255241355 
434	 0,42060205716597 
435	 0,421431414780433 
436	 0,419859615884022 
437	 0,417241594795098 
438	 0,416405062900601 
439	 0,417844066507563 
440	 0,416099832871478 
441	 0,414125771638708 
442	 0,416217343446331 
443	 0,417183927584319 
444	 0,417134404048269 
445	 0,421197392165831 
446	 0,42354625802206 
447	 0,421262701040089 
448	 0,421859422131865 
449	 0,42436568817842 
450	 0,425154567490793 
451	 0,424671472721924 
452	 0,423694691112495 
453	 0,425519286190222 
454	 0,427030053444118 
455	 0,425321962256967 
456	 0,424033132425035 
457	 0,424420268139957 
458	 0,428038787494877 
459	 0,430760745602074 
460	 0,430962780323468 
461	 0,431270788640321 
462	 0,431586904409934 
463	 0,431464410270528 
464	 0,429739514010436 
465	 0,427517387503471 
466	 0,429613984925541 
467	 0,431243553979229 
468	 0,429677576936388 
469	 0,430635224157886 
470	 0,433051927101179 
471	 0,433047637065772 
472	 0,434611433834707 
473	 0,437685910804305 
474	 0,436260143832586 
475	 0,433365744244362 
476	 0,432365235594125 
477	 0,434289133928345 
478	 0,437395937544751 
479	 0,436288212555246 
480	 0,435500534569661 
481	 0,436865392113245 
482	 0,437428347087555 
483	 0,437242075556649 
484	 0,436774860245667 
485	 0,437785605462012 
486	 0,439940788106712 
487	 0,440265834698086 
488	 0,439702012615879 
489	 0,439061250684647 
490	 0,438735908350484 
491	 0,438531182893271 
492	 0,437657938858637 
493	 0,437180124679974 
494	 0,437672079999512 
495	 0,440201624555883 
496	 0,44191376982767 
497	 0,43967190806293 
498	 0,439110151334241 
499	 0,440713690507153 
500	 0,441918706154833 
501	 0,442026528132769 
502	 0,440940316311066 
503	 0,441526396884279 
504	 0,443389565950808 
505	 0,445212108573765 
506	 0,446858007707058 
507	 0,448064900156532 
508	 0,448455152804934 
509	 0,448461684535972 
510	 0,448572711601025 
511	 0,450255174574416 
512	 0,452604141236383 
513	 0,452490720525551 
514	 0,452640378128008 
515	 0,45417516418639 
516	 0,456228179745725 
517	 0,457865425907174 
518	 0,457997173749907 
519	 0,457314798984442 
520	 0,456526596479674 
521	 0,457173433649605 
522	 0,458277125023096 
523	 0,459030386208448 
524	 0,459015003679523 
525	 0,458639392307661 
526	 0,459061580079365 
527	 0,459029275588743 
528	 0,458348985859917 
529	 0,458309046950464 
530	 0,458623440770682 
531	 0,458852493880663 
532	 0,458953924785342 
533	 0,459044488017558 
534	 0,45964442147386 
535	 0,459957503330854 
536	 0,459558517686268 
537	 0,459167767828167 
538	 0,458819538988865 
539	 0,458303022612553 
540	 0,458385991663531 
541	 0,459047609635041 
542	 0,458990216529577 
543	 0,458934055063341 
544	 0,459567481177106 
545	 0,458904000129979 
546	 0,457633844850322 
547	 0,45873838997825 
548	 0,460098042806569 
549	 0,460661643504173 
550	 0,460821553162575 
551	 0,460936963788976 
552	 0,461510056197291 
553	 0,462033452371459 
554	 0,462302106495595 
555	 0,462204229939258 
556	 0,46183809833817 
557	 0,461295678621256 
558	 0,460598463559375 
559	 0,459765123961213 
560	 0,458678778808686 
561	 0,458096491718841 
562	 0,458131858492213 
563	 0,45737741704782 
564	 0,456268102475181 
565	 0,455530518501069 
566	 0,455631388296146 
567	 0,456466122370934 
568	 0,457065107252549 
569	 0,458100332818711 
570	 0,459885423884778 
571	 0,460695857223304 
572	 0,461107362602229 
573	 0,462989269644605 
574	 0,464809073623891 
575	 0,466068122179463 
576	 0,467032130161527 
577	 0,468370961042887 
578	 0,470781123592766 
579	 0,473000275063232 
580	 0,474561919381847 
581	 0,47488099762182 
582	 0,476024098232241 
583	 0,478973071464847 
584	 0,48118466838932 
585	 0,482747307909515 
586	 0,484494412966156 
587	 0,485837455831981 
588	 0,486715814710623 
589	 0,487659097653856 
590	 0,488370475280294 
591	 0,48858962172616 
592	 0,489045587844986 
593	 0,489723140478827 
594	 0,49001952190286 
595	 0,490951441280987 
596	 0,492706021710701 
597	 0,493301627931051 
598	 0,493061370881186 
599	 0,49279565082442 
600	 0,492535686746936 
601	 0,492332786219776 
602	 0,49219715093704 
603	 0,491766282338873 
604	 0,49081411900076 
605	 0,490183789712189 
606	 0,489804141132569 
607	 0,489018202135046 
608	 0,488791211550008 
609	 0,489191479171847 
610	 0,48848569974982 
611	 0,487246976803201 
612	 0,486364449319158 
613	 0,485701520130838 
614	 0,485305907070616 
615	 0,485409018393074 
616	 0,485224639983165 
617	 0,484319936319548 
618	 0,483664096126632 
619	 0,483424984790617 
620	 0,483667572667024 
621	 0,483691107804827 
622	 0,483333598231345 
623	 0,483142230415146 
624	 0,483153150313613 
625	 0,483357385276492 
626	 0,483425866266441 
627	 0,48345642395789 
628	 0,484007054765651 
629	 0,48441074327824 
630	 0,484376670636603 
631	 0,484388413321361 
632	 0,484897875926133 
633	 0,486541771717396 
634	 0,487910160669835 
635	 0,488688297495207 
636	 0,489591462082999 
637	 0,490534818631659 
638	 0,491444649355623 
639	 0,492549423887051 
640	 0,493588567930938 
641	 0,493731733885843 
642	 0,494271951052041 
643	 0,495590236013265 
644	 0,496534532319121 
645	 0,497021108576931 
646	 0,497096826805003 
647	 0,497277975381733 
648	 0,497489885341608 
649	 0,497001928928991 
650	 0,496122272159296 
651	 0,495073031141832 
652	 0,493828989282099 
653	 0,492515695529255 
654	 0,491327414367913 
655	 0,490323474830808 
656	 0,489245877815316 
657	 0,48676081859628 
658	 0,484159135496004 
659	 0,482796503499549 
660	 0,481130224962806 
661	 0,478979336013721 
662	 0,476833011546925 
663	 0,474495558018551 
664	 0,472025662105196 
665	 0,470321041985856 
666	 0,469089079136153 
667	 0,467729689225799 
668	 0,466117802650729 
669	 0,464401309451477 
670	 0,463254090524654 
671	 0,462671664089667 
672	 0,462558223498145 
673	 0,461995097368245 
674	 0,461169015359691 
675	 0,460909136868934 
676	 0,46099769773719 
677	 0,461312453532167 
678	 0,461585146538852 
679	 0,461679713376189 
680	 0,461484239333388 
681	 0,461909056963152 
682	 0,463117780732721 
683	 0,464780387658061 
684	 0,466795878164497 
685	 0,469073289232724 
686	 0,47146379672657 
687	 0,474230787062078 
688	 0,47784910152504 
689	 0,481891817372914 
690	 0,486323446732416 
691	 0,491455431987925 
692	 0,497438221258545 
693	 0,504335883937033 
694	 0,511591727523457 
695	 0,519005208730712 
696	 0,526384305626854 
697	 0,533970190065366 
698	 0,541834910691914 
699	 0,549814221131036 
700	 0,557711476971158 
701	 0,565262267587994 
702	 0,572760309568436 
703	 0,58010043104173 
704	 0,586738118500161 
705	 0,592938085712811 
706	 0,598869391174246 
707	 0,604540133818658 
708	 0,609707655387063 
709	 0,613852580902094 
710	 0,61794926274892 
711	 0,622239971635073 
712	 0,626207647697261 
713	 0,629804275355206 
714	 0,633006604211783 
715	 0,635803309916178 
716	 0,638261453253531 
717	 0,640541374332139 
718	 0,642585329307789 
719	 0,644444008906613 
720	 0,646478105833794 
721	 0,648382821801119 
722	 0,649741432298721 
723	 0,650924458271922 
724	 0,65206907909565 
725	 0,653275834516043 
726	 0,65440906516144 
727	 0,655377543938344 
728	 0,656202491821555 
729	 0,656970146811296 
730	 0,657824547545315 
731	 0,658608699914181 
732	 0,659268373370127 
733	 0,659805073496907 
734	 0,660277578662771 
735	 0,660728381315432 
736	 0,661003080593156 
737	 0,661179906756803 
738	 0,661522912802203 
739	 0,661757635810952 
740	 0,661871120233592 
741	 0,662434654712768 
742	 0,662873247463925 
743	 0,662504625898788 
744	 0,662768420522585 
745	 0,663490551377938 
746	 0,663040213093083 
747	 0,662652302367371 
748	 0,662974641586295 
749	 0,6635854064082 
750	 0,664107796904777 
751	 0,664059927963487 
752	 0,663811291159321 
753	 0,663567523261585 
754	 0,663640253498221 
755	 0,663727061053705 
756	 0,663637046670195 
757	 0,663817347359156 
758	 0,664140792195611 
759	 0,664218233739392 
760	 0,66430824724585 
761	 0,664438887201747 
762	 0,664373825298968 
763	 0,664247398905837 
764	 0,664191108799168 
765	 0,664018274176642 
766	 0,6638898310804 
767	 0,664313205842494 
768	 0,664744400649489 
769	 0,664877468589553 
770	 0,664374221950718 
771	 0,663923507204593 
772	 0,664337499142217 
773	 0,664430214999159 
774	 0,664220279060791 
775	 0,664738888102115 
776	 0,664781106437989 
777	 0,66391576287592 
778	 0,663791323607905 
779	 0,664134194389384 
780	 0,664269419195031 
781	 0,664103286777192 
782	 0,663734985511701 
783	 0,663653428485206 
784	 0,663813376697799 
785	 0,664105847756002 
786	 0,663884943862163 
787	 0,663462537264931 
788	 0,663558452418873 
789	 0,663689608152115 
790	 0,663720213901984 
791	 0,66377524392276 
792	 0,663526116364163 
793	 0,662792679563944 
794	 0,662482296688207 
795	 0,662647175246683 
796	 0,663090859360952 
797	 0,663232810210339 
798	 0,662932277026687 
799	 0,662703576830958 
800	 0,66261048433554 
801	 0,662658328999182 
802	 0,662349471586593 
803	 0,66192398212723 
804	 0,662199693309495 
805	 0,662744799761007 
806	 0,663240792695956 
807	 0,662984742726696 
808	 0,662434594853642 
809	 0,662142299667505 
810	 0,661942280847301 
811	 0,661952756379766 
812	 0,662603627536298 
813	 0,663018161141186 
814	 0,662835381543306 
815	 0,662507805601238 
816	 0,662199742570325 
817	 0,662061998371693 
818	 0,662330540998359 
819	 0,662854292691725 
820	 0,663107460955776 
821	 0,662965462643634 
822	 0,662497052448027 
823	 0,662607788281016 
824	 0,66295740603829 
825	 0,662987833070892 
826	 0,662893451248971 
827	 0,662831921109289 
828	 0,663252678208746 
829	 0,663267576288461 
830	 0,662563264395886 
831	 0,662362958638958 
832	 0,662643940101391 
833	 0,663172758305084 
834	 0,663341835953173 
835	 0,663082344332074 
836	 0,662711567476835 
837	 0,662751403165885 
838	 0,663352078502791 
839	 0,663417035601221 
840	 0,662875153130459 
841	 0,66182813165935 
842	 0,661637793865674 
843	 0,66224701795966 
844	 0,662201441502506 
845	 0,661895755845591 
846	 0,661568320685629 
847	 0,661276687917669 
848	 0,661419134946428 
849	 0,662505255258649 
850	 0,663065620956927 
851	 0,662850940140233 
852	 0,662433532812869 
853	 0,662145691656415 
854	 0,662162979630039 
855	 0,662155269319689 
856	 0,661983764691337 
857	 0,661523310779498 
858	 0,661232512633811 
859	 0,661177457163527 
860	 0,661126001402952 
861	 0,661235013976065 
862	 0,661474737569171 
863	 0,661106748693023 
864	 0,660750516938145 
865	 0,661281231190793 
866	 0,661706933340413 
867	 0,661823714757533 
868	 0,661790525433306 
869	 0,661741604706857 
870	 0,66174596430616 
871	 0,661684776874109 
872	 0,661695165346869 
873	 0,661933153888173 
874	 0,661787950101197 
875	 0,661485112611507 
876	 0,662159156016198 
877	 0,66235987516518 
878	 0,661623174781845 
879	 0,661069232932976 
880	 0,661011807895543 
881	 0,661617392274624 
882	 0,66153693985718 
883	 0,661061301586162 
884	 0,661708080297225 
885	 0,662596416269941 
886	 0,663223435442913 
887	 0,66285593723956 
888	 0,66212826848733 
889	 0,661688177059314 
890	 0,661225475217757 
891	 0,660925449620177 
892	 0,661239104911655 
893	 0,661793654600414 
894	 0,662335236752177 
895	 0,662461512623859 
896	 0,66245343252671 
897	 0,662484058280058 
898	 0,661820442511444 
899	 0,661037695846476 
900	 0,661306028392986 
901	 0,661759482115283 
902	 0,662090772589528 
903	 0,66221995947326 
904	 0,662101358892392 
905	 0,661774377053004 
906	 0,661644404118004 
907	 0,66179191819281 
908	 0,662232999610337 
909	 0,662864907781585 
910	 0,663231872806645 
911	 0,662032232958818 
912	 0,661091192307516 
913	 0,661213521783082 
914	 0,661350993328785 
915	 0,661454926595869 
916	 0,661557700965434 
917	 0,661431852128052 
918	 0,661352798133057 
919	 0,662276571599158 
920	 0,66222495602683 
921	 0,660908225019334 
922	 0,660402471110532 
923	 0,66078809958294 
924	 0,661813411012993 
925	 0,661072290381823 
926	 0,659773813636621 
927	 0,660813590006424 
928	 0,661416641851991 
929	 0,660836136523538 
930	 0,659264551765103 
931	 0,658597487557101 
932	 0,659659042420312 
933	 0,659633661769311 
934	 0,659280959744583 
935	 0,659937737371958 
936	 0,659831829016936 
937	 0,659035380186439 
938	 0,658819390516551 
939	 0,658802540590818 
940	 0,65882906835517 
941	 0,65872619280221 
942	 0,658533848226709 
943	 0,658384419455551 
944	 0,659415545815463 
945	 0,660112328532908 
946	 0,657349625031719 
947	 0,655537245179334 
948	 0,655480604974716 
949	 0,654742225220114 
950	 0,655128815244108 
951	 0,657059091599865 
952	 0,65651994014884 
953	 0,654582371551185 
954	 0,653137093108287 
955	 0,653128431888041 
956	 0,653644170702654 
957	 0,651464945435472 
958	 0,650994617330798 
959	 0,652785186518671 
960	 0,65195605596565 
961	 0,650621780369586 
962	 0,65047975080876 
963	 0,650494487938964 
964	 0,650317145585038 
965	 0,649622697031759 
966	 0,649597111925003 
967	 0,650419531965972 
968	 0,651962922547729 
969	 0,65172879427481 
970	 0,649363171557631 
971	 0,649288093794221 
972	 0,650085598134916 
973	 0,650212468933586 
974	 0,65054201822425 
975	 0,65060792665455 
976	 0,649354369981495 
977	 0,649961346990373 
978	 0,652198242289919 
979	 0,652211859702441 
980	 0,651196054226326 
981	 0,649916818375972 
982	 0,649070447693895 
983	 0,649131344811911 
984	 0,650308088401801 
985	 0,650406805742672 
986	 0,649946671087176 
987	 0,650856483368883 
988	 0,650067238619493 
989	 0,648197174928888 
990	 0,650872376967068 
991	 0,652154119381798 
992	 0,649918373184559 
993	 0,651796414967753 
994	 0,654609510792318 
995	 0,654416727734068 
996	 0,652823864197889 
997	 0,651203360774698 
998	 0,651646099616481 
999	 0,651465255238162 
1000	 0,650471354380417 
1001	 0,650642263582374 
1002	 0,652137336839478 
1003	 0,654366680028686 
1004	 0,653545088516031 
1005	 0,65232577209473 
1006	 0,653468714081113 
1007	 0,655295800636328 
1008	 0,655795036370269 
1009	 0,652019623875715 
1010	 0,651220477052737 
1011	 0,653747515263906 
1012	 0,653644754436996 
1013	 0,654244036512864 
1014	 0,656380101428565 
1015	 0,65726033636577 
1016	 0,656448495179958 
1017	 0,654142459752274 
1018	 0,654500638936154 
1019	 0,654684434606922 
1020	 0,649785661231967 
1021	 0,651191968789035 
1022	 0,657707434462997 
1023	 0,658356780283978 
1024	 0,657042371324008 
1025	 0,655442143865598 
1026	 0,655504072082824 
1027	 0,656024831950868 
1028	 0,655886587190465 
1029	 0,653534896208478 
1030	 0,651014823317992 
1031	 0,651001310585231 
1032	 0,65599611353441 
1033	 0,660907967366177 
1034	 0,654920270007351 
1035	 0,652723519301149 
1036	 0,656907387660812 
1037	 0,661333375950313 
1038	 0,662202861667998 
1039	 0,658848621483298 
1040	 0,659470554617094 
1041	 0,659941382619535 
1042	 0,657428405352445 
1043	 0,66063005694835 
1044	 0,665343613590302 
1045	 0,664194334994185 
1046	 0,656747168683413 
1047	 0,649664764837411 
1048	 0,658283783120944 
1049	 0,660862609908424 
1050	 0,65443914998402 
1051	 0,655996437752181 
1052	 0,658326469167171 
1053	 0,658440217112872 
1054	 0,660773590688298 
1055	 0,662820998978543 
1056	 0,662549694300124 
1057	 0,664421366706485 
1058	 0,665193752274257 
1059	 0,659785942085194 
1060	 0,649675692609739 
1061	 0,643326125988524 
1062	 0,656663337527396 
1063	 0,65851361743587 
1064	 0,647775091695454 
1065	 0,658363398015402 
1066	 0,660051349034247 
1067	 0,644390175142005 
1068	 0,644633045486051 
1069	 0,649189610760921 
1070	 0,647154181200376 
1071	 0,632994831584959 
1072	 0,628569232757562 
1073	 0,657277385403684 
1074	 0,664601730710895 
1075	 0,655559128001232 
