Wavelength	NEUF00429.asd
325	 0,43397599008286 
326	 8,38084314453103E-02 
327	 6,25780076125115E-03 
328	 0,273078798944512 
329	 0,280235376342874 
330	 0,220790071556993 
331	 0,198733559201669 
332	 0,188032257274353 
333	 0,191359504439047 
334	 0,200954637546788 
335	 0,220101138063233 
336	 0,233003613680075 
337	 0,142390267858519 
338	 7,38135970374121E-02 
339	 0,124452148884673 
340	 0,133597682918419 
341	 0,101840061175717 
342	 8,42307198681446E-02 
343	 7,88506445613528E-02 
344	 8,82421948816027E-02 
345	 0,143577161761604 
346	 0,186865753000673 
347	 0,169901635780664 
348	 0,144623500891722 
349	 0,119034993283449 
350	 8,89078680897104E-02 
351	 9,01908067728088E-02 
352	 0,119237718558312 
353	 0,101956784212498 
354	 7,67135825435864E-02 
355	 9,67462441292039E-02 
356	 8,16266474753451E-02 
357	 0,048059186956309 
358	 8,79854425267614E-02 
359	 0,108995617294634 
360	 8,09483013713853E-02 
361	 9,47750505766927E-02 
362	 0,110217481191394 
363	 5,95277401910699E-02 
364	 5,49907050953643E-02 
365	 0,104285156462982 
366	 0,142275965504312 
367	 0,139720947964889 
368	 8,01652419721719E-02 
369	 3,75158927610615E-02 
370	 0,036757858321673 
371	 9,07080904344689E-02 
372	 0,114494457473689 
373	 9,07606271893375E-02 
374	 6,58395682139386E-02 
375	 6,13424466637911E-02 
376	 8,91471279890102E-02 
377	 9,88151245146951E-02 
378	 8,72573643078747E-02 
379	 6,07966382712122E-02 
380	 7,04166708016325E-02 
381	 0,115019264842597 
382	 0,112106523546682 
383	 8,83396558634628E-02 
384	 7,17321472888058E-02 
385	 7,68294655795473E-02 
386	 9,35461273357652E-02 
387	 0,086071292957011 
388	 8,73335687948878E-02 
389	 0,103242736416551 
390	 9,31348004473968E-02 
391	 7,62154502386968E-02 
392	 7,91268664154793E-02 
393	 7,77511929137969E-02 
394	 7,10370259338456E-02 
395	 7,02729935728115E-02 
396	 7,34185395175364E-02 
397	 7,81315943028893E-02 
398	 7,84848586879556E-02 
399	 7,58683277238819E-02 
400	 7,31675667136515E-02 
401	 7,08365396729579E-02 
402	 6,88704722493601E-02 
403	 6,53530980001703E-02 
404	 6,56987076101784E-02 
405	 7,18651309478807E-02 
406	 6,41796314815189E-02 
407	 5,24290343656845E-02 
408	 6,20574759791934E-02 
409	 6,73839642671107E-02 
410	 6,28008642279338E-02 
411	 5,88000876845328E-02 
412	 5,81229018451956E-02 
413	 6,25344833768436E-02 
414	 6,99768874475774E-02 
415	 7,63060104151753E-02 
416	 7,30014404172514E-02 
417	 6,99189839292794E-02 
418	 7,01555518531421E-02 
419	 6,44805577231874E-02 
420	 6,00744008842046E-02 
421	 6,64526629952911E-02 
422	 6,61165486684478E-02 
423	 5,87075985189565E-02 
424	 5,59501869158046E-02 
425	 5,70204667294369E-02 
426	 0,060828849164971 
427	 6,25851779978447E-02 
428	 6,23037420497624E-02 
429	 6,10819909081281E-02 
430	 6,25336551879686E-02 
431	 6,60003571992114E-02 
432	 6,28319284816328E-02 
433	 6,15642712594942E-02 
434	 0,069097990958157 
435	 6,80794946688055E-02 
436	 6,09235481475449E-02 
437	 6,15637334300012E-02 
438	 6,32613717414377E-02 
439	 6,33013335616475E-02 
440	 6,12711380135029E-02 
441	 5,92331950808138E-02 
442	 5,98361353792346E-02 
443	 6,10590337253042E-02 
444	 6,23032458458736E-02 
445	 0,063495089882796 
446	 6,40160941206386E-02 
447	 6,38235340029565E-02 
448	 6,63668671925956E-02 
449	 6,86425074520414E-02 
450	 6,38855192955694E-02 
451	 6,30567624314549E-02 
452	 6,72128668032828E-02 
453	 6,43053442955907E-02 
454	 6,13489845013569E-02 
455	 6,50220044555861E-02 
456	 6,63058004260322E-02 
457	 6,53388379731466E-02 
458	 6,75268012492873E-02 
459	 6,75871535089635E-02 
460	 6,42201274160134E-02 
461	 6,37623518733465E-02 
462	 6,45714761446141E-02 
463	 6,36170569115736E-02 
464	 6,43761003341708E-02 
465	 6,68865426815494E-02 
466	 6,91484428447198E-02 
467	 6,76189129435082E-02 
468	 6,10875220729026E-02 
469	 6,09940188471404E-02 
470	 6,50940632252782E-02 
471	 6,55902556960429E-02 
472	 6,50368386590231E-02 
473	 6,43145669817649E-02 
474	 6,50226393472848E-02 
475	 6,41553836677294E-02 
476	 5,90691560150649E-02 
477	 5,95886428926415E-02 
478	 6,42199538932442E-02 
479	 6,31038573672963E-02 
480	 0,062232297877368 
481	 6,40770459081074E-02 
482	 6,62734612107606E-02 
483	 6,64068120738392E-02 
484	 6,12592967932537E-02 
485	 5,89346737483306E-02 
486	 6,07569879352041E-02 
487	 6,22186202405338E-02 
488	 6,31735686814834E-02 
489	 6,35165095725557E-02 
490	 6,33196680636016E-02 
491	 6,27417403180039E-02 
492	 6,17644585124812E-02 
493	 6,22157547804759E-02 
494	 0,064273636747363 
495	 6,53380121822987E-02 
496	 6,47632879799548E-02 
497	 6,21628891614887E-02 
498	 6,22475583438876E-02 
499	 6,44872323334582E-02 
500	 6,37614319111948E-02 
501	 6,23321997053524E-02 
502	 6,17740304585906E-02 
503	 6,39362313046286E-02 
504	 6,67568863528898E-02 
505	 6,63051769433583E-02 
506	 6,60747757545569E-02 
507	 6,66710104168874E-02 
508	 6,58242005269093E-02 
509	 6,55571255575563E-02 
510	 6,75449078209452E-02 
511	 6,74070792874449E-02 
512	 6,57287863585714E-02 
513	 6,61867752386251E-02 
514	 6,68112763252543E-02 
515	 6,70164486064068E-02 
516	 0,068846668454876 
517	 7,00470971036251E-02 
518	 6,72535100630581E-02 
519	 6,62620473401259E-02 
520	 6,78096062688097E-02 
521	 6,85911578029822E-02 
522	 6,89621617114854E-02 
523	 6,91781217297777E-02 
524	 6,89036369120113E-02 
525	 6,85410662173979E-02 
526	 6,91556422383697E-02 
527	 6,91674803413835E-02 
528	 6,83599489655813E-02 
529	 6,87108144762694E-02 
530	 6,93302622962028E-02 
531	 6,90577424661932E-02 
532	 6,89668681927703E-02 
533	 0,069150102419944 
534	 6,91220173813585E-02 
535	 6,91160122018469E-02 
536	 6,92135268382079E-02 
537	 6,89643285154499E-02 
538	 6,84329139685009E-02 
539	 6,77420255000439E-02 
540	 6,78936841794369E-02 
541	 6,88715799753978E-02 
542	 6,90321088374541E-02 
543	 6,88315573752091E-02 
544	 6,87743090916137E-02 
545	 6,80106396324578E-02 
546	 6,70928458514857E-02 
547	 6,78946627744606E-02 
548	 6,90634972097909E-02 
549	 6,98037828084811E-02 
550	 6,96031955409142E-02 
551	 6,91973387783776E-02 
552	 6,98459814175345E-02 
553	 0,069916088712893 
554	 6,92972155421225E-02 
555	 6,95711887116568E-02 
556	 0,069580791018337 
557	 6,84568062497495E-02 
558	 6,82750378617883E-02 
559	 6,86874105800733E-02 
560	 6,78221582756325E-02 
561	 6,71093716690986E-02 
562	 6,70530166632022E-02 
563	 0,067042433205274 
564	 6,69230620309016E-02 
565	 6,65651389642005E-02 
566	 0,066595543381818 
567	 6,69349265114165E-02 
568	 6,65996015808282E-02 
569	 6,66456285154246E-02 
570	 6,77408585353938E-02 
571	 6,87576114152765E-02 
572	 6,95108994028899E-02 
573	 7,00337003028028E-02 
574	 7,04427762154333E-02 
575	 0,070962766393984 
576	 7,23416970702511E-02 
577	 0,074012964615171 
578	 7,52711817938654E-02 
579	 7,56952528025731E-02 
580	 7,58354989981054E-02 
581	 7,77526798878044E-02 
582	 7,95562033916254E-02 
583	 8,02162426345445E-02 
584	 8,07899511915016E-02 
585	 0,081395890866936 
586	 8,20239224908936E-02 
587	 8,22164779502592E-02 
588	 8,22004638804785E-02 
589	 8,36527490022161E-02 
590	 8,49442134927644E-02 
591	 8,45835293059991E-02 
592	 0,08472702403101 
593	 8,54136131966768E-02 
594	 8,54455037906923E-02 
595	 8,59178726532988E-02 
596	 8,70743076123492E-02 
597	 8,70382449323403E-02 
598	 8,64974572209457E-02 
599	 8,67871949381732E-02 
600	 8,66560775870355E-02 
601	 8,59980061437515E-02 
602	 8,57456244831564E-02 
603	 8,55080929341074E-02 
604	 8,49568629299348E-02 
605	 8,41009591021446E-02 
606	 8,32507917996318E-02 
607	 0,083079231126816 
608	 8,32994240477331E-02 
609	 0,083603570689566 
610	 8,30960185039323E-02 
611	 8,18993290938306E-02 
612	 8,02801917975271E-02 
613	 7,97503395871007E-02 
614	 8,02521739219273E-02 
615	 8,02346883439624E-02 
616	 7,98401195435976E-02 
617	 7,91919224743622E-02 
618	 7,87023138864317E-02 
619	 7,83375269756733E-02 
620	 7,78068302222698E-02 
621	 7,79723217326925E-02 
622	 7,86814053957959E-02 
623	 7,77291991848716E-02 
624	 7,67652551454597E-02 
625	 7,75603020725215E-02 
626	 0,078448764791444 
627	 7,90030399598415E-02 
628	 0,07916912715049 
629	 7,89754082664068E-02 
630	 7,85751301971883E-02 
631	 7,87298102212073E-02 
632	 7,94652742525609E-02 
633	 8,06878088732453E-02 
634	 8,14180480123708E-02 
635	 8,16499283463281E-02 
636	 8,28210979491126E-02 
637	 8,39186133632655E-02 
638	 0,084127739279959 
639	 8,49077888382806E-02 
640	 8,60788119997072E-02 
641	 0,086546917173728 
642	 8,67751637978213E-02 
643	 8,70342307520309E-02 
644	 8,78455432143351E-02 
645	 8,87415230221409E-02 
646	 8,90645238379079E-02 
647	 8,89937204661286E-02 
648	 8,86135041378747E-02 
649	 8,80140860170849E-02 
650	 8,76234796603477E-02 
651	 8,76208985475804E-02 
652	 8,69079866046164E-02 
653	 8,54905942782064E-02 
654	 8,36256386693966E-02 
655	 8,23477334270559E-02 
656	 0,081796721146473 
657	 8,05790774270881E-02 
658	 0,078999750836434 
659	 7,74659191379828E-02 
660	 7,59751024169098E-02 
661	 7,46145233427183E-02 
662	 7,35551518125678E-02 
663	 7,25853410552784E-02 
664	 7,15793599150769E-02 
665	 7,05201021180589E-02 
666	 6,94612061997524E-02 
667	 6,84664800519361E-02 
668	 6,79514583361547E-02 
669	 6,78096527161481E-02 
670	 6,71739538381086E-02 
671	 0,066312002948871 
672	 6,55117604535609E-02 
673	 6,53110585870698E-02 
674	 6,54532490958401E-02 
675	 6,50418810519937E-02 
676	 6,49374416165696E-02 
677	 6,52639121976841E-02 
678	 6,48594888823859E-02 
679	 6,44702160908978E-02 
680	 6,50683162750944E-02 
681	 0,065493062747718 
682	 6,57068593880954E-02 
683	 6,64675716849004E-02 
684	 6,74682234452891E-02 
685	 6,85347198863849E-02 
686	 0,069624553359216 
687	 0,071247419714362 
688	 7,43700164932747E-02 
689	 0,076919927403166 
690	 7,87472387764651E-02 
691	 8,20595319871168E-02 
692	 8,64465291992957E-02 
693	 9,14454061552576E-02 
694	 9,71112781786786E-02 
695	 0,103601939978395 
696	 0,111220885176937 
697	 0,119827156193889 
698	 0,129351971000289 
699	 0,139777216092695 
700	 0,150868182602415 
701	 0,162281892567327 
702	 0,174280350438048 
703	 0,186813118721929 
704	 0,199662609034276 
705	 0,212302765616912 
706	 0,22438105623972 
707	 0,236236252726813 
708	 0,247889119249657 
709	 0,259276304975393 
710	 0,270095909806278 
711	 0,28034109592811 
712	 0,290491832946778 
713	 0,300199169113011 
714	 0,309128792013853 
715	 0,317401365519445 
716	 0,325138991793932 
717	 0,332589557684289 
718	 0,339835740513353 
719	 0,346768290572876 
720	 0,352409790484308 
721	 0,357474866226664 
722	 0,362995886212144 
723	 0,367810003638859 
724	 0,371848465413824 
725	 0,375794237563425 
726	 0,379605706522961 
727	 0,383181029604462 
728	 0,385915737148627 
729	 0,388221841686927 
730	 0,390945634368614 
731	 0,393628671581834 
732	 0,39605295442511 
733	 0,397908346582546 
734	 0,399479322729888 
735	 0,401041412031825 
736	 0,402679659398579 
737	 0,404337236982106 
738	 0,40589745436609 
739	 0,406912103989006 
740	 0,407393807359239 
741	 0,408451842687005 
742	 0,409799722098436 
743	 0,410992634746246 
744	 0,411961284743872 
745	 0,41267532480694 
746	 0,413088846136513 
747	 0,413726586503081 
748	 0,414806276515364 
749	 0,415630357390504 
750	 0,416202084816749 
751	 0,416650842319335 
752	 0,417361870980714 
753	 0,418266746800431 
754	 0,418661866385912 
755	 0,418923170459735 
756	 0,41933560796992 
757	 0,419747216924042 
758	 0,420256410058532 
759	 0,421147714640469 
760	 0,421635454105281 
761	 0,421610696377188 
762	 0,421909737038354 
763	 0,42236854839984 
764	 0,422789820773835 
765	 0,423179140447915 
766	 0,423552963652443 
767	 0,423995674254973 
768	 0,424295918265672 
769	 0,424433533171535 
770	 0,424793004803741 
771	 0,425300726708063 
772	 0,425820549906066 
773	 0,425845647606742 
774	 0,425621987112848 
775	 0,426328558897697 
776	 0,426762804176757 
777	 0,426411083537564 
778	 0,426342189990249 
779	 0,42666531138664 
780	 0,427359650398194 
781	 0,427560878443968 
782	 0,427289062169392 
783	 0,427559762355608 
784	 0,427942295982644 
785	 0,42811150201359 
786	 0,427824850129681 
787	 0,427546604122808 
788	 0,428175640847633 
789	 0,428513284231392 
790	 0,42837282765793 
791	 0,428651811477486 
792	 0,428866069452171 
793	 0,428650240905923 
794	 0,42853724021089 
795	 0,428661621672455 
796	 0,429153513286029 
797	 0,429313089059058 
798	 0,429039854574635 
799	 0,429112817859032 
800	 0,429477429477786 
801	 0,429991695882092 
802	 0,42992531624207 
803	 0,429477414429117 
804	 0,429457871565952 
805	 0,429811157308827 
806	 0,430465080885303 
807	 0,430985454380006 
808	 0,431420116221545 
809	 0,431842398459815 
810	 0,431775333827399 
811	 0,431543087536583 
812	 0,432348712702993 
813	 0,43287995583122 
814	 0,432676846117926 
815	 0,432617383766618 
816	 0,432733809993104 
817	 0,432972256639778 
818	 0,433413331745276 
819	 0,43395154905424 
820	 0,434308647244328 
821	 0,43436853670733 
822	 0,434190133782642 
823	 0,434524738754209 
824	 0,435103891823878 
825	 0,435479696538287 
826	 0,435429376787205 
827	 0,435236587164903 
828	 0,436026220444377 
829	 0,436627853412301 
830	 0,43651938471209 
831	 0,43665788060448 
832	 0,436977072056507 
833	 0,437246078200478 
834	 0,437087813542782 
835	 0,436704868693679 
836	 0,43700013323996 
837	 0,437778412034275 
838	 0,43870112160188 
839	 0,438309863390127 
840	 0,437350449894223 
841	 0,437093637948982 
842	 0,437755622806847 
843	 0,438890882929556 
844	 0,438809323899141 
845	 0,438601826825271 
846	 0,438838218129208 
847	 0,439029560629235 
848	 0,439074095277377 
849	 0,438900996475124 
850	 0,438938622970241 
851	 0,439244574222168 
852	 0,439688922536487 
853	 0,439709369132808 
854	 0,439102473658251 
855	 0,438759705988829 
856	 0,438786564622075 
857	 0,439161543135498 
858	 0,439406268062562 
859	 0,439422025344506 
860	 0,439351619003946 
861	 0,439354968303535 
862	 0,439525820143445 
863	 0,439768036416345 
864	 0,440129894744028 
865	 0,440680484335376 
866	 0,441179021736403 
867	 0,441559280307396 
868	 0,441891027270256 
869	 0,441903991362014 
870	 0,441632027254382 
871	 0,442082805321515 
872	 0,442708628953407 
873	 0,442744843360808 
874	 0,442385505106212 
875	 0,442059161186895 
876	 0,442851167246571 
877	 0,443665082992454 
878	 0,444005942504311 
879	 0,444068448520093 
880	 0,444048707369684 
881	 0,444169276523153 
882	 0,444827105255988 
883	 0,445686118187738 
884	 0,445683283289537 
885	 0,445554989753951 
886	 0,445578786470896 
887	 0,44574077321377 
888	 0,445870333450546 
889	 0,445805235524391 
890	 0,445519348488351 
891	 0,44540052952906 
892	 0,446308835117579 
893	 0,446984250244921 
894	 0,447149618714762 
895	 0,447709175390472 
896	 0,447968478097619 
897	 0,447487496087188 
898	 0,447733714512902 
899	 0,448091570234391 
900	 0,447023004651309 
901	 0,446767074669774 
902	 0,4476885391286 
903	 0,448657979571098 
904	 0,44897531401861 
905	 0,44838949147624 
906	 0,448665560390846 
907	 0,449155620220551 
908	 0,448638587154795 
909	 0,448433034899303 
910	 0,448728725014279 
911	 0,449228741965417 
912	 0,44878806082835 
913	 0,447278266421249 
914	 0,447380434445763 
915	 0,448444415814977 
916	 0,449404131859337 
917	 0,449403442094192 
918	 0,448676810371421 
919	 0,448294111949619 
920	 0,448406460686776 
921	 0,448948018766119 
922	 0,449177142354457 
923	 0,44902215264413 
924	 0,44846398328281 
925	 0,447553627701303 
926	 0,446704065834234 
927	 0,446585219784502 
928	 0,446596234243178 
929	 0,446403726596696 
930	 0,44545602336754 
931	 0,444830625809663 
932	 0,445069079054554 
933	 0,445150822910057 
934	 0,44501469941004 
935	 0,444733114733165 
936	 0,444113375894585 
937	 0,443129175161538 
938	 0,441761460466779 
939	 0,440479500749204 
940	 0,439625732434585 
941	 0,439764491287792 
942	 0,439758352846085 
943	 0,438667885073651 
944	 0,438064126207394 
945	 0,437469900868778 
946	 0,435533928861833 
947	 0,433819361921902 
948	 0,432763272034028 
949	 0,432131313392716 
950	 0,431434017988789 
951	 0,430276830918807 
952	 0,428199469869855 
953	 0,426159425100068 
954	 0,425305502302508 
955	 0,424115211637804 
956	 0,422550431181818 
957	 0,42121647254043 
958	 0,421113788080472 
959	 0,421843863220168 
960	 0,419772847900136 
961	 0,418048094928861 
962	 0,418857992537282 
963	 0,418594411686514 
964	 0,417532100415307 
965	 0,416876055002004 
966	 0,417152582481454 
967	 0,417592240090938 
968	 0,415151349205181 
969	 0,41380043080549 
970	 0,414976289919568 
971	 0,416433527017316 
972	 0,416635087045573 
973	 0,414686442743372 
974	 0,415252744382609 
975	 0,416894631536787 
976	 0,415579626645129 
977	 0,415294120721766 
978	 0,416528819219841 
979	 0,417303637103383 
980	 0,416865826633243 
981	 0,415323709508234 
982	 0,415841084419882 
983	 0,41680686840095 
984	 0,416447239814666 
985	 0,416843198923961 
986	 0,417715024115459 
987	 0,41787053801776 
988	 0,417452973447756 
989	 0,41700827111312 
990	 0,418239200059686 
991	 0,419984355673611 
992	 0,421443392212005 
993	 0,422320655527382 
994	 0,422292068989993 
995	 0,42127006652939 
996	 0,421304281142154 
997	 0,423422874379314 
998	 0,4289341280811 
999	 0,429995491813759 
1000	 0,426689235968945 
1001	 0,428137970499833 
1002	 0,430513527643288 
1003	 0,431587650396591 
1004	 0,430124461286583 
1005	 0,428964814326159 
1006	 0,430733626256358 
1007	 0,431994528134483 
1008	 0,432391018832432 
1009	 0,432449123285182 
1010	 0,431557734810687 
1011	 0,430201517692337 
1012	 0,429520429784535 
1013	 0,433866543018116 
1014	 0,442292731057439 
1015	 0,439839711376048 
1016	 0,436599484143935 
1017	 0,441040263321607 
1018	 0,443309484272604 
1019	 0,442106422258757 
1020	 0,43788362253593 
1021	 0,438441759193192 
1022	 0,443706822260427 
1023	 0,447870198414189 
1024	 0,449475307444244 
1025	 0,448482333984825 
1026	 0,448636736786521 
1027	 0,448308309679734 
1028	 0,446578008344967 
1029	 0,444828633325922 
1030	 0,444311463541678 
1031	 0,446086597634199 
1032	 0,447981311888864 
1033	 0,449010275492897 
1034	 0,448350398613318 
1035	 0,447374987920198 
1036	 0,447174467339477 
1037	 0,449655538448016 
1038	 0,45308288549267 
1039	 0,455569094460998 
1040	 0,451676293399354 
1041	 0,450102051702206 
1042	 0,45699970637056 
1043	 0,460582732404834 
1044	 0,461542025850441 
1045	 0,462861317301698 
1046	 0,458189379935474 
1047	 0,451995750613013 
1048	 0,457291059542755 
1049	 0,458822675959181 
1050	 0,454551109043403 
1051	 0,456301222794777 
1052	 0,45706110647217 
1053	 0,455096285739477 
1054	 0,461555609571153 
1055	 0,465973852056067 
1056	 0,459797659301572 
1057	 0,456292571034539 
1058	 0,456916229267112 
1059	 0,460411727597647 
1060	 0,457919498688325 
1061	 0,453492340406236 
1062	 0,460518692953811 
1063	 0,460264963648446 
1064	 0,453367074130894 
1065	 0,464477489366654 
1066	 0,46433563389943 
1067	 0,447713485511273 
1068	 0,462560540273333 
1069	 0,47879721984981 
1070	 0,473438373399956 
1071	 0,464979701497925 
1072	 0,462195797151475 
1073	 0,472145187098685 
1074	 0,48169901913673 
1075	 0,482488192060717 
