Wavelength	NEUF00722.asd
325	 0,505695830886671 
326	 0,405158422261954 
327	 0,273445263154275 
328	 0,239035553943699 
329	 0,192692962382622 
330	 0,179282706381716 
331	 0,265106301134766 
332	 0,313253733455627 
333	 0,295609745749228 
334	 0,288875826419988 
335	 0,278304408512904 
336	 0,261116669291705 
337	 0,246954851866289 
338	 0,202187644179143 
339	 0,11556660343211 
340	 0,147065719605544 
341	 0,248739406972116 
342	 0,256951790382394 
343	 0,235026598416592 
344	 0,20407259961775 
345	 0,214669424800757 
346	 0,226814291439203 
347	 0,198748981033639 
348	 0,163569666485118 
349	 0,132048777417025 
350	 0,125841679117639 
351	 0,126228046496029 
352	 0,12247590262682 
353	 9,93230359298888E-02 
354	 8,94378039132608E-02 
355	 0,133504061999444 
356	 0,16388834676116 
357	 0,162492913852591 
358	 0,118922062609337 
359	 0,110553870117178 
360	 0,160165088274933 
361	 0,160390129224541 
362	 0,131605587213475 
363	 0,11644829022835 
364	 0,129266800357159 
365	 0,160639256983268 
366	 0,173136215115968 
367	 0,169669151401157 
368	 0,151411816789602 
369	 0,130157156761244 
370	 0,119685350657517 
371	 0,133873163623097 
372	 0,141748824847296 
373	 0,135618102911389 
374	 0,127785699038254 
375	 0,116988903793376 
376	 0,104835502572819 
377	 0,120639547469533 
378	 0,148118446560348 
379	 0,143822991722399 
380	 0,144647577938353 
381	 0,158807703636514 
382	 0,170847240670843 
383	 0,173310270357519 
384	 0,160402304975988 
385	 0,152032000134621 
386	 0,148630345953167 
387	 0,136102472503229 
388	 0,133715697262902 
389	 0,144614448963466 
390	 0,140928341767773 
391	 0,132703869990431 
392	 0,134534412917276 
393	 0,133053965256055 
394	 0,127306655487141 
395	 0,121386487789781 
396	 0,121015900604855 
397	 0,12780515910734 
398	 0,131221270353543 
399	 0,130979207703879 
400	 0,128251758641344 
401	 0,124407563607887 
402	 0,122629340814004 
403	 0,131605499188282 
404	 0,142002679391978 
405	 0,146013814741813 
406	 0,136716668934436 
407	 0,121673941640756 
408	 0,117047440418971 
409	 0,114218081176934 
410	 0,111693735476389 
411	 0,114501281747055 
412	 0,116576229467392 
413	 0,11279433044126 
414	 0,118161761203436 
415	 0,127547032828957 
416	 0,121358249988517 
417	 0,116943578236456 
418	 0,119924147645517 
419	 0,117218088094997 
420	 0,114543440094702 
421	 0,120258362579756 
422	 0,118115249720627 
423	 0,109899683670445 
424	 0,113216456584455 
425	 0,118807200441071 
426	 0,120725093870175 
427	 0,120636932370001 
428	 0,119597888283909 
429	 0,118850664584411 
430	 0,120668331437856 
431	 0,124206819169097 
432	 0,123071849449759 
433	 0,120021439283106 
434	 0,117871730789517 
435	 0,117227912153919 
436	 0,117514609439197 
437	 0,116583577890656 
438	 0,117171442721182 
439	 0,119609282172069 
440	 0,119419632034116 
441	 0,117790557532462 
442	 0,116737973061967 
443	 0,116210305366611 
444	 0,116652345302706 
445	 0,118911935863114 
446	 0,122853039489242 
447	 0,127673237798941 
448	 0,128149872774546 
449	 0,125942084039129 
450	 0,125332532982203 
451	 0,125495456131604 
452	 0,126097538491298 
453	 0,126291881872785 
454	 0,125639987898685 
455	 0,12395492385124 
456	 0,123702238710136 
457	 0,125276990218832 
458	 0,12872548315086 
459	 0,130550852712139 
460	 0,129490920148537 
461	 0,128649943812512 
462	 0,127997333055349 
463	 0,127042258450739 
464	 0,127553276089945 
465	 0,129026593441199 
466	 0,128377028715532 
467	 0,126816754500571 
468	 0,12530483763562 
469	 0,12475455573351 
470	 0,125170480017902 
471	 0,126233877145069 
472	 0,127131001290275 
473	 0,127801052590021 
474	 0,129891929695543 
475	 0,131081678283014 
476	 0,129209127647164 
477	 0,129156644336645 
478	 0,130244335616029 
479	 0,127504612635166 
480	 0,12541974773576 
481	 0,126054834285832 
482	 0,128259089777876 
483	 0,128992392348717 
484	 0,123885226564574 
485	 0,124104231480943 
486	 0,129867965207234 
487	 0,130196440709696 
488	 0,127963389451207 
489	 0,12572330192479 
490	 0,125255394980072 
491	 0,12600183231679 
492	 0,125863199817015 
493	 0,125480351761944 
494	 0,125203982276429 
495	 0,126047456970873 
496	 0,126950733760975 
497	 0,126666442508541 
498	 0,125531368141655 
499	 0,124411185697777 
500	 0,125649546101349 
501	 0,126523462075656 
502	 0,125796961718046 
503	 0,126829892400403 
504	 0,128927076385483 
505	 0,130270838790467 
506	 0,130672061342029 
507	 0,130393448802876 
508	 0,131044295706541 
509	 0,131920705663656 
510	 0,132352701419071 
511	 0,133229841261167 
512	 0,134355794047199 
513	 0,13487770200594 
514	 0,134990342646281 
515	 0,135070283059874 
516	 0,137115634187388 
517	 0,138903925913866 
518	 0,137114292966163 
519	 0,136593619208959 
520	 0,138058411414157 
521	 0,139211934874237 
522	 0,139898849092111 
523	 0,139959445768723 
524	 0,138714117372317 
525	 0,137356394814871 
526	 0,138803261102203 
527	 0,139734083756355 
528	 0,139199651039488 
529	 0,138948589887586 
530	 0,138645329314111 
531	 0,137780466273424 
532	 0,137606341993324 
533	 0,138184674646004 
534	 0,13879694071576 
535	 0,139284181056564 
536	 0,139453803759995 
537	 0,138744848620851 
538	 0,137816939285716 
539	 0,137956196122716 
540	 0,138316325124426 
541	 0,138551233918387 
542	 0,138376535492381 
543	 0,138123702656706 
544	 0,138132460260388 
545	 0,138242441708552 
546	 0,138558877810409 
547	 0,139505827576697 
548	 0,140300988069996 
549	 0,140508103964776 
550	 0,140100254344079 
551	 0,139697906909729 
552	 0,140243970485278 
553	 0,140700572180466 
554	 0,140833082152505 
555	 0,141106245247763 
556	 0,141013214196161 
557	 0,140168436232293 
558	 0,139296682576052 
559	 0,138507111265531 
560	 0,137658047416557 
561	 0,136808537469712 
562	 0,136086799108651 
563	 0,136117168355983 
564	 0,136017133388504 
565	 0,134568626348225 
566	 0,134488693822567 
567	 0,13571963273671 
568	 0,135275514858372 
569	 0,135520971475499 
570	 0,137894867825387 
571	 0,13937792996531 
572	 0,140091978348934 
573	 0,141301914092369 
574	 0,143081159385462 
575	 0,145262216297874 
576	 0,146379810544811 
577	 0,147882903122439 
578	 0,151431763565742 
579	 0,15347197567625 
580	 0,154042507842735 
581	 0,155940793398986 
582	 0,15819992131834 
583	 0,160167652924902 
584	 0,161051564743038 
585	 0,161495474850562 
586	 0,162839643383521 
587	 0,163815721522771 
588	 0,164381261391968 
589	 0,166093069180611 
590	 0,167788557523541 
591	 0,168366613055123 
592	 0,168972761613193 
593	 0,169634989472514 
594	 0,169755220999201 
595	 0,169976376772255 
596	 0,1705564888596 
597	 0,171055610131582 
598	 0,171328571229444 
599	 0,171260276700162 
600	 0,170593730709506 
601	 0,169587302465722 
602	 0,169480823189303 
603	 0,169247459959376 
604	 0,168161257619674 
605	 0,16793332755872 
606	 0,168111064678579 
607	 0,166897515349161 
608	 0,16556747407378 
609	 0,16460101483327 
610	 0,163781562426352 
611	 0,163113506154855 
612	 0,162609687496618 
613	 0,161894095936717 
614	 0,161009625379986 
615	 0,160457174362385 
616	 0,159897604878868 
617	 0,159132187844455 
618	 0,158359909105005 
619	 0,157843153027965 
620	 0,158071081152171 
621	 0,158096220645561 
622	 0,157678775252875 
623	 0,157350617183602 
624	 0,157308582536898 
625	 0,157711352859341 
626	 0,158405948214995 
627	 0,159018346461409 
628	 0,158574597286309 
629	 0,15838801543028 
630	 0,159097588932494 
631	 0,159860011456163 
632	 0,160599038020803 
633	 0,161341440916874 
634	 0,162484630761107 
635	 0,163939504016595 
636	 0,164815509389237 
637	 0,165783473986868 
638	 0,167382910831363 
639	 0,168692084022123 
640	 0,16961029744325 
641	 0,170282661660379 
642	 0,171245587961588 
643	 0,172551915034671 
644	 0,173028404272743 
645	 0,173036085606553 
646	 0,173183592335828 
647	 0,173639201894324 
648	 0,174084877980247 
649	 0,173273910995439 
650	 0,172172893721861 
651	 0,171393378472629 
652	 0,170191390202406 
653	 0,168574812048351 
654	 0,166740744122472 
655	 0,164897660224039 
656	 0,162998561302253 
657	 0,160296318460949 
658	 0,15760818849954 
659	 0,155762137360029 
660	 0,153242361339507 
661	 0,150300094690827 
662	 0,148607136825758 
663	 0,146964440902926 
664	 0,144788411554827 
665	 0,142493976478396 
666	 0,140370569273579 
667	 0,138761011684286 
668	 0,137694062426497 
669	 0,13694346208264 
670	 0,135606174187423 
671	 0,134354897768122 
672	 0,133724547307286 
673	 0,133059928538265 
674	 0,132547340562343 
675	 0,132985356615723 
676	 0,133188865671024 
677	 0,132796313329074 
678	 0,132525440821715 
679	 0,13258878889008 
680	 0,133153967758295 
681	 0,13384817856923 
682	 0,134728110912801 
683	 0,136296897656495 
684	 0,137976930277671 
685	 0,139519004372688 
686	 0,141705287189039 
687	 0,144771613157203 
688	 0,148903722198825 
689	 0,153602003231117 
690	 0,158682955316239 
691	 0,164020703604631 
692	 0,170428446249205 
693	 0,178572740249466 
694	 0,187481861117608 
695	 0,197033626310946 
696	 0,207412426712594 
697	 0,218368570285325 
698	 0,229756032843342 
699	 0,241475790032314 
700	 0,253632140945169 
701	 0,266311046896003 
702	 0,278604549440166 
703	 0,290314747479159 
704	 0,30172399212215 
705	 0,312874925699943 
706	 0,323702779101414 
707	 0,333482030910948 
708	 0,342543010985826 
709	 0,351651402238659 
710	 0,360253361207233 
711	 0,368256625789684 
712	 0,37604611256819 
713	 0,38319155198448 
714	 0,389317881661077 
715	 0,395015270642659 
716	 0,400390489645523 
717	 0,405323907625773 
718	 0,410259169644108 
719	 0,415229958360882 
720	 0,419171557534849 
721	 0,422539985734317 
722	 0,426053449731459 
723	 0,429290783167025 
724	 0,432145724330924 
725	 0,434534994454283 
726	 0,436809056734545 
727	 0,439164046535231 
728	 0,441300478319379 
729	 0,443173128623527 
730	 0,444750022718852 
731	 0,44640112186521 
732	 0,44812458191879 
733	 0,449356008026766 
734	 0,450406012351027 
735	 0,451547278933347 
736	 0,452397528246591 
737	 0,453183331588339 
738	 0,4547188775159 
739	 0,455691420861509 
740	 0,45578354820106 
741	 0,456331285733515 
742	 0,457030625059486 
743	 0,457411915729115 
744	 0,457999847697478 
745	 0,458709459657278 
746	 0,458883248217547 
747	 0,459228495369882 
748	 0,460026045294286 
749	 0,460364823032411 
750	 0,460494255184276 
751	 0,460957863985976 
752	 0,461485340333329 
753	 0,46194443219214 
754	 0,462148081354574 
755	 0,462179722042274 
756	 0,462162878859028 
757	 0,462587544131424 
758	 0,463288873885574 
759	 0,463813846236899 
760	 0,463994910605313 
761	 0,463917892032449 
762	 0,464390766042401 
763	 0,464750038625765 
764	 0,464396771878972 
765	 0,464494150952948 
766	 0,46503100029186 
767	 0,465403074564345 
768	 0,465654612305152 
769	 0,465769621672771 
770	 0,465694809850697 
771	 0,465722089670958 
772	 0,466179796934082 
773	 0,466523788600407 
774	 0,466682128617109 
775	 0,466911316696912 
776	 0,466886243657664 
777	 0,466551902152419 
778	 0,466703534000432 
779	 0,46714871965281 
780	 0,46747156836757 
781	 0,467734185846699 
782	 0,467828069214202 
783	 0,467353939992043 
784	 0,467026387830016 
785	 0,467270966663861 
786	 0,467328529579286 
787	 0,467276233804767 
788	 0,467458554874635 
789	 0,467496801634394 
790	 0,467372516482909 
791	 0,467508005565679 
792	 0,467632463871815 
793	 0,467533706274455 
794	 0,467448942773693 
795	 0,467407610182774 
796	 0,467401999987615 
797	 0,467249334404998 
798	 0,466985738987511 
799	 0,467086820716176 
800	 0,467278782428038 
801	 0,467287728301981 
802	 0,467298376774143 
803	 0,467336770695732 
804	 0,467333924040647 
805	 0,467643038901259 
806	 0,468278110775125 
807	 0,468540806566795 
808	 0,468732330333764 
809	 0,469194702082762 
810	 0,469011809539521 
811	 0,46854669490407 
812	 0,469352808185367 
813	 0,470031394563706 
814	 0,46997346526576 
815	 0,469413676612361 
816	 0,468937141079863 
817	 0,469197422298399 
818	 0,469809399978826 
819	 0,470508386591745 
820	 0,470926728869319 
821	 0,470759152669362 
822	 0,470081267757152 
823	 0,470323936564277 
824	 0,471112108583815 
825	 0,47175976496879 
826	 0,47195101771803 
827	 0,471888734039968 
828	 0,472596050215658 
829	 0,473085354386486 
830	 0,472902234888221 
831	 0,472688896638467 
832	 0,472727777161247 
833	 0,473287576145634 
834	 0,473372676787521 
835	 0,472994633409384 
836	 0,473051124157461 
837	 0,473308871831154 
838	 0,47359180404252 
839	 0,473604332533011 
840	 0,47333178035903 
841	 0,472815232825345 
842	 0,47279512876659 
843	 0,473288717464694 
844	 0,47370944500115 
845	 0,473795549653152 
846	 0,473442480091418 
847	 0,473023570875243 
848	 0,473134589142521 
849	 0,474505574170142 
850	 0,474781806859888 
851	 0,473855570776548 
852	 0,473505858402502 
853	 0,473384672037126 
854	 0,473334285782358 
855	 0,473376239267075 
856	 0,473445919246612 
857	 0,473465172003035 
858	 0,473266695473239 
859	 0,473030282621872 
860	 0,473455853338091 
861	 0,47389976580648 
862	 0,474018749429209 
863	 0,473988803143441 
864	 0,473911286048688 
865	 0,473900231901137 
866	 0,474266509602939 
867	 0,474861492728025 
868	 0,475002311382019 
869	 0,475129232489118 
870	 0,475472425729319 
871	 0,476125393236128 
872	 0,476619944489456 
873	 0,47641800920861 
874	 0,476425143513302 
875	 0,476664759862745 
876	 0,476577743678835 
877	 0,476465877128995 
878	 0,476489472374723 
879	 0,476750733362139 
880	 0,477164282272681 
881	 0,477624143471991 
882	 0,478177715216826 
883	 0,478587826016709 
884	 0,478200328355258 
885	 0,478034556427939 
886	 0,478395269619353 
887	 0,478677657644724 
888	 0,478863538847405 
889	 0,478961701510676 
890	 0,478846511387281 
891	 0,478809931390612 
892	 0,47954159560035 
893	 0,480054610284805 
894	 0,48012636406286 
895	 0,480377596148463 
896	 0,480625785534977 
897	 0,480727776251382 
898	 0,480904042820917 
899	 0,480998013876249 
900	 0,48065371390454 
901	 0,480814126534271 
902	 0,481422138392985 
903	 0,4811195026023 
904	 0,481052184406889 
905	 0,481806666794238 
906	 0,482038187162273 
907	 0,482005900941042 
908	 0,482309038154334 
909	 0,482338713735772 
910	 0,48210520250101 
911	 0,482130529279871 
912	 0,481882942241973 
913	 0,481371689488922 
914	 0,482162962070036 
915	 0,483138387402422 
916	 0,482955163156754 
917	 0,482665632024984 
918	 0,482644533832892 
919	 0,483364317801177 
920	 0,483619691686738 
921	 0,483109474791956 
922	 0,482652538744502 
923	 0,482445507736678 
924	 0,482558727664842 
925	 0,482240808014553 
926	 0,481727673373292 
927	 0,481654006511696 
928	 0,481788687520139 
929	 0,48195960060812 
930	 0,48179922483498 
931	 0,48157633783579 
932	 0,481398346571417 
933	 0,48082579242319 
934	 0,480198054373612 
935	 0,479990673358941 
936	 0,479598648503989 
937	 0,479254489657938 
938	 0,48012192537507 
939	 0,480190368596194 
940	 0,478991369406486 
941	 0,4784576235414 
942	 0,478352205795786 
943	 0,478357921363383 
944	 0,478683279616659 
945	 0,478444614036525 
946	 0,475998374095897 
947	 0,474224855180329 
948	 0,473778862208271 
949	 0,473628797837943 
950	 0,473194037405344 
951	 0,47213770159065 
952	 0,470807975209597 
953	 0,469727899768899 
954	 0,469443741723818 
955	 0,469326983442537 
956	 0,469024174183636 
957	 0,467861741131545 
958	 0,467963650354313 
959	 0,469429245340126 
960	 0,469120919891195 
961	 0,468247338870706 
962	 0,467728585318924 
963	 0,466299476787127 
964	 0,464927417830513 
965	 0,465273862987486 
966	 0,465713038158581 
967	 0,465745637655616 
968	 0,465195004777313 
969	 0,464665930984802 
970	 0,464616018287159 
971	 0,465864084027287 
972	 0,466668030580961 
973	 0,465568494576419 
974	 0,46491423196026 
975	 0,465371703763273 
976	 0,467346182856883 
977	 0,4687671552886 
978	 0,468919645610341 
979	 0,467592712959554 
980	 0,466942590856372 
981	 0,467804860830333 
982	 0,467905551878326 
983	 0,467592603440761 
984	 0,467427023016073 
985	 0,467529715497085 
986	 0,467902907274521 
987	 0,468505023163002 
988	 0,468370992884357 
989	 0,467845671675439 
990	 0,46925832492803 
991	 0,470530702281356 
992	 0,470768023177265 
993	 0,471841552345607 
994	 0,473222749270879 
995	 0,47414646755722 
996	 0,474065058973916 
997	 0,474348288925822 
998	 0,477992706928474 
999	 0,476987745499627 
1000	 0,472113886000262 
1001	 0,4745024775006 
1002	 0,478153080089856 
1003	 0,479691530959296 
1004	 0,478531152037415 
1005	 0,477699637619834 
1006	 0,47999618048047 
1007	 0,482451420781452 
1008	 0,483046430206277 
1009	 0,479306918324702 
1010	 0,478191869915691 
1011	 0,480421915304439 
1012	 0,48145365481557 
1013	 0,48289573647057 
1014	 0,484646137290919 
1015	 0,483306713052354 
1016	 0,481556543018641 
1017	 0,48210146428265 
1018	 0,487011350512857 
1019	 0,490405883742697 
1020	 0,483693621442307 
1021	 0,483375126092976 
1022	 0,488981475264639 
1023	 0,487648015079344 
1024	 0,485118176657887 
1025	 0,484040568603766 
1026	 0,487366740247068 
1027	 0,49148938443709 
1028	 0,493242746176018 
1029	 0,489061676640918 
1030	 0,485667188258205 
1031	 0,490564263046997 
1032	 0,492225095517221 
1033	 0,490529614072161 
1034	 0,49000127133331 
1035	 0,489313660404224 
1036	 0,489991257315407 
1037	 0,498728009323025 
1038	 0,502002084658806 
1039	 0,495877635003866 
1040	 0,496673171371174 
1041	 0,496392131098442 
1042	 0,489505084583256 
1043	 0,491182324024325 
1044	 0,498528227226939 
1045	 0,504335586011305 
1046	 0,504327592779513 
1047	 0,500126262523188 
1048	 0,497876158457426 
1049	 0,499490602941935 
1050	 0,503480721353615 
1051	 0,500929172341629 
1052	 0,498605804602793 
1053	 0,500139481706215 
1054	 0,505352993396153 
1055	 0,507172407667422 
1056	 0,500676603427734 
1057	 0,499288713558049 
1058	 0,50119719321493 
1059	 0,50104929397436 
1060	 0,499217195890858 
1061	 0,500334711956794 
1062	 0,51507659468219 
1063	 0,514747248993881 
1064	 0,498524978076305 
1065	 0,496188683968406 
1066	 0,498433142659731 
1067	 0,501362485720023 
1068	 0,506502905192457 
1069	 0,507689421577804 
1070	 0,502119700997942 
1071	 0,504084839874535 
1072	 0,508842671607982 
1073	 0,508918295236254 
1074	 0,512363262008188 
1075	 0,515933076268193 
