Wavelength	NEUF00586.asd
325	 5,35917009199452E-02 
326	 8,00788644124339E-02 
327	 7,22225851593848E-02 
328	 3,95357853007016E-02 
329	 8,95286836735844E-02 
330	 0,165938488277724 
331	 0,243050110221775 
332	 0,264429632492427 
333	 0,225645703618062 
334	 0,164011416867149 
335	 0,138678964655762 
336	 0,1562511784945 
337	 8,31544012878703E-02 
338	 1,84508474161056E-02 
339	 4,56215520812891E-02 
340	 4,33659747603614E-02 
341	 3,35937925806276E-02 
342	 0,110347809052898 
343	 0,115277365984901 
344	 0,041215540102652 
345	 0,039503239820746 
346	 6,82928181325782E-02 
347	 7,03722623770447E-02 
348	 0,073817533292752 
349	 7,45307750334227E-02 
350	 0,042847857706194 
351	 5,48725122088886E-02 
352	 0,111661285266857 
353	 8,63274907365003E-02 
354	 3,05088364487373E-02 
355	 2,00774033896354E-02 
356	 3,00075321871398E-02 
357	 4,85124126281621E-02 
358	 6,31842881148895E-02 
359	 5,70737933562055E-02 
360	 2,92496727566873E-02 
361	 4,21272999462759E-02 
362	 0,06483028292516 
363	 4,82135074421682E-02 
364	 4,18074564164117E-02 
365	 5,43163559840571E-02 
366	 7,32037066795222E-02 
367	 7,61074012707093E-02 
368	 5,11656869056791E-02 
369	 4,65387919379838E-02 
370	 5,25183413152621E-02 
371	 0,038457656047522 
372	 3,04672580576858E-02 
373	 3,62852921703494E-02 
374	 5,83153077140656E-02 
375	 6,49414854033454E-02 
376	 3,66327504714894E-02 
377	 3,96401668186556E-02 
378	 6,01091213526549E-02 
379	 4,27837056821334E-02 
380	 4,88097123228742E-02 
381	 8,20893039145486E-02 
382	 7,45549322360942E-02 
383	 5,05938211866646E-02 
384	 3,49045000245061E-02 
385	 2,94021697767923E-02 
386	 3,02992267556468E-02 
387	 2,16652990142283E-02 
388	 0,024601341276363 
389	 4,25694562831993E-02 
390	 4,94954218553739E-02 
391	 0,049976078176779 
392	 5,13674391051833E-02 
393	 4,60500289810329E-02 
394	 3,65897215501755E-02 
395	 3,21235632390727E-02 
396	 3,47130941487947E-02 
397	 4,37679528872201E-02 
398	 5,18732973279387E-02 
399	 5,04736089344414E-02 
400	 2,73768339848213E-02 
401	 1,71909655093027E-02 
402	 2,51552688489707E-02 
403	 3,59108498098172E-02 
404	 3,82796778941194E-02 
405	 2,69381794117285E-02 
406	 2,69633676316921E-02 
407	 3,44214681981788E-02 
408	 3,45217009204743E-02 
409	 0,032596804235533 
410	 2,92632468153891E-02 
411	 1,97383745495332E-02 
412	 1,57614750014175E-02 
413	 2,70701014519743E-02 
414	 3,02740690715775E-02 
415	 0,026348320729276 
416	 2,93117943387628E-02 
417	 3,16145916923029E-02 
418	 0,030513487723975 
419	 2,83178831691678E-02 
420	 2,68424695942501E-02 
421	 2,79395766051412E-02 
422	 2,75754490495038E-02 
423	 2,54872168554466E-02 
424	 2,35067634860888E-02 
425	 2,39239165892176E-02 
426	 2,75099554728742E-02 
427	 2,85082461083033E-02 
428	 2,70516759252906E-02 
429	 2,43016689199058E-02 
430	 2,61506468183438E-02 
431	 3,19201175074761E-02 
432	 3,04666448322392E-02 
433	 0,027552106935194 
434	 0,028487095431204 
435	 2,76755030076557E-02 
436	 2,62265867948766E-02 
437	 2,96457080375026E-02 
438	 0,031846071475713 
439	 3,04403489483686E-02 
440	 2,72468118983389E-02 
441	 2,42931531337425E-02 
442	 2,38737722844622E-02 
443	 2,39190140416942E-02 
444	 2,44026233978031E-02 
445	 2,69215613997178E-02 
446	 3,00962497903928E-02 
447	 3,27024686051028E-02 
448	 3,26815281567391E-02 
449	 3,08544878280093E-02 
450	 2,89211429080948E-02 
451	 3,00222365951569E-02 
452	 0,03356213516133 
453	 3,19673690267596E-02 
454	 2,93928175374428E-02 
455	 2,99441998951202E-02 
456	 2,94532026518015E-02 
457	 2,87417651182065E-02 
458	 3,24828005821614E-02 
459	 3,37838821420225E-02 
460	 3,06386229603476E-02 
461	 0,030685504045374 
462	 3,12908816180413E-02 
463	 2,79874529992509E-02 
464	 2,66670455768372E-02 
465	 2,83405150737939E-02 
466	 3,17384772653926E-02 
467	 3,20718923160162E-02 
468	 2,69126241639324E-02 
469	 2,46021782410899E-02 
470	 2,54928252561004E-02 
471	 2,76171068685959E-02 
472	 2,93898294255596E-02 
473	 3,03025812620009E-02 
474	 3,21255706844348E-02 
475	 3,22073750496409E-02 
476	 2,82085791519868E-02 
477	 2,83363872689901E-02 
478	 3,15701382189731E-02 
479	 0,030321639498444 
480	 2,84822237323771E-02 
481	 2,79903232714281E-02 
482	 2,95936176244798E-02 
483	 3,02384875673618E-02 
484	 2,52018694137135E-02 
485	 2,48327879088765E-02 
486	 2,96499035001974E-02 
487	 3,04232300123389E-02 
488	 2,98765343079466E-02 
489	 3,00731272701294E-02 
490	 2,90743359983918E-02 
491	 2,77939813263526E-02 
492	 2,89556382672838E-02 
493	 2,95275444645124E-02 
494	 2,88779589076867E-02 
495	 2,98523677983047E-02 
496	 3,06350648052837E-02 
497	 2,90430349599783E-02 
498	 2,97358143836174E-02 
499	 3,22851058193773E-02 
500	 0,032292778584537 
501	 0,031096971477256 
502	 2,98267040784059E-02 
503	 3,13028236081404E-02 
504	 3,33829372939447E-02 
505	 3,16217928251336E-02 
506	 3,10251741383892E-02 
507	 3,25503912236791E-02 
508	 3,35326329284967E-02 
509	 3,39978001096912E-02 
510	 0,034035377649825 
511	 3,31533986513919E-02 
512	 3,16140398774349E-02 
513	 2,99738966487118E-02 
514	 2,93839213185959E-02 
515	 3,02991450914708E-02 
516	 3,19852721384815E-02 
517	 3,30084402068915E-02 
518	 3,15549894576709E-02 
519	 3,11209606801565E-02 
520	 3,20926395777413E-02 
521	 3,21174866446373E-02 
522	 3,23864321761126E-02 
523	 3,36063726701099E-02 
524	 3,35050671478775E-02 
525	 3,26697495810445E-02 
526	 3,33225515857283E-02 
527	 3,33272971324272E-02 
528	 3,23712627216385E-02 
529	 3,27413016571675E-02 
530	 3,36725939266043E-02 
531	 3,41046707596003E-02 
532	 3,40215628720391E-02 
533	 3,35584340458899E-02 
534	 3,30432171492401E-02 
535	 3,33413493705284E-02 
536	 3,46944053502393E-02 
537	 3,45551358772543E-02 
538	 3,35076522733586E-02 
539	 3,32205440278668E-02 
540	 3,33737036429003E-02 
541	 3,38227179570771E-02 
542	 3,41510874630906E-02 
543	 3,43995034364759E-02 
544	 3,46167553626677E-02 
545	 3,43666074658546E-02 
546	 3,39499276981155E-02 
547	 3,44554905426451E-02 
548	 3,48136780354437E-02 
549	 3,45600818710223E-02 
550	 3,43739774607658E-02 
551	 3,43128373713598E-02 
552	 3,43177164127349E-02 
553	 3,47256661317012E-02 
554	 3,54321898121056E-02 
555	 3,57678823094855E-02 
556	 3,55916490819723E-02 
557	 3,49209824042959E-02 
558	 3,54907345960706E-02 
559	 3,64714798815959E-02 
560	 3,48431538385856E-02 
561	 3,37466731837276E-02 
562	 3,43356720985727E-02 
563	 3,52880925024039E-02 
564	 3,56773506472162E-02 
565	 3,44770615895034E-02 
566	 3,43381853187731E-02 
567	 3,53080056268363E-02 
568	 3,48770664855423E-02 
569	 3,45198786466469E-02 
570	 3,52076735790387E-02 
571	 3,57723558056911E-02 
572	 3,60990435146537E-02 
573	 0,036393611985893 
574	 0,036326249257632 
575	 3,60086355993808E-02 
576	 3,65059303965133E-02 
577	 3,74938270013843E-02 
578	 3,84857610437799E-02 
579	 0,03819631389475 
580	 3,71285107174774E-02 
581	 3,78285841704895E-02 
582	 3,86437289579395E-02 
583	 3,87362106380491E-02 
584	 3,93861469997129E-02 
585	 4,01658006172749E-02 
586	 4,01062814743499E-02 
587	 3,94984525776462E-02 
588	 3,87539628850921E-02 
589	 3,91804303991968E-02 
590	 3,97740207416645E-02 
591	 3,95916861542982E-02 
592	 3,98924175534914E-02 
593	 4,04808866614881E-02 
594	 4,00451423702167E-02 
595	 4,02569294027284E-02 
596	 4,15656588812642E-02 
597	 4,13629159978299E-02 
598	 4,06080957195748E-02 
599	 4,11604570563099E-02 
600	 4,12140409166736E-02 
601	 4,05406641005324E-02 
602	 4,02035571386519E-02 
603	 4,00502575024489E-02 
604	 3,99507329502708E-02 
605	 0,039997376660636 
606	 4,00901969456409E-02 
607	 3,99148706050184E-02 
608	 4,01029255780967E-02 
609	 4,06801173653884E-02 
610	 4,04115751203205E-02 
611	 3,96632418638164E-02 
612	 3,90190993474287E-02 
613	 3,88829411393991E-02 
614	 3,91799398969268E-02 
615	 0,039291933113766 
616	 3,91058865307064E-02 
617	 3,85877494610462E-02 
618	 3,81419589150699E-02 
619	 3,79624417139668E-02 
620	 3,82961372880323E-02 
621	 3,86140006599427E-02 
622	 3,86991344310315E-02 
623	 3,85099238144681E-02 
624	 3,84321129683912E-02 
625	 3,88440899523952E-02 
626	 3,92040664655249E-02 
627	 3,93624404233142E-02 
628	 3,92492003886694E-02 
629	 3,91697857978505E-02 
630	 0,039317544322837 
631	 3,97990337850465E-02 
632	 4,02073571285239E-02 
633	 3,98662380555938E-02 
634	 3,97072537150185E-02 
635	 3,99947633358999E-02 
636	 4,05837040942574E-02 
637	 4,10130823142459E-02 
638	 4,09393633419124E-02 
639	 4,12054050174467E-02 
640	 4,16630548212631E-02 
641	 4,14677038703549E-02 
642	 4,16210684410499E-02 
643	 4,23283817557085E-02 
644	 0,04223853136932 
645	 4,18389525276402E-02 
646	 4,19154429322963E-02 
647	 4,21643440935174E-02 
648	 4,24037191117948E-02 
649	 4,22051351961718E-02 
650	 4,21541667177988E-02 
651	 4,26235515515688E-02 
652	 4,33253745872398E-02 
653	 0,043586251710932 
654	 0,042126219538596 
655	 4,08067937504004E-02 
656	 4,02955885968967E-02 
657	 4,03069604234991E-02 
658	 4,01438668156459E-02 
659	 3,91398121088323E-02 
660	 3,83206919158983E-02 
661	 3,80216859527717E-02 
662	 3,85970406250148E-02 
663	 3,87704886089859E-02 
664	 3,79768698588326E-02 
665	 3,74246558455074E-02 
666	 3,70837268047795E-02 
667	 3,66626677994817E-02 
668	 3,64439057092919E-02 
669	 3,63923346956126E-02 
670	 3,59924894411087E-02 
671	 0,03592519604773 
672	 3,66381155162633E-02 
673	 3,66080364683488E-02 
674	 3,60279568904312E-02 
675	 3,59779834138729E-02 
676	 3,61532757159819E-02 
677	 3,64235371881073E-02 
678	 3,65567696080869E-02 
679	 3,65682019288219E-02 
680	 3,65096183294778E-02 
681	 3,67025908479242E-02 
682	 3,71668283830258E-02 
683	 3,76993109493324E-02 
684	 0,038188990142783 
685	 3,85572467017977E-02 
686	 3,87764808118614E-02 
687	 3,90839563593537E-02 
688	 3,98886722326081E-02 
689	 4,07775291891497E-02 
690	 4,16012738807297E-02 
691	 4,22312095090658E-02 
692	 4,32770628492585E-02 
693	 4,52312305354987E-02 
694	 4,70226780072622E-02 
695	 4,88094945664614E-02 
696	 5,15291806968287E-02 
697	 5,45386335691019E-02 
698	 5,74806297705773E-02 
699	 5,99087837633677E-02 
700	 6,25777535320099E-02 
701	 6,64744928457119E-02 
702	 7,02130945183903E-02 
703	 7,35804953198475E-02 
704	 7,71623183694322E-02 
705	 8,07271526497154E-02 
706	 8,40904541007514E-02 
707	 8,70185607819508E-02 
708	 8,97864461922693E-02 
709	 9,29743195844179E-02 
710	 9,58362440162977E-02 
711	 9,82589522001059E-02 
712	 0,100912445987387 
713	 0,103292367069821 
714	 0,104964972532921 
715	 0,106972648298496 
716	 0,109207930292901 
717	 0,110876831333899 
718	 0,112306358666746 
719	 0,113660422074949 
720	 0,115091514397008 
721	 0,116518878894377 
722	 0,117820941520566 
723	 0,118991561909187 
724	 0,120016564570012 
725	 0,12082079581484 
726	 0,12177456741741 
727	 0,123013595431289 
728	 0,123665958618852 
729	 0,123928268772209 
730	 0,124335939593484 
731	 0,12499716897212 
732	 0,125867324920587 
733	 0,12655505309056 
734	 0,126956230601156 
735	 0,127032272950647 
736	 0,127294193270168 
737	 0,127754873699918 
738	 0,128181771713973 
739	 0,128574579416074 
740	 0,128954665482964 
741	 0,129519702728401 
742	 0,130094575048495 
743	 0,1304603641494 
744	 0,130488002289945 
745	 0,130300901059156 
746	 0,130318083704126 
747	 0,130492028188355 
748	 0,130832191236326 
749	 0,131528256737468 
750	 0,132246932699377 
751	 0,132464627711114 
752	 0,132634976910456 
753	 0,13283736806023 
754	 0,132895498685071 
755	 0,132792684516034 
756	 0,132585577861186 
757	 0,132904768384447 
758	 0,133479218767295 
759	 0,133578127048517 
760	 0,133480819869469 
761	 0,133416565483957 
762	 0,13405711799063 
763	 0,134649061876721 
764	 0,134502777164163 
765	 0,134667188685816 
766	 0,13514866248246 
767	 0,135472218039452 
768	 0,135546088122136 
769	 0,135396058580265 
770	 0,135476594098199 
771	 0,135760215365045 
772	 0,136153695130141 
773	 0,136261845722611 
774	 0,136183376539067 
775	 0,136572572190147 
776	 0,136765631362474 
777	 0,136527394427627 
778	 0,136776359950533 
779	 0,137252806485358 
780	 0,137438950006605 
781	 0,137246427302587 
782	 0,136854137573138 
783	 0,136960331135843 
784	 0,137329393859103 
785	 0,137733640146892 
786	 0,137627266086336 
787	 0,137487517131271 
788	 0,138337115303116 
789	 0,138755604681783 
790	 0,138498273229946 
791	 0,13849502475438 
792	 0,138567242344053 
793	 0,138566345320199 
794	 0,138609180071962 
795	 0,138786122320334 
796	 0,139300332645827 
797	 0,139453521477827 
798	 0,139170286752297 
799	 0,139339834178581 
800	 0,139696660303289 
801	 0,139932724332811 
802	 0,139897301496733 
803	 0,139715472758355 
804	 0,139751883479731 
805	 0,139995989680658 
806	 0,14040357331177 
807	 0,140713431207506 
808	 0,140896081498381 
809	 0,140944413235545 
810	 0,140766678921905 
811	 0,140607140864227 
812	 0,141168869626508 
813	 0,141745860088646 
814	 0,141949493780537 
815	 0,141471438871651 
816	 0,141063718671584 
817	 0,141618413479344 
818	 0,142287696522153 
819	 0,142723633003742 
820	 0,142554531238769 
821	 0,142222758844029 
822	 0,142076519503425 
823	 0,142715544038967 
824	 0,143512225250883 
825	 0,143597921641387 
826	 0,143675286628791 
827	 0,143831345671628 
828	 0,143774698601477 
829	 0,14387830877885 
830	 0,144235600863895 
831	 0,144051205690406 
832	 0,143794739278736 
833	 0,14420747946687 
834	 0,144211582653228 
835	 0,143841056704071 
836	 0,144079796249997 
837	 0,144507207897977 
838	 0,144845019703941 
839	 0,144881167992055 
840	 0,144697057845938 
841	 0,144449406683654 
842	 0,144793358706373 
843	 0,145474940131303 
844	 0,145043983090312 
845	 0,144731022460042 
846	 0,145102080657243 
847	 0,14497299390097 
848	 0,144716855345984 
849	 0,145028987657386 
850	 0,145174891456391 
851	 0,145082428084966 
852	 0,145179476860797 
853	 0,145117744383732 
854	 0,144799241797631 
855	 0,144887593832133 
856	 0,145134502600921 
857	 0,145104002533445 
858	 0,145049352478049 
859	 0,145020921274742 
860	 0,144963682814124 
861	 0,145047054173731 
862	 0,145321077103547 
863	 0,145505990153087 
864	 0,145564381030571 
865	 0,145498002270209 
866	 0,145469753715686 
867	 0,145475333063289 
868	 0,145301324099592 
869	 0,145368376070435 
870	 0,145867836449475 
871	 0,146692117531937 
872	 0,147160030972878 
873	 0,146535487651607 
874	 0,146371958059482 
875	 0,146780373790776 
876	 0,147014039715079 
877	 0,147122478144366 
878	 0,147114114954738 
879	 0,147060349063237 
880	 0,147124173758424 
881	 0,147462307238789 
882	 0,147914009292104 
883	 0,1483704978645 
884	 0,148710607592861 
885	 0,148819915291318 
886	 0,148655075262464 
887	 0,14828023794302 
888	 0,147879862124344 
889	 0,147637116256203 
890	 0,147617700362628 
891	 0,147842063727477 
892	 0,148311497131008 
893	 0,148943900413896 
894	 0,149532977633672 
895	 0,149447447237306 
896	 0,149273171940832 
897	 0,149426827106779 
898	 0,149009851273131 
899	 0,148540519609413 
900	 0,149146837232165 
901	 0,14980148786572 
902	 0,15017117131089 
903	 0,150184103767155 
904	 0,150495423447576 
905	 0,151351001271437 
906	 0,151365442901471 
907	 0,15085959674397 
908	 0,150540218304207 
909	 0,150445592353875 
910	 0,150509956927613 
911	 0,150411928838641 
912	 0,150282081759972 
913	 0,150221190914684 
914	 0,150356895051136 
915	 0,15092732993699 
916	 0,152050489386891 
917	 0,15120096924579 
918	 0,149499896833293 
919	 0,151152550864739 
920	 0,152617068846953 
921	 0,152708440512765 
922	 0,152133011171482 
923	 0,151416169396608 
924	 0,151005746641618 
925	 0,150670456721639 
926	 0,150652968261889 
927	 0,151437896204935 
928	 0,152006741788157 
929	 0,151877606258652 
930	 0,150420058558827 
931	 0,1498883800764 
932	 0,151183630498434 
933	 0,150442059575387 
934	 0,149521422031228 
935	 0,151231047640543 
936	 0,151803272728274 
937	 0,151087844487968 
938	 0,150992096479936 
939	 0,151737064723041 
940	 0,152959525149722 
941	 0,15210156272757 
942	 0,150855435640967 
943	 0,150841549961089 
944	 0,151342787890129 
945	 0,151520896633528 
946	 0,150032133577711 
947	 0,149079744387391 
948	 0,148956283137461 
949	 0,14804660744071 
950	 0,147660037360273 
951	 0,148298720922346 
952	 0,148071522175102 
953	 0,147396000192006 
954	 0,147036731426764 
955	 0,147253584563621 
956	 0,147478699247415 
957	 0,145917890327535 
958	 0,145566063659167 
959	 0,1469168057615 
960	 0,146978908957974 
961	 0,147023405630112 
962	 0,147850913419413 
963	 0,147135466613334 
964	 0,145790434556378 
965	 0,1456780677245 
966	 0,145922817612787 
967	 0,146251660016467 
968	 0,146483578669975 
969	 0,146546300649911 
970	 0,146488780268349 
971	 0,146805527109276 
972	 0,147084423604501 
973	 0,146956980549685 
974	 0,146935514082908 
975	 0,147137113303954 
976	 0,14761429546275 
977	 0,147689142417845 
978	 0,147491210563117 
979	 0,148401653774443 
980	 0,147862051141165 
981	 0,145594404547215 
982	 0,147913240339564 
983	 0,150554475403383 
984	 0,149046948512679 
985	 0,148824873677822 
986	 0,149772241819969 
987	 0,149866111746315 
988	 0,148113823430793 
989	 0,145538938093211 
990	 0,146835910791854 
991	 0,148629243590006 
992	 0,149213667012457 
993	 0,150396047935967 
994	 0,150970375016915 
995	 0,149703501169114 
996	 0,148336307486315 
997	 0,148307862777571 
998	 0,15165741298391 
999	 0,154036057913145 
1000	 0,154120358685244 
1001	 0,152268207616835 
1002	 0,151719735503154 
1003	 0,153721675593134 
1004	 0,154409563889058 
1005	 0,155243894362029 
1006	 0,15755195465955 
1007	 0,156579071881852 
1008	 0,153929249635224 
1009	 0,153824725174889 
1010	 0,155396217792557 
1011	 0,157081617446718 
1012	 0,154022167869528 
1013	 0,153352349729852 
1014	 0,157292770273556 
1015	 0,159938542888514 
1016	 0,159425428184737 
1017	 0,155293628304154 
1018	 0,155625303238415 
1019	 0,157448380305101 
1020	 0,154610989091108 
1021	 0,153315858747862 
1022	 0,154968373770754 
1023	 0,159564630362755 
1024	 0,162041992980147 
1025	 0,161011216977382 
1026	 0,159367164370168 
1027	 0,160572808755362 
1028	 0,16534287692587 
1029	 0,161975193561093 
1030	 0,15641395485383 
1031	 0,156905819746493 
1032	 0,160419881113243 
1033	 0,163939031628038 
1034	 0,16276144539555 
1035	 0,160716275517613 
1036	 0,159850990676864 
1037	 0,163300345828379 
1038	 0,165464946597539 
1039	 0,163863560123205 
1040	 0,160929110986664 
1041	 0,157659346711841 
1042	 0,155766822270295 
1043	 0,163315250562025 
1044	 0,171018130092602 
1045	 0,165219472502616 
1046	 0,160746429169867 
1047	 0,160320478230191 
1048	 0,162189169539518 
1049	 0,164035409321821 
1050	 0,164462840710998 
1051	 0,161592803085039 
1052	 0,162438371725541 
1053	 0,170088826640058 
1054	 0,182032819759493 
1055	 0,183426938463168 
1056	 0,164877674818486 
1057	 0,161439746319049 
1058	 0,163685406204462 
1059	 0,151974509786768 
1060	 0,154442564411175 
1061	 0,166983678466506 
1062	 0,167761284394986 
1063	 0,171510021891828 
1064	 0,178273885092101 
1065	 0,174608866354711 
1066	 0,167639227470419 
1067	 0,163429560177875 
1068	 0,174242259529889 
1069	 0,181687025502274 
1070	 0,172598106293589 
1071	 0,160295382203583 
1072	 0,152297812840223 
1073	 0,155271821324218 
1074	 0,161536287679521 
1075	 0,171133607455644 
