Wavelength	NEUF00735.asd
325	 0,210886018137927 
326	 1,75233425916555E-02 
327	-0,128556545418912 
328	-4,85699636081688E-02 
329	 0,108261844908634 
330	 0,18629955303812 
331	 1,09985057182169E-02 
332	 9,16115300976264E-02 
333	 0,278265112381599 
334	 0,235778910307298 
335	 0,185393433722534 
336	 0,170357619008534 
337	 0,10562826619803 
338	 6,36838000824756E-02 
339	 9,65689801792373E-02 
340	 9,06092683263223E-02 
341	 6,10766199425569E-02 
342	 8,31566930782689E-02 
343	 9,84141413893905E-02 
344	 9,35231816804039E-02 
345	 4,34208757199088E-02 
346	 2,55309860732727E-02 
347	 0,100581490136406 
348	 8,90654534969404E-02 
349	 3,41642508778463E-03 
350	-2,94265683271045E-02 
351	 3,29387769570351E-03 
352	 7,68219245108957E-02 
353	 6,25205046005246E-02 
354	 2,10194603791447E-02 
355	 3,70247812339143E-02 
356	 0,035527070131676 
357	 2,08634884276378E-02 
358	 4,98476743985559E-02 
359	 0,057907321815794 
360	 2,33004991671932E-02 
361	 9,3437557261043E-03 
362	 0,011989743784724 
363	 0,012229720887177 
364	 2,20097486716337E-02 
365	 3,85706488784419E-02 
366	 5,38743371364294E-02 
367	 5,53220040353826E-02 
368	 3,70933454944789E-02 
369	 3,93699802132745E-02 
370	 4,80487725158095E-02 
371	 2,87963574521636E-02 
372	 1,97608153371796E-02 
373	 2,69262732293257E-02 
374	 0,026694621033139 
375	 2,55397610120726E-02 
376	 2,93096463247107E-02 
377	 4,24789642331578E-02 
378	 5,66835712832157E-02 
379	 5,33037297501832E-02 
380	 5,15797798874973E-02 
381	 0,057018100612638 
382	 6,56634660341877E-02 
383	 6,61120533148954E-02 
384	 4,83941487156068E-02 
385	 3,03173662839771E-02 
386	 2,12927294888827E-02 
387	 3,13842363684232E-02 
388	 4,23065310673956E-02 
389	 4,51709380894009E-02 
390	 4,44149149026661E-02 
391	 0,038211038715548 
392	 2,45852593463446E-02 
393	 3,06263686538726E-02 
394	 0,048110117548967 
395	 3,43679691379794E-02 
396	 2,91074241354386E-02 
397	 0,047688163558896 
398	 4,40982327137169E-02 
399	 2,80712203341009E-02 
400	 0,019759032519232 
401	 2,32236425287075E-02 
402	 3,56674227894879E-02 
403	 4,34448383356721E-02 
404	 4,49881449235957E-02 
405	 3,98062157929083E-02 
406	 3,10208188766975E-02 
407	 2,39494431837406E-02 
408	 2,79139568566587E-02 
409	 3,02673411645948E-02 
410	 2,72299211102526E-02 
411	 1,98323890823402E-02 
412	 1,63820197241779E-02 
413	 2,36777179262666E-02 
414	 2,67175440007144E-02 
415	 2,61904583831049E-02 
416	 3,18056876611825E-02 
417	 3,54151573648678E-02 
418	 3,38301500992079E-02 
419	 2,91830814691634E-02 
420	 2,61413787305185E-02 
421	 2,98884845090442E-02 
422	 2,95920603121763E-02 
423	 2,55661877321227E-02 
424	 2,74788541819289E-02 
425	 2,91511611663592E-02 
426	 2,72090305979062E-02 
427	 2,73206565511202E-02 
428	 2,81892557990488E-02 
429	 2,59442664235522E-02 
430	 2,70127272341186E-02 
431	 0,030720701015425 
432	 2,54678253015627E-02 
433	 2,05219015975133E-02 
434	 2,41845582099073E-02 
435	 2,87593359956561E-02 
436	 3,17250864677948E-02 
437	 3,06874644788449E-02 
438	 2,89991249232143E-02 
439	 2,81835038554497E-02 
440	 2,80342150894737E-02 
441	 2,78026995151062E-02 
442	 2,65729710896327E-02 
443	 2,38404279807868E-02 
444	 2,17222034994076E-02 
445	 2,77042532962607E-02 
446	 3,25660154171398E-02 
447	 3,10149432797611E-02 
448	 2,98728993885389E-02 
449	 3,02763489583939E-02 
450	 0,032653131233538 
451	 3,40655953772432E-02 
452	 3,31296055057518E-02 
453	 2,80932497673325E-02 
454	 2,56217276992753E-02 
455	 3,13556795391766E-02 
456	 3,07367674061897E-02 
457	 2,60615602793902E-02 
458	 3,14901029762871E-02 
459	 3,50405576075315E-02 
460	 3,23189085304017E-02 
461	 2,95058976445249E-02 
462	 2,75354208033779E-02 
463	 2,67918070297876E-02 
464	 2,84629283761944E-02 
465	 3,14337462188639E-02 
466	 3,12287779777053E-02 
467	 3,01337163789201E-02 
468	 2,97757372904602E-02 
469	 0,030610511590172 
470	 3,11995322846723E-02 
471	 2,82374849002994E-02 
472	 2,76965846948257E-02 
473	 3,05713756184943E-02 
474	 3,21225413104758E-02 
475	 0,031041490680306 
476	 2,66462066985971E-02 
477	 2,61868883442695E-02 
478	 2,94811430836788E-02 
479	 3,20648329402464E-02 
480	 3,21906828219047E-02 
481	 2,95195524130979E-02 
482	 2,92454950672676E-02 
483	 2,96672870994843E-02 
484	 2,72768185450315E-02 
485	 2,82803723567377E-02 
486	 3,23609035494648E-02 
487	 3,22493737043582E-02 
488	 3,05269618595956E-02 
489	 2,94338375866699E-02 
490	 3,03884655944772E-02 
491	 3,20529731858211E-02 
492	 3,08168159427825E-02 
493	 2,90259032643376E-02 
494	 2,80805060623941E-02 
495	 0,030788922144955 
496	 3,36557708613177E-02 
497	 3,26364660186986E-02 
498	 3,21024734824824E-02 
499	 3,23325693991847E-02 
500	 3,06568369906575E-02 
501	 3,03743504640869E-02 
502	 3,28988894421161E-02 
503	 3,36303109620274E-02 
504	 3,30177486348868E-02 
505	 3,29089892072124E-02 
506	 3,29975372916065E-02 
507	 3,31159802063353E-02 
508	 3,26546669021661E-02 
509	 3,20816325540083E-02 
510	 3,18928652776082E-02 
511	 3,29342238579177E-02 
512	 3,43264697070454E-02 
513	 3,33796393859952E-02 
514	 3,25449955781428E-02 
515	 3,29527470409193E-02 
516	 3,44602491113181E-02 
517	 3,57501507420681E-02 
518	 3,50808904932145E-02 
519	 3,43104703302406E-02 
520	 3,41020631761329E-02 
521	 3,48833455343332E-02 
522	 3,54807698021056E-02 
523	 0,035080758218097 
524	 3,45983213440169E-02 
525	 3,44081892776344E-02 
526	 3,49808867026185E-02 
527	 3,56113398850863E-02 
528	 3,60684063995809E-02 
529	 3,67908096094484E-02 
530	 3,71014645637544E-02 
531	 3,62362465390634E-02 
532	 3,56559295727057E-02 
533	 3,55769698266977E-02 
534	 3,53471225648016E-02 
535	 3,56665461060697E-02 
536	 3,67608365982612E-02 
537	 0,03703406669445 
538	 3,66121247958653E-02 
539	 3,60564356419391E-02 
540	 3,62643578463338E-02 
541	 3,71882283210116E-02 
542	 3,70691893769637E-02 
543	 0,036647834993647 
544	 3,67048444325788E-02 
545	 3,62677499225586E-02 
546	 3,57642982300114E-02 
547	 3,70000540862064E-02 
548	 3,77192428274214E-02 
549	 3,69897634971588E-02 
550	 3,65781043536802E-02 
551	 3,68679932990024E-02 
552	 3,81550308446559E-02 
553	 3,88710618981638E-02 
554	 3,86861500036431E-02 
555	 0,038371364463981 
556	 3,83414457008578E-02 
557	 3,88789682255277E-02 
558	 3,92432011880302E-02 
559	 3,92030182406687E-02 
560	 3,84944579789367E-02 
561	 3,80429082618139E-02 
562	 3,81834322696099E-02 
563	 3,82711774189981E-02 
564	 3,81695436633981E-02 
565	 3,77821502720827E-02 
566	 3,78125277420149E-02 
567	 3,81831376996275E-02 
568	 3,78363158315847E-02 
569	 0,037823346730316 
570	 3,88054248963331E-02 
571	 3,96494741585243E-02 
572	 4,01536083401533E-02 
573	 4,03096801588287E-02 
574	 4,03856358980527E-02 
575	 0,040546089692765 
576	 4,09151964771646E-02 
577	 4,15189589409917E-02 
578	 4,23542253172789E-02 
579	 4,27034494758322E-02 
580	 4,27508465514169E-02 
581	 4,36641183553115E-02 
582	 4,44532071717357E-02 
583	 4,46339182028358E-02 
584	 4,52413723801321E-02 
585	 4,57308483495537E-02 
586	 4,48839910955904E-02 
587	 4,42912690733026E-02 
588	 4,44746554139279E-02 
589	 4,53059500927752E-02 
590	 4,59257114024033E-02 
591	 0,045588915676388 
592	 4,54704879674844E-02 
593	 4,57070002515484E-02 
594	 4,59664208112363E-02 
595	 4,63277549081885E-02 
596	 4,67550616631812E-02 
597	 4,68953966565108E-02 
598	 4,69159354992972E-02 
599	 4,71390408202765E-02 
600	 0,046948964694524 
601	 4,63629290738874E-02 
602	 4,61079233182804E-02 
603	 4,59397116693452E-02 
604	 0,045678256014709 
605	 4,56301931344696E-02 
606	 4,58469959541335E-02 
607	 4,64210467095398E-02 
608	 4,66852932377388E-02 
609	 4,63489875446592E-02 
610	 4,55550821180057E-02 
611	 0,044724262076694 
612	 4,43402926855416E-02 
613	 4,41889831724507E-02 
614	 4,42181568901691E-02 
615	 4,44538600073966E-02 
616	 4,46475886915156E-02 
617	 0,044582151364216 
618	 4,38370853060999E-02 
619	 4,31278292516465E-02 
620	 4,40130664174051E-02 
621	 4,44782850676343E-02 
622	 4,40534345400713E-02 
623	 4,39980654425933E-02 
624	 0,044123134110566 
625	 4,41651102790148E-02 
626	 4,42698707882726E-02 
627	 4,44252871519112E-02 
628	 4,45386457490649E-02 
629	 4,46191799418972E-02 
630	 0,044661165500837 
631	 4,45758854976214E-02 
632	 0,044556140528395 
633	 4,49070546174326E-02 
634	 4,54736884287546E-02 
635	 4,61286271848913E-02 
636	 4,66140847325458E-02 
637	 0,046973512248524 
638	 4,72631779783027E-02 
639	 4,76702880634654E-02 
640	 4,79929009933481E-02 
641	 4,75042070081474E-02 
642	 4,75994648165292E-02 
643	 4,86363875259154E-02 
644	 4,90405566304578E-02 
645	 4,88803103955989E-02 
646	 4,84420630631092E-02 
647	 4,88797933948404E-02 
648	 4,99191254443012E-02 
649	 4,95150104577978E-02 
650	 4,88481863843113E-02 
651	 4,87020293793995E-02 
652	 4,85029903641284E-02 
653	 4,82267742515272E-02 
654	 4,80123822447396E-02 
655	 4,74714430250477E-02 
656	 4,66294786033993E-02 
657	 4,63280505787611E-02 
658	 4,59287097472717E-02 
659	 4,47648311636273E-02 
660	 0,04413534196937 
661	 4,40395695890342E-02 
662	 4,36538427656929E-02 
663	 0,043112533700612 
664	 0,042537537152389 
665	 4,24433565211297E-02 
666	 4,24057211623045E-02 
667	 0,041669616125465 
668	 4,10872526620323E-02 
669	 4,08386850072162E-02 
670	 4,05822321433844E-02 
671	 4,03312444137814E-02 
672	 0,040106913508954 
673	 0,039954527353316 
674	 3,99195127787158E-02 
675	 4,00800999860733E-02 
676	 0,040395383997008 
677	 4,07086251904686E-02 
678	 4,02806741739801E-02 
679	 3,98932876274163E-02 
680	 4,05186100313414E-02 
681	 4,07455401955982E-02 
682	 4,06337100859988E-02 
683	 4,14879716343848E-02 
684	 4,24051308656456E-02 
685	 4,28581492693501E-02 
686	 4,31710350765886E-02 
687	 4,36464877244692E-02 
688	 0,044756173883552 
689	 4,56443523819723E-02 
690	 4,62951906649788E-02 
691	 4,78016340190779E-02 
692	 4,96752284615607E-02 
693	 5,14640436766417E-02 
694	 5,37535476505522E-02 
695	 5,66036220259403E-02 
696	 5,99301930438842E-02 
697	 6,32331862553858E-02 
698	 6,64012023879564E-02 
699	 7,02257155229909E-02 
700	 7,44920330249397E-02 
701	 7,88042414536025E-02 
702	 8,33689948326631E-02 
703	 8,80546270216615E-02 
704	 9,23047081844827E-02 
705	 9,66978589007166E-02 
706	 0,101507724046289 
707	 0,105803796022086 
708	 0,109659392266884 
709	 0,113430518696203 
710	 0,117272446490796 
711	 0,121177870876862 
712	 0,124810497689828 
713	 0,128169806208004 
714	 0,131258331441505 
715	 0,133814154726488 
716	 0,136020072548833 
717	 0,13847376173013 
718	 0,14068418809698 
719	 0,142570784510138 
720	 0,144901709297054 
721	 0,147170520341318 
722	 0,148665783313846 
723	 0,149787509571924 
724	 0,150844050421214 
725	 0,152490834863579 
726	 0,154003121383507 
727	 0,154922888507027 
728	 0,155513154017526 
729	 0,156073031606508 
730	 0,157045494793305 
731	 0,15807362112682 
732	 0,158973335551907 
733	 0,159491560431476 
734	 0,15992603531394 
735	 0,160539922841196 
736	 0,161132850164971 
737	 0,161688818957189 
738	 0,162319035976949 
739	 0,162567561341318 
740	 0,162413535417982 
741	 0,16272694457737 
742	 0,163457355590598 
743	 0,16443246886656 
744	 0,164483738945816 
745	 0,163848126152786 
746	 0,164127966545411 
747	 0,164584292849272 
748	 0,16483633243588 
749	 0,165046390999701 
750	 0,165276483732761 
751	 0,165593655262742 
752	 0,166133090088659 
753	 0,166727140100137 
754	 0,166658488144048 
755	 0,166442003604565 
756	 0,166469836573107 
757	 0,166547919738112 
758	 0,166734587658485 
759	 0,167224753737321 
760	 0,167483738113498 
761	 0,167428144694263 
762	 0,167645575038265 
763	 0,167782671472063 
764	 0,167534394573827 
765	 0,16786405630794 
766	 0,168550666238956 
767	 0,168556884916018 
768	 0,168448667651916 
769	 0,168448490370967 
770	 0,168466650290236 
771	 0,168716642892874 
772	 0,169424752898319 
773	 0,169522432375441 
774	 0,169156630106282 
775	 0,169612429780446 
776	 0,169958837011699 
777	 0,169755709343628 
778	 0,169471428257724 
779	 0,169392979362048 
780	 0,169848223887359 
781	 0,170249260620108 
782	 0,170364843991866 
783	 0,169976956615848 
784	 0,169897892592283 
785	 0,170550550687785 
786	 0,170614316731764 
787	 0,170299814911624 
788	 0,170303778158319 
789	 0,170601897230178 
790	 0,171035482862755 
791	 0,170921765929794 
792	 0,170718443328567 
793	 0,170806363925683 
794	 0,170953256766087 
795	 0,171169652217098 
796	 0,171617427972791 
797	 0,171562825396948 
798	 0,170979431647047 
799	 0,170998778589354 
800	 0,171354800504011 
801	 0,17170398419552 
802	 0,171610381935743 
803	 0,171234287291212 
804	 0,171163000150543 
805	 0,171434930657977 
806	 0,171952423484486 
807	 0,171990229479756 
808	 0,171954876639902 
809	 0,172302691887346 
810	 0,172042525884999 
811	 0,171583253331997 
812	 0,172696656946416 
813	 0,173401058753141 
814	 0,173015831002536 
815	 0,173040757633449 
816	 0,173129414380106 
817	 0,172748583836722 
818	 0,172921066910169 
819	 0,173568191807334 
820	 0,173805783371463 
821	 0,17371857764201 
822	 0,173439161133 
823	 0,173676448234922 
824	 0,173995470548323 
825	 0,173755891022011 
826	 0,173771362214809 
827	 0,174172256141883 
828	 0,174827683348545 
829	 0,174961346271802 
830	 0,174314922475162 
831	 0,17416506276831 
832	 0,174516959823213 
833	 0,175162173769509 
834	 0,174840375110682 
835	 0,173858600837208 
836	 0,174323814749075 
837	 0,175005065231137 
838	 0,175174978988435 
839	 0,174748106752775 
840	 0,174280975743949 
841	 0,174555728022249 
842	 0,175122043209169 
843	 0,175605666114033 
844	 0,175210312017638 
845	 0,17482031870416 
846	 0,174880678223215 
847	 0,174726822048339 
848	 0,174472377581373 
849	 0,174368207976322 
850	 0,174857761960551 
851	 0,175634461818459 
852	 0,175393965955701 
853	 0,174863438594227 
854	 0,174510392058096 
855	 0,174566892518963 
856	 0,174807520130628 
857	 0,174878005032561 
858	 0,174855650584628 
859	 0,174877035913769 
860	 0,175409264093564 
861	 0,17559227329361 
862	 0,17509155929886 
863	 0,174915193253137 
864	 0,17499040004096 
865	 0,175069961211236 
866	 0,174926067244757 
867	 0,174586513575926 
868	 0,174227049910381 
869	 0,174472744695686 
870	 0,175409547775456 
871	 0,175563816264174 
872	 0,175321895140433 
873	 0,175321120233837 
874	 0,175294852078196 
875	 0,17523472200274 
876	 0,175198067343771 
877	 0,175324403700426 
878	 0,175655781334122 
879	 0,176104630592261 
880	 0,17628595935761 
881	 0,175859380379609 
882	 0,175930633547132 
883	 0,176519580382774 
884	 0,177079747706106 
885	 0,177519390442151 
886	 0,177655698598846 
887	 0,176985961757594 
888	 0,176363548128925 
889	 0,176539762781373 
890	 0,176120769143301 
891	 0,17565846831053 
892	 0,176946816055856 
893	 0,177781060040137 
894	 0,177631187383581 
895	 0,177667874937021 
896	 0,177886745759382 
897	 0,17818366228295 
898	 0,17775984251652 
899	 0,177201424102344 
900	 0,177765770982058 
901	 0,178102274993241 
902	 0,177893175179574 
903	 0,177493678951939 
904	 0,177235691203213 
905	 0,177329552046906 
906	 0,177594332044742 
907	 0,177832721594311 
908	 0,177810391106378 
909	 0,177688223475764 
910	 0,177569541451949 
911	 0,177765340359142 
912	 0,177224424038083 
913	 0,175833796181102 
914	 0,175878489177987 
915	 0,17710424821872 
916	 0,178834442165641 
917	 0,17843457079029 
918	 0,176828825663246 
919	 0,177922458848346 
920	 0,178493957792668 
921	 0,177754529993315 
922	 0,177438336780939 
923	 0,177372854708469 
924	 0,177303400464237 
925	 0,1766030547676 
926	 0,176029893743225 
927	 0,177143573508711 
928	 0,177355398537602 
929	 0,176519045795712 
930	 0,177099220148813 
931	 0,177455997380046 
932	 0,176743695294959 
933	 0,176154586147445 
934	 0,176001310511566 
935	 0,176475460899934 
936	 0,176693483516112 
937	 0,176676401307576 
938	 0,177158457734182 
939	 0,177524507887319 
940	 0,17744131804614 
941	 0,176532052702685 
942	 0,175698048460931 
943	 0,175685293089515 
944	 0,175317745004138 
945	 0,174845408012424 
946	 0,175108210509557 
947	 0,174959056385466 
948	 0,174329907064834 
949	 0,174391930750425 
950	 0,173712938985796 
951	 0,171841865335333 
952	 0,171522160614521 
953	 0,171594098490728 
954	 0,170389894657786 
955	 0,170061246232736 
956	 0,170301064414578 
957	 0,169053304715464 
958	 0,168748893160585 
959	 0,169834449513444 
960	 0,170335414678447 
961	 0,170429224676019 
962	 0,170098629461285 
963	 0,167288513640408 
964	 0,165082120797327 
965	 0,168413567157926 
966	 0,170089247139633 
967	 0,169180582665488 
968	 0,168792448191195 
969	 0,168494009370386 
970	 0,16832047517433 
971	 0,168902672673781 
972	 0,169123745754113 
973	 0,168108240980246 
974	 0,16797927221344 
975	 0,168877981462851 
976	 0,170364897643764 
977	 0,171627839870392 
978	 0,17210166793024 
979	 0,17103833453142 
980	 0,169254693898626 
981	 0,16765176100454 
982	 0,16838098637755 
983	 0,169669605240342 
984	 0,169675851726306 
985	 0,170998410926286 
986	 0,172398806309097 
987	 0,170679087073345 
988	 0,169585553392598 
989	 0,170034654515858 
990	 0,171245803715244 
991	 0,171012312885863 
992	 0,168972772306416 
993	 0,170621870362617 
994	 0,17298473820006 
995	 0,17255336903555 
996	 0,171342984434256 
997	 0,170881427043618 
998	 0,173390298698972 
999	 0,175286662871961 
1000	 0,175416056157802 
1001	 0,173756810270805 
1002	 0,173169004140813 
1003	 0,174753507428148 
1004	 0,175199480394296 
1005	 0,175627962670743 
1006	 0,177086237804447 
1007	 0,175915635083963 
1008	 0,173634226228793 
1009	 0,173968213409648 
1010	 0,174665727391927 
1011	 0,175236740092382 
1012	 0,175756695188529 
1013	 0,177765654886723 
1014	 0,181200797498953 
1015	 0,182794913861566 
1016	 0,181357618558259 
1017	 0,177005384748536 
1018	 0,178320998790463 
1019	 0,18144046599376 
1020	 0,178820006128847 
1021	 0,177493257052309 
1022	 0,178522247073533 
1023	 0,180335223443103 
1024	 0,18080512662543 
1025	 0,179755778537631 
1026	 0,180444821730102 
1027	 0,181487430411122 
1028	 0,182019528353713 
1029	 0,183284570228494 
1030	 0,183606901682133 
1031	 0,181272932491293 
1032	 0,181228540338995 
1033	 0,183294485827452 
1034	 0,185080038786904 
1035	 0,184618242793867 
1036	 0,183025773171551 
1037	 0,187063482617529 
1038	 0,187574458868599 
1039	 0,181886349733697 
1040	 0,180033048651893 
1041	 0,18007539538213 
1042	 0,180103309623255 
1043	 0,182157489232188 
1044	 0,185268307978624 
1045	 0,187663518166599 
1046	 0,187137419252234 
1047	 0,185355016744751 
1048	 0,187255039336359 
1049	 0,189173676306115 
1050	 0,189982440152301 
1051	 0,190474442905636 
1052	 0,188484505205143 
1053	 0,184640855886088 
1054	 0,187674459003703 
1055	 0,192832716701 
1056	 0,195068431044541 
1057	 0,193675578826049 
1058	 0,187849499649441 
1059	 0,177304923176518 
1060	 0,176976146915518 
1061	 0,18718273960245 
1062	 0,201605085749815 
1063	 0,200397702580928 
1064	 0,185227590356561 
1065	 0,186590676032648 
1066	 0,188504363035768 
1067	 0,187785994016143 
1068	 0,206940159414656 
1069	 0,221380839153367 
1070	 0,213744447805869 
1071	 0,204341778043067 
1072	 0,196885598933306 
1073	 0,193116336976448 
1074	 0,194802260140437 
1075	 0,19828281090089 
