Wavelength	NEUF00572.asd
325	 0,567446336530306 
326	 0,255218582614595 
327	 0,144407348446037 
328	 0,32735640233608 
329	 0,385573053466954 
330	 0,419215291027964 
331	 0,486242251187288 
332	 0,431238279793479 
333	 0,347847301038429 
334	 0,373102491228283 
335	 0,419747924506323 
336	 0,450372348803315 
337	 0,372368047251273 
338	 0,284963314701475 
339	 0,277721448144029 
340	 0,25798910419971 
341	 0,249664309816027 
342	 0,344908505076296 
343	 0,370703026412191 
344	 0,316530731563788 
345	 0,300018626039697 
346	 0,306234401869062 
347	 0,305899679365252 
348	 0,307616484584415 
349	 0,305998376077769 
350	 0,282112609631306 
351	 0,279557871449697 
352	 0,300225194804974 
353	 0,274819934218744 
354	 0,241252097808349 
355	 0,252941392749467 
356	 0,27271930252557 
357	 0,286765954263055 
358	 0,279977373315101 
359	 0,288293315483523 
360	 0,321812947334825 
361	 0,314465495040804 
362	 0,295437695155625 
363	 0,313194795464942 
364	 0,321263521524657 
365	 0,312731552491473 
366	 0,305453425464674 
367	 0,308040125509336 
368	 0,323753283537071 
369	 0,318315478855623 
370	 0,301509899718752 
371	 0,2958396721461 
372	 0,301891234601013 
373	 0,315037691478013 
374	 0,315738015994896 
375	 0,310392799078555 
376	 0,305415259959487 
377	 0,309796243709095 
378	 0,319976097907541 
379	 0,323572155853915 
380	 0,341387959180768 
381	 0,36945404023536 
382	 0,3687039218494 
383	 0,356129362186885 
384	 0,348412119873066 
385	 0,342255957477974 
386	 0,337987091366055 
387	 0,333532164731997 
388	 0,338765564317321 
389	 0,352517528122116 
390	 0,349423258945787 
391	 0,339698363408345 
392	 0,337932706381445 
393	 0,349385042154918 
394	 0,365197226509529 
395	 0,356312967374641 
396	 0,349173772984988 
397	 0,356387911858041 
398	 0,359354325145096 
399	 0,359607953325595 
400	 0,362303860124894 
401	 0,359818378421493 
402	 0,353347607964921 
403	 0,352892825500317 
404	 0,356029763141015 
405	 0,360307365391727 
406	 0,362123371806149 
407	 0,360101373227318 
408	 0,352336359831457 
409	 0,347014772892362 
410	 0,346336264141395 
411	 0,347612576556361 
412	 0,348081823469013 
413	 0,345872462688552 
414	 0,352806037177005 
415	 0,363925061595697 
416	 0,36180587345488 
417	 0,361222355715748 
418	 0,366228738469927 
419	 0,362214632203771 
420	 0,356323878851947 
421	 0,35864677340015 
422	 0,35904340127709 
423	 0,356619604484654 
424	 0,355557716654299 
425	 0,35758480949944 
426	 0,362622072501883 
427	 0,361125683118784 
428	 0,355853642059454 
429	 0,353055233087381 
430	 0,356972356659673 
431	 0,365624191584945 
432	 0,364966426123247 
433	 0,360689656820153 
434	 0,35854830545026 
435	 0,35905724759885 
436	 0,360560891566986 
437	 0,357939812984358 
438	 0,357607193995631 
439	 0,360996639859323 
440	 0,360620964107396 
441	 0,358191293457805 
442	 0,356704867809233 
443	 0,357725741379456 
444	 0,360865883105522 
445	 0,363553996897075 
446	 0,364553106729456 
447	 0,363416701942323 
448	 0,363201117651538 
449	 0,364312506379619 
450	 0,366631075281465 
451	 0,369041594281171 
452	 0,370516904737437 
453	 0,36891245573087 
454	 0,367038313950591 
455	 0,367560188474706 
456	 0,367486073786354 
457	 0,367677164428144 
458	 0,372334195464739 
459	 0,374897187275812 
460	 0,37314970407908 
461	 0,372776606166037 
462	 0,372386734013898 
463	 0,369378790274066 
464	 0,369432699264433 
465	 0,372254594067313 
466	 0,371804982299129 
467	 0,370252272416139 
468	 0,369363293343241 
469	 0,371537725352104 
470	 0,375032201018283 
471	 0,375944854031795 
472	 0,375251923084345 
473	 0,374092521356688 
474	 0,376828945354795 
475	 0,378518595979567 
476	 0,374473114223047 
477	 0,374705942389088 
478	 0,378604659892664 
479	 0,37896169971919 
480	 0,377894545454194 
481	 0,376462822935696 
482	 0,375577176563695 
483	 0,37490983610362 
484	 0,37359990380994 
485	 0,375851770714135 
486	 0,380605904873972 
487	 0,380161872658075 
488	 0,377776045119013 
489	 0,376250503902126 
490	 0,377283329736469 
491	 0,378848604096781 
492	 0,375087760303017 
493	 0,37388406686358 
494	 0,377128784372287 
495	 0,379201362379897 
496	 0,379503623896998 
497	 0,377954098712438 
498	 0,377992302832517 
499	 0,379410197085685 
500	 0,378900747437812 
501	 0,37788672076793 
502	 0,377418227728315 
503	 0,37892739953493 
504	 0,381429867066002 
505	 0,383011972772125 
506	 0,384138901737126 
507	 0,384695915577118 
508	 0,383769933561998 
509	 0,38333759033747 
510	 0,385136970847194 
511	 0,387770157454378 
512	 0,389995328277879 
513	 0,389467845672716 
514	 0,388765172005121 
515	 0,389141074216082 
516	 0,390671234536354 
517	 0,391822500916489 
518	 0,390467353465298 
519	 0,390287874923475 
520	 0,391652456789724 
521	 0,392146228094289 
522	 0,392389636085165 
523	 0,392817134774253 
524	 0,392929528083687 
525	 0,392751234348257 
526	 0,392375908298276 
527	 0,392565753554615 
528	 0,393318462376903 
529	 0,393102194194291 
530	 0,392268413964579 
531	 0,391368805425143 
532	 0,392113324091238 
533	 0,39389831261453 
534	 0,393582491113977 
535	 0,393090800955358 
536	 0,393410974239135 
537	 0,392666688916789 
538	 0,391734482784778 
539	 0,392688415401312 
540	 0,39322533033153 
541	 0,392877520757171 
542	 0,393032807042585 
543	 0,393519518124677 
544	 0,394078196285587 
545	 0,394190578494391 
546	 0,394037985420428 
547	 0,394404576436826 
548	 0,395107458918485 
549	 0,395823714796475 
550	 0,394775880998047 
551	 0,393816212598966 
552	 0,39614315942791 
553	 0,397472132369066 
554	 0,396951200223404 
555	 0,396592040274276 
556	 0,396284302409518 
557	 0,395894589854545 
558	 0,395274096285919 
559	 0,394533849778508 
560	 0,39400994160862 
561	 0,393379402501609 
562	 0,392672984917684 
563	 0,392885369007609 
564	 0,393058027502323 
565	 0,391833528288688 
566	 0,391582385740475 
567	 0,392540960557263 
568	 0,393164734238293 
569	 0,394112561021722 
570	 0,395725724479847 
571	 0,39668005413701 
572	 0,397398123801073 
573	 0,399308037384136 
574	 0,400957551190583 
575	 0,401963874910011 
576	 0,403127471681467 
577	 0,404632926994296 
578	 0,406600270012591 
579	 0,408067941087224 
580	 0,409171380861605 
581	 0,411147497588673 
582	 0,412917830847902 
583	 0,413924563779727 
584	 0,414848521389607 
585	 0,415993123411496 
586	 0,417749054989698 
587	 0,419188617251949 
588	 0,420135266626798 
589	 0,42128451333938 
590	 0,422469724959571 
591	 0,423489530400157 
592	 0,424033125374697 
593	 0,424296245026818 
594	 0,42495306297898 
595	 0,425648805704096 
596	 0,426259419635203 
597	 0,427249320997385 
598	 0,427762611765942 
599	 0,426449849125454 
600	 0,425819518936457 
601	 0,426254669151976 
602	 0,42631373978649 
603	 0,42562758933607 
604	 0,424084447563654 
605	 0,423770468395953 
606	 0,424150619240179 
607	 0,422893437829305 
608	 0,422202327031262 
609	 0,422522438052868 
610	 0,421460849664591 
611	 0,419931106528424 
612	 0,419290490374302 
613	 0,418670916543378 
614	 0,418169481880451 
615	 0,418899683766565 
616	 0,419041941430112 
617	 0,41760199677493 
618	 0,416934743371589 
619	 0,41687771854965 
620	 0,416351696558734 
621	 0,416253118367064 
622	 0,416681236057289 
623	 0,41673182112466 
624	 0,416700958057689 
625	 0,416950296244662 
626	 0,417493161308245 
627	 0,418177458328643 
628	 0,418625000994095 
629	 0,418749724810634 
630	 0,418612225887064 
631	 0,4190477330015 
632	 0,419683225980411 
633	 0,41970564405119 
634	 0,420436090367353 
635	 0,421932308354653 
636	 0,422722073882398 
637	 0,423629868660947 
638	 0,425312959432166 
639	 0,426487913116304 
640	 0,427095492825737 
641	 0,427451622185654 
642	 0,428628434329591 
643	 0,430709155477939 
644	 0,431243348151443 
645	 0,43089543166348 
646	 0,43083022562033 
647	 0,431146941931175 
648	 0,431603589905162 
649	 0,431216594403516 
650	 0,430404961311601 
651	 0,429438009294464 
652	 0,428013878435846 
653	 0,426424282590439 
654	 0,425286849453835 
655	 0,42416094791637 
656	 0,422813887958157 
657	 0,420959525391318 
658	 0,418748539476464 
659	 0,416370616852714 
660	 0,41416937654365 
661	 0,412240657216356 
662	 0,410550454576121 
663	 0,408953844636579 
664	 0,407348717697392 
665	 0,405662511383158 
666	 0,40398248388989 
667	 0,40244592942092 
668	 0,401143701181396 
669	 0,400086337459996 
670	 0,399102387618425 
671	 0,398408009251104 
672	 0,398143024844782 
673	 0,397784268895664 
674	 0,39739439286781 
675	 0,397356089179209 
676	 0,397499653863319 
677	 0,397698896832765 
678	 0,397647737383618 
679	 0,397503830075551 
680	 0,39749073191954 
681	 0,398172151804124 
682	 0,399552971410548 
683	 0,401172649024998 
684	 0,402834607779006 
685	 0,404486825877341 
686	 0,406657447502284 
687	 0,409658965670454 
688	 0,413937000804385 
689	 0,417986156173275 
690	 0,421668522595786 
691	 0,426542131920531 
692	 0,432371836870804 
693	 0,438863342518638 
694	 0,445970893452541 
695	 0,453631957185985 
696	 0,461790592701613 
697	 0,470070816732223 
698	 0,478368733825633 
699	 0,487291696653522 
700	 0,496282447137161 
701	 0,504526344261865 
702	 0,512767709771841 
703	 0,521010663471473 
704	 0,528725977033415 
705	 0,535893083376248 
706	 0,542485988112338 
707	 0,548458156410046 
708	 0,554128334517692 
709	 0,560063494081726 
710	 0,56551126954867 
711	 0,570290810902833 
712	 0,574777560686556 
713	 0,578875442827428 
714	 0,58248679529084 
715	 0,585628394832369 
716	 0,588443323012761 
717	 0,591238431296196 
718	 0,593945550304168 
719	 0,596527327566064 
720	 0,598892946489022 
721	 0,600934555495925 
722	 0,602544831831923 
723	 0,603906914706561 
724	 0,605156234832481 
725	 0,606434932729592 
726	 0,607979121657144 
727	 0,609806103991379 
728	 0,610833354448079 
729	 0,611424513746026 
730	 0,612490417304542 
731	 0,613564229837884 
732	 0,614511263717145 
733	 0,615371768999925 
734	 0,616001621263649 
735	 0,616289996462943 
736	 0,616397712278757 
737	 0,616575974548738 
738	 0,617354060609984 
739	 0,618021116794234 
740	 0,618359497395703 
741	 0,61885594110176 
742	 0,619424680309894 
743	 0,619919528805921 
744	 0,620110984830691 
745	 0,620011068997124 
746	 0,619792654101005 
747	 0,619722643649346 
748	 0,61997467526459 
749	 0,620576089654325 
750	 0,621154537568928 
751	 0,62115699460283 
752	 0,62106963966536 
753	 0,621033162566996 
754	 0,620993312708511 
755	 0,621018816219393 
756	 0,621177931016195 
757	 0,621638129329752 
758	 0,622142687993325 
759	 0,622128826697838 
760	 0,622168371902331 
761	 0,62242341562396 
762	 0,622751066871333 
763	 0,622837889856874 
764	 0,622448739080316 
765	 0,622500877154343 
766	 0,622880945557107 
767	 0,622811296217711 
768	 0,622688487569573 
769	 0,622689722168679 
770	 0,622936413708496 
771	 0,623190417841528 
772	 0,623165194788453 
773	 0,62309035508904 
774	 0,623058647945644 
775	 0,623163532928675 
776	 0,623352938893091 
777	 0,623536074917006 
778	 0,623313727768562 
779	 0,622997742342253 
780	 0,623096191030073 
781	 0,62337518060955 
782	 0,623669047603139 
783	 0,623642800293872 
784	 0,62357281818798 
785	 0,623579959996768 
786	 0,62294398117146 
787	 0,622325670768753 
788	 0,623063470391737 
789	 0,62363826126395 
790	 0,623671051904085 
791	 0,623763986875494 
792	 0,623658405556321 
793	 0,623207235907662 
794	 0,62314741847204 
795	 0,623439064521712 
796	 0,62375777738235 
797	 0,623787644242567 
798	 0,623488548153518 
799	 0,623335943478725 
800	 0,623290568375421 
801	 0,623289494555705 
802	 0,623302579736944 
803	 0,623352912057885 
804	 0,62352546272056 
805	 0,623709394370243 
806	 0,623880619041982 
807	 0,624193084549754 
808	 0,624441025672256 
809	 0,624397013860292 
810	 0,623999096197163 
811	 0,623633413315689 
812	 0,624455080739146 
813	 0,624819703759753 
814	 0,624237109485612 
815	 0,624412777368212 
816	 0,624780659010574 
817	 0,624525870886058 
818	 0,62480685246943 
819	 0,625532856288341 
820	 0,625736539267318 
821	 0,625495011658124 
822	 0,624973925174791 
823	 0,62502153369184 
824	 0,625441544302902 
825	 0,625852209549057 
826	 0,625955400113182 
827	 0,625823813041616 
828	 0,626008947874257 
829	 0,626079481314109 
830	 0,625894288211363 
831	 0,626075651131317 
832	 0,626374970735166 
833	 0,626369923953449 
834	 0,626086262726789 
835	 0,625652724343289 
836	 0,625416940729041 
837	 0,625446080301177 
838	 0,625732725231809 
839	 0,62596223683054 
840	 0,625947600235539 
841	 0,625501596133383 
842	 0,625384287318875 
843	 0,625630417539455 
844	 0,625679008963842 
845	 0,625459318174098 
846	 0,625036467880428 
847	 0,62515787470091 
848	 0,625635991394137 
849	 0,62608005582595 
850	 0,62612470147355 
851	 0,625820971827907 
852	 0,625685014706993 
853	 0,625758610297768 
854	 0,625958144850092 
855	 0,625434281789529 
856	 0,624895833368909 
857	 0,625411169812875 
858	 0,625450692631144 
859	 0,624970225745551 
860	 0,625044650487171 
861	 0,625407864255177 
862	 0,625865718052776 
863	 0,626072935364737 
864	 0,6260328433125 
865	 0,625823764172991 
866	 0,626031367163619 
867	 0,626526452409886 
868	 0,626456446932511 
869	 0,626274718285035 
870	 0,626282872882249 
871	 0,62693996567763 
872	 0,627570035336997 
873	 0,627333963141213 
874	 0,626734231777849 
875	 0,626327672089375 
876	 0,627401613292733 
877	 0,628116797563187 
878	 0,627713954089889 
879	 0,626873210561207 
880	 0,626335587698474 
881	 0,626781525483106 
882	 0,627111647360702 
883	 0,627115201954509 
884	 0,626775277220575 
885	 0,627138779258355 
886	 0,62821634628388 
887	 0,627904582811358 
888	 0,627230813374087 
889	 0,62726381454147 
890	 0,627468079453639 
891	 0,627614070480129 
892	 0,627368975950557 
893	 0,627253960407874 
894	 0,627455202107548 
895	 0,628036500027991 
896	 0,628150129355661 
897	 0,627305198903 
898	 0,627500328157574 
899	 0,628149421498927 
900	 0,627617359989878 
901	 0,627815011695812 
902	 0,628696236598921 
903	 0,627941757509558 
904	 0,627477229884638 
905	 0,628360835102985 
906	 0,62883424078004 
907	 0,62891797553923 
908	 0,628957986298159 
909	 0,629029230725555 
910	 0,629044226134465 
911	 0,628598730823173 
912	 0,628227218457959 
913	 0,62816567052457 
914	 0,628031290263786 
915	 0,628175465505434 
916	 0,628954362796592 
917	 0,629253382230278 
918	 0,629059780169793 
919	 0,628928723514008 
920	 0,629016279576061 
921	 0,629325352673804 
922	 0,629453251075764 
923	 0,629485648403035 
924	 0,629473825078757 
925	 0,6289955502067 
926	 0,628465775009094 
927	 0,628728518724964 
928	 0,628885385426208 
929	 0,628655769147021 
930	 0,628020181251194 
931	 0,627531158225869 
932	 0,627489995795053 
933	 0,627375520065474 
934	 0,627528948465644 
935	 0,628399605983905 
936	 0,62822118398578 
937	 0,627166248263893 
938	 0,626744780588151 
939	 0,627208295619122 
940	 0,628276022645389 
941	 0,627858579960177 
942	 0,626801415383048 
943	 0,626127025012051 
944	 0,62731322302509 
945	 0,62863166499845 
946	 0,62641854640067 
947	 0,624950941352878 
948	 0,625196207593746 
949	 0,625847555686543 
950	 0,626040568266134 
951	 0,625404264075535 
952	 0,625472923454106 
953	 0,625268004459156 
954	 0,623521404431093 
955	 0,622147214159414 
956	 0,621729259841524 
957	 0,622758388867843 
958	 0,622802534028297 
959	 0,621576885360065 
960	 0,622167877114364 
961	 0,623408005277184 
962	 0,624111751584697 
963	 0,622985790082037 
964	 0,621348108806327 
965	 0,621486503370886 
966	 0,621508140136385 
967	 0,621231654464956 
968	 0,621589608668556 
969	 0,621753946034742 
970	 0,621466377282095 
971	 0,621254138561348 
972	 0,621776305667959 
973	 0,623342664211453 
974	 0,623081497589218 
975	 0,621766508896284 
976	 0,62161512691391 
977	 0,623084102730157 
978	 0,625240968793084 
979	 0,624401083450169 
980	 0,623077000787707 
981	 0,622426593019019 
982	 0,620848158671341 
983	 0,620942155654387 
984	 0,624795864542045 
985	 0,624093265560464 
986	 0,621129668617347 
987	 0,623436505115902 
988	 0,623813648116706 
989	 0,621758174137438 
990	 0,62305099166786 
991	 0,624276757340278 
992	 0,623996152733029 
993	 0,625212988838497 
994	 0,626357365912912 
995	 0,625725235457302 
996	 0,625982141040917 
997	 0,62719082562566 
998	 0,628574744764844 
999	 0,628666808099961 
1000	 0,627774232947955 
1001	 0,628680448655439 
1002	 0,62987756560821 
1003	 0,630380157258807 
1004	 0,629075734806653 
1005	 0,628810484739979 
1006	 0,631889181458254 
1007	 0,631687210496883 
1008	 0,629191342660144 
1009	 0,628223289724721 
1010	 0,628956913585144 
1011	 0,631001735285006 
1012	 0,632542373455247 
1013	 0,634212872535084 
1014	 0,635883437151467 
1015	 0,636292585864084 
1016	 0,634902902491691 
1017	 0,632017372350348 
1018	 0,633421896034496 
1019	 0,637094117999622 
1020	 0,638688945063658 
1021	 0,638834565432117 
1022	 0,638092727305625 
1023	 0,638266767203771 
1024	 0,635914685753343 
1025	 0,631361757611916 
1026	 0,630395628945949 
1027	 0,633424065631417 
1028	 0,63939912967395 
1029	 0,640542548432401 
1030	 0,637868151349903 
1031	 0,634107632270466 
1032	 0,634327940267204 
1033	 0,636839900016012 
1034	 0,635869032538804 
1035	 0,636089520148809 
1036	 0,638105691485618 
1037	 0,639681882470501 
1038	 0,639691578790627 
1039	 0,6391625571579 
1040	 0,647979191078474 
1041	 0,649856507948132 
1042	 0,634408816074114 
1043	 0,630349493355164 
1044	 0,63628443229128 
1045	 0,644185251629283 
1046	 0,648563502928618 
1047	 0,647405373177867 
1048	 0,639625628217332 
1049	 0,641316995559355 
1050	 0,651759822136215 
1051	 0,646998764926355 
1052	 0,639665361689722 
1053	 0,637296653418715 
1054	 0,642622753747442 
1055	 0,647737249717306 
1056	 0,645518692932372 
1057	 0,638636846765279 
1058	 0,634520788271289 
1059	 0,641767635088701 
1060	 0,642736170345149 
1061	 0,639932071172928 
1062	 0,648439833151373 
1063	 0,648234303802046 
1064	 0,638237697659979 
1065	 0,636719242348054 
1066	 0,635543814200461 
1067	 0,633479068773679 
1068	 0,643437232480145 
1069	 0,650310804319767 
1070	 0,643161710346265 
1071	 0,631682680717261 
1072	 0,6242191659296 
1073	 0,629422435388533 
1074	 0,650450901045121 
1075	 0,66665921358898 
