Wavelength	NEUF00696.asd
325	 0,39943889867554 
326	 0,317864063841192 
327	 0,238924208405395 
328	 0,260087790603154 
329	 0,281482149500051 
330	 0,286247124194116 
331	 0,255551774644553 
332	 0,345636204789601 
333	 0,425548118841287 
334	 0,325338294378223 
335	 0,284124735557871 
336	 0,342869248669549 
337	 0,228759940363326 
338	 0,157267037126257 
339	 0,298846877884622 
340	 0,359914833459761 
341	 0,338355886098215 
342	 0,308709073837653 
343	 0,293829804438542 
344	 0,295954667725231 
345	 0,313037117626524 
346	 0,342975831775204 
347	 0,382015107874572 
348	 0,357163147833702 
349	 0,302603290309708 
350	 0,355686956797438 
351	 0,399727146223993 
352	 0,398053691674248 
353	 0,384565552271119 
354	 0,36905703721603 
355	 0,361797702516489 
356	 0,370086543915396 
357	 0,386144675389702 
358	 0,387352001453625 
359	 0,383805496452096 
360	 0,382704108728771 
361	 0,405746609211378 
362	 0,424358630096621 
363	 0,401117675944814 
364	 0,389822152612088 
365	 0,403502056745127 
366	 0,431445176495795 
367	 0,460986724808341 
368	 0,479989379364973 
369	 0,454038162211979 
370	 0,41681595493388 
371	 0,425145816178614 
372	 0,439119931114172 
373	 0,443391073887871 
374	 0,423052329629589 
375	 0,413560029008451 
376	 0,438679363896715 
377	 0,442304598541909 
378	 0,431498370230738 
379	 0,439682773178126 
380	 0,454590955513664 
381	 0,46826035534073 
382	 0,465766391539381 
383	 0,465415818392258 
384	 0,483663362100151 
385	 0,491311752339335 
386	 0,483730174598308 
387	 0,461196935726194 
388	 0,460395817519194 
389	 0,488447404809646 
390	 0,494045071723053 
391	 0,489854409306958 
392	 0,495059837546744 
393	 0,493706046063952 
394	 0,489268592012104 
395	 0,500879941845819 
396	 0,512204205157774 
397	 0,513488355755383 
398	 0,509035437690683 
399	 0,499036308353058 
400	 0,48195799947906 
401	 0,481972440434594 
402	 0,498873245161007 
403	 0,509896878069828 
404	 0,512493128784264 
405	 0,506716602232942 
406	 0,509034434173326 
407	 0,514064423262027 
408	 0,505220961500258 
409	 0,502249151137052 
410	 0,507694238001999 
411	 0,505124805461636 
412	 0,501091668412544 
413	 0,502444922022747 
414	 0,508292980452722 
415	 0,514822900350663 
416	 0,512747383018353 
417	 0,514431925051635 
418	 0,52196113475607 
419	 0,514988950718594 
420	 0,504642511525093 
421	 0,506312336432296 
422	 0,51046400779787 
423	 0,514148762884215 
424	 0,515177096380926 
425	 0,517297182649749 
426	 0,521823056923955 
427	 0,519436530567805 
428	 0,514957428958071 
429	 0,518831420329824 
430	 0,522569882869582 
431	 0,523240449152824 
432	 0,519669342153988 
433	 0,51717364624705 
434	 0,520224772752382 
435	 0,523201111070515 
436	 0,523782043221806 
437	 0,517911399021889 
438	 0,517443541684464 
439	 0,524922009773315 
440	 0,524068850070689 
441	 0,52017089672245 
442	 0,521700529229103 
443	 0,523110793500081 
444	 0,523174727632995 
445	 0,521965981081561 
446	 0,521455255264302 
447	 0,522811467432775 
448	 0,52462499978055 
449	 0,526591287022788 
450	 0,528771558875048 
451	 0,528880356524047 
452	 0,527316177729955 
453	 0,529113549900481 
454	 0,531805089297535 
455	 0,532812073863406 
456	 0,533049905739953 
457	 0,533391370258958 
458	 0,536059513298171 
459	 0,536855201811932 
460	 0,53461212714039 
461	 0,533963072739951 
462	 0,534815380377013 
463	 0,536395850897075 
464	 0,537263971186677 
465	 0,537353971213078 
466	 0,538362457567363 
467	 0,538068594569566 
468	 0,535368567289467 
469	 0,534024692335202 
470	 0,534351249860897 
471	 0,535625741688503 
472	 0,538025752756896 
473	 0,540653466124131 
474	 0,539811040187779 
475	 0,53840403911731 
476	 0,539402913591653 
477	 0,540216804362133 
478	 0,540343659586199 
479	 0,53974235092362 
480	 0,539797305737947 
481	 0,540984305689567 
482	 0,54135636680719 
483	 0,541733885379292 
484	 0,543664592913471 
485	 0,54472715140412 
486	 0,54481211813318 
487	 0,546413825389928 
488	 0,547300121884581 
489	 0,545966367349232 
490	 0,545592095288333 
491	 0,545774911412353 
492	 0,543967287364965 
493	 0,544148171911992 
494	 0,546910551189669 
495	 0,547615297423225 
496	 0,547126562656143 
497	 0,546845887384721 
498	 0,547381991326348 
499	 0,548346737514529 
500	 0,547950979575491 
501	 0,54765264586351 
502	 0,548214256826069 
503	 0,548647610455138 
504	 0,548946066195754 
505	 0,549311219684352 
506	 0,549738989902934 
507	 0,55042776401034 
508	 0,552143703211479 
509	 0,55413950677804 
510	 0,555603395031978 
511	 0,55505613595423 
512	 0,553360671389278 
513	 0,553334344873319 
514	 0,553554711544744 
515	 0,553688072047088 
516	 0,555503108468653 
517	 0,557444582899214 
518	 0,557183871929983 
519	 0,557664372545338 
520	 0,559000879052387 
521	 0,558690812699968 
522	 0,558441913657056 
523	 0,559349293979446 
524	 0,558887062222796 
525	 0,557835651848649 
526	 0,558986582973991 
527	 0,559211386062669 
528	 0,557845992657465 
529	 0,557397572050571 
530	 0,557610501083576 
531	 0,557964487781389 
532	 0,558434293753375 
533	 0,558983581276016 
534	 0,559650079169511 
535	 0,56035624187995 
536	 0,560950139459017 
537	 0,560654310236681 
538	 0,56003645436179 
539	 0,560344377842734 
540	 0,560317739700637 
541	 0,55968433872228 
542	 0,558966381250957 
543	 0,558711242283626 
544	 0,559367101059077 
545	 0,559740992895636 
546	 0,559686204415432 
547	 0,55953707165796 
548	 0,559560969461927 
549	 0,559841646363564 
550	 0,559757518408803 
551	 0,5597841857869 
552	 0,560770244632537 
553	 0,561620422057856 
554	 0,562023588278624 
555	 0,562207142314866 
556	 0,562272123073333 
557	 0,562281538951477 
558	 0,561849518394411 
559	 0,561337707007093 
560	 0,561870221118201 
561	 0,561966977066578 
562	 0,561236717290583 
563	 0,561345524538709 
564	 0,561445015187696 
565	 0,560234484071022 
566	 0,559865858991419 
567	 0,560575026999663 
568	 0,561065417951756 
569	 0,561661704194668 
570	 0,562570462166551 
571	 0,563605511835423 
572	 0,564658418730204 
573	 0,565631051308219 
574	 0,566280586699075 
575	 0,566571870347816 
576	 0,566742365387164 
577	 0,567353375539167 
578	 0,568955244909016 
579	 0,569440334259278 
580	 0,569026207209446 
581	 0,56993607298688 
582	 0,571353152689099 
583	 0,572674939821727 
584	 0,572817571059432 
585	 0,572869962960541 
586	 0,575082296372199 
587	 0,576427413631396 
588	 0,576346241175834 
589	 0,576913207358778 
590	 0,577489044387003 
591	 0,577447575256245 
592	 0,577731891471282 
593	 0,578535193880016 
594	 0,57996547124336 
595	 0,580904518867852 
596	 0,580956044877377 
597	 0,581651863128193 
598	 0,582418636967493 
599	 0,582153097408476 
600	 0,581923218225819 
601	 0,582009027427013 
602	 0,582303616458681 
603	 0,582298111295336 
604	 0,581623947385636 
605	 0,580834048047101 
606	 0,580209560201471 
607	 0,580081518938016 
608	 0,580381848193794 
609	 0,580848849666506 
610	 0,580279687114874 
611	 0,579345940482614 
612	 0,578997727519894 
613	 0,578928212405701 
614	 0,57901337173337 
615	 0,579136758682031 
616	 0,578881221254803 
617	 0,578040395475565 
618	 0,577233518475346 
619	 0,576899857952777 
620	 0,577726360152232 
621	 0,578324924386498 
622	 0,578291490239686 
623	 0,578288955193435 
624	 0,578349845732517 
625	 0,578474185528122 
626	 0,578772469298229 
627	 0,579111148195255 
628	 0,579068028932319 
629	 0,578907786896793 
630	 0,578829578714184 
631	 0,57916414068898 
632	 0,57965637022253 
633	 0,579812265363601 
634	 0,580309836312891 
635	 0,581141715081818 
636	 0,581429506841594 
637	 0,581789299844646 
638	 0,582697673062381 
639	 0,583042523254941 
640	 0,582888576961713 
641	 0,582834100464578 
642	 0,583198610252952 
643	 0,584007822696608 
644	 0,584396318619971 
645	 0,584430089696391 
646	 0,584310047487854 
647	 0,584653525451655 
648	 0,585188546901563 
649	 0,584375475961553 
650	 0,583524206687509 
651	 0,583410193543814 
652	 0,582431186327829 
653	 0,581152654157816 
654	 0,5811465425369 
655	 0,581370419317125 
656	 0,581353435370951 
657	 0,580730402443697 
658	 0,579684196330745 
659	 0,578461200081881 
660	 0,577662863512686 
661	 0,577200145210452 
662	 0,576406130686391 
663	 0,57540638791057 
664	 0,574301890122614 
665	 0,573332570586132 
666	 0,572674809443651 
667	 0,572560614407856 
668	 0,572093860665299 
669	 0,571316111606349 
670	 0,571525293112985 
671	 0,571796854102649 
672	 0,571407530522804 
673	 0,571266407933218 
674	 0,571334751256066 
675	 0,571082845421899 
676	 0,571191711096092 
677	 0,571739276531765 
678	 0,571664446818034 
679	 0,571497029991195 
680	 0,571955914686826 
681	 0,572171531197724 
682	 0,572257057278051 
683	 0,573257800048563 
684	 0,574157550056767 
685	 0,57446066449901 
686	 0,575333511362678 
687	 0,576667895823045 
688	 0,577973888489358 
689	 0,579470020043553 
690	 0,581321542440323 
691	 0,583950097628302 
692	 0,586811808920087 
693	 0,589448821195456 
694	 0,5928288039014 
695	 0,596912909943661 
696	 0,601170458083405 
697	 0,605326494558551 
698	 0,609372431287358 
699	 0,614239068211809 
700	 0,61927444744534 
701	 0,623516447477996 
702	 0,628224699290915 
703	 0,633430114026069 
704	 0,638283549848122 
705	 0,642520813944714 
706	 0,64606655640883 
707	 0,649962608568645 
708	 0,653900851631648 
709	 0,656971727990567 
710	 0,660035855709252 
711	 0,663299867583407 
712	 0,666463461816494 
713	 0,669175122953213 
714	 0,671146994360274 
715	 0,67277659292658 
716	 0,674300344205705 
717	 0,675995518667703 
718	 0,677964944094995 
719	 0,680087608434884 
720	 0,681385325848115 
721	 0,682223634483562 
722	 0,683194490634336 
723	 0,684237630306075 
724	 0,685360463122254 
725	 0,686568255686365 
726	 0,687688081316698 
727	 0,688567949946027 
728	 0,688965070110341 
729	 0,689257410697587 
730	 0,690153824107149 
731	 0,691088051993816 
732	 0,69184880446577 
733	 0,692393460686639 
734	 0,692696808157337 
735	 0,692770883844279 
736	 0,692962074381269 
737	 0,693329719273652 
738	 0,69387784640675 
739	 0,694189127387897 
740	 0,694167692188926 
741	 0,694355283417725 
742	 0,694575183979665 
743	 0,694577505377202 
744	 0,694677826656524 
745	 0,694824427463725 
746	 0,694608424490555 
747	 0,694473289094323 
748	 0,694666253128529 
749	 0,695127833113539 
750	 0,695501884019162 
751	 0,695276418399827 
752	 0,694854203163551 
753	 0,694448427982569 
754	 0,694278632163542 
755	 0,694470348845442 
756	 0,695026865829957 
757	 0,695093699162161 
758	 0,694909966145524 
759	 0,695281484770329 
760	 0,695415394262948 
761	 0,695233664689062 
762	 0,695659214643834 
763	 0,695983019147845 
764	 0,695560867665784 
765	 0,69560552796802 
766	 0,696025792383061 
767	 0,695971910035455 
768	 0,695881650037979 
769	 0,695845015508087 
770	 0,695338653154323 
771	 0,695070516871069 
772	 0,695874465790534 
773	 0,696203853069342 
774	 0,695954451945135 
775	 0,696009300763097 
776	 0,69603426447921 
777	 0,695862175941359 
778	 0,695474829961699 
779	 0,695154685980181 
780	 0,695309833426273 
781	 0,695162296969092 
782	 0,6947549795872 
783	 0,695018599334833 
784	 0,695399957091138 
785	 0,695487280785986 
786	 0,695128710300453 
787	 0,69467606708394 
788	 0,694780802294864 
789	 0,694988965382516 
790	 0,695153003524366 
791	 0,69535764921293 
792	 0,695140889647235 
793	 0,694274887260832 
794	 0,694425046156977 
795	 0,695101236830157 
796	 0,694623512946034 
797	 0,694290135463707 
798	 0,694380700875626 
799	 0,694108351869077 
800	 0,693778941046592 
801	 0,693705414076884 
802	 0,693696258734669 
803	 0,693690062986762 
804	 0,693575270906806 
805	 0,693744158623507 
806	 0,694204452342776 
807	 0,694164764308732 
808	 0,693992436209922 
809	 0,694111640933384 
810	 0,693663270825752 
811	 0,693066728010515 
812	 0,694006142587419 
813	 0,694706343068547 
814	 0,694463769812742 
815	 0,694085825157773 
816	 0,693762666330594 
817	 0,693641746458393 
818	 0,693852098883066 
819	 0,694328424107814 
820	 0,694875472655972 
821	 0,695048089549417 
822	 0,694703125829982 
823	 0,694476693629998 
824	 0,694586056375199 
825	 0,695193813086065 
826	 0,694974480863835 
827	 0,694206752761663 
828	 0,694880333386213 
829	 0,695462107874821 
830	 0,695191162071679 
831	 0,694749033350051 
832	 0,694332275816714 
833	 0,694105431013976 
834	 0,694182744658771 
835	 0,694480114625567 
836	 0,6946567154675 
837	 0,694738746127577 
838	 0,694710107768775 
839	 0,694448479465342 
840	 0,694095292593865 
841	 0,693858208822213 
842	 0,693774311382536 
843	 0,693783483266201 
844	 0,693673869295194 
845	 0,693388654480568 
846	 0,692972714975587 
847	 0,692955959159943 
848	 0,693120589885002 
849	 0,693074812279901 
850	 0,692994626172494 
851	 0,692988837234268 
852	 0,693339521676858 
853	 0,693426879902165 
854	 0,692979324196018 
855	 0,692622819927077 
856	 0,692587152463404 
857	 0,693065382093559 
858	 0,692724599531814 
859	 0,691722952789177 
860	 0,691563740449077 
861	 0,692177510755673 
862	 0,693273489321444 
863	 0,693083188956887 
864	 0,692569654158949 
865	 0,693209752138714 
866	 0,693069550888175 
867	 0,692305743116533 
868	 0,692813047687034 
869	 0,693151419407521 
870	 0,692810860747652 
871	 0,693161909690916 
872	 0,693634930107505 
873	 0,693418856349026 
874	 0,692977047734289 
875	 0,692688546285536 
876	 0,693345182046712 
877	 0,693886195615321 
878	 0,693798065169766 
879	 0,693079956511999 
880	 0,692491851259764 
881	 0,692797751075231 
882	 0,692881155001128 
883	 0,692761688538476 
884	 0,693153007837329 
885	 0,693372985703999 
886	 0,693205403696722 
887	 0,692923209738335 
888	 0,692705838924786 
889	 0,692655422446305 
890	 0,691903689488652 
891	 0,691136269612554 
892	 0,692254842398196 
893	 0,692568178305466 
894	 0,691696337607466 
895	 0,69218798634048 
896	 0,692856925073091 
897	 0,692717111531212 
898	 0,692229883251699 
899	 0,691857216658535 
900	 0,692310383492488 
901	 0,692260600112029 
902	 0,691648826579435 
903	 0,691705542260116 
904	 0,692270924405734 
905	 0,693062519847273 
906	 0,692942122341661 
907	 0,692214694085096 
908	 0,691539105204247 
909	 0,692112052733588 
910	 0,693414015433111 
911	 0,692825881541579 
912	 0,691966021906823 
913	 0,69170720814043 
914	 0,692351055833676 
915	 0,69291669601702 
916	 0,692369566304837 
917	 0,692614161722012 
918	 0,693492189633346 
919	 0,693691680330838 
920	 0,693291681209202 
921	 0,692506023437561 
922	 0,692259727414307 
923	 0,692573318792379 
924	 0,693270069038243 
925	 0,692913923631824 
926	 0,692033465491682 
927	 0,691999819316378 
928	 0,69212552940252 
929	 0,69224158624777 
930	 0,692438809007665 
931	 0,69247678028325 
932	 0,692209366015029 
933	 0,691600467956937 
934	 0,69136778077873 
935	 0,69234444629726 
936	 0,692147923483029 
937	 0,690994201936565 
938	 0,691008411611151 
939	 0,691405107214122 
940	 0,691802292405054 
941	 0,691795088307676 
942	 0,691188503851029 
943	 0,690101909187193 
944	 0,691433626696841 
945	 0,693367772201226 
946	 0,691685683273232 
947	 0,689973276797393 
948	 0,689328034832167 
949	 0,689675883199617 
950	 0,69004806332784 
951	 0,689829702759475 
952	 0,689245682985882 
953	 0,688527273031226 
954	 0,687959414589798 
955	 0,688088564736546 
956	 0,688512040286997 
957	 0,687850429698995 
958	 0,687546092326828 
959	 0,68792140997156 
960	 0,688013544473035 
961	 0,688096699438543 
962	 0,688272401205062 
963	 0,687558522480726 
964	 0,686054521594415 
965	 0,684153366368158 
966	 0,68471156693161 
967	 0,687157371314962 
968	 0,687605163769506 
969	 0,686632586779342 
970	 0,684923550189377 
971	 0,685041282220715 
972	 0,685294732807 
973	 0,684199624148622 
974	 0,684829123322634 
975	 0,686099334687244 
976	 0,685172511579794 
977	 0,685494238503544 
978	 0,687174057103688 
979	 0,687367566250411 
980	 0,686683547031872 
981	 0,685705667545903 
982	 0,685931850173279 
983	 0,686741826902799 
984	 0,68732752982436 
985	 0,687520560582462 
986	 0,687328487786388 
987	 0,686854210326162 
988	 0,687137775387071 
989	 0,687912317135152 
990	 0,686849474226899 
991	 0,686659381269716 
992	 0,688459437259293 
993	 0,689743534974348 
994	 0,69032472059836 
995	 0,690258095781067 
996	 0,68993420080312 
997	 0,689780435555465 
998	 0,690463613416928 
999	 0,689649876829912 
1000	 0,687960600010373 
1001	 0,690112638444742 
1002	 0,691707363463563 
1003	 0,690871281773601 
1004	 0,690676418237085 
1005	 0,691775904610018 
1006	 0,694242837782575 
1007	 0,694403545361352 
1008	 0,692380102387492 
1009	 0,689656014354502 
1010	 0,688851289118733 
1011	 0,690092246584082 
1012	 0,690772150879273 
1013	 0,692614961919061 
1014	 0,695332686005964 
1015	 0,694151752174601 
1016	 0,692298202222642 
1017	 0,692731171821043 
1018	 0,694614759083485 
1019	 0,695243398526277 
1020	 0,691052282027213 
1021	 0,690979444146573 
1022	 0,695074670320542 
1023	 0,697736968427624 
1024	 0,695291263725269 
1025	 0,688981319389822 
1026	 0,690587651326201 
1027	 0,694559317444399 
1028	 0,696375787130114 
1029	 0,693160546742434 
1030	 0,689956583917452 
1031	 0,692630910009659 
1032	 0,694462538267967 
1033	 0,695075491362622 
1034	 0,69674097956769 
1035	 0,692201559945847 
1036	 0,684277673900122 
1037	 0,689594952243048 
1038	 0,695960147821261 
1039	 0,697588290904786 
1040	 0,696342339876752 
1041	 0,693845949637124 
1042	 0,691913924627121 
1043	 0,693149236506808 
1044	 0,696135636425726 
1045	 0,698139370207867 
1046	 0,694664953211649 
1047	 0,689561681283459 
1048	 0,693729161609985 
1049	 0,698645015409333 
1050	 0,700391055091666 
1051	 0,69535410770937 
1052	 0,691870565387387 
1053	 0,694170499803826 
1054	 0,69912253643741 
1055	 0,70218810531602 
1056	 0,699682974621474 
1057	 0,694715640900634 
1058	 0,69025068672553 
1059	 0,689342497523783 
1060	 0,693096997365157 
1061	 0,696135439214479 
1062	 0,686907303054485 
1063	 0,681571002536174 
1064	 0,683969778373315 
1065	 0,688586912366301 
1066	 0,691195585597063 
1067	 0,69046129088889 
1068	 0,692635440456994 
1069	 0,694811406022097 
1070	 0,694019257623811 
1071	 0,685685333897145 
1072	 0,681129304792413 
1073	 0,693003218061731 
1074	 0,698229085654657 
1075	 0,695740934038564 
