Wavelength	NEUF00665.asd
325	 0,521090232922294 
326	 0,492239127093899 
327	 0,374512183800548 
328	 0,317872015807311 
329	 0,319570731267402 
330	 0,35004273309888 
331	 0,407435901229454 
332	 0,387174385786332 
333	 0,321215142611666 
334	 0,259895325184777 
335	 0,272484081467937 
336	 0,357346152395699 
337	 0,258056346526957 
338	 0,177314317677945 
339	 0,284339271566981 
340	 0,315267912557755 
341	 0,271047733244807 
342	 0,23467417809931 
343	 0,218731852185824 
344	 0,215613661065658 
345	 0,205633945278916 
346	 0,187254948382529 
347	 0,160572794956796 
348	 0,130201091425581 
349	 0,105411971571758 
350	 0,109379644344749 
351	 0,151492924616191 
352	 0,209753967667429 
353	 0,165769599067405 
354	 0,103288304242621 
355	 0,135268897649124 
356	 0,155030403200722 
357	 0,152529862535934 
358	 0,162971814790106 
359	 0,184090168690889 
360	 0,212349574680607 
361	 0,206293697576931 
362	 0,18307676952982 
363	 0,169591025935029 
364	 0,17546437929066 
365	 0,193504771902036 
366	 0,191303229953399 
367	 0,192611706701891 
368	 0,208335532078817 
369	 0,191242483410868 
370	 0,163734079593085 
371	 0,169916904121283 
372	 0,172328002210154 
373	 0,167994267201833 
374	 0,191079113394918 
375	 0,201781270589128 
376	 0,173589606277213 
377	 0,172541824295348 
378	 0,190090360262905 
379	 0,184354970061154 
380	 0,187328192168475 
381	 0,20262777464879 
382	 0,204238695401421 
383	 0,197157014865609 
384	 0,186704766557776 
385	 0,172856258311059 
386	 0,162297265875502 
387	 0,16596672887929 
388	 0,180952323307703 
389	 0,200452781633829 
390	 0,206703411764472 
391	 0,198039779319551 
392	 0,174728906561236 
393	 0,172516295210033 
394	 0,185861569052699 
395	 0,172373885318229 
396	 0,168562566937271 
397	 0,187809940427477 
398	 0,184187845842503 
399	 0,169800055611186 
400	 0,168754578203473 
401	 0,170439497390969 
402	 0,173729579275665 
403	 0,184814834614636 
404	 0,190390509253645 
405	 0,182432933224315 
406	 0,17690468556357 
407	 0,174849493352623 
408	 0,173327989384468 
409	 0,172247664990986 
410	 0,17139848716568 
411	 0,171125314979867 
412	 0,169969996978492 
413	 0,166939160045666 
414	 0,169188660948174 
415	 0,1745747866855 
416	 0,17508372328506 
417	 0,17398431176088 
418	 0,172598155188343 
419	 0,170386758696159 
420	 0,169708297965636 
421	 0,173346436423359 
422	 0,173581890450171 
423	 0,17075804742632 
424	 0,17227753744623 
425	 0,173251019629343 
426	 0,171227191901894 
427	 0,172585581110383 
428	 0,174680275063542 
429	 0,171512688401599 
430	 0,167529804590312 
431	 0,165140065275142 
432	 0,168095589729325 
433	 0,171317711539702 
434	 0,170365961824023 
435	 0,17088898126363 
436	 0,171524425584056 
437	 0,164897457699654 
438	 0,16551721578596 
439	 0,175607331575257 
440	 0,170915616695468 
441	 0,162414938790717 
442	 0,166548909168885 
443	 0,168340616168299 
444	 0,166500840347124 
445	 0,168850274833268 
446	 0,171752129466973 
447	 0,173184541116287 
448	 0,17630412023467 
449	 0,179159350293107 
450	 0,177349360655937 
451	 0,176487590780437 
452	 0,177574738404251 
453	 0,176336753678147 
454	 0,175119150632676 
455	 0,176155562524287 
456	 0,175909858742307 
457	 0,17551120099116 
458	 0,180450988384712 
459	 0,181740641391936 
460	 0,176975479982084 
461	 0,177173865029731 
462	 0,178955804832497 
463	 0,176390666632528 
464	 0,176561560246484 
465	 0,179853929017414 
466	 0,181999663927014 
467	 0,181004714320479 
468	 0,176361118406754 
469	 0,176177762846728 
470	 0,178963290344814 
471	 0,17929174765338 
472	 0,179201626801357 
473	 0,179367336727936 
474	 0,180823070458538 
475	 0,18093701633322 
476	 0,177374614841203 
477	 0,177302745049187 
478	 0,180483350305084 
479	 0,182737470726707 
480	 0,181374178345289 
481	 0,176269005642402 
482	 0,176836658279472 
483	 0,17953216890007 
484	 0,177604974211018 
485	 0,177637527648466 
486	 0,180059376117888 
487	 0,180138627788735 
488	 0,17875833232704 
489	 0,176887634922846 
490	 0,1767672395043 
491	 0,178009159918965 
492	 0,179102716877994 
493	 0,178602998745273 
494	 0,17656049266433 
495	 0,176685883553336 
496	 0,177245255858409 
497	 0,176019677053625 
498	 0,177128979113462 
499	 0,179882814862023 
500	 0,179402464818668 
501	 0,178819860633256 
502	 0,179805182603458 
503	 0,180562547528736 
504	 0,181324291923492 
505	 0,182918944590601 
506	 0,184341776862153 
507	 0,185109355903392 
508	 0,184689894235247 
509	 0,184267659792363 
510	 0,184902462209789 
511	 0,185753936184287 
512	 0,18666154565233 
513	 0,187793746996991 
514	 0,188223399474445 
515	 0,187838436164796 
516	 0,188624422601485 
517	 0,190176722311787 
518	 0,191731290375366 
519	 0,191491948286776 
520	 0,189960207444604 
521	 0,190762712540248 
522	 0,191790504149284 
523	 0,19154570569718 
524	 0,191535586891616 
525	 0,191802001014036 
526	 0,192040548434973 
527	 0,191501443781204 
528	 0,190413239375927 
529	 0,191564867196124 
530	 0,192873422638329 
531	 0,191794269892861 
532	 0,191238193433481 
533	 0,191509684109771 
534	 0,191349249552545 
535	 0,191226821924016 
536	 0,1913755627432 
537	 0,191477493049398 
538	 0,1913011086215 
539	 0,190395747333019 
540	 0,190396209629367 
541	 0,191480574695956 
542	 0,191905515304622 
543	 0,191836827223295 
544	 0,191566743494072 
545	 0,191901223693571 
546	 0,192662337739395 
547	 0,192868166078971 
548	 0,192906896154558 
549	 0,192973918529651 
550	 0,193099159633545 
551	 0,193363167904452 
552	 0,193904493256695 
553	 0,193930270489842 
554	 0,193424311865126 
555	 0,193349768860203 
556	 0,193263470888987 
557	 0,192793970153307 
558	 0,192343513458648 
559	 0,191860804596077 
560	 0,191026481169404 
561	 0,19015162240816 
562	 0,189365370895937 
563	 0,188539020482757 
564	 0,187762312347319 
565	 0,18715056743386 
566	 0,187114356636548 
567	 0,18758598847086 
568	 0,187843426288073 
569	 0,188599967472971 
570	 0,190219370560898 
571	 0,19107483143926 
572	 0,191711975011978 
573	 0,193954748187506 
574	 0,195831050283176 
575	 0,196920179597834 
576	 0,198861847025366 
577	 0,201256655561615 
578	 0,203514503506671 
579	 0,205012476333541 
580	 0,206166745817569 
581	 0,20883613083072 
582	 0,211257323862118 
583	 0,212484597296564 
584	 0,213517398794143 
585	 0,214711268752374 
586	 0,216488388107219 
587	 0,217740999894912 
588	 0,21834633660242 
589	 0,219384577408341 
590	 0,220760659253895 
591	 0,222286450093574 
592	 0,22299335582081 
593	 0,223194860707509 
594	 0,224315989012298 
595	 0,225404847716835 
596	 0,225999673029673 
597	 0,22628333964048 
598	 0,226167732278551 
599	 0,225474661282552 
600	 0,225350032359971 
601	 0,225643876737267 
602	 0,224318936297647 
603	 0,223132365163703 
604	 0,223355460300125 
605	 0,222557968212862 
606	 0,220960812881356 
607	 0,220023349998621 
608	 0,219599035337485 
609	 0,219450446049384 
610	 0,218219461009274 
611	 0,216899299080751 
612	 0,216837897278127 
613	 0,216336484885013 
614	 0,215209050503234 
615	 0,214267192898735 
616	 0,213496483297687 
617	 0,212889330465889 
618	 0,212287220736679 
619	 0,211808558317812 
620	 0,211748233943261 
621	 0,211706817120978 
622	 0,211567713523985 
623	 0,211498013908454 
624	 0,211515817621553 
625	 0,211630307268981 
626	 0,211817191834467 
627	 0,212111121567729 
628	 0,212757217773203 
629	 0,212834750851069 
630	 0,212122160613997 
631	 0,212663248430095 
632	 0,214066094004058 
633	 0,215316294803544 
634	 0,216220463717281 
635	 0,21692749318274 
636	 0,21844729670262 
637	 0,220297591493148 
638	 0,221990776847427 
639	 0,223007443352272 
640	 0,223693501446968 
641	 0,225237388842247 
642	 0,226574610464393 
643	 0,227311966909366 
644	 0,227903079836345 
645	 0,228342093538098 
646	 0,228572001913264 
647	 0,228743770553277 
648	 0,228802042406275 
649	 0,22849538920593 
650	 0,227706459941139 
651	 0,226418441917157 
652	 0,225252507244664 
653	 0,224080556632128 
654	 0,2224734812562 
655	 0,220301867069064 
656	 0,217692163710472 
657	 0,215540121341221 
658	 0,213242339510328 
659	 0,210138893123288 
660	 0,20697275212657 
661	 0,204179438728609 
662	 0,202496290468061 
663	 0,200723182423132 
664	 0,198287692437972 
665	 0,195859443703979 
666	 0,193893757041022 
667	 0,19297828368158 
668	 0,191820923892476 
669	 0,190250830783529 
670	 0,189170279796676 
671	 0,188505743611323 
672	 0,188133839916203 
673	 0,187457950712172 
674	 0,18669017561103 
675	 0,18664428696887 
676	 0,186564394920719 
677	 0,186240447750531 
678	 0,186159720590617 
679	 0,186222160115333 
680	 0,186268543863779 
681	 0,186972610918078 
682	 0,188283474639062 
683	 0,189403561773673 
684	 0,191103166189219 
685	 0,193748383600553 
686	 0,196233099540955 
687	 0,199140007073256 
688	 0,203757958254852 
689	 0,208546939852332 
690	 0,213467371315195 
691	 0,220328526158846 
692	 0,228378694946936 
693	 0,236889783100818 
694	 0,246636444511611 
695	 0,257568826840462 
696	 0,26916735979555 
697	 0,28151020055313 
698	 0,294543000538763 
699	 0,308066351891672 
700	 0,321731564925284 
701	 0,335063111425538 
702	 0,34893249706991 
703	 0,363108596833132 
704	 0,376235242349888 
705	 0,388639008291158 
706	 0,400534561252737 
707	 0,412051937575025 
708	 0,423112242991153 
709	 0,43349523214967 
710	 0,443116538650255 
711	 0,452032265104548 
712	 0,460581960449124 
713	 0,468720551869243 
714	 0,476371695076827 
715	 0,483181355093644 
716	 0,489225328762172 
717	 0,494827041082467 
718	 0,500370041936445 
719	 0,505909128910385 
720	 0,510542368862778 
721	 0,514494470972629 
722	 0,518179839488437 
723	 0,521695423077554 
724	 0,525042400481401 
725	 0,528014811549587 
726	 0,530880605808545 
727	 0,533726957724672 
728	 0,5358997016721 
729	 0,537639914905555 
730	 0,539492880261162 
731	 0,541492299546095 
732	 0,543554321059274 
733	 0,545231836302192 
734	 0,546586695531084 
735	 0,547692661168505 
736	 0,548498369632953 
737	 0,549315872888467 
738	 0,550976329310872 
739	 0,552206273833468 
740	 0,552611221862469 
741	 0,553000197322192 
742	 0,55362464862907 
743	 0,554676179194159 
744	 0,555411701767779 
745	 0,55570734607563 
746	 0,555695988580253 
747	 0,556052865721883 
748	 0,557052934336163 
749	 0,557742563197442 
750	 0,558115547742978 
751	 0,558349463958355 
752	 0,558688322811492 
753	 0,559098687988779 
754	 0,559116852406312 
755	 0,559119226766352 
756	 0,559393869751274 
757	 0,559828035465602 
758	 0,560382799880228 
759	 0,561071271575872 
760	 0,561353088921726 
761	 0,561187812230556 
762	 0,561341640962586 
763	 0,56158653356579 
764	 0,56168110930894 
765	 0,561839983817845 
766	 0,562104115229584 
767	 0,562531710722646 
768	 0,562716755189122 
769	 0,562538386896105 
770	 0,562325094630834 
771	 0,562399826677493 
772	 0,563074152538192 
773	 0,563223516905825 
774	 0,562937156492484 
775	 0,563363150227304 
776	 0,563770357304151 
777	 0,563772413727763 
778	 0,563468036485088 
779	 0,563209442388494 
780	 0,563487449566433 
781	 0,56352195898844 
782	 0,563259856163819 
783	 0,563274539495302 
784	 0,563500746983916 
785	 0,563825314950441 
786	 0,563664992813302 
787	 0,563352614549924 
788	 0,563646218166341 
789	 0,563703200779037 
790	 0,563424072152394 
791	 0,563541937719033 
792	 0,563527912082549 
793	 0,563012337912186 
794	 0,562858564867751 
795	 0,563045202082012 
796	 0,563216844396739 
797	 0,563354598810537 
798	 0,563394556644527 
799	 0,563177797331824 
800	 0,563039010172641 
801	 0,563251511015956 
802	 0,563007943368988 
803	 0,562480872049674 
804	 0,562456176326316 
805	 0,562666452098175 
806	 0,562969396869125 
807	 0,563055067327645 
808	 0,563188171260891 
809	 0,563646492248147 
810	 0,563637062052327 
811	 0,563404016680769 
812	 0,564146780866883 
813	 0,564643324241982 
814	 0,564392116434695 
815	 0,563724069768384 
816	 0,563394014303446 
817	 0,564216371697518 
818	 0,565122412789159 
819	 0,565793495783875 
820	 0,566210696288801 
821	 0,566185231772987 
822	 0,565786639473806 
823	 0,56596779737378 
824	 0,566469299934839 
825	 0,566822175581984 
826	 0,56693380717041 
827	 0,566894416433946 
828	 0,567140713823818 
829	 0,567226800682987 
830	 0,567023320352947 
831	 0,567311235781826 
832	 0,567730113216974 
833	 0,567684470840753 
834	 0,567464548209587 
835	 0,567271359301958 
836	 0,567468045421095 
837	 0,567906953812157 
838	 0,568389946787033 
839	 0,568249075928813 
840	 0,56777541321355 
841	 0,567488034080864 
842	 0,567499093492206 
843	 0,567680193225706 
844	 0,567445649023316 
845	 0,56725089460086 
846	 0,567310743886751 
847	 0,567216886683336 
848	 0,567144859018728 
849	 0,56739380678813 
850	 0,567871455459643 
851	 0,56825404712263 
852	 0,567600663201506 
853	 0,567016432905264 
854	 0,56708010896107 
855	 0,567195885528833 
856	 0,567217915909182 
857	 0,567042735570866 
858	 0,566961682223223 
859	 0,566950295135532 
860	 0,566583400644016 
861	 0,566677786073115 
862	 0,567519757124579 
863	 0,568045299904959 
864	 0,568058028215571 
865	 0,567497193869712 
866	 0,567351498948766 
867	 0,567724576446391 
868	 0,568074850837586 
869	 0,568523891793876 
870	 0,568986956668823 
871	 0,568753868348001 
872	 0,568416240115921 
873	 0,568737627641655 
874	 0,569009332829158 
875	 0,569099691263602 
876	 0,569079501460333 
877	 0,569135916625448 
878	 0,569338442818023 
879	 0,56949732678391 
880	 0,569758481390718 
881	 0,570259849726549 
882	 0,570339086143047 
883	 0,570085738253117 
884	 0,570038075893262 
885	 0,570400615498248 
886	 0,57100296379793 
887	 0,570527974492993 
888	 0,569767808187574 
889	 0,569541014558877 
890	 0,569492833404199 
891	 0,569584293512503 
892	 0,56983131649907 
893	 0,570213907908323 
894	 0,570601311943236 
895	 0,570542014219336 
896	 0,570437291018053 
897	 0,570573692323324 
898	 0,570353825639746 
899	 0,570108247332007 
900	 0,570580541935544 
901	 0,570785485982827 
902	 0,570596904082386 
903	 0,570628059526199 
904	 0,570973135220027 
905	 0,571602056098717 
906	 0,571878221046908 
907	 0,571845454548816 
908	 0,571697888835933 
909	 0,571753924376895 
910	 0,571884027502498 
911	 0,571375239302019 
912	 0,570865705462898 
913	 0,570685052871357 
914	 0,570692112985733 
915	 0,571069519821154 
916	 0,571951778300235 
917	 0,572110286463104 
918	 0,571603346823317 
919	 0,57122116393493 
920	 0,571086664293786 
921	 0,571296687918418 
922	 0,571961028453636 
923	 0,572088695167734 
924	 0,57100910733892 
925	 0,570583212930968 
926	 0,570697185557268 
927	 0,570582233780988 
928	 0,57039206391644 
929	 0,57005112422205 
930	 0,569175239207514 
931	 0,568590108952505 
932	 0,568764110234779 
933	 0,569263440111115 
934	 0,569649237778095 
935	 0,569443812802732 
936	 0,568887963260919 
937	 0,568186282994605 
938	 0,567616133721925 
939	 0,567632292042195 
940	 0,568115089630837 
941	 0,567463543198884 
942	 0,566703230843481 
943	 0,566736203009734 
944	 0,566243466855293 
945	 0,565366318894062 
946	 0,564769082176414 
947	 0,564140507968289 
948	 0,563418687657731 
949	 0,56259182105388 
950	 0,562080784824084 
951	 0,561953991287615 
952	 0,561054789773379 
953	 0,559515589302835 
954	 0,557757623969801 
955	 0,558070770668929 
956	 0,559256575317569 
957	 0,556825788752841 
958	 0,555356520770335 
959	 0,555989289303041 
960	 0,556319330403432 
961	 0,555633324210541 
962	 0,553747098153675 
963	 0,553352824012493 
964	 0,553767949377389 
965	 0,553334824778349 
966	 0,554064768549615 
967	 0,555322540702703 
968	 0,553582438665048 
969	 0,552643411377405 
970	 0,553710262817122 
971	 0,553626639253047 
972	 0,553562196900549 
973	 0,55462183273077 
974	 0,555087664384822 
975	 0,554945165554326 
976	 0,554703724827195 
977	 0,554426459834644 
978	 0,554308348134119 
979	 0,554909234910816 
980	 0,554959135784419 
981	 0,554122071974745 
982	 0,554478781581222 
983	 0,555010459478965 
984	 0,554667397477437 
985	 0,555859980440193 
986	 0,55712508686018 
987	 0,554852949322724 
988	 0,553393466973299 
989	 0,55381005121359 
990	 0,554892401624442 
991	 0,555949904254529 
992	 0,556765170829233 
993	 0,558881768601497 
994	 0,561102226926266 
995	 0,561916668078587 
996	 0,560039381949829 
997	 0,558032259208975 
998	 0,561207040397009 
999	 0,562511542756263 
1000	 0,561305995494543 
1001	 0,562968070526475 
1002	 0,565083058265786 
1003	 0,566197936271116 
1004	 0,565577414940939 
1005	 0,564452839590795 
1006	 0,564123141223616 
1007	 0,564641598517182 
1008	 0,565029289331388 
1009	 0,563552398473699 
1010	 0,562284865978161 
1011	 0,562522993146374 
1012	 0,56649514368919 
1013	 0,570296225682308 
1014	 0,571476769156681 
1015	 0,568350624198184 
1016	 0,564980006162014 
1017	 0,565055615270072 
1018	 0,568299883146436 
1019	 0,5715957345235 
1020	 0,570578999471415 
1021	 0,570882338698715 
1022	 0,573210769202472 
1023	 0,576188312225733 
1024	 0,574808846916008 
1025	 0,569396984375759 
1026	 0,569267270772698 
1027	 0,572611199111767 
1028	 0,577033255555506 
1029	 0,576012924073333 
1030	 0,573122929577304 
1031	 0,573424859168926 
1032	 0,575782508273774 
1033	 0,578567011228543 
1034	 0,57914401646147 
1035	 0,575245695917991 
1036	 0,569761021660971 
1037	 0,575182029877587 
1038	 0,578153858649304 
1039	 0,574378931988153 
1040	 0,576633545186614 
1041	 0,579132348693725 
1042	 0,577166176285528 
1043	 0,576123474439388 
1044	 0,578953401796443 
1045	 0,587989622438101 
1046	 0,588937426125234 
1047	 0,585137132257 
1048	 0,592482431558586 
1049	 0,592350587964097 
1050	 0,582811775622882 
1051	 0,578547518529545 
1052	 0,580514155889769 
1053	 0,587430297289558 
1054	 0,588838355683021 
1055	 0,588193455156652 
1056	 0,588642144101187 
1057	 0,585183529722827 
1058	 0,580046121423768 
1059	 0,577038395702901 
1060	 0,578781044905274 
1061	 0,58368296115273 
1062	 0,587601240920344 
1063	 0,584728772734484 
1064	 0,577652553710385 
1065	 0,582913306119581 
1066	 0,584747668415629 
1067	 0,579279323715246 
1068	 0,587662889203684 
1069	 0,592692042819055 
1070	 0,582514320002725 
1071	 0,57426209240234 
1072	 0,571535436902757 
1073	 0,576137256434409 
1074	 0,59127865477123 
1075	 0,601909138869517 
