Wavelength	NEUF00731.asd
325	 0,144630390813597 
326	 5,71991888660242E-02 
327	 0,106296654139604 
328	 0,21908882858322 
329	 0,120084771556437 
330	 2,27550759021232E-02 
331	 9,89125771182554E-02 
332	 0,131432335114215 
333	 9,54548829513031E-02 
334	 7,04201738385681E-02 
335	 5,84404102935334E-02 
336	 5,72709505819822E-02 
337	 1,76223289574813E-02 
338	-0,020290216028842 
339	-2,05475967234324E-02 
340	 3,44976208537342E-03 
341	 4,00317770191372E-02 
342	 6,04575759417999E-02 
343	 6,39513656957612E-02 
344	 5,83115300276859E-02 
345	 0,069901923416139 
346	 7,21801524213843E-02 
347	 0,041619477202326 
348	 3,01444910774357E-02 
349	 4,28354834476232E-02 
350	 7,00550484894362E-02 
351	 0,07548924172645 
352	 5,37570835276499E-02 
353	 4,24222490528332E-02 
354	 2,93651791950374E-02 
355	-6,80996364822222E-04 
356	 1,32651878777529E-02 
357	 0,058612151052203 
358	 7,50394242795205E-02 
359	 6,32629012389669E-02 
360	 3,03577127986055E-02 
361	 4,35102904716378E-02 
362	 6,67129257778897E-02 
363	 0,042632931879278 
364	 2,77002795790213E-02 
365	 3,80981124427435E-02 
366	 7,82902137232846E-02 
367	 8,87277990687496E-02 
368	 3,69050403023104E-02 
369	 2,36597444862932E-02 
370	 0,038355281691785 
371	 3,45070534397144E-02 
372	 2,06496159453753E-02 
373	 6,72100840666325E-03 
374	 2,68796556813588E-02 
375	 0,038028562896674 
376	 1,12645230389532E-02 
377	 1,59809391775463E-02 
378	 4,21691639801357E-02 
379	 4,50797409228626E-02 
380	 5,43804821557166E-02 
381	 7,23786236862873E-02 
382	 0,074848440018006 
383	 6,58648945734106E-02 
384	 4,99703203611658E-02 
385	 3,59653487403523E-02 
386	 2,74626892197504E-02 
387	 2,25906156706239E-02 
388	 2,98778638130245E-02 
389	 4,57618610793156E-02 
390	 3,66066367387921E-02 
391	 2,16851001587835E-02 
392	 2,70651665015387E-02 
393	 2,32405183594465E-02 
394	 1,15119059608264E-02 
395	 1,26433522142492E-02 
396	 1,92525866163062E-02 
397	 2,73513006816003E-02 
398	 4,40484811449092E-02 
399	 5,52107949060934E-02 
400	 3,85166197601609E-02 
401	 2,82298376753743E-02 
402	 3,06042915232594E-02 
403	 0,032870207687056 
404	 0,033486081367831 
405	 0,031636701350517 
406	 3,01027025833509E-02 
407	 2,74855108183945E-02 
408	 1,91521073632727E-02 
409	 1,75123382648586E-02 
410	 2,41450976578533E-02 
411	 2,82952561482854E-02 
412	 3,12722354965719E-02 
413	 3,44982690356915E-02 
414	 2,85762137214653E-02 
415	 1,93631122441348E-02 
416	 2,53125849941656E-02 
417	 2,96293129783206E-02 
418	 0,026213168138376 
419	 2,27500584151827E-02 
420	 2,28276306976393E-02 
421	 2,97867703660389E-02 
422	 3,23892952894316E-02 
423	 2,94041317887076E-02 
424	 2,56074701818664E-02 
425	 2,43641381249131E-02 
426	 2,73788167648925E-02 
427	 3,02975925991814E-02 
428	 0,030547799753402 
429	 2,40657883533494E-02 
430	 2,48910280440089E-02 
431	 3,30259818251162E-02 
432	 2,90130425447952E-02 
433	 2,26497424817165E-02 
434	 2,31393720893798E-02 
435	 2,39293472636894E-02 
436	 2,40578195296637E-02 
437	 2,37855874218016E-02 
438	 2,51097411487067E-02 
439	 2,75998567691537E-02 
440	 2,36357570803112E-02 
441	 1,87061017390416E-02 
442	 2,04859209745938E-02 
443	 2,18358651806665E-02 
444	 2,17322838507051E-02 
445	 2,24856796234524E-02 
446	 2,47618241215524E-02 
447	 2,84796216018458E-02 
448	 2,94581235368813E-02 
449	 2,85597629817985E-02 
450	 2,83180529779942E-02 
451	 0,029615475045475 
452	 3,17390752416474E-02 
453	 2,98424885705614E-02 
454	 2,76911959914646E-02 
455	 0,028886680324218 
456	 2,93927668558961E-02 
457	 2,90135976624618E-02 
458	 2,94080794226408E-02 
459	 2,91901459005954E-02 
460	 2,81242163825297E-02 
461	 2,85370204041267E-02 
462	 2,90052170740908E-02 
463	 2,73415340396179E-02 
464	 2,74226918430734E-02 
465	 0,029911465405683 
466	 3,43210829444329E-02 
467	 0,034942478885018 
468	 0,028876728403881 
469	 2,59409702022907E-02 
470	 2,63571033331638E-02 
471	 2,73426556651732E-02 
472	 2,84132254688021E-02 
473	 2,91025592038225E-02 
474	 2,94266074093264E-02 
475	 2,85199844287234E-02 
476	 2,57637759545524E-02 
477	 2,62303982203552E-02 
478	 2,93099359522463E-02 
479	 3,07553923172494E-02 
480	 3,02081933287216E-02 
481	 2,79695489459346E-02 
482	 0,028473761432934 
483	 2,89284769380016E-02 
484	 2,43426813218516E-02 
485	 2,43146218100343E-02 
486	 2,93889291913509E-02 
487	 3,17648928892088E-02 
488	 3,15069468998488E-02 
489	 0,029087295121919 
490	 0,028364690812538 
491	 2,89833222542408E-02 
492	 2,82021260330083E-02 
493	 2,89571003116435E-02 
494	 3,12466075643079E-02 
495	 2,97984752019238E-02 
496	 2,71682687385393E-02 
497	 2,66386368264347E-02 
498	 2,79366289722787E-02 
499	 3,00779218659867E-02 
500	 3,03253906436736E-02 
501	 3,02182620743057E-02 
502	 3,05237841680204E-02 
503	 2,99077765240291E-02 
504	 0,029409238600621 
505	 3,11117839667405E-02 
506	 3,23873834009113E-02 
507	 3,25014296954907E-02 
508	 3,21656762929102E-02 
509	 3,17037501274068E-02 
510	 3,14452032118615E-02 
511	 3,25725620949514E-02 
512	 0,033875773453111 
513	 3,14288845242812E-02 
514	 3,01211270463966E-02 
515	 3,17214638573961E-02 
516	 3,27178824638562E-02 
517	 3,28424449403636E-02 
518	 3,22322223931556E-02 
519	 3,21882345969619E-02 
520	 3,28309651838415E-02 
521	 3,30578796279686E-02 
522	 3,35406458352531E-02 
523	 3,46187691001367E-02 
524	 3,43952559184072E-02 
525	 3,34928047955996E-02 
526	 3,40181387735912E-02 
527	 3,42359986108847E-02 
528	 0,033771287224919 
529	 3,38566286325934E-02 
530	 3,41889070470765E-02 
531	 3,43239035351711E-02 
532	 3,46675687709802E-02 
533	 3,50758600378302E-02 
534	 3,48172105572601E-02 
535	 3,47060524055303E-02 
536	 3,51654900063338E-02 
537	 3,55104822231034E-02 
538	 3,54098388487473E-02 
539	 0,034306109720658 
540	 3,43224875676528E-02 
541	 3,56236192220301E-02 
542	 3,55375233666557E-02 
543	 3,51945418011713E-02 
544	 3,57637670331847E-02 
545	 3,55129961674843E-02 
546	 3,48328848774942E-02 
547	 0,035791905898091 
548	 3,66549440869705E-02 
549	 3,65896184916132E-02 
550	 3,60834105521507E-02 
551	 3,57908715182872E-02 
552	 3,66364964969873E-02 
553	 3,72361203871688E-02 
554	 3,72547907132861E-02 
555	 3,72063372554351E-02 
556	 3,69124160892048E-02 
557	 3,63179741905112E-02 
558	 3,68721778137051E-02 
559	 0,037830448406627 
560	 3,65509821107008E-02 
561	 3,58634586992059E-02 
562	 3,66725314444067E-02 
563	 3,69680835882747E-02 
564	 3,68583741557309E-02 
565	 3,67272278055974E-02 
566	 0,037105722851811 
567	 3,77031615672244E-02 
568	 3,69121754959945E-02 
569	 3,62340519263456E-02 
570	 3,66882531163011E-02 
571	 3,71508563577553E-02 
572	 3,76660525999362E-02 
573	 3,88448251431922E-02 
574	 3,92930819293134E-02 
575	 3,87813723947477E-02 
576	 3,89254270433386E-02 
577	 3,96101183868366E-02 
578	 4,05478802323731E-02 
579	 4,10817957853653E-02 
580	 4,13033985909382E-02 
581	 4,21449589257386E-02 
582	 4,27050629139757E-02 
583	 4,25631167146568E-02 
584	 4,27724231983922E-02 
585	 0,042982985858045 
586	 4,22745365235735E-02 
587	 4,20478670891644E-02 
588	 4,26845549053735E-02 
589	 4,38557033856702E-02 
590	 0,044498086247251 
591	 4,37423872156752E-02 
592	 4,38250089905563E-02 
593	 4,45838496152872E-02 
594	 4,41813658402431E-02 
595	 4,42618228743443E-02 
596	 4,53339838299289E-02 
597	 4,54422607232586E-02 
598	 4,50194662254823E-02 
599	 4,50283993795757E-02 
600	 4,49086044415395E-02 
601	 4,46660746622872E-02 
602	 4,48685622135028E-02 
603	 4,49470444994763E-02 
604	 4,45063022912206E-02 
605	 4,45545001782438E-02 
606	 4,48255444745765E-02 
607	 4,41787725683709E-02 
608	 0,043905076141601 
609	 4,42523948246257E-02 
610	 4,36306589266988E-02 
611	 4,28108247656341E-02 
612	 0,042888513435156 
613	 0,043218591349392 
614	 4,34444817910573E-02 
615	 4,29263449326945E-02 
616	 0,042465849744948 
617	 4,25602069815893E-02 
618	 4,26802772255305E-02 
619	 4,26923308346477E-02 
620	 4,24623767128682E-02 
621	 4,25110478304681E-02 
622	 4,27979528681685E-02 
623	 4,21599330515352E-02 
624	 0,041635646333866 
625	 4,23108575010008E-02 
626	 4,28568707149664E-02 
627	 0,042962876038101 
628	 4,25596550151759E-02 
629	 4,24709120661452E-02 
630	 4,30383956861527E-02 
631	 4,32341972556867E-02 
632	 4,31837573920601E-02 
633	 4,32821371592607E-02 
634	 4,35164205702648E-02 
635	 4,39960578249648E-02 
636	 4,51846018226168E-02 
637	 4,60408937370133E-02 
638	 4,57630301749649E-02 
639	 4,60430829860841E-02 
640	 4,67026824560289E-02 
641	 4,64003074330728E-02 
642	 4,64377150571271E-02 
643	 4,71099289880977E-02 
644	 4,67795373803426E-02 
645	 4,63836038969822E-02 
646	 4,73065311523393E-02 
647	 4,80853264433348E-02 
648	 4,82867421253519E-02 
649	 4,78534122628885E-02 
650	 4,72776093825232E-02 
651	 4,69213483034896E-02 
652	 4,67612429028181E-02 
653	 4,65690824052638E-02 
654	 4,58623060387192E-02 
655	 4,52750423572568E-02 
656	 4,49610924744056E-02 
657	 4,45359761605978E-02 
658	 4,39795120906861E-02 
659	 4,33016733376597E-02 
660	 4,26855942930915E-02 
661	 4,22016796285335E-02 
662	 4,19560631563658E-02 
663	 4,14754682790145E-02 
664	 4,06255157252293E-02 
665	 4,02993543527886E-02 
666	 4,02966582254882E-02 
667	 4,01542454823345E-02 
668	 3,98242407721296E-02 
669	 3,93556571993593E-02 
670	 3,90205328360687E-02 
671	 3,88945056889724E-02 
672	 3,90043127256209E-02 
673	 3,90012456780522E-02 
674	 3,88547098567137E-02 
675	 3,86337939319016E-02 
676	 3,85381949394423E-02 
677	 3,86451514930755E-02 
678	 3,88383052434004E-02 
679	 3,90791907017616E-02 
680	 3,93342087376308E-02 
681	 3,94808076858396E-02 
682	 3,96421186005593E-02 
683	 4,03003990929287E-02 
684	 4,09946221400161E-02 
685	 4,14576933138992E-02 
686	 4,19008382000222E-02 
687	 4,24608706434793E-02 
688	 4,33230598139834E-02 
689	 4,42156460602121E-02 
690	 4,51487977569253E-02 
691	 4,64599210433996E-02 
692	 4,81937605069666E-02 
693	 0,050347678566281 
694	 5,25081997299845E-02 
695	 5,48493600364423E-02 
696	 0,057983970378874 
697	 6,15584934700254E-02 
698	 6,53644997413897E-02 
699	 6,91385832900241E-02 
700	 7,29766118195341E-02 
701	 7,70148977197553E-02 
702	 8,16762825502799E-02 
703	 8,67475584718453E-02 
704	 9,11644063618377E-02 
705	 0,095646273148853 
706	 0,100533653365705 
707	 0,104712792711956 
708	 0,108352462783193 
709	 0,112019614631917 
710	 0,115792013006561 
711	 0,119624295916846 
712	 0,123132753177123 
713	 0,126220640939406 
714	 0,128851932239687 
715	 0,131533870831245 
716	 0,134286602105546 
717	 0,136912074078298 
718	 0,139258520624762 
719	 0,141256076135552 
720	 0,143005123395352 
721	 0,14454605007307 
722	 0,145918174009625 
723	 0,147517206698328 
724	 0,149272203577644 
725	 0,150616043904731 
726	 0,151739650837754 
727	 0,152751517893617 
728	 0,153578222157158 
729	 0,154259047129231 
730	 0,154828309554268 
731	 0,155730401127905 
732	 0,156911631425974 
733	 0,157514800229659 
734	 0,157923197987441 
735	 0,158474841446415 
736	 0,158650361546525 
737	 0,158709917134285 
738	 0,159553475247755 
739	 0,160101551052541 
740	 0,160109615463211 
741	 0,160709811962027 
742	 0,161455993518415 
743	 0,161738048385295 
744	 0,161900749560469 
745	 0,162044375080231 
746	 0,162197732008836 
747	 0,162526453490067 
748	 0,163039270906305 
749	 0,163082207716754 
750	 0,163032565955182 
751	 0,163587926199328 
752	 0,164093717333321 
753	 0,164307251514588 
754	 0,164067958402733 
755	 0,163777934162923 
756	 0,163773530389933 
757	 0,164202143691067 
758	 0,164813626194906 
759	 0,165093580369055 
760	 0,165123557199322 
761	 0,165011501226567 
762	 0,165180900113773 
763	 0,165395692437075 
764	 0,165427060591128 
765	 0,165588879019761 
766	 0,165862982785504 
767	 0,166125186513532 
768	 0,165975442560265 
769	 0,165432435777244 
770	 0,165592542948977 
771	 0,166090846339367 
772	 0,166381707448885 
773	 0,166486798902256 
774	 0,166499367814579 
775	 0,166732014627404 
776	 0,167010525466169 
777	 0,167213553435014 
778	 0,167169371687278 
779	 0,167082619351696 
780	 0,167278477954625 
781	 0,167370589355374 
782	 0,167291843455097 
783	 0,167133362580591 
784	 0,167266279740015 
785	 0,167818350625777 
786	 0,16763849185053 
787	 0,167156759964395 
788	 0,167415630538533 
789	 0,167864986508692 
790	 0,168279230689442 
791	 0,168518203996366 
792	 0,168321159283559 
793	 0,1676086328433 
794	 0,167735394789503 
795	 0,168392467052915 
796	 0,168456059987711 
797	 0,168110192513533 
798	 0,167595659482635 
799	 0,167818485609516 
800	 0,168354727112449 
801	 0,168736101779056 
802	 0,168824738505913 
803	 0,168697859155699 
804	 0,168621219479776 
805	 0,168685608817102 
806	 0,168923994102898 
807	 0,16917736907854 
808	 0,169518276466538 
809	 0,169996163284129 
810	 0,169606593032973 
811	 0,168899491622984 
812	 0,170049415512705 
813	 0,170856516792128 
814	 0,170495633389831 
815	 0,170162187998736 
816	 0,169944517982112 
817	 0,169834424805234 
818	 0,170227390026997 
819	 0,170875781979143 
820	 0,170820212436875 
821	 0,170668898406794 
822	 0,170681503942187 
823	 0,170511817169713 
824	 0,170467081343455 
825	 0,170958896024578 
826	 0,171305144053131 
827	 0,171414615467347 
828	 0,171612481210389 
829	 0,171675716639942 
830	 0,171530104688032 
831	 0,171445899361887 
832	 0,171492255099338 
833	 0,171712671470443 
834	 0,171661559245246 
835	 0,171468475945524 
836	 0,171992888788695 
837	 0,172317529938802 
838	 0,172000104273099 
839	 0,171738379525327 
840	 0,171604113265386 
841	 0,171575387870262 
842	 0,171799846540759 
843	 0,172122603273898 
844	 0,171946657463509 
845	 0,17176660996428 
846	 0,171825272102154 
847	 0,1717287835047 
848	 0,171636230346137 
849	 0,171822916174361 
850	 0,171868735264888 
851	 0,171801189652521 
852	 0,172170367948847 
853	 0,172093458184195 
854	 0,171247888038631 
855	 0,170918933981014 
856	 0,171006526722498 
857	 0,17115859603231 
858	 0,171262109875632 
859	 0,171319854354906 
860	 0,171484128018801 
861	 0,171806251715512 
862	 0,172214351834201 
863	 0,172038169843841 
864	 0,171803662760513 
865	 0,172263085333473 
866	 0,172479053522532 
867	 0,172288533306695 
868	 0,171853739429341 
869	 0,171675286644815 
870	 0,171971227115412 
871	 0,172382286152752 
872	 0,172514635761283 
873	 0,171981962413898 
874	 0,171789858473109 
875	 0,1719695894503 
876	 0,171857335364504 
877	 0,171965712988526 
878	 0,172443680066095 
879	 0,17294949151874 
880	 0,173123237032215 
881	 0,172673219328972 
882	 0,172746392748557 
883	 0,173229501401091 
884	 0,173128998734297 
885	 0,173260680471881 
886	 0,173716508200962 
887	 0,173486952941248 
888	 0,173078844657583 
889	 0,172999216984141 
890	 0,17263695265687 
891	 0,17243197304587 
892	 0,173589797292161 
893	 0,174453679578902 
894	 0,174495126711064 
895	 0,174064056989308 
896	 0,17396372903405 
897	 0,174662074266658 
898	 0,17435472679547 
899	 0,173465984997949 
900	 0,173208076846602 
901	 0,173720061464264 
902	 0,174635492182188 
903	 0,174349105870295 
904	 0,174055027370759 
905	 0,174486804939733 
906	 0,175210520631743 
907	 0,17543735139659 
908	 0,174174978692752 
909	 0,173583906910291 
910	 0,173911523035052 
911	 0,174163550674269 
912	 0,173822405266497 
913	 0,172923288382877 
914	 0,173381280888053 
915	 0,174403099874001 
916	 0,174874193387024 
917	 0,174128551692031 
918	 0,173140837196126 
919	 0,174921040024497 
920	 0,175570821857689 
921	 0,174307374428485 
922	 0,174443092939859 
923	 0,174729343723147 
924	 0,174077820280878 
925	 0,17350469170862 
926	 0,173290249346063 
927	 0,173642164058367 
928	 0,173915055676079 
929	 0,173982838644288 
930	 0,174221982199869 
931	 0,174346415155609 
932	 0,174241635491614 
933	 0,174354715563648 
934	 0,174504665671945 
935	 0,174389880225492 
936	 0,173556978564605 
937	 0,172585017665547 
938	 0,173396325143016 
939	 0,173851312362941 
940	 0,173378232007916 
941	 0,173771059107825 
942	 0,173658374980809 
943	 0,172016730962145 
944	 0,172225723996774 
945	 0,172977480863008 
946	 0,170744311271668 
947	 0,170105866604512 
948	 0,171524039669641 
949	 0,171752473990357 
950	 0,171261212348484 
951	 0,170291254253949 
952	 0,168528829931452 
953	 0,167736916626234 
954	 0,169779631203431 
955	 0,16897274209642 
956	 0,166050791538418 
957	 0,166006687740845 
958	 0,166987147775637 
959	 0,167902281471094 
960	 0,166496118366546 
961	 0,165291014373526 
962	 0,165949019254038 
963	 0,164590603720295 
964	 0,163137413767618 
965	 0,165232544801954 
966	 0,16723916251816 
967	 0,167832663324691 
968	 0,165809534975008 
969	 0,16475529841822 
970	 0,165867211390566 
971	 0,166071405788479 
972	 0,165857921798785 
973	 0,165801937982872 
974	 0,165132337427728 
975	 0,164703077254503 
976	 0,16618706038936 
977	 0,167399798371749 
978	 0,167634360516727 
979	 0,16683668756104 
980	 0,16578108123201 
981	 0,164971729657226 
982	 0,164322252025447 
983	 0,164821588411448 
984	 0,167174936475889 
985	 0,168088018677416 
986	 0,16735499551703 
987	 0,165861630702757 
988	 0,165198672841956 
989	 0,165613325561907 
990	 0,165693073307841 
991	 0,166441823097467 
992	 0,168058629464627 
993	 0,168644954779841 
994	 0,169040570974817 
995	 0,170072676787134 
996	 0,168501892770999 
997	 0,166616588736507 
998	 0,169925754513149 
999	 0,170563153911941 
1000	 0,168189061753202 
1001	 0,170010677182844 
1002	 0,172386451636645 
1003	 0,173466300709016 
1004	 0,174119726503718 
1005	 0,174038988195048 
1006	 0,17302186900747 
1007	 0,172380450321227 
1008	 0,171959656091752 
1009	 0,170952916325974 
1010	 0,172484712020053 
1011	 0,175208159205461 
1012	 0,171158442778392 
1013	 0,172492259003222 
1014	 0,181157942126423 
1015	 0,177824991334358 
1016	 0,172374880700926 
1017	 0,173712927559918 
1018	 0,175413053431463 
1019	 0,176116286573896 
1020	 0,175183708772681 
1021	 0,175553219257964 
1022	 0,177621513761324 
1023	 0,180913724078178 
1024	 0,179543021274435 
1025	 0,174223192538457 
1026	 0,17777400994976 
1027	 0,181984592931827 
1028	 0,181458843427478 
1029	 0,180456318856278 
1030	 0,179443076335492 
1031	 0,178429541925893 
1032	 0,175731766218195 
1033	 0,174512232889439 
1034	 0,181486494502143 
1035	 0,184329027111022 
1036	 0,182226497700249 
1037	 0,186147287646529 
1038	 0,186934441541565 
1039	 0,181829169409827 
1040	 0,179520875041828 
1041	 0,179339303982862 
1042	 0,180089766714406 
1043	 0,179968267181414 
1044	 0,181718204420714 
1045	 0,188869071533584 
1046	 0,187736808833884 
1047	 0,181446320876066 
1048	 0,184252582474101 
1049	 0,186206489121955 
1050	 0,184681975853242 
1051	 0,181906606902375 
1052	 0,178192496979453 
1053	 0,175175371947202 
1054	 0,178880998648583 
1055	 0,184733481598393 
1056	 0,188046087433588 
1057	 0,188641020106412 
1058	 0,185365307425542 
1059	 0,177278289869526 
1060	 0,173398491380634 
1061	 0,176158524992224 
1062	 0,185117278722394 
1063	 0,192289386006663 
1064	 0,195819882177476 
1065	 0,202183321731989 
1066	 0,198616849428909 
1067	 0,184366981209923 
1068	 0,187576828895047 
1069	 0,193123394962387 
1070	 0,189254438249183 
1071	 0,186204753807339 
1072	 0,184898848580551 
1073	 0,185246551244239 
1074	 0,188641095328157 
1075	 0,194570895184444 
