Wavelength	NEUF00452.asd
325	 0,256358060938214 
326	 0,404479978409743 
327	 0,398859154784295 
328	 0,245663619423984 
329	 0,178317870791013 
330	 0,164334500812767 
331	 0,225766744093149 
332	 0,339528769449759 
333	 0,382197142463167 
334	 0,308237233288288 
335	 0,288803047038976 
336	 0,339770224074785 
337	 0,173164377437605 
338	 1,40494281829651E-02 
339	 5,97530218122879E-02 
340	 0,13401144748638 
341	 0,201873258581364 
342	 0,226385933626495 
343	 0,215927440597686 
344	 0,187222649903803 
345	 0,214481930891225 
346	 0,234361448176383 
347	 0,184902994402478 
348	 0,11340039940623 
349	 0,057785810846136 
350	 0,110055365543371 
351	 0,165244682214424 
352	 0,184041325073076 
353	 0,181420542070861 
354	 0,162957090509465 
355	 0,135439946031837 
356	 0,121157669718168 
357	 0,122713368574627 
358	 0,133336295404236 
359	 0,134380058436072 
360	 0,121511612130422 
361	 0,132043497825483 
362	 0,148207776283334 
363	 0,142437347593737 
364	 0,147019921834975 
365	 0,164038435166404 
366	 0,17777224275537 
367	 0,184598020648623 
368	 0,180370822360436 
369	 0,158173027488696 
370	 0,135823010263666 
371	 0,137434342368138 
372	 0,147302946401744 
373	 0,154394588615739 
374	 0,134899413912389 
375	 0,119099600422803 
376	 0,130586043912547 
377	 0,155579223594148 
378	 0,181284608052095 
379	 0,190661313091123 
380	 0,179701013922394 
381	 0,156643566931104 
382	 0,161614403558169 
383	 0,163934922366159 
384	 0,135806714366735 
385	 0,142138852099579 
386	 0,167724860672357 
387	 0,138102870166026 
388	 0,127532695213532 
389	 0,155729010225978 
390	 0,157036677410628 
391	 0,143131699088233 
392	 0,134061825056967 
393	 0,13916465010132 
394	 0,151275496462289 
395	 0,140591474078926 
396	 0,140367926932703 
397	 0,162470254369377 
398	 0,165399090501119 
399	 0,153919431040546 
400	 0,139930115105086 
401	 0,140852347040605 
402	 0,15492556731609 
403	 0,157978579426369 
404	 0,15749978038606 
405	 0,157893491434379 
406	 0,145028971145483 
407	 0,129307924641672 
408	 0,134703694387358 
409	 0,139699731776488 
410	 0,138766738287855 
411	 0,138131203127207 
412	 0,137392451823937 
413	 0,136122154145466 
414	 0,138713226732015 
415	 0,142961716644835 
416	 0,141240111001413 
417	 0,142005612727783 
418	 0,146365478696818 
419	 0,137479111174188 
420	 0,130540987510599 
421	 0,145547636520398 
422	 0,147813254810787 
423	 0,136478198969303 
424	 0,135148135239449 
425	 0,137765978038545 
426	 0,140194314170823 
427	 0,140517751192572 
428	 0,138650870060702 
429	 0,134337616910577 
430	 0,136954460242484 
431	 0,145222617431305 
432	 0,140821277592812 
433	 0,134560649995739 
434	 0,136398661262949 
435	 0,137890900835256 
436	 0,138178282207045 
437	 0,138903524320533 
438	 0,140103024173978 
439	 0,141163777829543 
440	 0,138322192729601 
441	 0,134838919543093 
442	 0,13518387368629 
443	 0,135500229472672 
444	 0,135191814100886 
445	 0,135266416875101 
446	 0,136256556219434 
447	 0,13862113131425 
448	 0,143959731565444 
449	 0,148035981699053 
450	 0,142350230151272 
451	 0,141179300351035 
452	 0,146346777329779 
453	 0,14397039128038 
454	 0,141019581075034 
455	 0,144288254319004 
456	 0,146409272447042 
457	 0,147013863459757 
458	 0,148883289921749 
459	 0,151042182919881 
460	 0,15230980096678 
461	 0,147872258427035 
462	 0,143015855678542 
463	 0,145257008681705 
464	 0,146503365700648 
465	 0,14593127447782 
466	 0,148824833991239 
467	 0,14884796513798 
468	 0,142870696358725 
469	 0,142516310794945 
470	 0,145855260693402 
471	 0,145459571986374 
472	 0,146032790308658 
473	 0,148193330407061 
474	 0,148672846937747 
475	 0,147275744040998 
476	 0,144200476726394 
477	 0,143982811277073 
478	 0,146378720900001 
479	 0,148345178856772 
480	 0,148207878073413 
481	 0,145632367602597 
482	 0,14511994956388 
483	 0,14544060786944 
484	 0,143932841380419 
485	 0,144772166289363 
486	 0,147588959751407 
487	 0,147070710786913 
488	 0,14530275243704 
489	 0,144061827184657 
490	 0,144044289157502 
491	 0,144584779616246 
492	 0,143771624781536 
493	 0,143206215984231 
494	 0,143402424767324 
495	 0,144157473621074 
496	 0,144346289996364 
497	 0,142795287088001 
498	 0,142879637185325 
499	 0,144614133116873 
500	 0,145876897613529 
501	 0,14548626703537 
502	 0,14331145328236 
503	 0,144164433023863 
504	 0,146799715625561 
505	 0,147999831916998 
506	 0,148881980740446 
507	 0,14980812552566 
508	 0,151477408732663 
509	 0,15238866467993 
510	 0,151348008152228 
511	 0,152071692226745 
512	 0,154032558097953 
513	 0,153902071690087 
514	 0,15396882477756 
515	 0,155005693810674 
516	 0,155418935655678 
517	 0,155393489457601 
518	 0,155377444761419 
519	 0,15583462927365 
520	 0,156759123965986 
521	 0,157729118010396 
522	 0,158161578688695 
523	 0,157736784248117 
524	 0,157783633140569 
525	 0,158125699338911 
526	 0,157892348891797 
527	 0,157333949665746 
528	 0,156706019780062 
529	 0,156974833373212 
530	 0,157158970839506 
531	 0,156092973797199 
532	 0,155395731162388 
533	 0,155384188572615 
534	 0,155797054634226 
535	 0,156150766711931 
536	 0,156172299880856 
537	 0,15646655901706 
538	 0,156487554332062 
539	 0,154911346628157 
540	 0,154862771375288 
541	 0,156625531413773 
542	 0,15662122027684 
543	 0,155972262074196 
544	 0,155946691433726 
545	 0,156108326565814 
546	 0,15650242946726 
547	 0,157578384385645 
548	 0,157981625258448 
549	 0,157205510466836 
550	 0,156758555947661 
551	 0,15692892201145 
552	 0,157882353892655 
553	 0,158546353844774 
554	 0,158603189448659 
555	 0,15840951227437 
556	 0,15784228140789 
557	 0,156855147206873 
558	 0,156274421270693 
559	 0,155817214951887 
560	 0,154236993122231 
561	 0,153116900709387 
562	 0,153064518546514 
563	 0,153510393237249 
564	 0,153556693450327 
565	 0,152122448941092 
566	 0,151912939627269 
567	 0,153119860951004 
568	 0,153783113264462 
569	 0,154200358917335 
570	 0,154630571973906 
571	 0,155522867388323 
572	 0,156866532939858 
573	 0,158509157495926 
574	 0,159918637283573 
575	 0,161079408420466 
576	 0,163072133528516 
577	 0,165402678685976 
578	 0,1674335494278 
579	 0,169480515064695 
580	 0,171466837881024 
581	 0,173075951202022 
582	 0,174214385227542 
583	 0,174964327997349 
584	 0,176340970427792 
585	 0,177899833362945 
586	 0,178589125082546 
587	 0,179515494666611 
588	 0,180902128750354 
589	 0,182226659899209 
590	 0,183215932538714 
591	 0,18366610314247 
592	 0,184187628820114 
593	 0,184799408589933 
594	 0,18506229306025 
595	 0,185856531435511 
596	 0,187313718127254 
597	 0,187469797645838 
598	 0,186894608965293 
599	 0,186764598261147 
600	 0,186355439572293 
601	 0,185621696299408 
602	 0,18498161057815 
603	 0,184618230622119 
604	 0,184592123591719 
605	 0,183978137925373 
606	 0,182860021050193 
607	 0,181775759687649 
608	 0,181039601164039 
609	 0,180671042125218 
610	 0,179845495927248 
611	 0,178718108256971 
612	 0,177573806638693 
613	 0,176742602215358 
614	 0,176236784449824 
615	 0,175760644673263 
616	 0,175231352675871 
617	 0,174605050611552 
618	 0,173991833224241 
619	 0,173610604020975 
620	 0,173901765586154 
621	 0,173885565685978 
622	 0,173323332942854 
623	 0,17275243741826 
624	 0,172691238466905 
625	 0,173578517570056 
626	 0,173956303749802 
627	 0,173808350930411 
628	 0,174107336628585 
629	 0,174369676667657 
630	 0,174510647182781 
631	 0,17566785995372 
632	 0,177142600796255 
633	 0,17759881415734 
634	 0,178307073621483 
635	 0,179543723416826 
636	 0,180859438165224 
637	 0,182121198459496 
638	 0,183225461351553 
639	 0,184249300802126 
640	 0,18521014808241 
641	 0,186044072695174 
642	 0,187261770256656 
643	 0,18885768252152 
644	 0,18954050756783 
645	 0,189588709601252 
646	 0,189522398023253 
647	 0,190265833782857 
648	 0,191339729567554 
649	 0,190221832267029 
650	 0,188800305926735 
651	 0,188269838884089 
652	 0,187192689122087 
653	 0,185512091032063 
654	 0,183446501399963 
655	 0,181766278776194 
656	 0,180517697218356 
657	 0,17847638907929 
658	 0,17579509545702 
659	 0,172757141737188 
660	 0,170564463551067 
661	 0,16910492163412 
662	 0,167311385394693 
663	 0,164936469747497 
664	 0,161998929542346 
665	 0,159702819898921 
666	 0,158037146783709 
667	 0,156725806554058 
668	 0,155695250693938 
669	 0,154742642338821 
670	 0,153232916150232 
671	 0,15210164145121 
672	 0,152045727828785 
673	 0,151903528107957 
674	 0,151524151529825 
675	 0,151052447537995 
676	 0,150779101569684 
677	 0,150774448853565 
678	 0,150627471020491 
679	 0,150614034720593 
680	 0,151089941128586 
681	 0,151498913019838 
682	 0,152015382827626 
683	 0,153528347568528 
684	 0,155562438439387 
685	 0,157818421347685 
686	 0,160134558365548 
687	 0,163132743491085 
688	 0,167944525640547 
689	 0,17302279513433 
690	 0,178149753530195 
691	 0,184520699565635 
692	 0,191922585286534 
693	 0,200096817599628 
694	 0,208906189485469 
695	 0,218778901614084 
696	 0,23095847710905 
697	 0,243327079960934 
698	 0,255085036924559 
699	 0,267587050238375 
700	 0,280491200830774 
701	 0,293144435622669 
702	 0,305831535515248 
703	 0,318542129477575 
704	 0,331197207539893 
705	 0,343165817869875 
706	 0,354028804623961 
707	 0,364048969818296 
708	 0,373662419772533 
709	 0,383601240127281 
710	 0,392411695838077 
711	 0,399973535881441 
712	 0,407943048510555 
713	 0,415611382983416 
714	 0,422259678952029 
715	 0,428062729065899 
716	 0,433319958269802 
717	 0,438699306536464 
718	 0,44385607325329 
719	 0,448602224693219 
720	 0,45269092478803 
721	 0,456202068554379 
722	 0,459287526826105 
723	 0,462253189333411 
724	 0,465224241364696 
725	 0,468268577854797 
726	 0,4710400043176 
727	 0,473301280797833 
728	 0,475102371326738 
729	 0,476778947306901 
730	 0,478910264028018 
731	 0,480684608163093 
732	 0,481941497057554 
733	 0,483142452693932 
734	 0,484331391631061 
735	 0,485516657106742 
736	 0,486397985809152 
737	 0,487234121990727 
738	 0,488868236628481 
739	 0,490139826806338 
740	 0,490680329953272 
741	 0,491183501827013 
742	 0,491814865215935 
743	 0,492688797259552 
744	 0,493478872362038 
745	 0,493983949391149 
746	 0,49373338932923 
747	 0,494060045106031 
748	 0,495513961555499 
749	 0,496461586926886 
750	 0,496775897770822 
751	 0,496572140090302 
752	 0,496746690424588 
753	 0,497458342596445 
754	 0,498199064410225 
755	 0,498682304886208 
756	 0,498717257442382 
757	 0,498559641693283 
758	 0,498568394904498 
759	 0,499366949846255 
760	 0,500099304188105 
761	 0,50047235707445 
762	 0,500630553806306 
763	 0,500862111723271 
764	 0,501396941255016 
765	 0,501517131848844 
766	 0,501415916638401 
767	 0,501983217204419 
768	 0,502443633659272 
769	 0,502482334361365 
770	 0,502132513504258 
771	 0,502041555998866 
772	 0,502931588521301 
773	 0,50380879026334 
774	 0,50431854469052 
775	 0,50422360255266 
776	 0,503979228157406 
777	 0,503893848479554 
778	 0,504131657320726 
779	 0,504567382124078 
780	 0,504997643995535 
781	 0,504884373227371 
782	 0,504387415559164 
783	 0,504591756160073 
784	 0,50508016282961 
785	 0,505522385594162 
786	 0,505622405007 
787	 0,505626291026746 
788	 0,506094938104559 
789	 0,506070690311918 
790	 0,505587556471869 
791	 0,506040915054821 
792	 0,506532788954398 
793	 0,506371558643536 
794	 0,506476928813417 
795	 0,506899709877334 
796	 0,507470656749722 
797	 0,50769675084491 
798	 0,507532211616881 
799	 0,507753446558606 
800	 0,507938005184037 
801	 0,507691798287991 
802	 0,507647324342188 
803	 0,507887270236541 
804	 0,508323375606041 
805	 0,508699011806933 
806	 0,508903301977435 
807	 0,509051077816001 
808	 0,509158879921741 
809	 0,509233331687836 
810	 0,50908153362818 
811	 0,509001684551663 
812	 0,509981990819198 
813	 0,510641245176718 
814	 0,510421691879591 
815	 0,509898587943647 
816	 0,509673638872559 
817	 0,510361308357902 
818	 0,51103954925626 
819	 0,511456118583945 
820	 0,511647946562785 
821	 0,511479851671667 
822	 0,511069940791868 
823	 0,511487967835717 
824	 0,512162083230554 
825	 0,512228209014605 
826	 0,512401584208245 
827	 0,51272515392287 
828	 0,512823958505994 
829	 0,512847162101171 
830	 0,512870831800515 
831	 0,512814828337099 
832	 0,512931721349819 
833	 0,513556445136507 
834	 0,513731294806432 
835	 0,513455298621996 
836	 0,513527213318684 
837	 0,513904790671679 
838	 0,514443546834929 
839	 0,514290913184341 
840	 0,513758415674349 
841	 0,513420676908145 
842	 0,513820221704782 
843	 0,514629295179422 
844	 0,514263249394331 
845	 0,513836509329294 
846	 0,513957983039585 
847	 0,514194820380339 
848	 0,514552527696765 
849	 0,515096144006622 
850	 0,515343203196762 
851	 0,515247465389045 
852	 0,515133231789027 
853	 0,514954689010841 
854	 0,514721842922963 
855	 0,514527491389962 
856	 0,514550797626094 
857	 0,515003278373378 
858	 0,515209049810477 
859	 0,515098686282987 
860	 0,515039131652005 
861	 0,515075839599469 
862	 0,515258893033558 
863	 0,515609887625201 
864	 0,516107316538607 
865	 0,516713149318666 
866	 0,516749726417438 
867	 0,51636683743833 
868	 0,516507457568183 
869	 0,516796099932872 
870	 0,517102439994516 
871	 0,517750013576442 
872	 0,518261352117779 
873	 0,518064499072596 
874	 0,517819482571719 
875	 0,517749426295633 
876	 0,518030787355941 
877	 0,518225462956847 
878	 0,518156098001088 
879	 0,518029458136854 
880	 0,517985761442538 
881	 0,518152789568415 
882	 0,518428171956904 
883	 0,518748663782341 
884	 0,519026232868365 
885	 0,519328200522022 
886	 0,519581732829192 
887	 0,519349605852667 
888	 0,51906312865725 
889	 0,519097813468579 
890	 0,518470831629054 
891	 0,517846434834875 
892	 0,519072166921585 
893	 0,519947262495881 
894	 0,519851372321495 
895	 0,51954783630969 
896	 0,51949521367116 
897	 0,519993502567306 
898	 0,520484152716668 
899	 0,520585926180356 
900	 0,519774215875093 
901	 0,519697341260501 
902	 0,520510841915182 
903	 0,520756209749196 
904	 0,521150525327407 
905	 0,521984419633655 
906	 0,52197987128579 
907	 0,521651531450838 
908	 0,521940675032252 
909	 0,521580132579737 
910	 0,520671136434731 
911	 0,520449520731479 
912	 0,520406794406725 
913	 0,520411554085779 
914	 0,521050524699675 
915	 0,521901178639581 
916	 0,522415453620796 
917	 0,522111828861411 
918	 0,521405525513501 
919	 0,52160636733901 
920	 0,521775341159233 
921	 0,521660033166571 
922	 0,521646712002221 
923	 0,5216330276562 
924	 0,521501749953352 
925	 0,521059742654249 
926	 0,520554955389703 
927	 0,520459504726117 
928	 0,520688654581361 
929	 0,520962031069338 
930	 0,520399545928695 
931	 0,519695236825404 
932	 0,519344113617356 
933	 0,519588989015941 
934	 0,520025178582397 
935	 0,52009723512576 
936	 0,52008976180069 
937	 0,519995562885761 
938	 0,519687664110577 
939	 0,519136917305549 
940	 0,518351236026271 
941	 0,517341755074278 
942	 0,516633143289117 
943	 0,516673338702251 
944	 0,517383775184198 
945	 0,517639871909496 
946	 0,515422766583528 
947	 0,514162915283609 
948	 0,514505529290377 
949	 0,515002938832261 
950	 0,514255732206937 
951	 0,51180516448698 
952	 0,510445460765463 
953	 0,509907720728086 
954	 0,509457823586379 
955	 0,508713383110856 
956	 0,507825725591235 
957	 0,507522759332855 
958	 0,507011697785656 
959	 0,506200918736508 
960	 0,505945915740128 
961	 0,505975105033568 
962	 0,505965673945958 
963	 0,505262838138819 
964	 0,50440619762015 
965	 0,50436247666962 
966	 0,503844084503959 
967	 0,503125122038541 
968	 0,504115300073618 
969	 0,504688378939558 
970	 0,504193978855472 
971	 0,504554921406396 
972	 0,50491418945733 
973	 0,504489127755305 
974	 0,504661289692559 
975	 0,505226546993334 
976	 0,505376285828911 
977	 0,506396074601917 
978	 0,507842404806842 
979	 0,507248919716763 
980	 0,505241708383506 
981	 0,502861084192069 
982	 0,503930689678096 
983	 0,505513267223724 
984	 0,504538919991109 
985	 0,504828850934275 
986	 0,505966576869315 
987	 0,505840387836358 
988	 0,506193022428276 
989	 0,507102390676214 
990	 0,507052978051636 
991	 0,507006544393643 
992	 0,507630645861754 
993	 0,50972339137507 
994	 0,511292807114528 
995	 0,510371582239893 
996	 0,509613942761971 
997	 0,510213931820376 
998	 0,513503551559345 
999	 0,514628638158387 
1000	 0,513378816424142 
1001	 0,514833086774639 
1002	 0,514969697903033 
1003	 0,512618243170952 
1004	 0,513022462811063 
1005	 0,515351851481953 
1006	 0,518061585236095 
1007	 0,51792391643472 
1008	 0,515495585142906 
1009	 0,512908149359498 
1010	 0,512882052062448 
1011	 0,51527654311102 
1012	 0,516880453660378 
1013	 0,517219319888529 
1014	 0,5167142541173 
1015	 0,519356424179487 
1016	 0,521738760702574 
1017	 0,521211876996455 
1018	 0,523050083027532 
1019	 0,524586983201951 
1020	 0,520999702671175 
1021	 0,51893013646921 
1022	 0,520261228361877 
1023	 0,526238596047597 
1024	 0,526101177003257 
1025	 0,51892319803131 
1026	 0,518554981563414 
1027	 0,522224332618127 
1028	 0,526818364649382 
1029	 0,525368962838935 
1030	 0,52353637281539 
1031	 0,528190783659562 
1032	 0,527594845358887 
1033	 0,524010922684994 
1034	 0,526530947682729 
1035	 0,527107074661318 
1036	 0,525865604768692 
1037	 0,531611144732731 
1038	 0,533885343765652 
1039	 0,529379250404074 
1040	 0,528343531192109 
1041	 0,528212592397251 
1042	 0,527065443410416 
1043	 0,531157521134991 
1044	 0,535562414984446 
1045	 0,532773896432433 
1046	 0,53173794474374 
1047	 0,534577563421747 
1048	 0,542067775442705 
1049	 0,541305759285419 
1050	 0,532191495416463 
1051	 0,531267761733697 
1052	 0,532850297091164 
1053	 0,534537099805143 
1054	 0,539975633534703 
1055	 0,54159620660087 
1056	 0,534030340994292 
1057	 0,531680205324747 
1058	 0,532982854732421 
1059	 0,532616566888967 
1060	 0,531571645945459 
1061	 0,530503336777903 
1062	 0,530541588945952 
1063	 0,529434819607201 
1064	 0,528399879659719 
1065	 0,53498980033245 
1066	 0,534977279208447 
1067	 0,52592346189423 
1068	 0,532410833086246 
1069	 0,539709792366955 
1070	 0,536989834250602 
1071	 0,537400167338556 
1072	 0,538544815155401 
1073	 0,536404409032511 
1074	 0,541382920205963 
1075	 0,547063355311422 
