Wavelength	NEUF00216.asd
325	 0,648770144189992 
326	 0,369365823672068 
327	 0,251247262212167 
328	 0,403471605617598 
329	 0,390600728223743 
330	 0,352472654407734 
331	 0,380065393321596 
332	 0,322210760952695 
333	 0,26109019166923 
334	 0,312089314967771 
335	 0,362459930646997 
336	 0,376725593240266 
337	 0,351854176439109 
338	 0,321732313684821 
339	 0,317833598627737 
340	 0,346610578580788 
341	 0,36507897183836 
342	 0,264795563391223 
343	 0,259041133820297 
344	 0,357638470543026 
345	 0,349815528196247 
346	 0,306157024745666 
347	 0,314990489647302 
348	 0,311831608624612 
349	 0,289364376353046 
350	 0,250426041224938 
351	 0,272853776007228 
352	 0,35126227167277 
353	 0,331128689787252 
354	 0,271952095491243 
355	 0,261032620685025 
356	 0,266270439062471 
357	 0,282730806971906 
358	 0,318511042114017 
359	 0,334157105480163 
360	 0,316821921490033 
361	 0,303911388886465 
362	 0,29099634521337 
363	 0,260179327617486 
364	 0,277708915789628 
365	 0,329706515220024 
366	 0,324524077347474 
367	 0,313165395221405 
368	 0,322485139720786 
369	 0,295700290680436 
370	 0,267188384413008 
371	 0,300839157184281 
372	 0,324437429042152 
373	 0,321570095147161 
374	 0,321309293606137 
375	 0,316628668123409 
376	 0,30390789075415 
377	 0,308510148621003 
378	 0,321713417660058 
379	 0,316076145780072 
380	 0,316021561653635 
381	 0,326301943080904 
382	 0,334887236841793 
383	 0,331328515095889 
384	 0,308214686092113 
385	 0,319428822532574 
386	 0,34937359950356 
387	 0,327972575181521 
388	 0,327308888056545 
389	 0,363213673964752 
390	 0,3597162297757 
391	 0,337251428139364 
392	 0,327274482362222 
393	 0,324688056636354 
394	 0,327408360286764 
395	 0,332078220251762 
396	 0,333200747051278 
397	 0,328520731898483 
398	 0,324673210086804 
399	 0,323597639180883 
400	 0,327475426977713 
401	 0,32498620027681 
402	 0,318968529310157 
403	 0,331116207256422 
404	 0,341352622129299 
405	 0,336380612739984 
406	 0,331879696381867 
407	 0,329536455568454 
408	 0,327396192227686 
409	 0,329876056085251 
410	 0,334545781195898 
411	 0,324167254192534 
412	 0,315058797590073 
413	 0,322262121087691 
414	 0,327454304346612 
415	 0,328740456139376 
416	 0,330792002407061 
417	 0,331399177139909 
418	 0,330021113854263 
419	 0,328726684405586 
420	 0,327496705153377 
421	 0,326015253226016 
422	 0,323393977044601 
423	 0,320573910455339 
424	 0,320695522479313 
425	 0,322745136541564 
426	 0,3254714520976 
427	 0,324305220070782 
428	 0,322049879141533 
429	 0,324758910332157 
430	 0,326889303375574 
431	 0,326621274458052 
432	 0,323613041750521 
433	 0,321435539991988 
434	 0,323078530335365 
435	 0,324777639981626 
436	 0,324832095133748 
437	 0,319963829505563 
438	 0,319884661008526 
439	 0,326481427738363 
440	 0,325376389555342 
441	 0,32176169844118 
442	 0,323783602497291 
443	 0,323241642039256 
444	 0,320635882181944 
445	 0,324148237460301 
446	 0,327486914104194 
447	 0,327086732728232 
448	 0,327741065949881 
449	 0,329367955769695 
450	 0,330849816538733 
451	 0,329950529671788 
452	 0,327170179293586 
453	 0,327707814240167 
454	 0,330224254377288 
455	 0,333004042072036 
456	 0,333605902690574 
457	 0,332921027288071 
458	 0,33478359216593 
459	 0,336421958339502 
460	 0,336413926782978 
461	 0,333328643839522 
462	 0,330859400618184 
463	 0,333984792040991 
464	 0,336442706685792 
465	 0,337006070857733 
466	 0,337983902035523 
467	 0,336679907720836 
468	 0,332123477718284 
469	 0,332459073909031 
470	 0,335312540199779 
471	 0,333257136084054 
472	 0,333792565889143 
473	 0,337606981900333 
474	 0,336614319432859 
475	 0,334286631856681 
476	 0,334418952114386 
477	 0,334990208258861 
478	 0,335845281585084 
479	 0,337788841504182 
480	 0,33899989752751 
481	 0,338667113545491 
482	 0,338174968082098 
483	 0,337200393611244 
484	 0,334963256243292 
485	 0,333634946080667 
486	 0,333920153642823 
487	 0,336013959947884 
488	 0,337222273864141 
489	 0,335636720703477 
490	 0,333754370612758 
491	 0,332479584153165 
492	 0,332614680901368 
493	 0,333906006465544 
494	 0,335634671836636 
495	 0,334835480672081 
496	 0,333384997826643 
497	 0,33362360551293 
498	 0,334904196979972 
499	 0,336496491337733 
500	 0,336797364516699 
501	 0,336404490224745 
502	 0,335940752547837 
503	 0,337362881270629 
504	 0,339646625210708 
505	 0,340706895055336 
506	 0,340707800349144 
507	 0,340193062506796 
508	 0,34131853310228 
509	 0,342985073993001 
510	 0,344088796018423 
511	 0,344681000254439 
512	 0,345221754362318 
513	 0,347160972539499 
514	 0,347789368879182 
515	 0,346551478365949 
516	 0,348309084050601 
517	 0,350079684991361 
518	 0,347061093684518 
519	 0,346130677229581 
520	 0,348118881790484 
521	 0,349072390922917 
522	 0,3497547269448 
523	 0,350634243604471 
524	 0,350362236865888 
525	 0,349469159209881 
526	 0,349602844276186 
527	 0,349381040469434 
528	 0,348651242274073 
529	 0,349185359400704 
530	 0,349703196442029 
531	 0,348646282251916 
532	 0,347881607493045 
533	 0,347929139720624 
534	 0,349053138759573 
535	 0,349808266480939 
536	 0,349328567076689 
537	 0,348216908834367 
538	 0,347311743672232 
539	 0,347978017700628 
540	 0,348451540226641 
541	 0,348189626168393 
542	 0,347431482172553 
543	 0,347240867050144 
544	 0,348538346061349 
545	 0,34898905379825 
546	 0,348701466857362 
547	 0,349396893129114 
548	 0,350272322108868 
549	 0,350829290479952 
550	 0,350333161585386 
551	 0,349797892602357 
552	 0,350940881593473 
553	 0,351352760720907 
554	 0,350746896949498 
555	 0,35110799883037 
556	 0,350919467696657 
557	 0,349056175075161 
558	 0,34821448024132 
559	 0,34839422432565 
560	 0,348378914835599 
561	 0,347984007655448 
562	 0,347186820540249 
563	 0,346821879858563 
564	 0,346383495338189 
565	 0,34509818451584 
566	 0,344975096184061 
567	 0,346011199842911 
568	 0,346249621116333 
569	 0,346474113186362 
570	 0,347259349486053 
571	 0,348566823071276 
572	 0,350209788979469 
573	 0,35182639537385 
574	 0,353444307555408 
575	 0,3549824709035 
576	 0,356081700296754 
577	 0,357295766743545 
578	 0,359244684434799 
579	 0,36069621364792 
580	 0,361680253554731 
581	 0,363176793929338 
582	 0,364919289756359 
583	 0,366691609053104 
584	 0,368010565604364 
585	 0,368950534595361 
586	 0,369716126005608 
587	 0,371060724036199 
588	 0,372886647518775 
589	 0,373646882947949 
590	 0,374092112587024 
591	 0,374953706596851 
592	 0,375420822368199 
593	 0,375531013488334 
594	 0,375693281996756 
595	 0,376271933751917 
596	 0,377306698705023 
597	 0,37777791857295 
598	 0,377766632605686 
599	 0,377582288228105 
600	 0,377167423868629 
601	 0,376578122985711 
602	 0,375931860449684 
603	 0,375431043621699 
604	 0,375208942953937 
605	 0,374941213277859 
606	 0,374484386932568 
607	 0,373689872337891 
608	 0,372618757466145 
609	 0,371442597632751 
610	 0,37084889771546 
611	 0,370527456068614 
612	 0,37001957559411 
613	 0,369246751983072 
614	 0,368356314270725 
615	 0,367888471964801 
616	 0,367707800078104 
617	 0,367622158495268 
618	 0,366676730074478 
619	 0,365638409075083 
620	 0,36634976468263 
621	 0,366620029141554 
622	 0,365954174410028 
623	 0,365719617351931 
624	 0,365807377911947 
625	 0,366022743757615 
626	 0,366406180672642 
627	 0,366822718066699 
628	 0,366890691662723 
629	 0,367065580216662 
630	 0,367580397876552 
631	 0,368227174847796 
632	 0,368939903396582 
633	 0,369668875311301 
634	 0,370233202270499 
635	 0,370692547415989 
636	 0,371441396655705 
637	 0,372582148705111 
638	 0,374137420562131 
639	 0,375443951617977 
640	 0,376337846119313 
641	 0,376667632644901 
642	 0,377548063656448 
643	 0,37922868432736 
644	 0,380189154593444 
645	 0,38039191359789 
646	 0,379992628704663 
647	 0,38014272877704 
648	 0,380675679445776 
649	 0,379868798056836 
650	 0,378778110357403 
651	 0,378072452059287 
652	 0,376899476302174 
653	 0,375559127445869 
654	 0,374930019642065 
655	 0,373875291764158 
656	 0,372113543668384 
657	 0,370349787512259 
658	 0,368466431047197 
659	 0,366313169367729 
660	 0,364385401808902 
661	 0,362752758994268 
662	 0,361348417545689 
663	 0,359542318619198 
664	 0,357166184410049 
665	 0,355496107245071 
666	 0,354332440788233 
667	 0,353118999400943 
668	 0,35198821270602 
669	 0,350993870898434 
670	 0,350314552274796 
671	 0,349526639330893 
672	 0,348353108503748 
673	 0,34767968495028 
674	 0,347514401836762 
675	 0,347497709089683 
676	 0,34760415004066 
677	 0,347705958414225 
678	 0,347355576408915 
679	 0,347005619924283 
680	 0,347226801144214 
681	 0,347872554524377 
682	 0,348891025815779 
683	 0,350113149348893 
684	 0,351921443018369 
685	 0,354414620473147 
686	 0,356384738464137 
687	 0,358481079186976 
688	 0,362079178298706 
689	 0,366446039392586 
690	 0,371395320156841 
691	 0,377025700708094 
692	 0,383267081320588 
693	 0,390037876482736 
694	 0,397276157170489 
695	 0,405261687971101 
696	 0,41480796092243 
697	 0,424291085636502 
698	 0,433195847403391 
699	 0,443165524144592 
700	 0,453342245861466 
701	 0,462401970252322 
702	 0,471777154129792 
703	 0,481477035524518 
704	 0,490381191127883 
705	 0,498819307556564 
706	 0,506973921076591 
707	 0,514662558364399 
708	 0,521861842399117 
709	 0,528530612057285 
710	 0,534823536499594 
711	 0,540823798890619 
712	 0,546599368953489 
713	 0,551985176193441 
714	 0,556824538944779 
715	 0,561056531172993 
716	 0,564881748885982 
717	 0,568783774974478 
718	 0,572696873508664 
719	 0,576513357009578 
720	 0,579750666543367 
721	 0,582379961033135 
722	 0,584450452844293 
723	 0,586364188068976 
724	 0,588252031657436 
725	 0,590035769428871 
726	 0,591893338705084 
727	 0,593826286345931 
728	 0,594929258562733 
729	 0,595708574901814 
730	 0,597284572850622 
731	 0,598711060590733 
732	 0,599686365999045 
733	 0,60028683183935 
734	 0,600611588443535 
735	 0,600796377282131 
736	 0,601375113975767 
737	 0,602278764343252 
738	 0,603154222809183 
739	 0,60356387141986 
740	 0,603480266832567 
741	 0,603926870108903 
742	 0,604528144843912 
743	 0,604755147781333 
744	 0,604907768543874 
745	 0,605032171032333 
746	 0,605045519517219 
747	 0,605129106933763 
748	 0,605406239122386 
749	 0,605978005483152 
750	 0,606564816409569 
751	 0,606743677871604 
752	 0,606653865679617 
753	 0,606421458530555 
754	 0,606354061667444 
755	 0,606269735281728 
756	 0,606083013922942 
757	 0,606329156112151 
758	 0,606760609124789 
759	 0,606734503436826 
760	 0,606573485869851 
761	 0,606402376953154 
762	 0,606312118805807 
763	 0,606240936112984 
764	 0,60613371498671 
765	 0,606168164677537 
766	 0,60628106493058 
767	 0,606252672790242 
768	 0,606083615259478 
769	 0,605824622811783 
770	 0,605772045564734 
771	 0,605834179737324 
772	 0,605867912660301 
773	 0,605778090760268 
774	 0,605631988033986 
775	 0,605742496648893 
776	 0,605742134051269 
777	 0,605466172267074 
778	 0,605193615297262 
779	 0,605038347460414 
780	 0,605112873226126 
781	 0,605107259242999 
782	 0,604926634193277 
783	 0,604560639996712 
784	 0,604300072989879 
785	 0,604321423350007 
786	 0,604348442491428 
787	 0,604296084886333 
788	 0,604104333361466 
789	 0,60372437977663 
790	 0,603329298567635 
791	 0,603687944466151 
792	 0,60390930194786 
793	 0,603327012179941 
794	 0,602990997636313 
795	 0,602861677702082 
796	 0,602468023834224 
797	 0,602046947404763 
798	 0,601717025101632 
799	 0,601671716988067 
800	 0,601619538855955 
801	 0,601277844405431 
802	 0,600735236113854 
803	 0,60018575482562 
804	 0,600054540854315 
805	 0,600004854693639 
806	 0,599880889607664 
807	 0,599548935932409 
808	 0,599337181865223 
809	 0,599578461152002 
810	 0,599571900734585 
811	 0,599460546150047 
812	 0,600145930981135 
813	 0,60045905279875 
814	 0,600042542643591 
815	 0,599976409018366 
816	 0,600244474694475 
817	 0,600704491717693 
818	 0,601311140225504 
819	 0,601914543295652 
820	 0,602213055818557 
821	 0,602307274076007 
822	 0,602281430732036 
823	 0,602278394688949 
824	 0,602512651977337 
825	 0,60321083075602 
826	 0,603234352777065 
827	 0,602739828500664 
828	 0,603215344416329 
829	 0,603374641648662 
830	 0,602757295671582 
831	 0,60306871660071 
832	 0,603549170124816 
833	 0,60293946484372 
834	 0,602824506164449 
835	 0,603253882470421 
836	 0,6030339855452 
837	 0,602913379647563 
838	 0,603185390067903 
839	 0,602973334937061 
840	 0,602457919493626 
841	 0,602024176675659 
842	 0,602238344559816 
843	 0,602907928495601 
844	 0,602915446462528 
845	 0,602693384728684 
846	 0,602475247564638 
847	 0,602116761291507 
848	 0,601950690524762 
849	 0,602437864657415 
850	 0,602380422601744 
851	 0,601754973856443 
852	 0,601483306009048 
853	 0,601674720842753 
854	 0,602242333109218 
855	 0,60205377848728 
856	 0,601633973144135 
857	 0,601869960144592 
858	 0,601681644789068 
859	 0,601038590301479 
860	 0,600562552449031 
861	 0,600819611361354 
862	 0,601816201329821 
863	 0,601445520342236 
864	 0,600578063498508 
865	 0,600629458855171 
866	 0,600750029003934 
867	 0,600861121692099 
868	 0,601315332916364 
869	 0,601694552441925 
870	 0,601756836311641 
871	 0,601460478110227 
872	 0,601045802101294 
873	 0,600801388366902 
874	 0,600484973510208 
875	 0,600257760809269 
876	 0,600703928590649 
877	 0,601199326216829 
878	 0,60140099769301 
879	 0,601106778141741 
880	 0,600861301500996 
881	 0,601221518386106 
882	 0,601157152518723 
883	 0,600793907092276 
884	 0,600994724491278 
885	 0,601369502244064 
886	 0,60167029922757 
887	 0,601423127955421 
888	 0,600931228178483 
889	 0,60053531211196 
890	 0,600373136138106 
891	 0,600437990500539 
892	 0,600621537482276 
893	 0,600923875761492 
894	 0,601233659699802 
895	 0,601168616693724 
896	 0,601042975891628 
897	 0,601102171445651 
898	 0,601118411540489 
899	 0,601041991669436 
900	 0,600846879972665 
901	 0,600602257661324 
902	 0,600429795848156 
903	 0,600637906777525 
904	 0,600943661420972 
905	 0,601160110173406 
906	 0,601454158558246 
907	 0,601469455340504 
908	 0,600707291969069 
909	 0,600730901311465 
910	 0,60132104695916 
911	 0,600522565390477 
912	 0,599483416846621 
913	 0,598896687172515 
914	 0,599378969257573 
915	 0,599902998184957 
916	 0,599329298184183 
917	 0,599056052236249 
918	 0,599221244578641 
919	 0,599455134325934 
920	 0,599620292970167 
921	 0,599626304148165 
922	 0,599487349310881 
923	 0,599171803612814 
924	 0,598659870797307 
925	 0,597900088103532 
926	 0,597254323479037 
927	 0,597356697516722 
928	 0,597384565535421 
929	 0,597075143580148 
930	 0,596372503703289 
931	 0,596095937067039 
932	 0,596568196946681 
933	 0,596357525439196 
934	 0,596094446983006 
935	 0,59673626917193 
936	 0,596282268521975 
937	 0,594961800546977 
938	 0,594660114346872 
939	 0,594480396646489 
940	 0,59420205128015 
941	 0,594389118296223 
942	 0,594411911717221 
943	 0,593723094936838 
944	 0,592858370181108 
945	 0,592076092028539 
946	 0,591688168594081 
947	 0,590894187435055 
948	 0,589884631129724 
949	 0,590212655280096 
950	 0,590631851768107 
951	 0,590235996443154 
952	 0,588344399925669 
953	 0,586211868969319 
954	 0,585419639504318 
955	 0,58518407369948 
956	 0,585208734306455 
957	 0,585179889126619 
958	 0,585076146394634 
959	 0,584871114227256 
960	 0,584593183250829 
961	 0,584501941427355 
962	 0,584551178553196 
963	 0,582532579131041 
964	 0,580281799863534 
965	 0,581000371192292 
966	 0,581442263270133 
967	 0,581108772907876 
968	 0,581117487717346 
969	 0,581016354234304 
970	 0,58075689872148 
971	 0,580950928713599 
972	 0,581549593081176 
973	 0,582312200996284 
974	 0,581502552459853 
975	 0,580464986896622 
976	 0,582116769994603 
977	 0,582649489576554 
978	 0,581515540449958 
979	 0,580600206832441 
980	 0,580140915878141 
981	 0,580288308293276 
982	 0,580809304483298 
983	 0,581203018750322 
984	 0,581110429894498 
985	 0,582340310258953 
986	 0,58367083020744 
987	 0,582169918657187 
988	 0,580857155156718 
989	 0,580670249384951 
990	 0,581482225714093 
991	 0,582227603179185 
992	 0,582405896267656 
993	 0,583059835205422 
994	 0,583587140129324 
995	 0,583318659711207 
996	 0,582613932141068 
997	 0,583041750546438 
998	 0,587541580117078 
999	 0,588806864944779 
1000	 0,585928102255067 
1001	 0,583640955629927 
1002	 0,583609317549816 
1003	 0,585989382799026 
1004	 0,585426683780007 
1005	 0,585019149273926 
1006	 0,58775835388171 
1007	 0,5880524751947 
1008	 0,586543447629674 
1009	 0,586116902879985 
1010	 0,586056557460175 
1011	 0,585837202087066 
1012	 0,583513817007814 
1013	 0,585015168427943 
1014	 0,590960590939822 
1015	 0,590295862970939 
1016	 0,587915257264079 
1017	 0,588414068862075 
1018	 0,58958909913419 
1019	 0,590290124046167 
1020	 0,589289640425784 
1021	 0,589312041390585 
1022	 0,59064837396216 
1023	 0,592373655980477 
1024	 0,59250320775713 
1025	 0,590591327084566 
1026	 0,588111978196452 
1027	 0,587262997730961 
1028	 0,588956899549443 
1029	 0,588371817389901 
1030	 0,588541054313213 
1031	 0,593073920087304 
1032	 0,59397860940457 
1033	 0,591060599232766 
1034	 0,587174426050665 
1035	 0,587491691544978 
1036	 0,592123602396411 
1037	 0,595671509721928 
1038	 0,596709921080774 
1039	 0,59497663006528 
1040	 0,594273521866271 
1041	 0,592783604972419 
1042	 0,589539121628505 
1043	 0,589687462161613 
1044	 0,593796935092072 
1045	 0,601085936609897 
1046	 0,60214517535342 
1047	 0,598127477799974 
1048	 0,596886822006998 
1049	 0,596664824844444 
1050	 0,596302085196658 
1051	 0,5918960085423 
1052	 0,591749869156741 
1053	 0,597658473943259 
1054	 0,593812872944307 
1055	 0,593356768778248 
1056	 0,606326778613833 
1057	 0,609516199746472 
1058	 0,60528937494981 
1059	 0,601834782126913 
1060	 0,596230016995598 
1061	 0,591669311746301 
1062	 0,595076504925984 
1063	 0,589187197179251 
1064	 0,57769053344457 
1065	 0,592943235391639 
1066	 0,60449569272912 
1067	 0,600709282692235 
1068	 0,60194813588163 
1069	 0,604960525253324 
1070	 0,60583453710178 
1071	 0,598677019826654 
1072	 0,592267528843991 
1073	 0,597338346215178 
1074	 0,603282777166907 
1075	 0,603065592366841 
