Wavelength	NEUF00318.asd
325	 6,53389443465779E-02 
326	-3,49079977660081E-02 
327	-4,79271894566372E-02 
328	 4,89526405962758E-02 
329	 0,031061109921203 
330	 3,96448245070133E-03 
331	 4,47485611989762E-02 
332	 5,81676060976373E-02 
333	 0,034417726486842 
334	-6,32856418553823E-03 
335	 4,54060395773918E-02 
336	 0,191201165960864 
337	 0,119967054481229 
338	-0,028225427791002 
339	-8,81994868552074E-02 
340	-6,44438314598993E-02 
341	 5,77073310111666E-03 
342	 3,49605852432772E-02 
343	 3,21410806479673E-02 
344	 2,19749419459244E-02 
345	 0,123123056446768 
346	 0,174854975637755 
347	 3,92543883484593E-02 
348	-3,17090101346661E-02 
349	-2,27039692201652E-02 
350	-2,07046127384345E-02 
351	 1,81372321792946E-02 
352	 0,083173420387138 
353	 6,02323160831009E-02 
354	 9,55475155659862E-03 
355	 1,47245481605105E-02 
356	-9,20482059976946E-03 
357	-4,07241251305722E-02 
358	 2,72700626146421E-02 
359	 6,62266993800075E-02 
360	 3,07149991794689E-02 
361	 1,21583502337809E-02 
362	 8,52090452404602E-03 
363	-2,32263843081131E-03 
364	 1,40521392918307E-03 
365	 1,65261081888141E-02 
366	 1,77384969735926E-02 
367	 1,98802093401821E-02 
368	 3,19807762062225E-02 
369	 4,72128571824943E-02 
370	 5,22527093680398E-02 
371	 3,03202345151494E-02 
372	 9,98703349311243E-03 
373	 2,26915074823036E-03 
374	 9,54277649308264E-03 
375	 1,21190863285823E-02 
376	-1,21958602062912E-03 
377	 2,39135299299666E-02 
378	 6,20021884962924E-02 
379	 4,10703192915699E-02 
380	 3,11145034610743E-02 
381	 4,82789813768395E-02 
382	 0,057286627358248 
383	 5,16406567981652E-02 
384	 2,79992189159269E-02 
385	 2,95784780048793E-02 
386	 4,66375496699531E-02 
387	 2,78503103490828E-02 
388	 2,59891877573284E-02 
389	 5,17373880053795E-02 
390	 4,45779594234111E-02 
391	 2,19337697925385E-02 
392	 1,06676569106463E-02 
393	 1,35001672273702E-02 
394	 2,33534596026428E-02 
395	 1,63609013897985E-02 
396	 0,013492603997365 
397	 2,49986500110358E-02 
398	 4,48455113280302E-02 
399	 5,28096686455508E-02 
400	 1,83816926399884E-02 
401	 1,08988355662147E-02 
402	 3,50829043769394E-02 
403	 3,85804448465765E-02 
404	 3,99524125635887E-02 
405	 5,01130042829572E-02 
406	 4,01765047907176E-02 
407	 1,99971852923504E-02 
408	 0,015566338549598 
409	 1,73462101523959E-02 
410	 2,06848314515233E-02 
411	 1,60690013660951E-02 
412	 1,35453512762902E-02 
413	 2,21193873785925E-02 
414	 2,59798532089758E-02 
415	 2,51509976045524E-02 
416	 2,78472497113747E-02 
417	 2,80372651926382E-02 
418	 2,41615194704876E-02 
419	 2,16067314832041E-02 
420	 2,14605596006317E-02 
421	 2,42449726702754E-02 
422	 2,66446410297038E-02 
423	 2,73535247368415E-02 
424	 2,53661768018625E-02 
425	 2,30734973988796E-02 
426	 2,21362701900142E-02 
427	 2,23252459373217E-02 
428	 2,36947320988344E-02 
429	 2,66271605656149E-02 
430	 2,83060170590402E-02 
431	 2,78449418535667E-02 
432	 0,025708376825908 
433	 2,42539456006065E-02 
434	 2,55544729534295E-02 
435	 2,98446243071033E-02 
436	 3,32961186622397E-02 
437	 2,55550185117232E-02 
438	 2,23680133748639E-02 
439	 2,78681640522933E-02 
440	 2,50991491671074E-02 
441	 0,020335436297795 
442	 2,33204923567201E-02 
443	 2,24447697644802E-02 
444	 1,83438554946224E-02 
445	 2,26006152181587E-02 
446	 2,68785006567086E-02 
447	 2,66468834400042E-02 
448	 3,04372910474804E-02 
449	 3,45135144563789E-02 
450	 2,95710641717108E-02 
451	 0,028599748990752 
452	 3,29777887930427E-02 
453	 2,92310638023067E-02 
454	 2,50205631742494E-02 
455	 2,76826429616827E-02 
456	 2,69619735745256E-02 
457	 2,42481526903231E-02 
458	 2,90399888828605E-02 
459	 3,06582303605423E-02 
460	 2,59031093042451E-02 
461	 2,48217490615697E-02 
462	 2,64655239174106E-02 
463	 2,82356258807318E-02 
464	 2,90344382757662E-02 
465	 0,0290583615736 
466	 3,10623385728853E-02 
467	 3,05767763502278E-02 
468	 2,54139769668013E-02 
469	 2,36349085529385E-02 
470	 2,52999212455096E-02 
471	 2,81713278868582E-02 
472	 2,96349988272176E-02 
473	 2,91000718372631E-02 
474	 2,98744846799858E-02 
475	 2,85294816274111E-02 
476	 2,20537103826802E-02 
477	 2,31558349116179E-02 
478	 2,97849761571229E-02 
479	 2,92167040449594E-02 
480	 2,74141004274912E-02 
481	 2,70786885602905E-02 
482	 2,75186245803422E-02 
483	 2,76087188603841E-02 
484	 0,025644687753044 
485	 2,64549402088447E-02 
486	 2,98614765505123E-02 
487	 3,04691740554868E-02 
488	 2,90368946276092E-02 
489	 2,65865443013274E-02 
490	 2,71179654726343E-02 
491	 2,91531924228165E-02 
492	 2,75592534062217E-02 
493	 0,026734942183767 
494	 2,79439958378457E-02 
495	 2,96204698655047E-02 
496	 3,03246180378232E-02 
497	 2,86739296418016E-02 
498	 2,89570192449989E-02 
499	 0,031100374069834 
500	 3,20779091779043E-02 
501	 3,10275441493091E-02 
502	 2,80881864731757E-02 
503	 2,86709012747863E-02 
504	 3,11628765388025E-02 
505	 3,15426602905087E-02 
506	 3,18848357250321E-02 
507	 3,25121842508153E-02 
508	 3,25704614594128E-02 
509	 3,22020319560459E-02 
510	 3,15863415676735E-02 
511	 3,09813262375348E-02 
512	 3,03997760874304E-02 
513	 2,95082510754637E-02 
514	 2,93807813427704E-02 
515	 3,03577300566789E-02 
516	 3,14380430429398E-02 
517	 3,19998094906646E-02 
518	 3,13605470422105E-02 
519	 3,12259889018928E-02 
520	 3,18310063434851E-02 
521	 3,21894051251117E-02 
522	 3,24943766538872E-02 
523	 3,28712531023968E-02 
524	 3,30461734146426E-02 
525	 3,31270173710379E-02 
526	 3,34937949763343E-02 
527	 3,35737669664307E-02 
528	 3,32997469402585E-02 
529	 3,34443514624905E-02 
530	 3,36509941954445E-02 
531	 3,34562417238474E-02 
532	 3,33168201928208E-02 
533	 3,33427906285324E-02 
534	 3,34789743973981E-02 
535	 3,39151982333241E-02 
536	 3,45712354135738E-02 
537	 3,38802947789941E-02 
538	 3,26202782625155E-02 
539	 3,25063969210564E-02 
540	 3,31141449796819E-02 
541	 3,40545905199444E-02 
542	 0,034100802935901 
543	 3,40191863612511E-02 
544	 0,034566058156659 
545	 3,42945929806552E-02 
546	 3,34985930568831E-02 
547	 3,37223582134015E-02 
548	 3,43034838742018E-02 
549	 3,48295502964937E-02 
550	 3,46805764505677E-02 
551	 3,45189158847659E-02 
552	 3,55238293829759E-02 
553	 0,035749317171395 
554	 3,50502030463483E-02 
555	 3,52781352570036E-02 
556	 3,54244525254922E-02 
557	 0,034705681711924 
558	 3,46985880003241E-02 
559	 3,51742078603671E-02 
560	 3,48626356846643E-02 
561	 3,43836877030173E-02 
562	 3,41217442586276E-02 
563	 3,48989912383243E-02 
564	 3,56731027339037E-02 
565	 3,49943093315997E-02 
566	 3,53627463667061E-02 
567	 0,036664790625497 
568	 0,036075039698832 
569	 3,57510465408356E-02 
570	 3,69943272493178E-02 
571	 3,67624076990303E-02 
572	 3,58713172308111E-02 
573	 3,71973457384691E-02 
574	 3,79882436672554E-02 
575	 3,75366007862257E-02 
576	 3,73922821021813E-02 
577	 3,79494865646845E-02 
578	 3,94702503230985E-02 
579	 3,98154907264061E-02 
580	 0,039251612106444 
581	 4,03332101603474E-02 
582	 4,14259343853483E-02 
583	 4,15789668560856E-02 
584	 4,10125466551823E-02 
585	 4,04766404016178E-02 
586	 4,12722318168176E-02 
587	 4,13912952832368E-02 
588	 4,06508875342932E-02 
589	 4,11625326931984E-02 
590	 4,18899993727208E-02 
591	 4,18345864620438E-02 
592	 4,23247065065893E-02 
593	 4,29856544697158E-02 
594	 4,19413411752987E-02 
595	 4,17215738434739E-02 
596	 4,31817699943485E-02 
597	 4,34093067064368E-02 
598	 4,29386414493894E-02 
599	 4,30440751823114E-02 
600	 4,31023867347614E-02 
601	 0,042980203040868 
602	 4,27223320662513E-02 
603	 4,25010362644865E-02 
604	 0,042459250509722 
605	 4,26672922848954E-02 
606	 0,04278157733928 
607	 4,18309793356654E-02 
608	 4,14741203286254E-02 
609	 4,21482667819197E-02 
610	 4,24519907999902E-02 
611	 0,042027134100716 
612	 4,06131856418841E-02 
613	 4,02935465415489E-02 
614	 0,041112754816138 
615	 4,13451777578857E-02 
616	 4,12808596698185E-02 
617	 4,10445189699252E-02 
618	 4,01276718122512E-02 
619	 3,91798399137057E-02 
620	 0,039553218976175 
621	 4,01499861624925E-02 
622	 4,05131339377325E-02 
623	 4,03674608850996E-02 
624	 4,02170285113703E-02 
625	 4,05845067653716E-02 
626	 4,09623288397952E-02 
627	 4,11799733321003E-02 
628	 0,041038534650016 
629	 4,10875631789417E-02 
630	 0,041554822777679 
631	 4,17748753724393E-02 
632	 0,04190213773576 
633	 4,23317070533699E-02 
634	 0,042464075582711 
635	 4,23959516428034E-02 
636	 4,32506652298909E-02 
637	 4,41797413967452E-02 
638	 4,44529169033093E-02 
639	 4,46383722030337E-02 
640	 4,48978746647371E-02 
641	 4,54284732646068E-02 
642	 4,56487024905919E-02 
643	 4,54820561594746E-02 
644	 4,60627608952371E-02 
645	 4,67189142939565E-02 
646	 4,64540165743068E-02 
647	 4,67825478507737E-02 
648	 4,75374290751639E-02 
649	 4,66550757671934E-02 
650	 4,62647188440907E-02 
651	 4,75778195014637E-02 
652	 4,77776840599827E-02 
653	 4,70294452008943E-02 
654	 4,65550637951478E-02 
655	 4,59685014787266E-02 
656	 4,52594489862677E-02 
657	 0,04472949335119 
658	 0,044260192792605 
659	 4,37212817017347E-02 
660	 4,35276746665838E-02 
661	 4,35502228037243E-02 
662	 4,32531961275624E-02 
663	 4,25599086144777E-02 
664	 4,15648204450192E-02 
665	 4,12686062117738E-02 
666	 4,12539747789177E-02 
667	 4,06776577639394E-02 
668	 4,02457882432976E-02 
669	 4,00729804839716E-02 
670	 3,97533973154794E-02 
671	 3,96847517435526E-02 
672	 4,00950685906894E-02 
673	 3,96560584771002E-02 
674	 3,87745384379726E-02 
675	 3,89298456012296E-02 
676	 3,94486686012431E-02 
677	 3,99468095492656E-02 
678	 0,039665311241591 
679	 3,92564433508052E-02 
680	 3,95605765189731E-02 
681	 3,98860608310673E-02 
682	 4,00831294681727E-02 
683	 4,01712820165138E-02 
684	 4,04341198054121E-02 
685	 4,10306368426954E-02 
686	 4,17178587768343E-02 
687	 4,24612588370416E-02 
688	 4,32650159481032E-02 
689	 4,40813629411733E-02 
690	 4,50240847609479E-02 
691	 4,65658094522891E-02 
692	 4,83996526088244E-02 
693	 5,02493306756093E-02 
694	 5,25494300906424E-02 
695	 5,52758018125966E-02 
696	 5,81084083184419E-02 
697	 6,13302289309694E-02 
698	 6,50339265985734E-02 
699	 6,90677994327128E-02 
700	 7,32448687620784E-02 
701	 7,73311790652414E-02 
702	 8,17115649408287E-02 
703	 8,62569283894103E-02 
704	 9,02158001680196E-02 
705	 9,42563821928743E-02 
706	 9,87227312347152E-02 
707	 0,102757807833433 
708	 0,106378216309673 
709	 0,109829843746267 
710	 0,113209440956417 
711	 0,116513657981188 
712	 0,119531636577077 
713	 0,122255705537266 
714	 0,124693923598848 
715	 0,126815783069241 
716	 0,128886008066096 
717	 0,131683945838569 
718	 0,133881944808497 
719	 0,135045027636407 
720	 0,136244199461404 
721	 0,137661679814809 
722	 0,139385233654068 
723	 0,14085795713719 
724	 0,141955452245168 
725	 0,142794384894738 
726	 0,143628497960384 
727	 0,144592869151115 
728	 0,14533757669345 
729	 0,145986958224238 
730	 0,146862206082128 
731	 0,147461273571138 
732	 0,147778861976144 
733	 0,148469189187442 
734	 0,149254591690552 
735	 0,149842792035034 
736	 0,149896959726827 
737	 0,14979607546458 
738	 0,150719975483213 
739	 0,151114897225989 
740	 0,150685827471584 
741	 0,151355800440358 
742	 0,152319460233736 
743	 0,152480191909843 
744	 0,152305352701438 
745	 0,152062937889751 
746	 0,152239055767126 
747	 0,152444472896692 
748	 0,152516705721182 
749	 0,152843442081877 
750	 0,153359059326539 
751	 0,153908729805163 
752	 0,154210481442272 
753	 0,154222756976813 
754	 0,154172679472213 
755	 0,154056482619677 
756	 0,153908597065586 
757	 0,154043846089413 
758	 0,154335143432818 
759	 0,154453660971125 
760	 0,154300377774269 
761	 0,154031385320073 
762	 0,154584421151716 
763	 0,15510680902017 
764	 0,154805414880864 
765	 0,15480015454572 
766	 0,155066029548002 
767	 0,154976153646083 
768	 0,154795930803022 
769	 0,154685473872816 
770	 0,154954123908979 
771	 0,155278644627632 
772	 0,155257418092997 
773	 0,155326672793511 
774	 0,155514803446809 
775	 0,155617811312635 
776	 0,155619281780465 
777	 0,155543492893906 
778	 0,15564103311075 
779	 0,155821220656281 
780	 0,155912003122426 
781	 0,155871012953229 
782	 0,155765084646857 
783	 0,155889158329002 
784	 0,156015195114888 
785	 0,155975464504633 
786	 0,155652388086648 
787	 0,15547579015782 
788	 0,156252282907675 
789	 0,156671959139243 
790	 0,15648335270752 
791	 0,156489643023389 
792	 0,156559923295198 
793	 0,156593411034789 
794	 0,156814542081869 
795	 0,157096907627816 
796	 0,157119217736095 
797	 0,156968847443056 
798	 0,156788063028823 
799	 0,157103440997586 
800	 0,157427458031505 
801	 0,157303804605672 
802	 0,157274776713846 
803	 0,15737701233891 
804	 0,157419482802705 
805	 0,157576629871676 
806	 0,157843775990063 
807	 0,157864016355662 
808	 0,157838951387433 
809	 0,157998021654324 
810	 0,157979939047376 
811	 0,15787654753079 
812	 0,158172246268391 
813	 0,15833924056853 
814	 0,158193654551544 
815	 0,15807573093967 
816	 0,158091591839589 
817	 0,158325589656927 
818	 0,158769420623577 
819	 0,159210550171243 
820	 0,159072044921538 
821	 0,158886588877375 
822	 0,158908469558921 
823	 0,158915256535082 
824	 0,159052907253267 
825	 0,159516620063118 
826	 0,159475528404514 
827	 0,159010190059565 
828	 0,159046615308989 
829	 0,159105664039324 
830	 0,159006946319092 
831	 0,159249772102493 
832	 0,159554878398294 
833	 0,159485050077861 
834	 0,15897473782019 
835	 0,158394503093101 
836	 0,158975529568482 
837	 0,159563175378396 
838	 0,159568255011884 
839	 0,159709599931533 
840	 0,159845640383004 
841	 0,159677185971037 
842	 0,159942561353211 
843	 0,160479898329247 
844	 0,160131228615239 
845	 0,159735997004858 
846	 0,159707602730251 
847	 0,1593993570872 
848	 0,159096514165292 
849	 0,159277632591768 
850	 0,159728218659405 
851	 0,160237955430863 
852	 0,160451453472635 
853	 0,16011481937314 
854	 0,159310226531355 
855	 0,159594714074357 
856	 0,160177316793949 
857	 0,159753032066268 
858	 0,159433788986537 
859	 0,159513346817381 
860	 0,160125974665086 
861	 0,160235553617599 
862	 0,159506572851543 
863	 0,159666183502203 
864	 0,160204172602548 
865	 0,160222323692777 
866	 0,160079667169402 
867	 0,159953464081417 
868	 0,160168045760575 
869	 0,160304685562694 
870	 0,160223105369453 
871	 0,160424067078034 
872	 0,160659288996988 
873	 0,160575261407676 
874	 0,159922906753961 
875	 0,159196839436343 
876	 0,159978783251893 
877	 0,16053649715922 
878	 0,160224496686669 
879	 0,15996110235523 
880	 0,159995085029292 
881	 0,16048763981015 
882	 0,160855526810696 
883	 0,161061174084477 
884	 0,161409456417714 
885	 0,161563293263602 
886	 0,161401959650953 
887	 0,161029978437519 
888	 0,160483132295606 
889	 0,159859910411352 
890	 0,159943830185334 
891	 0,160579396829538 
892	 0,161111499974572 
893	 0,161610067011398 
894	 0,162011567641695 
895	 0,16218998768404 
896	 0,16209400616345 
897	 0,161705454198339 
898	 0,161078499196172 
899	 0,160685795963223 
900	 0,161315955500901 
901	 0,161670090552507 
902	 0,161501466649919 
903	 0,161477465155077 
904	 0,161451627409221 
905	 0,161364290920383 
906	 0,16142237827474 
907	 0,16158365929084 
908	 0,161750640769886 
909	 0,161809005813657 
910	 0,161741483990015 
911	 0,161719015104675 
912	 0,161031918297142 
913	 0,159755551310254 
914	 0,160263559228112 
915	 0,161627122692599 
916	 0,162488686575626 
917	 0,161399084583237 
918	 0,159682348687127 
919	 0,161595935375606 
920	 0,162909831675196 
921	 0,162381791084085 
922	 0,16162746011076 
923	 0,161318396765824 
924	 0,161807793098789 
925	 0,161124638973978 
926	 0,160138208751698 
927	 0,160970876280138 
928	 0,16151634167519 
929	 0,161411165354091 
930	 0,161784697717898 
931	 0,161591651877328 
932	 0,16050038092785 
933	 0,160570313103108 
934	 0,161271744580232 
935	 0,161602323831918 
936	 0,161080515813744 
937	 0,160286075425551 
938	 0,161213473019366 
939	 0,162089766609513 
940	 0,162192973042094 
941	 0,161778731785227 
942	 0,160825570976041 
943	 0,159486848035945 
944	 0,159452918269872 
945	 0,160046297450657 
946	 0,159439478205087 
947	 0,159452293524732 
948	 0,160111738374924 
949	 0,159671518237795 
950	 0,15908239711852 
951	 0,158758357764155 
952	 0,157517435339923 
953	 0,156293635808788 
954	 0,15631998932743 
955	 0,157271347631121 
956	 0,158055677070237 
957	 0,155971305653705 
958	 0,155066539236366 
959	 0,156063508305949 
960	 0,154947409697381 
961	 0,154734243345355 
962	 0,157250088417977 
963	 0,157036311820416 
964	 0,155321632331321 
965	 0,155164153020438 
966	 0,156075464611634 
967	 0,157369999576738 
968	 0,157370535538412 
969	 0,156036969396268 
970	 0,154074030166518 
971	 0,155064467471156 
972	 0,156881707775857 
973	 0,157342202176138 
974	 0,157134299003987 
975	 0,157086706346301 
976	 0,158501951505201 
977	 0,159676199288699 
978	 0,159947498636527 
979	 0,158974537870002 
980	 0,157260757584729 
981	 0,155446310593695 
982	 0,155020586866605 
983	 0,155929640013497 
984	 0,157793861636171 
985	 0,158846421810613 
986	 0,158995036046544 
987	 0,158903043711259 
988	 0,157985242653416 
989	 0,156534436094931 
990	 0,15571396269753 
991	 0,156375129476161 
992	 0,158563689804962 
993	 0,160080536652524 
994	 0,159660558869715 
995	 0,156692817205049 
996	 0,157080911302315 
997	 0,159834351472821 
998	 0,160893450612449 
999	 0,160804209282128 
1000	 0,160036380827435 
1001	 0,160007669843347 
1002	 0,160442863417163 
1003	 0,161124196877771 
1004	 0,161584704313948 
1005	 0,161832127677245 
1006	 0,161877786343261 
1007	 0,161095139366584 
1008	 0,160196370840843 
1009	 0,160570034977741 
1010	 0,160913975069055 
1011	 0,160528862148832 
1012	 0,157855012294657 
1013	 0,15835977037121 
1014	 0,162991970107907 
1015	 0,163596509273949 
1016	 0,160542374965739 
1017	 0,155656824057294 
1018	 0,158392272630982 
1019	 0,16371585141222 
1020	 0,162150581670874 
1021	 0,160522411440287 
1022	 0,161095408944289 
1023	 0,166182915838656 
1024	 0,167390289806732 
1025	 0,16375922684679 
1026	 0,165273207849575 
1027	 0,168424365072022 
1028	 0,169992176806223 
1029	 0,165227460573033 
1030	 0,162151105496164 
1031	 0,1694129428909 
1032	 0,167488437389002 
1033	 0,159403797052064 
1034	 0,158903276160468 
1035	 0,160294244477994 
1036	 0,16228154316898 
1037	 0,165525856380498 
1038	 0,16770175842324 
1039	 0,167084942604409 
1040	 0,16142081605102 
1041	 0,15572241232831 
1042	 0,154857409948645 
1043	 0,16310855981757 
1044	 0,170938025842824 
1045	 0,16517762749496 
1046	 0,164948283334918 
1047	 0,169725811678902 
1048	 0,168363018017974 
1049	 0,169183534109331 
1050	 0,170663193392426 
1051	 0,156394086509592 
1052	 0,151173442556825 
1053	 0,164515982419363 
1054	 0,17447386533119 
1055	 0,17385837612181 
1056	 0,159965227071445 
1057	 0,156850343986961 
1058	 0,158166076252572 
1059	 0,150295445024091 
1060	 0,149756836334 
1061	 0,156536210543566 
1062	 0,162544408922746 
1063	 0,171338198323278 
1064	 0,1807549432331 
1065	 0,183341055363664 
1066	 0,176610800525369 
1067	 0,163881423418298 
1068	 0,167992016126393 
1069	 0,172756996908911 
1070	 0,165648221795255 
1071	 0,155424773068033 
1072	 0,149552095759975 
1073	 0,15533928133154 
1074	 0,165604293750971 
1075	 0,175913105793702 
