Wavelength	NEUF00612.asd
325	 0,409933450773145 
326	 0,226416579518492 
327	 0,123777236046308 
328	 0,186271150407063 
329	 0,209714910550226 
330	 0,194621135766766 
331	 0,120042609223121 
332	 0,181048443066673 
333	 0,287312918315178 
334	 0,310408700412276 
335	 0,272292705453592 
336	 0,170242265193983 
337	 6,67565180814961E-02 
338	 3,49255474214134E-02 
339	 9,97379763488222E-02 
340	 0,100579270395145 
341	 8,08695408022541E-02 
342	 0,192930336866138 
343	 0,221340236751636 
344	 0,152363571337076 
345	 0,13382994549108 
346	 0,136525582378342 
347	 0,114631813488397 
348	 6,82610877946155E-02 
349	 1,88063424726083E-02 
350	 3,33996504480368E-02 
351	 7,57301019884151E-02 
352	 0,117912543546015 
353	 0,104790374287023 
354	 0,068136153140837 
355	 5,28083906425345E-02 
356	 0,059261083293182 
357	 7,54124353613863E-02 
358	 6,90365886492559E-02 
359	 6,14736783165525E-02 
360	 6,21749372326005E-02 
361	 0,075765942409258 
362	 7,93751693130997E-02 
363	 4,20025957840721E-02 
364	 5,01526706383477E-02 
365	 9,69564357755243E-02 
366	 9,00433874337136E-02 
367	 7,33164501341627E-02 
368	 7,17748292060798E-02 
369	 6,24998299875796E-02 
370	 5,06210443797312E-02 
371	 4,62912244869725E-02 
372	 4,69536775070429E-02 
373	 5,12872273335416E-02 
374	 0,059258791675561 
375	 5,44045920568035E-02 
376	 2,92467810659154E-02 
377	 4,58040350207976E-02 
378	 8,42499669761979E-02 
379	 8,36347008818158E-02 
380	 7,96031986082352E-02 
381	 8,25379062840072E-02 
382	 8,89609428957272E-02 
383	 8,79850199298411E-02 
384	 7,04095945753555E-02 
385	 6,50217861132602E-02 
386	 6,81898291931215E-02 
387	 0,049253430207799 
388	 5,52767361610557E-02 
389	 9,12504160476689E-02 
390	 8,13896420097932E-02 
391	 5,30611460052511E-02 
392	 4,62236834120403E-02 
393	 5,20632528069228E-02 
394	 6,17105728492099E-02 
395	 5,32554105699542E-02 
396	 5,01825150447827E-02 
397	 6,26436820778611E-02 
398	 7,07738680638649E-02 
399	 7,29600722896675E-02 
400	 6,96248952713917E-02 
401	 6,47719125555275E-02 
402	 6,09055075182179E-02 
403	 6,07545229815704E-02 
404	 6,37110740660497E-02 
405	 6,81547731378152E-02 
406	 6,40320534873982E-02 
407	 5,60287246020033E-02 
408	 5,64197143005255E-02 
409	 0,055447259077959 
410	 5,13114773398204E-02 
411	 4,89298090304467E-02 
412	 4,86023681466543E-02 
413	 5,01389745149772E-02 
414	 4,93182123385729E-02 
415	 4,85422707817365E-02 
416	 5,73232908399062E-02 
417	 5,94384922331267E-02 
418	 5,04578101570665E-02 
419	 0,047091507471191 
420	 4,97358345712728E-02 
421	 5,67981513129889E-02 
422	 5,53717819796613E-02 
423	 0,047432503723492 
424	 4,93658159005709E-02 
425	 5,38723035103516E-02 
426	 5,60414420830305E-02 
427	 5,51153115700487E-02 
428	 5,29115678211592E-02 
429	 5,28120667014171E-02 
430	 5,25996800573389E-02 
431	 5,19501086996999E-02 
432	 5,20501465637968E-02 
433	 5,24493106697068E-02 
434	 5,27339154001574E-02 
435	 0,053973504074944 
436	 5,46159891193232E-02 
437	 4,95019412061392E-02 
438	 4,87763259785456E-02 
439	 5,44707452714421E-02 
440	 5,21920054792616E-02 
441	 4,74098412901474E-02 
442	 4,85850930381323E-02 
443	 5,06511205486131E-02 
444	 5,20333430776729E-02 
445	 5,09520453592753E-02 
446	 5,27159160365952E-02 
447	 5,95014516692458E-02 
448	 6,04912119081958E-02 
449	 0,05798637894745 
450	 5,90401144097829E-02 
451	 5,98511197975475E-02 
452	 5,92263380020593E-02 
453	 5,64120230002464E-02 
454	 5,46813689587181E-02 
455	 5,69870111230178E-02 
456	 5,90646394550114E-02 
457	 6,04834801068953E-02 
458	 6,27354629552924E-02 
459	 6,38945028044007E-02 
460	 6,30021106179512E-02 
461	 5,97539672968611E-02 
462	 5,61332077658753E-02 
463	 5,47242344753357E-02 
464	 5,47235578546914E-02 
465	 5,60527771798453E-02 
466	 5,98320000118641E-02 
467	 6,04473518681028E-02 
468	 5,51625191403158E-02 
469	 5,47248306166369E-02 
470	 5,79000948371483E-02 
471	 5,90484721963076E-02 
472	 5,94100025685434E-02 
473	 5,94263095429247E-02 
474	 6,05803758199549E-02 
475	 6,03250705296041E-02 
476	 5,64504546822482E-02 
477	 5,82468023521984E-02 
478	 6,34204741881415E-02 
479	 6,00882145346439E-02 
480	 0,058224549447621 
481	 6,16310720487993E-02 
482	 6,25287317589804E-02 
483	 6,09958178805334E-02 
484	 0,058198712326403 
485	 5,92918778054276E-02 
486	 6,38196428329172E-02 
487	 6,45088251729701E-02 
488	 6,35167654282162E-02 
489	 6,26819551385339E-02 
490	 6,24448064302647E-02 
491	 6,30923446870097E-02 
492	 6,52684828541776E-02 
493	 6,57574552510913E-02 
494	 6,41574266201044E-02 
495	 6,54288073735983E-02 
496	 6,65118979815672E-02 
497	 6,36782988362793E-02 
498	 6,39139852974651E-02 
499	 6,69413507515565E-02 
500	 6,67889257488619E-02 
501	 6,70514291196924E-02 
502	 6,92887792021112E-02 
503	 6,91069439064046E-02 
504	 6,76803109849414E-02 
505	 6,78980710119264E-02 
506	 6,88924465767737E-02 
507	 7,01366501472085E-02 
508	 7,04638679293057E-02 
509	 7,03100049506632E-02 
510	 7,01429960031427E-02 
511	 0,070149712614788 
512	 7,03538027199142E-02 
513	 0,070715243064629 
514	 7,07608701280658E-02 
515	 7,04789010432443E-02 
516	 7,14601522940663E-02 
517	 7,20880165581251E-02 
518	 0,069871086514837 
519	 6,98878858141782E-02 
520	 7,24095639331763E-02 
521	 7,34413554995346E-02 
522	 7,36536673346429E-02 
523	 7,35914335394463E-02 
524	 7,31701495781063E-02 
525	 0,073120267259385 
526	 0,075173195069664 
527	 7,65230294766902E-02 
528	 7,62401194746159E-02 
529	 7,52024058893846E-02 
530	 7,46438369542152E-02 
531	 7,58277757714377E-02 
532	 7,64806563361512E-02 
533	 7,63977289443406E-02 
534	 0,076635494547587 
535	 7,74543475574506E-02 
536	 7,87680742930483E-02 
537	 7,84967495059229E-02 
538	 7,73121807489038E-02 
539	 7,68091566127139E-02 
540	 7,76275481738694E-02 
541	 7,94241479875216E-02 
542	 7,94584782911515E-02 
543	 7,90989789686341E-02 
544	 7,97769652618842E-02 
545	 8,03030095196291E-02 
546	 8,04893460368059E-02 
547	 8,04229756638821E-02 
548	 8,05263772254701E-02 
549	 8,09999197757203E-02 
550	 8,15292705319843E-02 
551	 8,20707088230307E-02 
552	 8,26394275809661E-02 
553	 8,28871532277358E-02 
554	 8,28863459834994E-02 
555	 8,33749870774877E-02 
556	 8,38131489475288E-02 
557	 8,37641837851481E-02 
558	 8,38071556731691E-02 
559	 8,39596879542701E-02 
560	 8,39397528047089E-02 
561	 8,41695385689415E-02 
562	 8,47498501310827E-02 
563	 8,52514834485693E-02 
564	 8,54217476347559E-02 
565	 8,49908959917014E-02 
566	 8,52697064008256E-02 
567	 8,62577361099913E-02 
568	 8,66513808886114E-02 
569	 8,69880449167008E-02 
570	 8,75629716463854E-02 
571	 8,74388378296455E-02 
572	 8,69771966119642E-02 
573	 8,71927604650854E-02 
574	 8,78243802576015E-02 
575	 8,86171730199217E-02 
576	 8,86249560394842E-02 
577	 8,85611333361843E-02 
578	 8,92834474639376E-02 
579	 8,96542281650679E-02 
580	 8,96693894342743E-02 
581	 9,01549225153993E-02 
582	 9,06730213873379E-02 
583	 9,09753761228695E-02 
584	 9,12302038472581E-02 
585	 9,12617447857026E-02 
586	 9,06718613215104E-02 
587	 0,090617018120447 
588	 9,13190524207065E-02 
589	 9,19722978014084E-02 
590	 9,24648941380925E-02 
591	 9,27303734060433E-02 
592	 9,28879029748328E-02 
593	 9,30419164516351E-02 
594	 9,33546354503897E-02 
595	 9,38486472689872E-02 
596	 9,43947082898386E-02 
597	 9,41283079766001E-02 
598	 9,35417272026428E-02 
599	 0,093482878149024 
600	 9,37935604725624E-02 
601	 9,42223299530864E-02 
602	 9,39335273233714E-02 
603	 9,35773334237967E-02 
604	 9,36801817192075E-02 
605	 9,39398252631532E-02 
606	 9,42248656300207E-02 
607	 9,43387080520321E-02 
608	 9,45183068300449E-02 
609	 0,094776811564577 
610	 9,47521335343974E-02 
611	 9,43617687597788E-02 
612	 9,35515220050192E-02 
613	 9,37779375438918E-02 
614	 9,48076430921565E-02 
615	 9,46339409108487E-02 
616	 0,094114936272417 
617	 0,093815030099718 
618	 9,35071600178939E-02 
619	 9,34265702324847E-02 
620	 9,40905396027171E-02 
621	 9,46348391182788E-02 
622	 9,47579675925735E-02 
623	 9,46409941331191E-02 
624	 9,45097610322944E-02 
625	 9,45878334289794E-02 
626	 9,48575979890967E-02 
627	 9,51991364030096E-02 
628	 9,52964787590021E-02 
629	 9,53371054214287E-02 
630	 9,54032459157086E-02 
631	 9,52829170977922E-02 
632	 9,53499254280427E-02 
633	 9,62659456824445E-02 
634	 9,66267585049408E-02 
635	 9,63321806274664E-02 
636	 9,68568550470332E-02 
637	 9,74140072455952E-02 
638	 0,097363684715247 
639	 9,79292511021018E-02 
640	 9,86941401977628E-02 
641	 9,79463481853722E-02 
642	 9,77645749056322E-02 
643	 9,86996288276144E-02 
644	 9,85828556509434E-02 
645	 9,79822392545018E-02 
646	 9,78830175521485E-02 
647	 9,82656766395543E-02 
648	 9,88412115180198E-02 
649	 9,85204421016144E-02 
650	 0,098403553131851 
651	 9,91281403175114E-02 
652	 9,93723388787292E-02 
653	 9,91013843998682E-02 
654	 9,86461773543428E-02 
655	 9,82786391018161E-02 
656	 9,80075647513313E-02 
657	 9,71809783926858E-02 
658	 9,64353627380741E-02 
659	 9,64416640171428E-02 
660	 9,65708759891525E-02 
661	 0,096681338288961 
662	 9,68545575569386E-02 
663	 9,68049358539985E-02 
664	 9,64149457564291E-02 
665	 9,59732436162492E-02 
666	 9,56579227478912E-02 
667	 9,56773790453064E-02 
668	 9,56737452300434E-02 
669	 9,55613828482187E-02 
670	 9,54842942028291E-02 
671	 9,53749575936691E-02 
672	 9,51836353446363E-02 
673	 0,094935428890047 
674	 9,48396163363335E-02 
675	 9,53913156216236E-02 
676	 9,59275282936148E-02 
677	 9,62017945121357E-02 
678	 9,64329899856582E-02 
679	 9,66811379077537E-02 
680	 0,096995590190008 
681	 9,69786523345185E-02 
682	 9,68634095555255E-02 
683	 9,76881961548971E-02 
684	 9,85118403145888E-02 
685	 9,87957730687297E-02 
686	 9,90128143956352E-02 
687	 9,94240057863763E-02 
688	 0,100389171262908 
689	 0,101181098324224 
690	 0,101704132857925 
691	 0,102622745446898 
692	 0,103633797572921 
693	 0,104473254249316 
694	 0,105652861093411 
695	 0,107328673343242 
696	 0,10971077237349 
697	 0,1118650340352 
698	 0,113477590106426 
699	 0,115462952522247 
700	 0,117474735352829 
701	 0,11895104294486 
702	 0,121127757637273 
703	 0,1239049204217 
704	 0,125856287643261 
705	 0,127866600453015 
706	 0,13038874538499 
707	 0,132301913755492 
708	 0,133715114960962 
709	 0,135077328949853 
710	 0,136742582256013 
711	 0,13868849332445 
712	 0,140180388636276 
713	 0,14140741237157 
714	 0,14257796441298 
715	 0,143554134415707 
716	 0,14455059475486 
717	 0,146231236400175 
718	 0,147528917909759 
719	 0,148120053689565 
720	 0,149042818992005 
721	 0,150142956635266 
722	 0,151099916996714 
723	 0,152003804686376 
724	 0,152738864790464 
725	 0,152788037172641 
726	 0,153290104860401 
727	 0,154743326262552 
728	 0,154948393214753 
729	 0,154624468159716 
730	 0,15559457567009 
731	 0,156545795229634 
732	 0,157122922736334 
733	 0,157636083777895 
734	 0,157907887843642 
735	 0,157835916004874 
736	 0,158194344032339 
737	 0,158910810289612 
738	 0,159508087508246 
739	 0,159680028577409 
740	 0,159458839282876 
741	 0,159850885895131 
742	 0,160520091072771 
743	 0,160975923457903 
744	 0,161166484117674 
745	 0,161162148984422 
746	 0,161212217519561 
747	 0,161452225411764 
748	 0,161938544495685 
749	 0,162431232911248 
750	 0,162893065824974 
751	 0,163322828936671 
752	 0,163734210295371 
753	 0,164058560522455 
754	 0,164039146754524 
755	 0,163971276868303 
756	 0,164085970655862 
757	 0,164332919815916 
758	 0,16467375102915 
759	 0,165080359690592 
760	 0,165207916217211 
761	 0,165050575589286 
762	 0,165163047514501 
763	 0,165438542895668 
764	 0,165750272837948 
765	 0,166222610704987 
766	 0,166648425400782 
767	 0,166397133509466 
768	 0,166469956182781 
769	 0,167117571232061 
770	 0,16721487187232 
771	 0,167168498524776 
772	 0,167559555325498 
773	 0,168121550017759 
774	 0,168590706271192 
775	 0,16835103025273 
776	 0,168200450656262 
777	 0,16848165688348 
778	 0,168283667815281 
779	 0,168251133831028 
780	 0,169468448379344 
781	 0,169823440903267 
782	 0,169194977872213 
783	 0,169306998590279 
784	 0,169672929157244 
785	 0,169946535373778 
786	 0,169993552595427 
787	 0,170046031903019 
788	 0,170572452286379 
789	 0,170973360728055 
790	 0,171099197204999 
791	 0,171165146823846 
792	 0,171270079958966 
793	 0,171467059562032 
794	 0,171427692192855 
795	 0,171342489766213 
796	 0,171733855764835 
797	 0,172144982651168 
798	 0,172360456033489 
799	 0,172142637003318 
800	 0,172043456012226 
801	 0,172549487319037 
802	 0,17290015127566 
803	 0,172966269199992 
804	 0,172747201073848 
805	 0,172836326021659 
806	 0,173394753792916 
807	 0,173895611364099 
808	 0,174162545984243 
809	 0,17406148868325 
810	 0,173697140170666 
811	 0,173427364797109 
812	 0,174151593281322 
813	 0,174752748695881 
814	 0,174761972749911 
815	 0,174556462000859 
816	 0,174508245655646 
817	 0,174996061925062 
818	 0,175286015827643 
819	 0,175304219831206 
820	 0,175387220672477 
821	 0,175415963166964 
822	 0,175401259848496 
823	 0,175704449565971 
824	 0,176093243454131 
825	 0,176228516144075 
826	 0,17615022110233 
827	 0,176014076557344 
828	 0,17626252314688 
829	 0,176615435465212 
830	 0,176848531448513 
831	 0,17650450007083 
832	 0,176223995712271 
833	 0,176923015608079 
834	 0,17678175789484 
835	 0,17595995839592 
836	 0,17652438660955 
837	 0,17714946036581 
838	 0,177145908995767 
839	 0,177096874426552 
840	 0,177044853427118 
841	 0,176965464951825 
842	 0,177067268503399 
843	 0,177275299311834 
844	 0,177157973621294 
845	 0,17704500340663 
846	 0,177125713858004 
847	 0,177354959559757 
848	 0,177542172212412 
849	 0,177433806344284 
850	 0,177477824310544 
851	 0,177774088161978 
852	 0,178334737977593 
853	 0,178414388010742 
854	 0,177790226453627 
855	 0,177992242089153 
856	 0,178526866537955 
857	 0,178490802532071 
858	 0,178078151999416 
859	 0,177617831530512 
860	 0,17804560885614 
861	 0,17833205781165 
862	 0,178058563814648 
863	 0,178281772229992 
864	 0,178746038753743 
865	 0,178978683802889 
866	 0,178935702006127 
867	 0,178619379528404 
868	 0,177971949215161 
869	 0,178001108567523 
870	 0,178971420306457 
871	 0,179228494189236 
872	 0,179018765336632 
873	 0,178846124950739 
874	 0,178819618829282 
875	 0,178932669798993 
876	 0,17901661572225 
877	 0,179152570400605 
878	 0,179340272887142 
879	 0,179420699642392 
880	 0,179476776489189 
881	 0,179606239630313 
882	 0,179705899095514 
883	 0,179705490487762 
884	 0,179401975433568 
885	 0,179516999783656 
886	 0,180145806827961 
887	 0,180374637318565 
888	 0,180012776675487 
889	 0,179071198628017 
890	 0,179226814929541 
891	 0,180144949266589 
892	 0,180401090178713 
893	 0,180478139636952 
894	 0,180540947563911 
895	 0,180813735094889 
896	 0,180902466057549 
897	 0,180547410982666 
898	 0,180374250649453 
899	 0,180452252251835 
900	 0,180720229900741 
901	 0,180814014904978 
902	 0,180765120428432 
903	 0,181130495340474 
904	 0,181675956069086 
905	 0,182130048655642 
906	 0,181668465800354 
907	 0,181179221396697 
908	 0,182030825261936 
909	 0,18201554929432 
910	 0,181168985981527 
911	 0,18141150350512 
912	 0,181521515821133 
913	 0,181086836401229 
914	 0,181203814006453 
915	 0,18151702973716 
916	 0,181549997498874 
917	 0,18179912073867 
918	 0,182194720179885 
919	 0,18235436271185 
920	 0,182341584278166 
921	 0,182170694567356 
922	 0,181756231805969 
923	 0,181750022714307 
924	 0,182572070659792 
925	 0,182744516996507 
926	 0,182696158268305 
927	 0,183682763254856 
928	 0,183598221604171 
929	 0,182552214832941 
930	 0,183343499373758 
931	 0,183616713633875 
932	 0,182317150752779 
933	 0,182348143078336 
934	 0,182927166538134 
935	 0,182656405917749 
936	 0,182095127329898 
937	 0,181860767406749 
938	 0,183489483693235 
939	 0,184277339919569 
940	 0,18354407613967 
941	 0,183754423219652 
942	 0,184227103125781 
943	 0,184263928750656 
944	 0,184454079014338 
945	 0,18441345876419 
946	 0,183223818630649 
947	 0,183356022673328 
948	 0,184737664082305 
949	 0,184405929533933 
950	 0,183564115506248 
951	 0,182949474252787 
952	 0,182409782836718 
953	 0,182386914607432 
954	 0,183305087258138 
955	 0,183218046228576 
956	 0,182120598801837 
957	 0,18089116419513 
958	 0,181417319823172 
959	 0,183725930803676 
960	 0,184455704844638 
961	 0,184658297449451 
962	 0,185057760586182 
963	 0,18383375990212 
964	 0,182520202741717 
965	 0,183732702632643 
966	 0,184787029239052 
967	 0,184960472958832 
968	 0,184025205130165 
969	 0,184418598332489 
970	 0,186422665620991 
971	 0,185256635026733 
972	 0,184177261559158 
973	 0,186033763376703 
974	 0,185258024756134 
975	 0,18339048849559 
976	 0,184790680981229 
977	 0,185753209647277 
978	 0,185663735967894 
979	 0,186239502451537 
980	 0,185347364072884 
981	 0,182962777560286 
982	 0,185241767421157 
983	 0,188285083336067 
984	 0,187859819218874 
985	 0,18763758539089 
986	 0,188035516435169 
987	 0,188645546311378 
988	 0,188567262513393 
989	 0,18789919984532 
990	 0,187957846628586 
991	 0,188639433839572 
992	 0,18965659124532 
993	 0,189847632826844 
994	 0,189277980636731 
995	 0,18822785785904 
996	 0,18727325946345 
997	 0,187636243668784 
998	 0,19145397535902 
999	 0,192200790447949 
1000	 0,189715314829161 
1001	 0,190780440389423 
1002	 0,192114114765167 
1003	 0,192241126501775 
1004	 0,192838097936987 
1005	 0,192717966886422 
1006	 0,190916081435339 
1007	 0,190840092294093 
1008	 0,191691230902927 
1009	 0,190963137094576 
1010	 0,19052101879702 
1011	 0,190738564367878 
1012	 0,19092089119392 
1013	 0,193139567067117 
1014	 0,196805298254255 
1015	 0,194466351617172 
1016	 0,191218410684487 
1017	 0,19179038370634 
1018	 0,195351756561908 
1019	 0,197223021753205 
1020	 0,191073143460589 
1021	 0,189975732389428 
1022	 0,19445671059402 
1023	 0,196862231490041 
1024	 0,197363678196032 
1025	 0,196093140438659 
1026	 0,194688747144564 
1027	 0,19435940045944 
1028	 0,195390991100223 
1029	 0,193804756168365 
1030	 0,192009727112143 
1031	 0,193060407198171 
1032	 0,192892447514861 
1033	 0,192268787027777 
1034	 0,194289436568725 
1035	 0,194979139794209 
1036	 0,194365923514539 
1037	 0,196577863535104 
1038	 0,199232087501523 
1039	 0,200444840496047 
1040	 0,19665534763755 
1041	 0,192339673319539 
1042	 0,191950957891141 
1043	 0,198864334132464 
1044	 0,20705971067259 
1045	 0,207685376642873 
1046	 0,205276013574442 
1047	 0,203301438440353 
1048	 0,20780225582709 
1049	 0,20484885763583 
1050	 0,194262031405244 
1051	 0,191954940990331 
1052	 0,195407574395309 
1053	 0,201368382187263 
1054	 0,199663499708712 
1055	 0,196768744085625 
1056	 0,19872895403265 
1057	 0,201427264483085 
1058	 0,20314126507298 
1059	 0,202623089133125 
1060	 0,205112312227577 
1061	 0,210202887551897 
1062	 0,214894715970567 
1063	 0,218549963764458 
1064	 0,220430536559762 
1065	 0,220834989361165 
1066	 0,214211749707234 
1067	 0,202891503965901 
1068	 0,211959706955331 
1069	 0,221427677526583 
1070	 0,214967583400617 
1071	 0,19420554795642 
1072	 0,183738600287948 
1073	 0,209779781467968 
1074	 0,226864371948645 
1075	 0,229634135020333 
