Wavelength	NEUF00507.asd
325	 0,159225549683565 
326	 0,111830786357656 
327	 8,80940182989097E-02 
328	 0,106471743181221 
329	 8,55606533722621E-02 
330	 6,53924143362963E-02 
331	 8,32388927519936E-02 
332	 0,155783147942007 
333	 0,19100522927119 
334	 0,126922758389438 
335	 3,54420057870443E-02 
336	-4,02030227136098E-02 
337	 4,69561732106245E-02 
338	 0,131460756733804 
339	 7,07899958570463E-02 
340	 1,96658851113716E-02 
341	 6,61635855840679E-03 
342	 5,57196992724988E-02 
343	 8,46665212799584E-02 
344	 8,52897123485553E-02 
345	 7,34828103856824E-02 
346	 7,11118861655478E-02 
347	 9,35036139340253E-02 
348	 0,068480013669518 
349	 1,07976957802562E-02 
350	 1,8825077380976E-05 
351	 0,03494655174451 
352	 8,59231585376524E-02 
353	 1,42637078979142E-02 
354	-7,42864141462623E-02 
355	-3,59417412405644E-02 
356	 2,3999316919061E-03 
357	 1,93757571746343E-02 
358	 4,02532172732059E-02 
359	 0,048947209015851 
360	 4,21177972551619E-02 
361	 4,10827338712392E-02 
362	 4,01984943609827E-02 
363	 2,72287183526256E-02 
364	 2,54888241579695E-02 
365	 3,49770588517144E-02 
366	 3,81680861320906E-02 
367	 2,37389698735591E-02 
368	-1,18204557207839E-02 
369	-1,02872475451567E-02 
370	 1,05982996442503E-02 
371	 6,03453267343069E-03 
372	 1,02421288463439E-02 
373	 2,74336396195685E-02 
374	 4,10102313559522E-02 
375	 0,041057860484517 
376	 2,40736687699364E-02 
377	 0,037719683225027 
378	 6,38626781053977E-02 
379	 4,77559379228635E-02 
380	 0,035780039376381 
381	 4,04399425361727E-02 
382	 4,42310689458482E-02 
383	 4,31782829335143E-02 
384	 3,47531844346437E-02 
385	 3,43342107950354E-02 
386	 3,78743111371772E-02 
387	 2,51666357251323E-02 
388	 1,92885025926881E-02 
389	 0,026926063931982 
390	 0,029914204848739 
391	 2,48369796188673E-02 
392	 9,87686617965696E-03 
393	 8,3761995347901E-03 
394	 1,93719245569371E-02 
395	 2,46185071361225E-02 
396	 3,09898150894888E-02 
397	 3,90990881414348E-02 
398	 3,42891330010197E-02 
399	 2,34668481056739E-02 
400	 1,83852188557571E-02 
401	 1,59866054312447E-02 
402	 1,71756638435702E-02 
403	 2,86881097792249E-02 
404	 3,34017006985048E-02 
405	 2,14427509175181E-02 
406	 1,77159644476686E-02 
407	 2,01195084032878E-02 
408	 1,66401730660106E-02 
409	 1,71115291742482E-02 
410	 2,13192780984147E-02 
411	 1,58539996401566E-02 
412	 8,90209455651732E-03 
413	 8,47625982161756E-03 
414	 7,9276763059467E-03 
415	 7,60503856008171E-03 
416	 1,09297013417918E-02 
417	 1,76918919432408E-02 
418	 2,54926919406873E-02 
419	 2,18081792460251E-02 
420	 1,46102849020139E-02 
421	 1,48537274879009E-02 
422	 1,40971397524574E-02 
423	 1,17798393332952E-02 
424	 1,14284419699314E-02 
425	 1,41754230688249E-02 
426	 1,99540020194235E-02 
427	 2,29122615095682E-02 
428	 2,31995554728689E-02 
429	 0,022643582560275 
430	 2,18215480003245E-02 
431	 2,05900656838652E-02 
432	 1,65960289708974E-02 
433	 0,013183805217901 
434	 1,33613110734801E-02 
435	 1,54063603915494E-02 
436	 1,75464700594925E-02 
437	 1,59289520626185E-02 
438	 1,70541012257042E-02 
439	 2,14761797109011E-02 
440	 1,60687161470247E-02 
441	 8,55156919976255E-03 
442	 1,00130628988706E-02 
443	 9,18721885647802E-03 
444	 6,68926663264775E-03 
445	 1,37833266988123E-02 
446	 2,07320563421629E-02 
447	 0,021719354090155 
448	 2,24159721278951E-02 
449	 2,26865077673077E-02 
450	 2,07000918189643E-02 
451	 1,99862596215914E-02 
452	 2,06469469917244E-02 
453	 0,017197124125774 
454	 1,49451111745373E-02 
455	 1,86697430419311E-02 
456	 1,92478421884662E-02 
457	 1,69594193548467E-02 
458	 1,73643082478268E-02 
459	 1,77331676611648E-02 
460	 1,72334876725831E-02 
461	 1,77151987348858E-02 
462	 1,81096784545668E-02 
463	 1,67916026659382E-02 
464	 1,63741604383307E-02 
465	 1,77185949237114E-02 
466	 2,21946204822225E-02 
467	 2,25511774299003E-02 
468	 1,51516052071976E-02 
469	 1,30014452905661E-02 
470	 0,015097485184236 
471	 0,015357436194844 
472	 1,57338294324205E-02 
473	 1,65008722188993E-02 
474	 1,73619689259355E-02 
475	 1,67820146180469E-02 
476	 1,35965837404425E-02 
477	 1,58103381282697E-02 
478	 2,09563884590504E-02 
479	 1,75932259891872E-02 
480	 1,48308366912668E-02 
481	 1,66249524578367E-02 
482	 1,91164322883036E-02 
483	 1,95696269512303E-02 
484	 1,44545896623652E-02 
485	 1,46310182436058E-02 
486	 2,01559812384106E-02 
487	 1,94342422361828E-02 
488	 1,71188326880024E-02 
489	 1,68608692181032E-02 
490	 1,70189834204957E-02 
491	 1,73938977440692E-02 
492	 1,81987003818008E-02 
493	 1,79595445083401E-02 
494	 1,66835477306434E-02 
495	 1,75558542401276E-02 
496	 1,85821663927235E-02 
497	 1,73237333208409E-02 
498	 1,78444974256597E-02 
499	 1,95741187328222E-02 
500	 1,79183909891822E-02 
501	 1,61964741327985E-02 
502	 1,62844213972546E-02 
503	 1,70095453411338E-02 
504	 1,77510983290272E-02 
505	 0,017722906008483 
506	 1,77819992496144E-02 
507	 1,79733461868089E-02 
508	 1,73001270955638E-02 
509	 1,67393694214034E-02 
510	 1,71647029870636E-02 
511	 1,76428994548188E-02 
512	 1,78272446215023E-02 
513	 1,72357422034151E-02 
514	 1,70123339352171E-02 
515	 1,76614231772921E-02 
516	 1,89001824714217E-02 
517	 1,97550191064469E-02 
518	 1,89561461962126E-02 
519	 1,87100882747564E-02 
520	 1,91752489423442E-02 
521	 0,018534117848495 
522	 1,82048196714168E-02 
523	 0,019073428287262 
524	 1,88657905222119E-02 
525	 1,81203503624276E-02 
526	 1,89478651701162E-02 
527	 1,93191070681143E-02 
528	 1,87945230943419E-02 
529	 0,019109140203535 
530	 0,019142216138128 
531	 1,75274667950724E-02 
532	 0,017486507908939 
533	 1,88008012475242E-02 
534	 1,82840476683795E-02 
535	 1,80547212576496E-02 
536	 1,91403187390842E-02 
537	 1,92398604214671E-02 
538	 1,85418038551607E-02 
539	 1,78428653695855E-02 
540	 1,82158231077664E-02 
541	 1,94169520384671E-02 
542	 1,84401134325381E-02 
543	 1,74128690740569E-02 
544	 1,84493928176962E-02 
545	 1,89281234842998E-02 
546	 1,86410403612892E-02 
547	 0,018565954801286 
548	 1,84235291108145E-02 
549	 1,81647169008099E-02 
550	 0,01818778684697 
551	 1,84499331565645E-02 
552	 1,88234467659239E-02 
553	 1,90937506230188E-02 
554	 1,91856807303788E-02 
555	 1,91564430276219E-02 
556	 1,90629657880978E-02 
557	 1,89843242065196E-02 
558	 1,94581827130554E-02 
559	 1,98485366682233E-02 
560	 1,81355226415157E-02 
561	 1,73377626320675E-02 
562	 1,84005411105414E-02 
563	 1,88963395940741E-02 
564	 1,86261822075958E-02 
565	 1,76357221171102E-02 
566	 1,79285339862874E-02 
567	 0,019282890820489 
568	 1,88801308440798E-02 
569	 1,84580974744535E-02 
570	 1,91450528304552E-02 
571	 1,93506873019168E-02 
572	 0,019214543559395 
573	 1,95795106214042E-02 
574	 1,98736186647327E-02 
575	 1,99360884745898E-02 
576	 1,99411426643421E-02 
577	 0,020096705918053 
578	 2,06119906407513E-02 
579	 2,12033037368735E-02 
580	 2,16858386439429E-02 
581	 2,17304808555099E-02 
582	 2,18346395077148E-02 
583	 2,22500036968799E-02 
584	 2,25285529715762E-02 
585	 2,26169178090086E-02 
586	 2,25297023492606E-02 
587	 2,23671997146305E-02 
588	 2,22715622740044E-02 
589	 2,26335948789208E-02 
590	 2,30136085409629E-02 
591	 2,30103429713513E-02 
592	 2,32097834262775E-02 
593	 2,35941802462657E-02 
594	 2,38154086606654E-02 
595	 0,024004909133663 
596	 2,41353448358438E-02 
597	 2,36810081583404E-02 
598	 2,31042008661425E-02 
599	 2,31551075712028E-02 
600	 2,33183761916052E-02 
601	 2,34099105712981E-02 
602	 2,33004593526992E-02 
603	 2,32009679929439E-02 
604	 2,32687708368318E-02 
605	 0,023270216178127 
606	 2,31936016577815E-02 
607	 2,30864499434732E-02 
608	 2,31140073767079E-02 
609	 2,32561698909156E-02 
610	 2,29980761613173E-02 
611	 2,26215954042317E-02 
612	 2,25243161556378E-02 
613	 2,20956398802223E-02 
614	 2,15222612772439E-02 
615	 0,021939628791021 
616	 2,22293702310542E-02 
617	 2,17298247982721E-02 
618	 2,13628238229291E-02 
619	 2,13414770819223E-02 
620	 2,18814442309474E-02 
621	 2,18954408763912E-02 
622	 2,12108743184518E-02 
623	 2,09422042914896E-02 
624	 2,10050699700026E-02 
625	 2,12440377747533E-02 
626	 2,18803050500218E-02 
627	 0,022560675912346 
628	 2,21862261516717E-02 
629	 2,18789872611082E-02 
630	 0,022142662166538 
631	 2,19858700036921E-02 
632	 2,18205993497242E-02 
633	 0,022489405300955 
634	 2,30681432450781E-02 
635	 2,34252045177941E-02 
636	 2,43247657348114E-02 
637	 2,48997579058859E-02 
638	 2,44864172798036E-02 
639	 2,45508169231752E-02 
640	 2,51057051269902E-02 
641	 2,55586283319069E-02 
642	 2,54709909340778E-02 
643	 2,48408190964527E-02 
644	 2,49717855403101E-02 
645	 0,025502491067177 
646	 0,025801384958791 
647	 2,59077031027052E-02 
648	 2,58666468134226E-02 
649	 2,58766543993472E-02 
650	 0,02589171408122 
651	 2,58904338585733E-02 
652	 2,60520788045316E-02 
653	 2,60088979613317E-02 
654	 2,49526040605811E-02 
655	 2,39299890973099E-02 
656	 2,33728566868985E-02 
657	 2,33787813678657E-02 
658	 2,33360832571879E-02 
659	 2,26384684735694E-02 
660	 2,22831768020245E-02 
661	 2,22829636233653E-02 
662	 2,20755180345776E-02 
663	 2,16087187490305E-02 
664	 2,09863486284289E-02 
665	 0,021218258563702 
666	 2,17109321168855E-02 
667	 2,13692886498752E-02 
668	 2,10089538801518E-02 
669	 2,08589970828104E-02 
670	 2,09119502142617E-02 
671	 2,08122524938185E-02 
672	 2,03113801030015E-02 
673	 1,99591368132668E-02 
674	 0,019877708767295 
675	 2,01464278809986E-02 
676	 2,02555672749989E-02 
677	 2,00771817914554E-02 
678	 2,01680348500905E-02 
679	 2,03390633139177E-02 
680	 2,03159162181548E-02 
681	 0,020253381477809 
682	 2,02877658972562E-02 
683	 2,07253574323122E-02 
684	 2,11769543380025E-02 
685	 2,14410528086108E-02 
686	 0,021913500487623 
687	 2,25299317570506E-02 
688	 2,30958930217754E-02 
689	 2,35570605436192E-02 
690	 2,39859100521232E-02 
691	 2,46199521205883E-02 
692	 2,59310788867999E-02 
693	 2,82368057772402E-02 
694	 3,00292691341065E-02 
695	 3,15904495764405E-02 
696	 3,42987142182342E-02 
697	 3,78298916852709E-02 
698	 4,19447104810346E-02 
699	 4,58901378223335E-02 
700	 4,99838072527935E-02 
701	 5,47059536672931E-02 
702	 5,99548321373715E-02 
703	 6,55886860974288E-02 
704	 7,11938670583572E-02 
705	 7,71494311494964E-02 
706	 8,35495211915636E-02 
707	 8,91671611619116E-02 
708	 9,43413290266678E-02 
709	 0,100027593667139 
710	 0,105554653180365 
711	 0,110826304501844 
712	 0,116395891961539 
713	 0,121630347555893 
714	 0,125979044712998 
715	 0,130404847296077 
716	 0,134970814367182 
717	 0,139409939359514 
718	 0,143388450753657 
719	 0,146808958917928 
720	 0,150108989876875 
721	 0,153307886384013 
722	 0,156380249722931 
723	 0,159283110051338 
724	 0,161920438308045 
725	 0,16397988511722 
726	 0,166093052924452 
727	 0,168536077242715 
728	 0,170128136008994 
729	 0,171296199971947 
730	 0,173085732793673 
731	 0,174650233038601 
732	 0,175850355614362 
733	 0,177205423851077 
734	 0,178524392224703 
735	 0,179622602186181 
736	 0,18050604095883 
737	 0,18132800879888 
738	 0,182536438975401 
739	 0,183243294206249 
740	 0,183374505592313 
741	 0,18459028305376 
742	 0,185937841004944 
743	 0,186188565443265 
744	 0,186391392248951 
745	 0,186709236700876 
746	 0,186791358118897 
747	 0,187206062989689 
748	 0,188160677804224 
749	 0,188812181769398 
750	 0,189169962225854 
751	 0,189410922196557 
752	 0,189806982629242 
753	 0,190344749550217 
754	 0,190615581206502 
755	 0,190841128437744 
756	 0,191179024874786 
757	 0,191446866212272 
758	 0,19174652734751 
759	 0,192376213134964 
760	 0,192668496748173 
761	 0,192566653823365 
762	 0,192907579785189 
763	 0,19343827251531 
764	 0,193869820532652 
765	 0,194149155904679 
766	 0,194277315008366 
767	 0,194307086829749 
768	 0,194293430504918 
769	 0,194312414574097 
770	 0,194530171857239 
771	 0,194941447792783 
772	 0,195511593603321 
773	 0,195929946177563 
774	 0,196114485873699 
775	 0,196069214496104 
776	 0,196106456133151 
777	 0,196386212262059 
778	 0,196725337149615 
779	 0,196932136839949 
780	 0,196760366419645 
781	 0,196926621475489 
782	 0,197430957853638 
783	 0,197536093520936 
784	 0,19757029967303 
785	 0,197718906668228 
786	 0,197586804424671 
787	 0,197423400257146 
788	 0,197735565444185 
789	 0,198344887066217 
790	 0,198987830132252 
791	 0,198898039890728 
792	 0,19860218000212 
793	 0,1985543104169 
794	 0,19860473156975 
795	 0,198819528268716 
796	 0,199422756498371 
797	 0,199635021463216 
798	 0,199364822544942 
799	 0,199581410418969 
800	 0,200016971055296 
801	 0,200340819072671 
802	 0,200112737285566 
803	 0,199690756999848 
804	 0,200196371993909 
805	 0,200747879617783 
806	 0,201065198642867 
807	 0,201496286322013 
808	 0,202019401079915 
809	 0,202557008661355 
810	 0,202303229246798 
811	 0,201718228777376 
812	 0,202560471661145 
813	 0,20331802986716 
814	 0,203363496363879 
815	 0,203083629705842 
816	 0,202965757626282 
817	 0,203526741532351 
818	 0,204153896035149 
819	 0,204520448337152 
820	 0,20407091703732 
821	 0,203953451556643 
822	 0,204617612645795 
823	 0,204947168850162 
824	 0,205214427629697 
825	 0,205898940083545 
826	 0,20599323851828 
827	 0,205695887194458 
828	 0,206456654599106 
829	 0,207016211801997 
830	 0,206780962524426 
831	 0,206431704561304 
832	 0,206484896560449 
833	 0,207509136516611 
834	 0,207775695911574 
835	 0,207245721739211 
836	 0,207307155529058 
837	 0,207603559571714 
838	 0,207937690162514 
839	 0,208284797429101 
840	 0,208361322836034 
841	 0,207799497411071 
842	 0,208250389214205 
843	 0,209476405276422 
844	 0,209219467769092 
845	 0,208960966688096 
846	 0,209387712646719 
847	 0,209169792274994 
848	 0,208929166156269 
849	 0,209714635859378 
850	 0,21004241611968 
851	 0,209818775285558 
852	 0,210046587182293 
853	 0,210306581269632 
854	 0,210395116521803 
855	 0,210491675533085 
856	 0,210651695474148 
857	 0,21092326975692 
858	 0,210954540725831 
859	 0,21081280130003 
860	 0,211032095574062 
861	 0,211115182070533 
862	 0,210892508651639 
863	 0,211010346445438 
864	 0,211384585811732 
865	 0,21180743710382 
866	 0,211942928986368 
867	 0,21186464671635 
868	 0,212086865788084 
869	 0,212306341232336 
870	 0,212411807076235 
871	 0,212633106577835 
872	 0,212879295213096 
873	 0,213026857051997 
874	 0,213424826664197 
875	 0,213978785014623 
876	 0,214239686402844 
877	 0,214296708237503 
878	 0,214261054927486 
879	 0,214541555404448 
880	 0,214948775216023 
881	 0,215239702187354 
882	 0,215389220944296 
883	 0,215583801655523 
884	 0,216441200714087 
885	 0,216700573337571 
886	 0,216158938350267 
887	 0,216319543632395 
888	 0,216902099055566 
889	 0,217488615903188 
890	 0,217231786844634 
891	 0,21673498479263 
892	 0,217706900728445 
893	 0,218320317323959 
894	 0,21819724397536 
895	 0,21852067121984 
896	 0,218803787619574 
897	 0,218675716369293 
898	 0,21863211233451 
899	 0,218695723573051 
900	 0,218772190220297 
901	 0,218618126881615 
902	 0,218529831589498 
903	 0,220014675469444 
904	 0,220699046131281 
905	 0,219480375089532 
906	 0,220103935399291 
907	 0,221286352031149 
908	 0,220586713902261 
909	 0,220262341229288 
910	 0,220622330138893 
911	 0,220962569308375 
912	 0,220726229429678 
913	 0,219802891917975 
914	 0,21914290430291 
915	 0,219650620011874 
916	 0,222012805762593 
917	 0,222727434376004 
918	 0,2220071270149 
919	 0,222383318132629 
920	 0,22265950425218 
921	 0,222468475297489 
922	 0,221754235564148 
923	 0,22145292242701 
924	 0,222170468409122 
925	 0,221857081788528 
926	 0,220775091350117 
927	 0,219937618389105 
928	 0,220413010385184 
929	 0,221779096406085 
930	 0,221294299491094 
931	 0,220273870116129 
932	 0,219592570122533 
933	 0,219393766369235 
934	 0,21958347809484 
935	 0,219957355561988 
936	 0,219419572691333 
937	 0,218510252780732 
938	 0,219542849083676 
939	 0,220255926991783 
940	 0,219790395539526 
941	 0,218654271459333 
942	 0,217471401282919 
943	 0,216811309039475 
944	 0,216845400796271 
945	 0,216709826564888 
946	 0,214722919142608 
947	 0,214092208968275 
948	 0,215005425522548 
949	 0,214721422532586 
950	 0,213347622617684 
951	 0,211166560567371 
952	 0,2095225960151 
953	 0,208688721429925 
954	 0,208724133841927 
955	 0,208604042695362 
956	 0,208168697543395 
957	 0,207747761826214 
958	 0,207035299966992 
959	 0,206086747802249 
960	 0,205516566993089 
961	 0,205290274833563 
962	 0,205322079547125 
963	 0,205364600459555 
964	 0,205169687494829 
965	 0,204455064225825 
966	 0,204462817820165 
967	 0,204951409075996 
968	 0,204026701451895 
969	 0,203924015981424 
970	 0,20510341242773 
971	 0,204596321658199 
972	 0,203763727750444 
973	 0,203947538036314 
974	 0,203827800264199 
975	 0,203519055584256 
976	 0,203566518471377 
977	 0,204119420376408 
978	 0,205033126347362 
979	 0,205786281350203 
980	 0,205639441348401 
981	 0,204659632774344 
982	 0,205440706355698 
983	 0,206958445904782 
984	 0,207903319481874 
985	 0,207986072196258 
986	 0,207589297860122 
987	 0,207637543358663 
988	 0,207236652689722 
989	 0,206630128128243 
990	 0,207515489715757 
991	 0,208359112238486 
992	 0,208475189861732 
993	 0,209216953392556 
994	 0,209729948170441 
995	 0,209170391401166 
996	 0,209769457990097 
997	 0,21097953894411 
998	 0,2109598037452 
999	 0,210912794062075 
1000	 0,211592741809382 
1001	 0,214804788170831 
1002	 0,215433589387486 
1003	 0,212197033876285 
1004	 0,21406100195783 
1005	 0,216899510203309 
1006	 0,21635664075408 
1007	 0,217375247855396 
1008	 0,218490443863903 
1009	 0,215731239211411 
1010	 0,215969667223147 
1011	 0,219211564346501 
1012	 0,219164983966278 
1013	 0,218611094445222 
1014	 0,218925823499238 
1015	 0,220881250852247 
1016	 0,222404676850779 
1017	 0,221872912009303 
1018	 0,221605403964821 
1019	 0,221727767482606 
1020	 0,221909759562368 
1021	 0,224071666901009 
1022	 0,227203491857511 
1023	 0,227609192853803 
1024	 0,225212119477647 
1025	 0,221783708512135 
1026	 0,225086768248244 
1027	 0,227819465229727 
1028	 0,225604798952094 
1029	 0,224795692649011 
1030	 0,224918715089173 
1031	 0,224660399277455 
1032	 0,224341809762396 
1033	 0,224967616425064 
1034	 0,228575175423964 
1035	 0,226855724846555 
1036	 0,221815511504499 
1037	 0,22916755159984 
1038	 0,235447538342832 
1039	 0,234881858723789 
1040	 0,232346051813019 
1041	 0,231283508912022 
1042	 0,233880642629002 
1043	 0,235446748248333 
1044	 0,236141361784941 
1045	 0,23711910288475 
1046	 0,239730525099905 
1047	 0,242679698918306 
1048	 0,242606047667428 
1049	 0,240446705599777 
1050	 0,237116877568419 
1051	 0,234250976078228 
1052	 0,234012461681617 
1053	 0,237112637138944 
1054	 0,241070142922628 
1055	 0,242735866137832 
1056	 0,240038391413265 
1057	 0,239408305694419 
1058	 0,237515457496241 
1059	 0,229044496091028 
1060	 0,232013586966752 
1061	 0,242777540449831 
1062	 0,245419781614992 
1063	 0,242094182308987 
1064	 0,236402508369411 
1065	 0,240251906536351 
1066	 0,241095866189658 
1067	 0,236005388697061 
1068	 0,242918481391549 
1069	 0,245162047354083 
1070	 0,233440587265365 
1071	 0,240980928819232 
1072	 0,250771593037127 
1073	 0,239850491073204 
1074	 0,246289030850121 
1075	 0,261059895573891 
