Wavelength	NEUF00535.asd
325	 2,43459254909637E-02 
326	-7,80285396214958E-02 
327	-0,130289474860489 
328	-0,082105473781624 
329	 5,02970386319314E-02 
330	 0,150489934380155 
331	 0,102315397020313 
332	 0,126987842284464 
333	 0,164343371129756 
334	 3,21215536796773E-02 
335	 3,48137932182165E-02 
336	 0,208056132940835 
337	 4,53463353615969E-02 
338	-0,161337737474533 
339	-0,126650821685819 
340	-4,05799600027584E-02 
341	 4,62847808888647E-02 
342	 5,85810687579792E-02 
343	 5,79517136437258E-02 
344	 0,059364176291616 
345	 3,21354692836869E-02 
346	 1,06399319081314E-02 
347	 0,024531275474159 
348	 2,88779247962921E-02 
349	 1,80882743639016E-02 
350	-1,00803335407394E-02 
351	 0,028587840828632 
352	 0,123682151676474 
353	 7,99167325867022E-02 
354	-1,14580885200645E-02 
355	-0,019697739923332 
356	-1,06731396717552E-05 
357	 2,23756794788049E-02 
358	 1,51821607290408E-02 
359	-1,10649312307207E-03 
360	-1,23473779831475E-02 
361	 0,03050556748732 
362	 6,70473934099777E-02 
363	 1,57650059011465E-02 
364	 9,13037750486702E-03 
365	 5,40503477108143E-02 
366	 0,058904601210563 
367	 4,04943693651246E-02 
368	 1,04201094392005E-02 
369	 2,01022685913342E-03 
370	 1,39576099142974E-02 
371	 0,033668254935307 
372	 3,89438850719813E-02 
373	 2,91851096559732E-02 
374	 3,86153818724832E-02 
375	 3,52642281239779E-02 
376	-2,74278795781043E-04 
377	 3,39160866250212E-03 
378	 0,035090021099532 
379	 4,99660158427318E-02 
380	 0,051778689723524 
381	 4,55113676744198E-02 
382	 5,74108341554452E-02 
383	 6,47187298601516E-02 
384	 4,60528414267076E-02 
385	 2,77392887014727E-02 
386	 1,83310451461552E-02 
387	 0,019823453829555 
388	 3,19621258190715E-02 
389	 4,75068935377988E-02 
390	 3,69585218707854E-02 
391	 1,92371871586089E-02 
392	 1,98379995226957E-02 
393	 3,61404830979287E-02 
394	 5,32890407076827E-02 
395	 2,85574452465435E-02 
396	 1,36619579038554E-02 
397	 3,17548860425821E-02 
398	 3,65196616692305E-02 
399	 2,90837728168528E-02 
400	 1,74180954109358E-02 
401	 1,43363035594675E-02 
402	 2,17425553659118E-02 
403	 0,03323090095346 
404	 0,039463045445105 
405	 3,45002848329811E-02 
406	 2,64677924238138E-02 
407	 1,77113291253697E-02 
408	 8,45238057961666E-03 
409	 1,00709330345251E-02 
410	 0,021198484875608 
411	 0,019891167654261 
412	 1,55782894773452E-02 
413	 1,80136244761708E-02 
414	 2,32410094976301E-02 
415	 2,72496853437499E-02 
416	 2,12169951688478E-02 
417	 1,92439416688291E-02 
418	 2,47631280008482E-02 
419	 0,019247948582501 
420	 1,30725963324086E-02 
421	 2,07381070738291E-02 
422	 2,14511506199025E-02 
423	 1,50416710764653E-02 
424	 1,68982532397272E-02 
425	 1,94702455132882E-02 
426	 1,83496634481713E-02 
427	 1,77273971023397E-02 
428	 1,77263505411927E-02 
429	 0,017293524031436 
430	 2,02598203776352E-02 
431	 2,53779057837951E-02 
432	 2,29635931589675E-02 
433	 0,018543625994414 
434	 1,74239298623625E-02 
435	 1,81834239118987E-02 
436	 1,94142603133973E-02 
437	 1,75670344725869E-02 
438	 1,88871345957743E-02 
439	 2,41903212084881E-02 
440	 2,29080249508563E-02 
441	 1,87645252114467E-02 
442	 1,76461482895619E-02 
443	 1,59007628412131E-02 
444	 1,42378151029272E-02 
445	 1,73934745770064E-02 
446	 2,11150063792933E-02 
447	 2,27005573575619E-02 
448	 2,36149792927431E-02 
449	 2,37539553639839E-02 
450	 2,23292954531015E-02 
451	 2,35963718321351E-02 
452	 2,69886792966082E-02 
453	 2,36639764564328E-02 
454	 1,95114194832175E-02 
455	 2,02913436516245E-02 
456	 0,020379049352972 
457	 1,99181694128897E-02 
458	 2,24707256995886E-02 
459	 2,32695464075058E-02 
460	 2,10484783028774E-02 
461	 2,17424803817709E-02 
462	 2,29050318419292E-02 
463	 2,05525434725364E-02 
464	 1,91087776559778E-02 
465	 1,97056638603275E-02 
466	 2,28428101314255E-02 
467	 0,022658305699878 
468	 1,63868242405946E-02 
469	 1,61228660397627E-02 
470	 2,03668076352638E-02 
471	 2,28462581560635E-02 
472	 2,26237649872795E-02 
473	 1,99687904296296E-02 
474	 1,91203115867809E-02 
475	 0,01841150680593 
476	 1,61388721867118E-02 
477	 1,70459277532136E-02 
478	 2,03608875520697E-02 
479	 0,022062403767677 
480	 2,03806557871653E-02 
481	 1,57876277477747E-02 
482	 1,85086179275634E-02 
483	 2,25020307183869E-02 
484	 1,72525281629152E-02 
485	 1,61429263017243E-02 
486	 2,05607413241215E-02 
487	 2,17192102518235E-02 
488	 2,09387805808239E-02 
489	 1,94873278787695E-02 
490	 1,89575315176136E-02 
491	 1,92673396816464E-02 
492	 1,94523429513357E-02 
493	 1,96716020566121E-02 
494	 0,019968317574722 
495	 2,09369814347604E-02 
496	 2,05251983763274E-02 
497	 1,65344070759416E-02 
498	 1,75202161340381E-02 
499	 2,21838870945252E-02 
500	 2,02103909628468E-02 
501	 1,87300088686905E-02 
502	 2,12305582544777E-02 
503	 2,14135215001394E-02 
504	 2,03678065657259E-02 
505	 2,13843729672789E-02 
506	 2,22154009893735E-02 
507	 2,21580946047415E-02 
508	 2,11557297372741E-02 
509	 2,00287999980586E-02 
510	 1,95864277263325E-02 
511	 2,07404219622718E-02 
512	 2,24679059796439E-02 
513	 2,16856470905581E-02 
514	 2,11780351970357E-02 
515	 2,19223319947884E-02 
516	 2,19629406838261E-02 
517	 2,14237916483654E-02 
518	 2,07090863981307E-02 
519	 2,08057729136195E-02 
520	 2,14651706116225E-02 
521	 2,06569140659192E-02 
522	 2,01474665869635E-02 
523	 2,10548575477959E-02 
524	 2,06481247721344E-02 
525	 1,96763654768158E-02 
526	 0,020815687815558 
527	 0,021934459340914 
528	 2,22401490475406E-02 
529	 2,17871366701101E-02 
530	 0,021130472411208 
531	 2,08925805545524E-02 
532	 2,10861291198641E-02 
533	 2,12953990944918E-02 
534	 1,99739975366087E-02 
535	 1,96718598087341E-02 
536	 0,021607372311606 
537	 2,25612035735454E-02 
538	 2,24028524851782E-02 
539	 2,17093690690695E-02 
540	 2,13597271957211E-02 
541	 2,14759998847423E-02 
542	 2,08309844864323E-02 
543	 2,04086717259059E-02 
544	 2,11406844439038E-02 
545	 2,10826483911238E-02 
546	 2,03439452132751E-02 
547	 2,02838932125595E-02 
548	 2,07372803033724E-02 
549	 2,15191065998844E-02 
550	 2,17579673970263E-02 
551	 0,021748104083985 
552	 2,21403514755386E-02 
553	 2,20653322434658E-02 
554	 2,15816951174223E-02 
555	 2,19961016036107E-02 
556	 2,21056397907828E-02 
557	 2,10093767347649E-02 
558	 2,08214195007251E-02 
559	 2,12642200855436E-02 
560	 2,05757630189129E-02 
561	 2,03058647131795E-02 
562	 2,08443942336878E-02 
563	 2,05713361038168E-02 
564	 2,01783134878323E-02 
565	 2,07497905128959E-02 
566	 2,12870938627735E-02 
567	 2,14491098624454E-02 
568	 2,09934110743243E-02 
569	 2,06024547173701E-02 
570	 2,07617203478538E-02 
571	 2,11324166667249E-02 
572	 2,15421549372969E-02 
573	 2,17824227768882E-02 
574	 2,17889310262404E-02 
575	 2,16337447616714E-02 
576	 2,17649479802514E-02 
577	 2,22784618439853E-02 
578	 2,32091153512637E-02 
579	 2,33388250227343E-02 
580	 2,29276026439565E-02 
581	 2,37433291673942E-02 
582	 2,46486032495897E-02 
583	 2,49367111493738E-02 
584	 0,024491874820557 
585	 2,38382391588064E-02 
586	 2,38978490537874E-02 
587	 2,39862432198549E-02 
588	 2,40568858662276E-02 
589	 2,48883369528136E-02 
590	 0,025514388230258 
591	 2,50591618180562E-02 
592	 2,47473375631656E-02 
593	 2,46192969970676E-02 
594	 2,38680030273567E-02 
595	 2,40485738409896E-02 
596	 2,55898946150312E-02 
597	 2,61097875171764E-02 
598	 2,59215630666033E-02 
599	 2,59163396550176E-02 
600	 2,55168250489672E-02 
601	 2,48521481857763E-02 
602	 2,48520801145819E-02 
603	 2,50606917052196E-02 
604	 2,50902218237844E-02 
605	 2,50306038696442E-02 
606	 2,48623612918605E-02 
607	 2,44941270564164E-02 
608	 2,42693638583153E-02 
609	 2,42473125232578E-02 
610	 2,38797489636792E-02 
611	 2,34710949206071E-02 
612	 2,34458844091578E-02 
613	 2,32165801028338E-02 
614	 2,29925926001603E-02 
615	 2,40620199465314E-02 
616	 2,47073756659578E-02 
617	 0,023901183726393 
618	 2,30495749294619E-02 
619	 2,25491997528245E-02 
620	 2,27439402247812E-02 
621	 2,28898269286568E-02 
622	 2,27323945347812E-02 
623	 2,23992649228947E-02 
624	 2,22948640348778E-02 
625	 2,27944778081362E-02 
626	 2,30579176424744E-02 
627	 0,022987965992516 
628	 2,28335014750447E-02 
629	 2,29297927815716E-02 
630	 2,33938157537574E-02 
631	 2,35910291136971E-02 
632	 2,36449287184557E-02 
633	 2,38884697938257E-02 
634	 2,40528824394659E-02 
635	 2,41469628477216E-02 
636	 2,44852955874984E-02 
637	 2,49585234993086E-02 
638	 2,54372324598373E-02 
639	 0,025625945798824 
640	 2,55458973338402E-02 
641	 2,53231479760687E-02 
642	 2,54816993165672E-02 
643	 2,61025793046154E-02 
644	 2,61411383283779E-02 
645	 2,59983502004068E-02 
646	 2,63178007411704E-02 
647	 2,66399826887146E-02 
648	 2,67884299994575E-02 
649	 2,65493052251682E-02 
650	 2,63971780640858E-02 
651	 2,65956903773895E-02 
652	 2,64498779961537E-02 
653	 2,59709218494879E-02 
654	 2,53774982998896E-02 
655	 2,48407509820441E-02 
656	 2,44545618284661E-02 
657	 2,42381901457712E-02 
658	 0,023991536922035 
659	 2,35139328661461E-02 
660	 0,02296837089249 
661	 0,02256086906538 
662	 2,28042750824734E-02 
663	 2,28365311685634E-02 
664	 2,23355474074803E-02 
665	 2,25295328820741E-02 
666	 2,27222779508889E-02 
667	 2,15895891946427E-02 
668	 2,10911239612526E-02 
669	 2,14700384096085E-02 
670	 2,12891677126591E-02 
671	 2,10389632630693E-02 
672	 2,10939755752719E-02 
673	 2,07000723543823E-02 
674	 2,02066297240398E-02 
675	 2,07533660960535E-02 
676	 2,13455228700438E-02 
677	 2,15622900100932E-02 
678	 2,13197550989609E-02 
679	 0,021082970283171 
680	 2,14001225678992E-02 
681	 2,12496618981673E-02 
682	 2,08555563238204E-02 
683	 0,021720100888949 
684	 2,26121061060609E-02 
685	 2,28019023059386E-02 
686	 2,27179501457367E-02 
687	 2,27497509830725E-02 
688	 2,34457450760433E-02 
689	 2,45231033029559E-02 
690	 2,56888912667351E-02 
691	 2,60939872910108E-02 
692	 2,65990857666677E-02 
693	 2,80154296042988E-02 
694	 3,01083956971281E-02 
695	 3,27555409453082E-02 
696	 3,57900546596622E-02 
697	 3,88086547267003E-02 
698	 4,17831610035338E-02 
699	 4,57037700893617E-02 
700	 5,02215245682378E-02 
701	 5,47409433935767E-02 
702	 5,97731463602524E-02 
703	 6,53181922894795E-02 
704	 7,09572066102979E-02 
705	 7,70196625420482E-02 
706	 8,35354752581376E-02 
707	 0,089073257234725 
708	 0,094028538430596 
709	 9,94899306825847E-02 
710	 0,105091427359877 
711	 0,110643391682395 
712	 0,115757817065746 
713	 0,120597624095305 
714	 0,125341709505086 
715	 0,130024035801257 
716	 0,134590060523718 
717	 0,138947958135143 
718	 0,142898379002194 
719	 0,146405031605245 
720	 0,149825351809283 
721	 0,153077342425642 
722	 0,156021017501516 
723	 0,158918684983255 
724	 0,161792121846259 
725	 0,164534204330709 
726	 0,166883089138797 
727	 0,168677739264372 
728	 0,170075437122163 
729	 0,171459609360389 
730	 0,173465137629643 
731	 0,175006332791596 
732	 0,175989074337372 
733	 0,177565262498353 
734	 0,179154007499208 
735	 0,180226524302981 
736	 0,181189094423265 
737	 0,182088251523939 
738	 0,182812640323049 
739	 0,183684497779335 
740	 0,184761458224537 
741	 0,185572337375891 
742	 0,18632885530275 
743	 0,187306249097506 
744	 0,18752977474885 
745	 0,187254945015348 
746	 0,187890813282715 
747	 0,188786993964187 
748	 0,189583389976646 
749	 0,190333357992951 
750	 0,190913560372609 
751	 0,191129669064171 
752	 0,191743182835643 
753	 0,192667860324322 
754	 0,192712161393941 
755	 0,192694187317913 
756	 0,193195702351133 
757	 0,193622164268718 
758	 0,193971576043361 
759	 0,194442715351081 
760	 0,194754930585051 
761	 0,194875863416926 
762	 0,195090238572249 
763	 0,195411999752444 
764	 0,195838227789401 
765	 0,196352122735424 
766	 0,196878886539984 
767	 0,197312192851569 
768	 0,197427713413903 
769	 0,197248491904253 
770	 0,19743352021666 
771	 0,197872864370209 
772	 0,198360555461647 
773	 0,198833773181682 
774	 0,199240925151001 
775	 0,199560925377624 
776	 0,199718348083413 
777	 0,199704108277301 
778	 0,199670613380403 
779	 0,199877217820142 
780	 0,200668358350274 
781	 0,200980685137592 
782	 0,200752770706241 
783	 0,200906992603824 
784	 0,201083756866958 
785	 0,201076136158424 
786	 0,201194663158329 
787	 0,2014558119163 
788	 0,201809010072245 
789	 0,202250661246009 
790	 0,202666555173707 
791	 0,202683416990916 
792	 0,202557451189554 
793	 0,202531648493062 
794	 0,202749152344742 
795	 0,20316938964369 
796	 0,203700966695342 
797	 0,203788425811344 
798	 0,203427401307087 
799	 0,203613771168147 
800	 0,204000336744752 
801	 0,204204887583616 
802	 0,204194939105524 
803	 0,204175623249487 
804	 0,204738536043002 
805	 0,205070024370073 
806	 0,20502480441637 
807	 0,205606869284272 
808	 0,20629746826987 
809	 0,206466334692847 
810	 0,20601566729896 
811	 0,205504895423797 
812	 0,206578567357262 
813	 0,207331974589259 
814	 0,207112349480282 
815	 0,207366915916621 
816	 0,207751826939209 
817	 0,207736704579479 
818	 0,208090095812821 
819	 0,208794863276712 
820	 0,209323011744157 
821	 0,209642483528665 
822	 0,209719980692217 
823	 0,209546820202917 
824	 0,20952896447185 
825	 0,210156520630473 
826	 0,210393743030348 
827	 0,210280863543222 
828	 0,21085006228227 
829	 0,211181816454569 
830	 0,210865822934364 
831	 0,210496170834401 
832	 0,210582559669108 
833	 0,211691966190479 
834	 0,21189912200734 
835	 0,211307706812646 
836	 0,211971176560149 
837	 0,212756819753513 
838	 0,212974322021973 
839	 0,212408498833442 
840	 0,211619153467032 
841	 0,211407761032457 
842	 0,212145127472422 
843	 0,21333317270228 
844	 0,213026799314031 
845	 0,212692676482974 
846	 0,213057160930087 
847	 0,213144100406851 
848	 0,212950749528278 
849	 0,212622504548393 
850	 0,21256377239367 
851	 0,212914320474 
852	 0,213810011782971 
853	 0,214228544524307 
854	 0,213725970446143 
855	 0,213509754532576 
856	 0,213619718709112 
857	 0,213904014891711 
858	 0,213965805937233 
859	 0,213800524444 
860	 0,213699656357268 
861	 0,213994164378364 
862	 0,214733410709678 
863	 0,214986319764403 
864	 0,214975981014762 
865	 0,215129018731033 
866	 0,215008776644978 
867	 0,214687895300541 
868	 0,214554588397194 
869	 0,214987410349941 
870	 0,215969229596421 
871	 0,216191541224877 
872	 0,2160770918285 
873	 0,216274125623278 
874	 0,215974078315255 
875	 0,215527480682643 
876	 0,216431837614601 
877	 0,217117967339227 
878	 0,216997343149385 
879	 0,216872575461223 
880	 0,217019290138229 
881	 0,217629813030233 
882	 0,217988919526739 
883	 0,218038464096342 
884	 0,218003395347088 
885	 0,218253973185561 
886	 0,218820075086501 
887	 0,219078006585156 
888	 0,218936528722062 
889	 0,218400984955467 
890	 0,217966364935119 
891	 0,218089490454542 
892	 0,21959070723266 
893	 0,22036517350597 
894	 0,220002040368765 
895	 0,220233429435145 
896	 0,220405290878026 
897	 0,22007592792315 
898	 0,220506515090597 
899	 0,221167731287016 
900	 0,220792043269946 
901	 0,220383602902409 
902	 0,220357712937715 
903	 0,221138248396169 
904	 0,221659337217714 
905	 0,221384956306328 
906	 0,221788882331159 
907	 0,222298331008014 
908	 0,221868222626202 
909	 0,221904468939984 
910	 0,222261860737258 
911	 0,221341133393397 
912	 0,220506796334178 
913	 0,220428224413584 
914	 0,220765602192609 
915	 0,221395156476665 
916	 0,222151501509012 
917	 0,222185170237667 
918	 0,221725614693118 
919	 0,221796348703056 
920	 0,22213804638176 
921	 0,2224194075772 
922	 0,221391500380146 
923	 0,220560691631423 
924	 0,221105936487631 
925	 0,221185730559641 
926	 0,220839251212366 
927	 0,220661496910664 
928	 0,22073304141235 
929	 0,221061026140154 
930	 0,221633095657445 
931	 0,221533808901437 
932	 0,220404892944533 
933	 0,219648621202792 
934	 0,219644424739068 
935	 0,220573998290437 
936	 0,220154172929366 
937	 0,218768784934004 
938	 0,219186839121992 
939	 0,218863946779804 
940	 0,217176636627702 
941	 0,216086704559334 
942	 0,215425875698552 
943	 0,214971009237655 
944	 0,215126399796272 
945	 0,215214799155087 
946	 0,21391451450788 
947	 0,213023790327936 
948	 0,212672028035145 
949	 0,211188354106853 
950	 0,210233166496674 
951	 0,210450020649057 
952	 0,209323922769905 
953	 0,207833736979585 
954	 0,207406615016701 
955	 0,206130633296407 
956	 0,204101338313961 
957	 0,202313574786177 
958	 0,202378104242864 
959	 0,204128629427677 
960	 0,203862912332575 
961	 0,203391222578317 
962	 0,203802371677062 
963	 0,201175150259899 
964	 0,197910063336804 
965	 0,198390474035998 
966	 0,199787668652497 
967	 0,20108949578761 
968	 0,201559669181183 
969	 0,201504597250246 
970	 0,201193924139902 
971	 0,201215331911742 
972	 0,201701401747274 
973	 0,20256600418321 
974	 0,202075647023015 
975	 0,200966615929859 
976	 0,201066614936626 
977	 0,201525621155473 
978	 0,201990560774188 
979	 0,202116720375429 
980	 0,20158122232889 
981	 0,200659142170338 
982	 0,201890826740815 
983	 0,203181639645614 
984	 0,202446580864142 
985	 0,203343470949016 
986	 0,204905455275332 
987	 0,204033592733234 
988	 0,203299688352454 
989	 0,203312777564059 
990	 0,203317713618995 
991	 0,203791198263337 
992	 0,205033698541246 
993	 0,207548256667645 
994	 0,209219799569993 
995	 0,208003228581265 
996	 0,206840248831566 
997	 0,2065062661115 
998	 0,207324162335928 
999	 0,207844196704667 
1000	 0,208260077882761 
1001	 0,211405327687732 
1002	 0,211824777839289 
1003	 0,208243401237797 
1004	 0,210670585083883 
1005	 0,213721771510212 
1006	 0,211833327437022 
1007	 0,210941326856031 
1008	 0,211065126741624 
1009	 0,210370786772054 
1010	 0,212537525409621 
1011	 0,216092232175536 
1012	 0,212618656679057 
1013	 0,211971589473973 
1014	 0,217336598205784 
1015	 0,221327826568651 
1016	 0,221502419342705 
1017	 0,217032153868624 
1018	 0,216654434626923 
1019	 0,218085414069159 
1020	 0,215973293378111 
1021	 0,218421257598396 
1022	 0,223182304923236 
1023	 0,218370895791093 
1024	 0,216078517588868 
1025	 0,219464521150574 
1026	 0,222666890581251 
1027	 0,224796316193044 
1028	 0,225145096914624 
1029	 0,223374730810157 
1030	 0,221606395054286 
1031	 0,222311686797266 
1032	 0,2258732801732 
1033	 0,229362482226187 
1034	 0,227098435302376 
1035	 0,224493430336846 
1036	 0,2241711735982 
1037	 0,230082064321639 
1038	 0,230322093322323 
1039	 0,222858854743141 
1040	 0,229398466238974 
1041	 0,235380716635208 
1042	 0,229485908783116 
1043	 0,228367651839172 
1044	 0,230251604782643 
1045	 0,229852280605061 
1046	 0,233588513457894 
1047	 0,239451568934303 
1048	 0,240660487102703 
1049	 0,235345205557206 
1050	 0,226398230150239 
1051	 0,226590981133512 
1052	 0,227933512147218 
1053	 0,227616799668135 
1054	 0,234548530151932 
1055	 0,238529101288266 
1056	 0,231985134413404 
1057	 0,234325012533662 
1058	 0,237884369264284 
1059	 0,22898714699933 
1060	 0,224357939135668 
1061	 0,226429556159615 
1062	 0,23138823475654 
1063	 0,234392013172304 
1064	 0,236053862944368 
1065	 0,246838981394665 
1066	 0,249580743250748 
1067	 0,240503917511699 
1068	 0,24687888026985 
1069	 0,245707519242155 
1070	 0,223702584712909 
1071	 0,221997413858675 
1072	 0,231514343413284 
1073	 0,235085511043834 
1074	 0,237252786626213 
1075	 0,235824529267387 
