Wavelength	NEUF00534.asd
325	 0,185740849481308 
326	 6,25817599808087E-02 
327	-5,78571502250401E-02 
328	-1,34662281305104E-02 
329	 0,118916908092753 
330	 0,191769868496968 
331	 4,68642274859079E-02 
332	 6,97673785657325E-02 
333	 0,182411404690434 
334	 0,129106345329932 
335	 0,101770436150097 
336	 0,128519677807923 
337	 3,64514857415935E-02 
338	-5,75450859664953E-02 
339	-4,47202779413154E-02 
340	 0,048682849458658 
341	 0,161007417390486 
342	 0,138950696090948 
343	 0,110344836035648 
344	 0,100805464629183 
345	 0,103949337172024 
346	 0,094029373279947 
347	 4,93103635671974E-02 
348	 1,66073964907784E-02 
349	 4,49192680186548E-04 
350	-1,23700574263939E-02 
351	 0,023112587175509 
352	 9,49521875156621E-02 
353	 7,78775136350389E-02 
354	 2,93213196910967E-02 
355	 3,03666829722134E-02 
356	 1,95455682074614E-02 
357	 3,21646345850036E-03 
358	 3,23763191715397E-02 
359	 5,19708175959767E-02 
360	 4,15880055150028E-02 
361	 2,93830952312692E-02 
362	 2,44096022508543E-02 
363	 3,13235016911017E-02 
364	 5,60838444311079E-02 
365	 8,16061612582907E-02 
366	 6,43398146660239E-02 
367	 3,34278727869071E-02 
368	 9,05753529055935E-03 
369	 1,36700866818526E-02 
370	 3,23853074404442E-02 
371	 3,59310125379112E-02 
372	 0,034059262784512 
373	 0,030468505955784 
374	 3,09460811926254E-02 
375	 0,03404321880051 
376	 3,82486204568209E-02 
377	 4,21202977433178E-02 
378	 4,37636781018276E-02 
379	 0,037820778099847 
380	 4,65720845362488E-02 
381	 6,85318172873771E-02 
382	 6,86028950468386E-02 
383	 5,26805083321984E-02 
384	 2,82147172110008E-02 
385	 2,48954102111148E-02 
386	 3,75296020331543E-02 
387	 0,035086967682025 
388	 3,45309591592883E-02 
389	 3,93181959631876E-02 
390	 3,42499323679422E-02 
391	 0,021766251847912 
392	 0,006966819175559 
393	 1,06523078133773E-02 
394	 0,028465633497357 
395	 3,56525431658042E-02 
396	 4,03159787360572E-02 
397	 0,044952535436555 
398	 4,22684805720124E-02 
399	 3,41058381753487E-02 
400	 2,33470746043821E-02 
401	 0,021569488517452 
402	 2,90670627261458E-02 
403	 3,62113218806002E-02 
404	 3,75738560151902E-02 
405	 3,07130719857914E-02 
406	 2,89486879618064E-02 
407	 2,98074623295862E-02 
408	 2,42500814986993E-02 
409	 1,93095575538002E-02 
410	 1,71994067101361E-02 
411	 1,71390208331839E-02 
412	 0,02170357423834 
413	 3,24593399780463E-02 
414	 3,66216539188643E-02 
415	 3,30303587188095E-02 
416	 2,40134483671572E-02 
417	 0,019605049155116 
418	 2,25583205852506E-02 
419	 1,87702396061241E-02 
420	 1,61060201943334E-02 
421	 2,56527396920832E-02 
422	 2,82279559299007E-02 
423	 0,022927100655732 
424	 2,17938673887595E-02 
425	 2,16825518097787E-02 
426	 2,07974921926505E-02 
427	 2,02545396341067E-02 
428	 2,03284152862439E-02 
429	 2,12319334176481E-02 
430	 2,33355608679111E-02 
431	 2,54787241465098E-02 
432	 2,25555957285246E-02 
433	 1,97915961514416E-02 
434	 2,17826431068587E-02 
435	 2,38399597656684E-02 
436	 2,40888589611178E-02 
437	 1,94384940185262E-02 
438	 1,82496368642359E-02 
439	 2,23431673059128E-02 
440	 2,00459375155504E-02 
441	 1,67225091261251E-02 
442	 2,03933377828746E-02 
443	 1,91926532474556E-02 
444	 1,44492981487299E-02 
445	 0,02069284575354 
446	 2,54861843026849E-02 
447	 2,21431210895344E-02 
448	 0,023003901779986 
449	 2,68549348858904E-02 
450	 2,85372416061901E-02 
451	 2,88443534474553E-02 
452	 2,73363905730826E-02 
453	 2,12158226206016E-02 
454	 1,71952937765314E-02 
455	 2,12149913117192E-02 
456	 2,15125452835459E-02 
457	 1,94333172105966E-02 
458	 2,54832850659312E-02 
459	 2,83216777514443E-02 
460	 2,43421807521829E-02 
461	 2,33458699796907E-02 
462	 2,36198579218681E-02 
463	 2,16077773834051E-02 
464	 0,020953053029876 
465	 2,24431797819652E-02 
466	 2,63601116729693E-02 
467	 2,67677461362216E-02 
468	 2,06991287020965E-02 
469	 1,87570945802104E-02 
470	 2,07960080734063E-02 
471	 2,33988510279736E-02 
472	 2,41675174877501E-02 
473	 2,28922399773152E-02 
474	 2,41967066526619E-02 
475	 2,42735494654884E-02 
476	 1,94849791905308E-02 
477	 1,82010089647506E-02 
478	 2,04024976379573E-02 
479	 2,12048441169879E-02 
480	 2,11182351585919E-02 
481	 2,04293284190671E-02 
482	 2,06581582382448E-02 
483	 2,04970270282815E-02 
484	 1,76517408321839E-02 
485	 1,78002677645564E-02 
486	 2,10851443855537E-02 
487	 2,21722695661993E-02 
488	 2,16751702083853E-02 
489	 2,03113888133642E-02 
490	 1,99996790273515E-02 
491	 2,06327112252921E-02 
492	 2,11912929331428E-02 
493	 2,13360856662825E-02 
494	 2,10657915844519E-02 
495	 2,15441012117768E-02 
496	 2,16582026304673E-02 
497	 2,01216045238636E-02 
498	 2,04750761782443E-02 
499	 2,24780301543444E-02 
500	 2,31153680897212E-02 
501	 2,24016734588681E-02 
502	 2,06754106674893E-02 
503	 2,07716397017955E-02 
504	 0,021840778543605 
505	 2,17062047892398E-02 
506	 2,19941194536237E-02 
507	 2,26727724029809E-02 
508	 2,16601904333724E-02 
509	 0,020547861264943 
510	 2,08071674008003E-02 
511	 2,13052320187633E-02 
512	 2,15774019310855E-02 
513	 2,10570873830056E-02 
514	 2,01797707773578E-02 
515	 1,95243440778699E-02 
516	 2,13908724080884E-02 
517	 2,33372120037899E-02 
518	 2,17346273173435E-02 
519	 2,08505419125917E-02 
520	 2,13434801654618E-02 
521	 2,11973115459572E-02 
522	 2,11902460822851E-02 
523	 2,17688975879646E-02 
524	 2,11979599626423E-02 
525	 2,02251806508237E-02 
526	 2,12030193571476E-02 
527	 2,17567092222418E-02 
528	 2,13444062812892E-02 
529	 2,18518519440684E-02 
530	 2,22358728171932E-02 
531	 2,11992295654267E-02 
532	 2,15345694372953E-02 
533	 2,29324910670889E-02 
534	 2,23005528486115E-02 
535	 2,18817483530602E-02 
536	 2,27764755995884E-02 
537	 2,24682690560956E-02 
538	 2,15340090803582E-02 
539	 0,02163983848207 
540	 2,17498317600273E-02 
541	 2,15400319297184E-02 
542	 2,09226454063777E-02 
543	 2,06018489229491E-02 
544	 2,11977566469521E-02 
545	 2,10963487890247E-02 
546	 2,04090808582557E-02 
547	 2,03408500981544E-02 
548	 2,06778986899612E-02 
549	 2,12130314450365E-02 
550	 2,10694139731767E-02 
551	 2,08696642587217E-02 
552	 2,17616778951116E-02 
553	 2,21652488835503E-02 
554	 2,18865942857306E-02 
555	 2,21669035049917E-02 
556	 2,22219451102621E-02 
557	 2,14788325825842E-02 
558	 0,021640860569394 
559	 2,21931245790538E-02 
560	 2,09916064083389E-02 
561	 2,00743375495743E-02 
562	 2,01945343034262E-02 
563	 2,04864580392578E-02 
564	 2,06698873447469E-02 
565	 2,04888527629012E-02 
566	 2,05693095931359E-02 
567	 2,08787204037879E-02 
568	 2,06154180393595E-02 
569	 2,07219810500887E-02 
570	 2,16968262802992E-02 
571	 2,14827135978349E-02 
572	 2,08402756157989E-02 
573	 2,22162467364156E-02 
574	 2,30113520039299E-02 
575	 2,25643423292024E-02 
576	 0,022513535273075 
577	 2,29169681159862E-02 
578	 2,36771041606741E-02 
579	 2,34790386809721E-02 
580	 0,022707975001204 
581	 2,36792819380627E-02 
582	 2,42367611953574E-02 
583	 2,34017983934284E-02 
584	 2,38162216480046E-02 
585	 2,47845374780464E-02 
586	 2,45087058003658E-02 
587	 2,38766925653556E-02 
588	 2,34683474260746E-02 
589	 2,45801680215449E-02 
590	 2,57884370286104E-02 
591	 2,57300050322492E-02 
592	 2,51465831415457E-02 
593	 2,45174920558233E-02 
594	 0,024659638926003 
595	 2,50075096815755E-02 
596	 2,52942975104944E-02 
597	 2,56499868774127E-02 
598	 2,59259993931213E-02 
599	 2,59052392514123E-02 
600	 2,57273517582251E-02 
601	 2,54718894419026E-02 
602	 2,52343555917795E-02 
603	 0,025071319379365 
604	 2,50234715711295E-02 
605	 2,50551960296794E-02 
606	 2,50767862236639E-02 
607	 2,48841937801359E-02 
608	 2,47944783479187E-02 
609	 2,48330860843606E-02 
610	 2,44138989187682E-02 
611	 0,023861407257411 
612	 2,36282781260002E-02 
613	 2,36531242731748E-02 
614	 2,38668226029647E-02 
615	 2,41844118138442E-02 
616	 2,40332609623786E-02 
617	 2,31568777020629E-02 
618	 2,27637763164704E-02 
619	 2,28002654058577E-02 
620	 2,27503055088686E-02 
621	 2,30073200808647E-02 
622	 2,35120654176431E-02 
623	 2,34393020157518E-02 
624	 2,33432929152138E-02 
625	 2,38136752679721E-02 
626	 0,024045742070397 
627	 2,38415968863675E-02 
628	 2,30398659222759E-02 
629	 2,27219143762554E-02 
630	 2,33593735644129E-02 
631	 2,37759074147511E-02 
632	 2,39285882792324E-02 
633	 2,40025540121495E-02 
634	 2,39255086935204E-02 
635	 2,39642770317617E-02 
636	 2,52136980343845E-02 
637	 2,64649638619105E-02 
638	 2,66612711984239E-02 
639	 2,62613758014385E-02 
640	 2,56935881312577E-02 
641	 2,57496622627571E-02 
642	 2,59758790392204E-02 
643	 2,61827863792505E-02 
644	 2,63485509327555E-02 
645	 2,64381943644012E-02 
646	 2,64169927967369E-02 
647	 2,66750186265858E-02 
648	 2,71239646680108E-02 
649	 2,70959988532552E-02 
650	 2,70627045136104E-02 
651	 2,72867689082864E-02 
652	 2,71820712890911E-02 
653	 2,66422605665242E-02 
654	 2,55594894610048E-02 
655	 2,48424236494883E-02 
656	 2,47765802609256E-02 
657	 0,024938991061103 
658	 2,49367667647112E-02 
659	 2,44170321557833E-02 
660	 2,40906278062658E-02 
661	 2,38542954075683E-02 
662	 0,022824042064137 
663	 2,22801885140469E-02 
664	 0,022735174739068 
665	 2,28497072781704E-02 
666	 2,25322044744264E-02 
667	 2,18864328962535E-02 
668	 2,15872600980508E-02 
669	 2,16520120984656E-02 
670	 2,12256146531231E-02 
671	 2,07721193868697E-02 
672	 2,06706692020128E-02 
673	 2,05622880516498E-02 
674	 2,05739252927257E-02 
675	 2,11950737956107E-02 
676	 2,17193860064163E-02 
677	 2,18540654594878E-02 
678	 2,16784764536761E-02 
679	 2,14929396944946E-02 
680	 2,16382853527355E-02 
681	 2,18527888538356E-02 
682	 2,20739213067027E-02 
683	 2,23006973740891E-02 
684	 2,25937789005932E-02 
685	 2,29479575438203E-02 
686	 2,29678764335588E-02 
687	 2,30276328747745E-02 
688	 2,38909929586178E-02 
689	 2,45705166684442E-02 
690	 2,49263220321154E-02 
691	 2,56767986802869E-02 
692	 2,68710160263588E-02 
693	 2,85083790552268E-02 
694	 3,02805337794632E-02 
695	 3,23701069083462E-02 
696	 3,54084519731457E-02 
697	 3,86675507928992E-02 
698	 4,19171181271736E-02 
699	 4,57374280452819E-02 
700	 5,00458598135322E-02 
701	 5,46398581930674E-02 
702	 0,059792775770467 
703	 6,54445968995836E-02 
704	 7,12541142559886E-02 
705	 7,70847288726381E-02 
706	 8,28307937386584E-02 
707	 8,85603520212837E-02 
708	 9,42393335086107E-02 
709	 9,97609471388269E-02 
710	 0,105331094062567 
711	 0,110925168944757 
712	 0,11619938990183 
713	 0,121060947153454 
714	 0,125491151343362 
715	 0,130309452725606 
716	 0,135222514399967 
717	 0,139056224837501 
718	 0,142742477147111 
719	 0,146617836070433 
720	 0,150199606634938 
721	 0,153454228651033 
722	 0,156408540822476 
723	 0,159249770818988 
724	 0,161941903887154 
725	 0,164145484324958 
726	 0,1663040655745 
727	 0,16861800297689 
728	 0,170343741026233 
729	 0,171743793248551 
730	 0,173452554880592 
731	 0,175049596704835 
732	 0,176466223901514 
733	 0,177961468892126 
734	 0,179302302933412 
735	 0,180295469376222 
736	 0,181230181206448 
737	 0,182203969178343 
738	 0,183347121556857 
739	 0,184245977888912 
740	 0,184794352513249 
741	 0,1853844963852 
742	 0,18610618066221 
743	 0,187011758434466 
744	 0,187540279342202 
745	 0,187750206628787 
746	 0,188176346281205 
747	 0,188949728614884 
748	 0,190025711308534 
749	 0,190477599996335 
750	 0,190642150437342 
751	 0,191198330953648 
752	 0,192075001305279 
753	 0,193010558506329 
754	 0,193131632422044 
755	 0,192967179142374 
756	 0,192985383176455 
757	 0,193625613006188 
758	 0,194538187601509 
759	 0,19489665285473 
760	 0,194997053351891 
761	 0,195020089337027 
762	 0,195385740288516 
763	 0,195797105218341 
764	 0,195979374492626 
765	 0,196495447892211 
766	 0,197158695507368 
767	 0,197212618581539 
768	 0,197284902588071 
769	 0,197579407757548 
770	 0,19770840769076 
771	 0,197853942818688 
772	 0,198255922427074 
773	 0,1985678574683 
774	 0,198822163993175 
775	 0,199431382171122 
776	 0,199782127457801 
777	 0,19964235973938 
778	 0,199780547775088 
779	 0,200207553508412 
780	 0,20081117588338 
781	 0,200977796717911 
782	 0,20074917925623 
783	 0,200918468503987 
784	 0,201277350898705 
785	 0,201637926587923 
786	 0,201629307933497 
787	 0,20150664763977 
788	 0,201822338849973 
789	 0,202122760774092 
790	 0,202302917916964 
791	 0,202525702501792 
792	 0,202752562898778 
793	 0,202936651511603 
794	 0,202891804614087 
795	 0,202904401165612 
796	 0,20370260240943 
797	 0,204053085418778 
798	 0,203733044135343 
799	 0,203870324257758 
800	 0,204146346700074 
801	 0,204229511857245 
802	 0,204514294825861 
803	 0,2048869745802 
804	 0,204869448679724 
805	 0,204935542019208 
806	 0,20524755991262 
807	 0,205649802156423 
808	 0,206027492703451 
809	 0,206265531981901 
810	 0,206239637638937 
811	 0,206178912217182 
812	 0,206791770357817 
813	 0,207327335818051 
814	 0,207476563711022 
815	 0,207500133671428 
816	 0,20758033327045 
817	 0,207904967781358 
818	 0,208497167963581 
819	 0,209145268318812 
820	 0,209228982241713 
821	 0,209313202087861 
822	 0,209651966801876 
823	 0,209995706955554 
824	 0,210257495762561 
825	 0,210360277189561 
826	 0,210398156530165 
827	 0,21051826509991 
828	 0,211152616815715 
829	 0,211435516834313 
830	 0,211019863009049 
831	 0,210897979113536 
832	 0,211059556300409 
833	 0,211329804613571 
834	 0,211235771917619 
835	 0,210943056550881 
836	 0,211444327953789 
837	 0,211870128917065 
838	 0,211813154549117 
839	 0,211999779487393 
840	 0,212287757806801 
841	 0,212367000610686 
842	 0,212836858414143 
843	 0,213455070307342 
844	 0,212918641236731 
845	 0,212471910526454 
846	 0,212800244158553 
847	 0,213497687044433 
848	 0,213887868999463 
849	 0,213118050267191 
850	 0,21288176099412 
851	 0,213380491636297 
852	 0,213756168014613 
853	 0,213912077953906 
854	 0,213797826557512 
855	 0,21363975664081 
856	 0,213550174675487 
857	 0,21363346326677 
858	 0,213540700362298 
859	 0,213350293397524 
860	 0,213561423342191 
861	 0,21399952913286 
862	 0,214489976689563 
863	 0,214536717895195 
864	 0,214479163485394 
865	 0,214823146010957 
866	 0,215258651446178 
867	 0,215557830925442 
868	 0,215204238687857 
869	 0,215156804434344 
870	 0,215775968655522 
871	 0,216156603576621 
872	 0,216300680948101 
873	 0,21632093802447 
874	 0,216210925175447 
875	 0,21616248206285 
876	 0,216733778722169 
877	 0,216970730158451 
878	 0,216670925008338 
879	 0,217248731013755 
880	 0,217881778252157 
881	 0,217634788972307 
882	 0,217910217516353 
883	 0,218560583496671 
884	 0,218373483453077 
885	 0,218690415420928 
886	 0,219609923423298 
887	 0,219094005301891 
888	 0,218274570703173 
889	 0,218300528394028 
890	 0,218371161599096 
891	 0,218571430976418 
892	 0,219406477092084 
893	 0,219957706002295 
894	 0,220045734796477 
895	 0,22049547948273 
896	 0,220522507094517 
897	 0,219686241435668 
898	 0,220043161190426 
899	 0,220934394728729 
900	 0,220606299938018 
901	 0,220573637085648 
902	 0,220963534005359 
903	 0,220570424424046 
904	 0,220367564270082 
905	 0,220903565327108 
906	 0,221379343224985 
907	 0,221758142631914 
908	 0,222133783127143 
909	 0,221947366181444 
910	 0,221264363267017 
911	 0,220706838886384 
912	 0,220195341868576 
913	 0,219826804273434 
914	 0,22006242216434 
915	 0,221014219782862 
916	 0,222604472012406 
917	 0,222001665251342 
918	 0,220343146768431 
919	 0,222154964593883 
920	 0,223211786537471 
921	 0,222369816746886 
922	 0,221573361393501 
923	 0,221171236538391 
924	 0,221327817175769 
925	 0,221114387269054 
926	 0,22090911417348 
927	 0,22170264199607 
928	 0,221750803451221 
929	 0,220873456135743 
930	 0,220354898018056 
931	 0,220097795888611 
932	 0,220032150000233 
933	 0,220011309796154 
934	 0,219855793732431 
935	 0,219393048861156 
936	 0,219465971052929 
937	 0,219758844638186 
938	 0,218794354418921 
939	 0,218121154826424 
940	 0,218163703794432 
941	 0,217889550376198 
942	 0,2171835293903 
943	 0,216067288710134 
944	 0,215347029180061 
945	 0,21473423713841 
946	 0,213382601817562 
947	 0,212918394977559 
948	 0,213425700487994 
949	 0,213636698335059 
950	 0,212688523365917 
951	 0,210347943999796 
952	 0,208514066104393 
953	 0,20760604744956 
954	 0,207773039903552 
955	 0,207709739297009 
956	 0,206904156896245 
957	 0,204768814388668 
958	 0,203704596719681 
959	 0,204165212553223 
960	 0,203782397111946 
961	 0,203297997358169 
962	 0,203251384049899 
963	 0,202728303361915 
964	 0,202116437229626 
965	 0,202176760585979 
966	 0,202762035661989 
967	 0,203391537289249 
968	 0,202750022189704 
969	 0,202126448396213 
970	 0,201868080760182 
971	 0,200385785999836 
972	 0,199708522756316 
973	 0,20148076730375 
974	 0,20196284607492 
975	 0,201547143662378 
976	 0,202092251964059 
977	 0,203153798770609 
978	 0,204086026080751 
979	 0,203064310561758 
980	 0,201738616346977 
981	 0,201172921511203 
982	 0,202008755018455 
983	 0,203352107771003 
984	 0,204157939095761 
985	 0,203856800630158 
986	 0,202785902099351 
987	 0,201714841749048 
988	 0,203082392091396 
989	 0,20597727218938 
990	 0,204295624374403 
991	 0,203039019249966 
992	 0,204723312807164 
993	 0,207592134748858 
994	 0,208174676768938 
995	 0,20373668629369 
996	 0,203906179259608 
997	 0,207821154673322 
998	 0,210357588075729 
999	 0,21074321617416 
1000	 0,209567730375422 
1001	 0,210439390244512 
1002	 0,211393226458325 
1003	 0,211648270623889 
1004	 0,212621743802533 
1005	 0,213972504523182 
1006	 0,215124705914739 
1007	 0,214285110496686 
1008	 0,212743105473779 
1009	 0,21328285409285 
1010	 0,214448125403354 
1011	 0,215199729024847 
1012	 0,212866919984724 
1013	 0,214078651638232 
1014	 0,220017913922192 
1015	 0,22092444308732 
1016	 0,218567743885248 
1017	 0,215671876667129 
1018	 0,218228404299664 
1019	 0,222278270699276 
1020	 0,220702217207251 
1021	 0,221035881874875 
1022	 0,223524070671564 
1023	 0,223888907721781 
1024	 0,223947292228366 
1025	 0,223659589327654 
1026	 0,219963509896664 
1027	 0,218988907941355 
1028	 0,223634014851467 
1029	 0,223857093231277 
1030	 0,222051743020685 
1031	 0,222110826959479 
1032	 0,219296358035944 
1033	 0,217267756314438 
1034	 0,224750621766028 
1035	 0,228191473573891 
1036	 0,226775205081714 
1037	 0,232333544595795 
1038	 0,236363488690049 
1039	 0,235368003594961 
1040	 0,232925380651705 
1041	 0,229939954329941 
1042	 0,227765959359289 
1043	 0,231736908056739 
1044	 0,237382279441962 
1045	 0,237625805516397 
1046	 0,236857317840844 
1047	 0,235880162715384 
1048	 0,23435269950569 
1049	 0,23327489312508 
1050	 0,232689432665058 
1051	 0,230956172088253 
1052	 0,230397229452896 
1053	 0,232518493571877 
1054	 0,239125086032315 
1055	 0,241942272281608 
1056	 0,235144745596579 
1057	 0,235388805371554 
1058	 0,235740395670914 
1059	 0,224117723104977 
1060	 0,223914274181771 
1061	 0,233977579270849 
1062	 0,240595181560485 
1063	 0,240830171215288 
1064	 0,236387145780302 
1065	 0,239737860858529 
1066	 0,237068779868785 
1067	 0,2268657358393 
1068	 0,235131003046994 
1069	 0,247320759669624 
1070	 0,250469319431728 
1071	 0,241245988967 
1072	 0,234164326048119 
1073	 0,245239339056465 
1074	 0,239959090045076 
1075	 0,229413089944119 
