Wavelength	NEUF00632.asd
325	 0,289339074835258 
326	 6,94261714401376E-02 
327	-4,77277650367732E-02 
328	 5,02307317134175E-02 
329	 0,145883732203046 
330	 0,233229353449411 
331	 0,298113654184729 
332	 0,251079823962158 
333	 0,173700902659185 
334	 0,163742760934599 
335	 0,210201589669023 
336	 0,281680705078008 
337	 0,130837313883145 
338	-3,12345613483531E-04 
339	 9,01564873567229E-02 
340	 0,133628715261016 
341	 0,128434321162603 
342	 0,141863402706007 
343	 0,178034192013369 
344	 0,229928382006597 
345	 0,177275491462243 
346	 0,126276000734505 
347	 0,178055540459758 
348	 0,152192996507865 
349	 6,43113748176822E-02 
350	 5,27478668214947E-02 
351	 9,23085592648036E-02 
352	 0,148028844642768 
353	 0,107989508305924 
354	 4,16930099536248E-02 
355	 4,60911448092411E-02 
356	 7,59279532577472E-02 
357	 0,106870613422962 
358	 0,10577179409982 
359	 9,70150773208995E-02 
360	 9,14355934765839E-02 
361	 9,13091603957385E-02 
362	 8,79299364570907E-02 
363	 0,067110983576443 
364	 7,49623080638787E-02 
365	 0,106855468287463 
366	 0,11477368900316 
367	 0,108736705557617 
368	 9,44647716535695E-02 
369	 0,08114624822031 
370	 7,40967865278947E-02 
371	 7,36282672533986E-02 
372	 9,65430042368011E-02 
373	 0,12950956874348 
374	 0,107364909046315 
375	 7,79554729752148E-02 
376	 7,88525926098396E-02 
377	 8,40555655058542E-02 
378	 8,96498048918069E-02 
379	 0,095030692080495 
380	 0,109053935631742 
381	 0,128632621361935 
382	 0,136172183848211 
383	 0,127815601730654 
384	 0,10127875287947 
385	 8,76251893592439E-02 
386	 8,64209049965418E-02 
387	 7,25551519119488E-02 
388	 7,62144190769432E-02 
389	 0,100033757363705 
390	 0,094623697876188 
391	 0,07609616703299 
392	 6,85821515230504E-02 
393	 7,43657845233717E-02 
394	 0,085549428415513 
395	 7,55388258325476E-02 
396	 7,45939893290326E-02 
397	 0,093653583919246 
398	 9,42257022634954E-02 
399	 8,48994185682386E-02 
400	 8,37969915267386E-02 
401	 7,93116997180234E-02 
402	 7,32951127486853E-02 
403	 8,09810265199354E-02 
404	 9,14050543205654E-02 
405	 9,54789877741823E-02 
406	 8,63740785103606E-02 
407	 7,07404941634922E-02 
408	 6,15042937724556E-02 
409	 0,065352230795315 
410	 7,83202936323587E-02 
411	 7,23484705566128E-02 
412	 6,33349661610616E-02 
413	 6,69817546067478E-02 
414	 7,08717819246036E-02 
415	 7,25997177175509E-02 
416	 7,22928438976834E-02 
417	 7,06936963557268E-02 
418	 6,84527513139361E-02 
419	 6,64704087708909E-02 
420	 6,63878082430113E-02 
421	 7,00284561546038E-02 
422	 6,88188203106493E-02 
423	 6,34312531654244E-02 
424	 6,22361812052936E-02 
425	 0,063489213269088 
426	 6,58197182337586E-02 
427	 6,75996067878328E-02 
428	 6,76753473487182E-02 
429	 6,43374196223557E-02 
430	 6,29080129740142E-02 
431	 6,43715750346651E-02 
432	 6,52691336327746E-02 
433	 6,47669433650914E-02 
434	 0,062501053300435 
435	 6,23822097585258E-02 
436	 6,38179751306349E-02 
437	 6,29153513288429E-02 
438	 6,49566601958816E-02 
439	 7,00426614307135E-02 
440	 6,57595627123393E-02 
441	 0,060134375389256 
442	 6,45462965891104E-02 
443	 6,53892355918743E-02 
444	 6,21126727179651E-02 
445	 6,40187227326398E-02 
446	 6,72921716346101E-02 
447	 6,94024878749905E-02 
448	 7,00350878653127E-02 
449	 6,98852249954454E-02 
450	 7,02707050222783E-02 
451	 7,20883458836896E-02 
452	 7,39628859456638E-02 
453	 0,068290431422676 
454	 6,31444868795874E-02 
455	 6,60971535056687E-02 
456	 6,72076361153924E-02 
457	 6,68147642884214E-02 
458	 7,17312931739275E-02 
459	 7,32333441272726E-02 
460	 6,87716323360451E-02 
461	 6,70331545821491E-02 
462	 6,78044705478017E-02 
463	 6,96277618188664E-02 
464	 6,88690393276146E-02 
465	 6,63822177994488E-02 
466	 6,92328603632714E-02 
467	 0,070455782299117 
468	 6,60968626143064E-02 
469	 6,41596287356359E-02 
470	 0,065140256924853 
471	 6,79307703487631E-02 
472	 0,067502790450164 
473	 6,36992348331236E-02 
474	 6,46718065044837E-02 
475	 6,70022205895758E-02 
476	 6,69775828936609E-02 
477	 6,76244425360221E-02 
478	 6,88383755025237E-02 
479	 6,91191216645055E-02 
480	 6,77950348933827E-02 
481	 6,51903587262769E-02 
482	 6,60066158816551E-02 
483	 6,73014421581779E-02 
484	 6,39300060919145E-02 
485	 6,37895522785187E-02 
486	 6,73657785209933E-02 
487	 6,83256573628806E-02 
488	 6,78128711159606E-02 
489	 6,69062097017499E-02 
490	 6,70187933709012E-02 
491	 6,75161285085932E-02 
492	 6,61946289097609E-02 
493	 6,53688474731995E-02 
494	 0,065716172762392 
495	 6,64242422069669E-02 
496	 6,62021026082127E-02 
497	 6,37659094025896E-02 
498	 6,40018346966272E-02 
499	 0,06652969617335 
500	 0,066744771069797 
501	 6,60702317564397E-02 
502	 6,55476859333068E-02 
503	 6,68469391307145E-02 
504	 0,069011801485975 
505	 7,01809366385992E-02 
506	 6,97877842316531E-02 
507	 0,068244257208964 
508	 6,81902283397169E-02 
509	 0,068573662956905 
510	 6,83647241221159E-02 
511	 6,83610501286732E-02 
512	 6,85947434644602E-02 
513	 6,87476292031594E-02 
514	 6,91487679781519E-02 
515	 6,99118957716774E-02 
516	 7,10054286438337E-02 
517	 0,071558097616942 
518	 0,070399248632068 
519	 6,97046056864687E-02 
520	 6,98220433411047E-02 
521	 6,96043099971876E-02 
522	 6,94821485110406E-02 
523	 6,97693445666058E-02 
524	 7,02812737137188E-02 
525	 7,08287231994922E-02 
526	 0,071173064372954 
527	 7,10538182335336E-02 
528	 7,05059293714064E-02 
529	 7,02071295441679E-02 
530	 7,02184416097874E-02 
531	 7,05291721841018E-02 
532	 7,03917482718439E-02 
533	 6,99798616309431E-02 
534	 7,03518972011991E-02 
535	 0,071134197348435 
536	 7,19423188452044E-02 
537	 7,16132275808422E-02 
538	 7,07531228405794E-02 
539	 7,07486836648404E-02 
540	 7,07976255871658E-02 
541	 7,07406718882479E-02 
542	 7,09800151679046E-02 
543	 7,10637837465717E-02 
544	 7,05723273859377E-02 
545	 7,01752192662952E-02 
546	 7,02779657056874E-02 
547	 7,17166296425163E-02 
548	 7,25643800368996E-02 
549	 7,19465649954641E-02 
550	 7,10178610030796E-02 
551	 7,06648694975917E-02 
552	 7,20505638317955E-02 
553	 7,27206389930023E-02 
554	 7,22723387043006E-02 
555	 7,24010110930724E-02 
556	 7,22018582379095E-02 
557	 0,071002231051328 
558	 7,04869825542954E-02 
559	 0,070604832851536 
560	 0,070481242216664 
561	 7,00022169280597E-02 
562	 6,93021700732598E-02 
563	 6,97888703481767E-02 
564	 7,02325121253503E-02 
565	 6,88693792048486E-02 
566	 6,87860323270507E-02 
567	 6,98769799509144E-02 
568	 6,86603491161133E-02 
569	 6,81050864550473E-02 
570	 7,00516301073344E-02 
571	 7,09103008033647E-02 
572	 0,070885937386399 
573	 7,17504103440971E-02 
574	 0,072157353202451 
575	 7,20047182660106E-02 
576	 7,30687138569634E-02 
577	 7,46399889632936E-02 
578	 7,57773381887777E-02 
579	 7,65925058987345E-02 
580	 7,73109075567845E-02 
581	 7,86214608580683E-02 
582	 7,99735755728283E-02 
583	 8,09732365536392E-02 
584	 8,12237869652598E-02 
585	 8,11296544235274E-02 
586	 8,14258261906971E-02 
587	 8,22754559340271E-02 
588	 8,34612345697222E-02 
589	 8,36988731074001E-02 
590	 8,39356609984808E-02 
591	 8,50437498698084E-02 
592	 8,56562299157298E-02 
593	 8,56670607013013E-02 
594	 8,55027810320298E-02 
595	 8,54679398434811E-02 
596	 8,57850995596663E-02 
597	 8,66891594113006E-02 
598	 8,74663455713399E-02 
599	 8,70556642176591E-02 
600	 8,63785881654353E-02 
601	 8,57690202999283E-02 
602	 8,53349146336068E-02 
603	 8,51009814564313E-02 
604	 0,085032556369023 
605	 0,084544671744322 
606	 8,38424737571526E-02 
607	 8,37334232784187E-02 
608	 8,33526154258135E-02 
609	 8,25143384935779E-02 
610	 8,21674291430075E-02 
611	 8,18316185515605E-02 
612	 8,08265611639386E-02 
613	 8,07721672831616E-02 
614	 8,14613485544051E-02 
615	 8,09187557980112E-02 
616	 7,99813289006967E-02 
617	 0,079214684895652 
618	 7,84858972317187E-02 
619	 7,80597135286357E-02 
620	 0,078465030318071 
621	 7,88746425310575E-02 
622	 7,89897172478627E-02 
623	 7,89965482384459E-02 
624	 7,88446510488593E-02 
625	 7,85046902741767E-02 
626	 7,87252302391709E-02 
627	 0,079296231128462 
628	 7,91106791816863E-02 
629	 7,89337896056595E-02 
630	 7,91477464715917E-02 
631	 7,94082631377429E-02 
632	 7,98911662500831E-02 
633	 8,09745492840515E-02 
634	 8,14543495888964E-02 
635	 8,13904942598033E-02 
636	 8,26898022672014E-02 
637	 0,083846844668012 
638	 8,36680442641791E-02 
639	 8,45169324496323E-02 
640	 8,60274796631038E-02 
641	 8,61191985024126E-02 
642	 8,65530486106503E-02 
643	 8,77267155139546E-02 
644	 8,76017704665419E-02 
645	 8,71180402632894E-02 
646	 8,77139577209633E-02 
647	 8,82211979752213E-02 
648	 8,83322447975882E-02 
649	 8,80789435604903E-02 
650	 0,087648158448104 
651	 8,71725323285109E-02 
652	 8,66261239901659E-02 
653	 8,58820180545973E-02 
654	 8,47072725072701E-02 
655	 8,31435908124609E-02 
656	 8,14566914013199E-02 
657	 8,07238995103467E-02 
658	 8,01668578174216E-02 
659	 7,89176985291876E-02 
660	 7,73487222362139E-02 
661	 7,57734775683451E-02 
662	 7,48167794172436E-02 
663	 7,40763209951939E-02 
664	 7,32636128739966E-02 
665	 7,19056704062389E-02 
666	 7,04550216474028E-02 
667	 6,96698174547565E-02 
668	 6,93968707738802E-02 
669	 6,93315938502382E-02 
670	 6,84097681472845E-02 
671	 6,77091284520384E-02 
672	 6,80303609269199E-02 
673	 6,79129281353653E-02 
674	 6,74223920253494E-02 
675	 6,73386537777922E-02 
676	 0,06730470865869 
677	 6,72579757641505E-02 
678	 6,75257627686249E-02 
679	 0,067782852639185 
680	 0,067628342347733 
681	 6,77880964568153E-02 
682	 6,83654892771469E-02 
683	 6,90927788340536E-02 
684	 6,98317562538064E-02 
685	 7,05575176589304E-02 
686	 7,17905130382457E-02 
687	 7,34019679269303E-02 
688	 7,49716705524218E-02 
689	 7,73435087014658E-02 
690	 8,05597802628286E-02 
691	 0,083511298586236 
692	 8,69780602064419E-02 
693	 9,16763199560984E-02 
694	 9,71372969948639E-02 
695	 0,103289626585163 
696	 0,110090836198472 
697	 0,117664106897922 
698	 0,126078380305871 
699	 0,135408686386206 
700	 0,145361846001185 
701	 0,155512118317717 
702	 0,166051836470332 
703	 0,176974492594679 
704	 0,188300010867469 
705	 0,19922976159114 
706	 0,209301348692501 
707	 0,219470639023096 
708	 0,229552942543024 
709	 0,238906840840557 
710	 0,24801564530847 
711	 0,25693251105765 
712	 0,265241350091328 
713	 0,273031092163477 
714	 0,280407377034628 
715	 0,287353734584763 
716	 0,29386734674199 
717	 0,299974530575247 
718	 0,305647840429352 
719	 0,310909436679111 
720	 0,315904608667799 
721	 0,320504373127871 
722	 0,324546851566493 
723	 0,328286089075 
724	 0,3317495412925 
725	 0,334684405039919 
726	 0,337727499539006 
727	 0,341130629316856 
728	 0,343540289516013 
729	 0,345370622545353 
730	 0,347693919969056 
731	 0,349694370940959 
732	 0,351294165789253 
733	 0,353196511328668 
734	 0,35498027466398 
735	 0,356289747422895 
736	 0,357733865912654 
737	 0,359238978592748 
738	 0,360368280620113 
739	 0,361251103506648 
740	 0,362002158137803 
741	 0,363000719212785 
742	 0,363976081091166 
743	 0,364588007844217 
744	 0,365190357312757 
745	 0,36585783038648 
746	 0,366535588767751 
747	 0,367228089065801 
748	 0,367931516025666 
749	 0,368600312253346 
750	 0,369270099822822 
751	 0,37000461087141 
752	 0,370677334032444 
753	 0,371224086099393 
754	 0,371544719497432 
755	 0,371921395611865 
756	 0,372528680640802 
757	 0,372919597403768 
758	 0,373192151379822 
759	 0,373685809474599 
760	 0,374187924038241 
761	 0,374630140945983 
762	 0,375053035952608 
763	 0,375355121118111 
764	 0,375474458476284 
765	 0,375967362626453 
766	 0,376683044365388 
767	 0,376969842986407 
768	 0,377115349429102 
769	 0,377235092084742 
770	 0,377295460994508 
771	 0,377563924996832 
772	 0,378330334108791 
773	 0,378878572577609 
774	 0,379093523964927 
775	 0,379203951506928 
776	 0,37929665425498 
777	 0,379443994351524 
778	 0,379674446325146 
779	 0,379984564620713 
780	 0,380369966949446 
781	 0,380471972219624 
782	 0,380338620838651 
783	 0,380464510932317 
784	 0,3808671847473 
785	 0,381453538411609 
786	 0,381307913662254 
787	 0,380971191206183 
788	 0,381647827148327 
789	 0,382181267128816 
790	 0,382253667958431 
791	 0,382117665502162 
792	 0,381957991470568 
793	 0,381952806827677 
794	 0,382326105347904 
795	 0,382866712686846 
796	 0,383064055848887 
797	 0,383189206652535 
798	 0,383277227067677 
799	 0,383045074340581 
800	 0,382999278811927 
801	 0,383569770189783 
802	 0,383806517115706 
803	 0,383761175163273 
804	 0,384034893991456 
805	 0,384400634265113 
806	 0,384746921162387 
807	 0,384871902404092 
808	 0,385024493548022 
809	 0,385465189301936 
810	 0,385659762240003 
811	 0,385696374778517 
812	 0,386128318752958 
813	 0,386621425530863 
814	 0,387004362263168 
815	 0,387194244837447 
816	 0,387208274853275 
817	 0,387102945811432 
818	 0,387733080567466 
819	 0,38877109479013 
820	 0,388651115578501 
821	 0,388424468540025 
822	 0,388608448726266 
823	 0,388997036635349 
824	 0,389644870217714 
825	 0,390620024048974 
826	 0,39083040069114 
827	 0,390400014565898 
828	 0,390585168781039 
829	 0,391007850479887 
830	 0,391444500148263 
831	 0,391679363614265 
832	 0,391820315900411 
833	 0,392055627486816 
834	 0,392112142080205 
835	 0,392039427345824 
836	 0,392184389920178 
837	 0,392460565836647 
838	 0,392756954717148 
839	 0,392634107903141 
840	 0,392450643128523 
841	 0,392767556763656 
842	 0,393298584589076 
843	 0,393748334343014 
844	 0,393412315074174 
845	 0,393129127293867 
846	 0,393342457588288 
847	 0,393537043444199 
848	 0,393758374643276 
849	 0,394146535721169 
850	 0,394379950962408 
851	 0,39441694704377 
852	 0,39441383225941 
853	 0,394463156166664 
854	 0,39457179249273 
855	 0,394362563266135 
856	 0,394083156050835 
857	 0,394117808604786 
858	 0,394793017874032 
859	 0,395712246658136 
860	 0,3953550299167 
861	 0,395076879130586 
862	 0,395489310803753 
863	 0,395566434072157 
864	 0,395573105203874 
865	 0,39597575611881 
866	 0,396476231139715 
867	 0,396951632503186 
868	 0,397307829304714 
869	 0,397422893258375 
870	 0,39732333946332 
871	 0,397539507914714 
872	 0,39788465332448 
873	 0,398070359062767 
874	 0,398135550325912 
875	 0,398207909633499 
876	 0,39869371917811 
877	 0,398855297578598 
878	 0,398539805776281 
879	 0,398762362528348 
880	 0,399354183418849 
881	 0,400032519540625 
882	 0,400717059384972 
883	 0,401190733136729 
884	 0,400961216965392 
885	 0,400876089759264 
886	 0,401225384922486 
887	 0,401752775198452 
888	 0,401769243375779 
889	 0,400805935352166 
890	 0,401057838795919 
891	 0,402203518195678 
892	 0,402682656610658 
893	 0,402643248168448 
894	 0,402380763347759 
895	 0,403243911996865 
896	 0,403823303893769 
897	 0,403129247423239 
898	 0,403164863034551 
899	 0,40352304352576 
900	 0,402875625145408 
901	 0,403247983534327 
902	 0,404515745073194 
903	 0,403962525824139 
904	 0,403414476448206 
905	 0,404003602121015 
906	 0,405036833169607 
907	 0,405728085691691 
908	 0,405122681623915 
909	 0,404837718388164 
910	 0,40501563447868 
911	 0,404765703333415 
912	 0,404196922250999 
913	 0,403557045835723 
914	 0,403958312651568 
915	 0,404717861892507 
916	 0,404972537641939 
917	 0,405096265860435 
918	 0,405247780553859 
919	 0,405713688151792 
920	 0,405934079984519 
921	 0,405684727307627 
922	 0,404903113897579 
923	 0,404416914482842 
924	 0,404787554176975 
925	 0,404399193886003 
926	 0,403516618501072 
927	 0,40307866291758 
928	 0,402772076325517 
929	 0,402649095738533 
930	 0,403249864283741 
931	 0,403250072945037 
932	 0,402095762623763 
933	 0,401725316620944 
934	 0,401924231576298 
935	 0,402099986115914 
936	 0,401463888551945 
937	 0,400378739393953 
938	 0,400342804868871 
939	 0,400753060045521 
940	 0,401203695451429 
941	 0,40092601220249 
942	 0,40018573546148 
943	 0,399330281753428 
944	 0,398956051048838 
945	 0,398462361837864 
946	 0,396478822635078 
947	 0,395912925700326 
948	 0,396749723209196 
949	 0,395763147806786 
950	 0,394334485609808 
951	 0,393136027438203 
952	 0,390949516133581 
953	 0,388914516317147 
954	 0,388478121232484 
955	 0,388728977170113 
956	 0,388622609079041 
957	 0,385831563698838 
958	 0,38480685704166 
959	 0,3863333864973 
960	 0,386224341638772 
961	 0,38546072529977 
962	 0,384862673064946 
963	 0,383755035178344 
964	 0,382898483129643 
965	 0,383513412422402 
966	 0,383885398677163 
967	 0,383471257833559 
968	 0,38193098954687 
969	 0,381171489414344 
970	 0,381894830594515 
971	 0,382891926852282 
972	 0,383015037655609 
973	 0,381587416433903 
974	 0,382306745870551 
975	 0,38368605305979 
976	 0,381908101125181 
977	 0,382128055919808 
978	 0,384225465097899 
979	 0,382667708388939 
980	 0,381399029720424 
981	 0,382186475159963 
982	 0,382996180337772 
983	 0,383570636484631 
984	 0,383855540953567 
985	 0,384528708184414 
986	 0,385442850695368 
987	 0,386095476508054 
988	 0,386407332939183 
989	 0,386416344383814 
990	 0,386133704351601 
991	 0,387345145846701 
992	 0,390243940445022 
993	 0,39014837139403 
994	 0,389260996080003 
995	 0,39007206825687 
996	 0,388315665130476 
997	 0,386892929301057 
998	 0,392781168373821 
999	 0,395426984904206 
1000	 0,393669362672528 
1001	 0,395376600388513 
1002	 0,395956817061815 
1003	 0,394001825576535 
1004	 0,395221520198327 
1005	 0,396625196722914 
1006	 0,395303819014132 
1007	 0,396792090846756 
1008	 0,399122124710325 
1009	 0,39721097937676 
1010	 0,397273204640205 
1011	 0,399810114256229 
1012	 0,400588987460587 
1013	 0,402562077967226 
1014	 0,406002199239835 
1015	 0,406305516019552 
1016	 0,404209793677198 
1017	 0,401251251539365 
1018	 0,403110218194988 
1019	 0,405937406132546 
1020	 0,402934527281344 
1021	 0,403966014260102 
1022	 0,408784433964592 
1023	 0,410444864468838 
1024	 0,408617592188556 
1025	 0,404792538709977 
1026	 0,406355914601909 
1027	 0,409377717692699 
1028	 0,41086557151036 
1029	 0,410410650743395 
1030	 0,409090941479852 
1031	 0,408328798478636 
1032	 0,408029178561294 
1033	 0,409407967845579 
1034	 0,414899186004663 
1035	 0,414179643313316 
1036	 0,409034223681001 
1037	 0,417471272440679 
1038	 0,420014024068333 
1039	 0,410887156088382 
1040	 0,410659512641627 
1041	 0,412481467150337 
1042	 0,410909592094776 
1043	 0,417475024971026 
1044	 0,42486621257332 
1045	 0,421537351688127 
1046	 0,421455856022893 
1047	 0,423926285544329 
1048	 0,420160690400641 
1049	 0,417357929189465 
1050	 0,418226911116056 
1051	 0,423927216132995 
1052	 0,426758247523403 
1053	 0,424757207879777 
1054	 0,432055607589602 
1055	 0,436725665228427 
1056	 0,428550092688195 
1057	 0,418832151856519 
1058	 0,414817620642067 
1059	 0,42257824019938 
1060	 0,417634166045622 
1061	 0,409377384052039 
1062	 0,430786949774059 
1063	 0,432294929511576 
1064	 0,412773779474301 
1065	 0,425005983658574 
1066	 0,433038383924479 
1067	 0,422997524687091 
1068	 0,413876496050472 
1069	 0,411914950296436 
1070	 0,419995562251691 
1071	 0,428981284639275 
1072	 0,433573857263133 
1073	 0,43016943156717 
1074	 0,437784178680508 
1075	 0,446994466231331 
