Wavelength	NEUF00635.asd
325	 1,03477523324852E-02 
326	-0,116902247860653 
327	-0,10127322177027 
328	 3,14095269061941E-02 
329	 9,12917516824674E-02 
330	 0,110521918369008 
331	 8,46029796866447E-02 
332	 0,120839581842083 
333	 0,15597653722541 
334	 7,08827468352129E-02 
335	 6,73913993122945E-02 
336	 0,182471987878976 
337	 0,16539267050297 
338	 7,76495278069255E-02 
339	 0,013090280049134 
340	 3,30149644852079E-03 
341	 5,29374749161394E-02 
342	 0,159455826426463 
343	 0,204118037671493 
344	 0,182523789171441 
345	 0,127029590732867 
346	 9,51334408913845E-02 
347	 0,125735557850117 
348	 8,59844722818484E-02 
349	 6,54903722324236E-03 
350	 5,01787391557646E-02 
351	 0,108416202897049 
352	 0,131856612665785 
353	 7,92231150339315E-02 
354	 2,13033058480442E-02 
355	 4,99301419222002E-02 
356	 0,070373346425718 
357	 7,04118454486071E-02 
358	 7,69015500472826E-02 
359	 8,06098374174107E-02 
360	 7,95340158601557E-02 
361	 8,84771149035148E-02 
362	 0,085488857415795 
363	 3,73693253242629E-02 
364	 4,82298695785822E-02 
365	 0,109013274528799 
366	 0,10808988162194 
367	 8,74532126631533E-02 
368	 7,25069420181095E-02 
369	 6,67106976167251E-02 
370	 6,83208481130015E-02 
371	 7,13675592500721E-02 
372	 0,064488710266126 
373	 5,12749483792763E-02 
374	 5,68321393619292E-02 
375	 7,76497466500453E-02 
376	 0,106042049873105 
377	 9,55807457619703E-02 
378	 6,78179478116822E-02 
379	 8,56493809743661E-02 
380	 8,61810303874686E-02 
381	 6,27607860729505E-02 
382	 8,02118793912443E-02 
383	 9,81615968084318E-02 
384	 7,86833287562636E-02 
385	 0,07169243278201 
386	 7,71722597662643E-02 
387	 6,47688703996438E-02 
388	 6,88219469157622E-02 
389	 9,55275890342012E-02 
390	 0,106030861384377 
391	 0,101713702055321 
392	 8,77447560198355E-02 
393	 7,64442466974486E-02 
394	 6,98768183319242E-02 
395	 6,15081221525684E-02 
396	 6,29665066439376E-02 
397	 7,57988657995631E-02 
398	 6,96494323547015E-02 
399	 5,55249176859411E-02 
400	 5,34470874868237E-02 
401	 6,18939111723828E-02 
402	 7,51583607874894E-02 
403	 7,39638837642178E-02 
404	 7,42729249947568E-02 
405	 8,52208936969678E-02 
406	 0,081787271416879 
407	 6,93448075206655E-02 
408	 6,41366060845172E-02 
409	 6,68962548285153E-02 
410	 7,40810804752189E-02 
411	 6,73505769186994E-02 
412	 5,83764739253154E-02 
413	 5,88134595342995E-02 
414	 6,50296930264751E-02 
415	 7,24016552307728E-02 
416	 7,15652809381343E-02 
417	 7,14549094368923E-02 
418	 7,44418157308817E-02 
419	 0,07149644875372 
420	 6,59501031949664E-02 
421	 6,26595911134734E-02 
422	 6,26053107303862E-02 
423	 6,44365858791557E-02 
424	 6,18863602164893E-02 
425	 6,39557901730389E-02 
426	 7,40776108516061E-02 
427	 7,27883840255692E-02 
428	 6,55641264341553E-02 
429	 6,61925346136993E-02 
430	 6,90198162592766E-02 
431	 7,10737254713506E-02 
432	 6,61305155737255E-02 
433	 6,16661317464653E-02 
434	 6,42973596644918E-02 
435	 6,79400900017977E-02 
436	 7,02958743397246E-02 
437	 6,86847717568649E-02 
438	 6,69696424176918E-02 
439	 6,65004039642473E-02 
440	 6,44946494594106E-02 
441	 0,063225138392792 
442	 6,57816407045366E-02 
443	 6,64332486632642E-02 
444	 6,54887730768529E-02 
445	 6,92818179757791E-02 
446	 7,17117242897757E-02 
447	 6,96522487066941E-02 
448	 7,08247810332672E-02 
449	 7,25806868411226E-02 
450	 0,067531618055978 
451	 6,80577839511081E-02 
452	 7,46380326871268E-02 
453	 7,13793412952411E-02 
454	 6,60884563826633E-02 
455	 6,67127524924533E-02 
456	 6,88437327028051E-02 
457	 7,13004939420264E-02 
458	 7,34758495638243E-02 
459	 7,39099737146137E-02 
460	 7,22719925941127E-02 
461	 7,10221651905591E-02 
462	 7,01138539164701E-02 
463	 6,90988822706844E-02 
464	 6,96079141600749E-02 
465	 7,12655277151522E-02 
466	 0,071824820415989 
467	 0,07039347875263 
468	 6,69235380970506E-02 
469	 6,67818511703118E-02 
470	 6,83812310549531E-02 
471	 0,066732888805962 
472	 6,66237396877697E-02 
473	 6,89266208871262E-02 
474	 7,07543715694299E-02 
475	 7,07009665567504E-02 
476	 6,78200170665676E-02 
477	 6,82040021615626E-02 
478	 7,11892957011319E-02 
479	 7,16265392639636E-02 
480	 7,03233669886277E-02 
481	 6,80813807218462E-02 
482	 6,83750917251405E-02 
483	 6,90050176150315E-02 
484	 6,60009074395137E-02 
485	 6,75534759491834E-02 
486	 0,073209496680164 
487	 7,32308000767846E-02 
488	 7,09324387601654E-02 
489	 6,91070605917785E-02 
490	 6,82745143916111E-02 
491	 6,83733047843781E-02 
492	 6,89742136009409E-02 
493	 6,90232993867836E-02 
494	 6,82793772342497E-02 
495	 6,81330232943831E-02 
496	 6,75934804186334E-02 
497	 6,55048979180118E-02 
498	 6,81582070728833E-02 
499	 7,34216775166297E-02 
500	 7,05343803932042E-02 
501	 6,73444377666657E-02 
502	 6,81836345256724E-02 
503	 6,95645293926493E-02 
504	 0,07055851028061 
505	 7,02900793197299E-02 
506	 7,06433997475509E-02 
507	 7,18944539135544E-02 
508	 7,27682315436615E-02 
509	 7,27485099474356E-02 
510	 7,15820776660809E-02 
511	 7,23360891907125E-02 
512	 0,073965103519448 
513	 7,19885190211665E-02 
514	 7,08398377657122E-02 
515	 7,21512183242972E-02 
516	 0,073134852676415 
517	 7,33916980887742E-02 
518	 7,27592092865534E-02 
519	 0,073045914524795 
520	 7,42124053205699E-02 
521	 7,42512190831004E-02 
522	 7,40300818482283E-02 
523	 0,074191366159084 
524	 7,43167127145486E-02 
525	 7,44898143370799E-02 
526	 7,51834359024739E-02 
527	 7,49855415268526E-02 
528	 7,38403400041402E-02 
529	 7,44229385290797E-02 
530	 7,48939369575031E-02 
531	 7,30009831066169E-02 
532	 7,30194099795684E-02 
533	 7,48139361956447E-02 
534	 0,074828625340513 
535	 7,45376245074316E-02 
536	 7,47452280230066E-02 
537	 7,48094137927047E-02 
538	 7,43961388430039E-02 
539	 0,072842915684252 
540	 7,28590630822183E-02 
541	 7,45919557933897E-02 
542	 7,43754933438351E-02 
543	 7,38050156208398E-02 
544	 7,45406873504987E-02 
545	 7,45593465945638E-02 
546	 7,40343409887934E-02 
547	 7,45019387849837E-02 
548	 7,53783611656586E-02 
549	 7,61704885671438E-02 
550	 7,54830164868501E-02 
551	 7,44804052089936E-02 
552	 7,51909684094073E-02 
553	 7,59428922277159E-02 
554	 7,61887477055568E-02 
555	 7,58519760776359E-02 
556	 7,52432147672705E-02 
557	 7,46523699728074E-02 
558	 7,41862711987326E-02 
559	 7,38876846472047E-02 
560	 7,37986320283957E-02 
561	 7,35765561866535E-02 
562	 7,31777124990169E-02 
563	 7,34008853718617E-02 
564	 7,34555830487478E-02 
565	 7,22276281508694E-02 
566	 7,17007493220967E-02 
567	 7,22061360647276E-02 
568	 7,29675482854018E-02 
569	 7,35887580146519E-02 
570	 7,37975311525227E-02 
571	 7,39562939633133E-02 
572	 7,42854905791576E-02 
573	 7,51258299228299E-02 
574	 7,59569474970985E-02 
575	 7,66214648077142E-02 
576	 0,077306440268254 
577	 7,83824517539517E-02 
578	 8,02008807642871E-02 
579	 0,080612037381398 
580	 8,01375497388137E-02 
581	 8,21184979369498E-02 
582	 8,37431046138619E-02 
583	 8,36319574701696E-02 
584	 8,44051105368935E-02 
585	 8,55908586173084E-02 
586	 8,57776346465288E-02 
587	 8,57780498389728E-02 
588	 8,58875449086006E-02 
589	 8,61947474545762E-02 
590	 8,68043333196265E-02 
591	 8,77699900341733E-02 
592	 8,85173967536295E-02 
593	 0,088927558940788 
594	 8,89585530404579E-02 
595	 8,94636791185702E-02 
596	 9,06074006580089E-02 
597	 0,090564376492399 
598	 8,98397936612266E-02 
599	 8,94656287102765E-02 
600	 8,94052066445807E-02 
601	 8,95112461105728E-02 
602	 8,90937286243709E-02 
603	 8,86930558088058E-02 
604	 8,86885362669592E-02 
605	 8,81632098546094E-02 
606	 8,73407493187696E-02 
607	 8,71364860742588E-02 
608	 8,69613130791166E-02 
609	 8,65663344102152E-02 
610	 8,58561980982324E-02 
611	 8,50408964430775E-02 
612	 8,43865566488727E-02 
613	 8,41212084230328E-02 
614	 8,42097385776832E-02 
615	 8,43420419635942E-02 
616	 8,44518962471647E-02 
617	 8,43814778581251E-02 
618	 8,31510425086554E-02 
619	 8,17907319342062E-02 
620	 8,26330282455147E-02 
621	 8,30090167524513E-02 
622	 8,22673641136974E-02 
623	 0,08183414985229 
624	 8,17814776486281E-02 
625	 8,20845190641105E-02 
626	 8,23751528818961E-02 
627	 8,26042446006443E-02 
628	 0,082975383440234 
629	 8,31339075992188E-02 
630	 8,29954650561972E-02 
631	 8,33264486197146E-02 
632	 8,39892605391275E-02 
633	 8,46287647319502E-02 
634	 8,49501914083126E-02 
635	 8,50826670369777E-02 
636	 8,59841836097378E-02 
637	 8,70156221676412E-02 
638	 8,76190849576202E-02 
639	 8,81772292422937E-02 
640	 8,87503930059436E-02 
641	 8,93365962274597E-02 
642	 8,98793702445309E-02 
643	 0,09034260257723 
644	 9,06750360060832E-02 
645	 9,09768721791357E-02 
646	 9,13822810625636E-02 
647	 9,17104127855583E-02 
648	 9,18219734700196E-02 
649	 9,14121458959233E-02 
650	 9,10231518610784E-02 
651	 9,09612145118554E-02 
652	 9,04860180465534E-02 
653	 8,95796381141906E-02 
654	 8,84216658743635E-02 
655	 8,72233707133521E-02 
656	 8,60347212197543E-02 
657	 8,45473387184652E-02 
658	 8,31025538522139E-02 
659	 8,20430551260665E-02 
660	 8,07466706967438E-02 
661	 7,93051223824741E-02 
662	 0,0784002109051 
663	 0,077394977197632 
664	 0,076062108372647 
665	 7,51998095102192E-02 
666	 0,074604810505971 
667	 7,38092697053656E-02 
668	 7,32952761508776E-02 
669	 7,29897765523168E-02 
670	 7,20865776594398E-02 
671	 7,11870796064693E-02 
672	 7,08065503755761E-02 
673	 0,070871614919037 
674	 7,11495424705589E-02 
675	 7,11786709731329E-02 
676	 7,10150610108328E-02 
677	 7,07085836286899E-02 
678	 7,04752797781014E-02 
679	 7,04408479543518E-02 
680	 7,07189028632453E-02 
681	 7,11033323439164E-02 
682	 7,15410606999092E-02 
683	 7,19686533891951E-02 
684	 0,072875312972278 
685	 7,44116866614344E-02 
686	 7,51742105362544E-02 
687	 7,59316959747877E-02 
688	 7,83568769784509E-02 
689	 0,081074309117185 
690	 8,37079196787731E-02 
691	 8,64114058504279E-02 
692	 8,99151005557743E-02 
693	 9,48270646562201E-02 
694	 0,100377939666345 
695	 0,106531604658437 
696	 0,113544373736866 
697	 0,121218494490171 
698	 0,129510240811082 
699	 0,138678770116831 
700	 0,148513446725025 
701	 0,158670216724635 
702	 0,168928547598877 
703	 0,179405621006021 
704	 0,19086368811003 
705	 0,202074080300986 
706	 0,212249382883527 
707	 0,222056497968534 
708	 0,231735607563178 
709	 0,241555535083432 
710	 0,250704437306544 
711	 0,259074184652347 
712	 0,267495014905648 
713	 0,27552088010308 
714	 0,282718712655279 
715	 0,289273612910366 
716	 0,295463302869293 
717	 0,30195580195104 
718	 0,307964078981987 
719	 0,313160803187565 
720	 0,317744326842676 
721	 0,321953895932463 
722	 0,326077522009241 
723	 0,329997802546195 
724	 0,333651212721742 
725	 0,336891998424505 
726	 0,339903431568996 
727	 0,342769556279387 
728	 0,345241375564702 
729	 0,347429984103235 
730	 0,349565866031005 
731	 0,351605561567336 
732	 0,353576250891453 
733	 0,355660830239862 
734	 0,35737130471549 
735	 0,358337585376552 
736	 0,359503344338258 
737	 0,360905095881239 
738	 0,362185870115732 
739	 0,363267847229174 
740	 0,364157401016289 
741	 0,365218697630515 
742	 0,366153968350564 
743	 0,366601084018722 
744	 0,367046882253591 
745	 0,36764505678632 
746	 0,368458153274945 
747	 0,369283097525985 
748	 0,370012689220831 
749	 0,370771681028659 
750	 0,371524091524587 
751	 0,372192213196002 
752	 0,372884199019986 
753	 0,373582827066889 
754	 0,374144576352528 
755	 0,374538643540102 
756	 0,374768411352705 
757	 0,375061153012812 
758	 0,375451431594071 
759	 0,37593734610304 
760	 0,37625828424822 
761	 0,376450632278734 
762	 0,377163213186622 
763	 0,377816334046154 
764	 0,377875843522846 
765	 0,3781606867861 
766	 0,378649376137751 
767	 0,378850665973087 
768	 0,379103285979377 
769	 0,379498851131127 
770	 0,37974234282323 
771	 0,38004393524021 
772	 0,380666051474849 
773	 0,381144942047371 
774	 0,381441931055053 
775	 0,381820998734209 
776	 0,382106300643435 
777	 0,382218079090568 
778	 0,382222993188316 
779	 0,382339557119692 
780	 0,382870617454912 
781	 0,383053691722522 
782	 0,382857257401728 
783	 0,382928060011084 
784	 0,383220926304869 
785	 0,383640298598201 
786	 0,383597891796751 
787	 0,383457620413411 
788	 0,384032685792952 
789	 0,384413007984587 
790	 0,384414757920912 
791	 0,384523263016162 
792	 0,38460397100099 
793	 0,38455191059575 
794	 0,384448300534226 
795	 0,384513790516002 
796	 0,385214552527628 
797	 0,385687909025394 
798	 0,385702201866739 
799	 0,38576405146365 
800	 0,385831336674453 
801	 0,385860216127011 
802	 0,386117798192058 
803	 0,386452106995456 
804	 0,386268492093673 
805	 0,386560514367631 
806	 0,387476344719127 
807	 0,387663559097392 
808	 0,387671335368315 
809	 0,38815101538623 
810	 0,388067074040162 
811	 0,38768055975755 
812	 0,388277842664265 
813	 0,388938443762001 
814	 0,389304311857284 
815	 0,389787243695164 
816	 0,390080190413419 
817	 0,389818312527992 
818	 0,38995278836483 
819	 0,390521986866576 
820	 0,390996416744393 
821	 0,391107806547778 
822	 0,390850730663022 
823	 0,391114870092612 
824	 0,391881701606906 
825	 0,392982515657312 
826	 0,393350439031143 
827	 0,393067747516529 
828	 0,393328078526169 
829	 0,393616874068609 
830	 0,393708448718954 
831	 0,393831557167332 
832	 0,39412126115637 
833	 0,394722537513467 
834	 0,394434462260354 
835	 0,393608011798315 
836	 0,394434266601541 
837	 0,395147968183283 
838	 0,394892103372155 
839	 0,394911363184264 
840	 0,395086249067167 
841	 0,395057552420372 
842	 0,395492416056277 
843	 0,396199580048705 
844	 0,396013444170445 
845	 0,39579678603865 
846	 0,396019427621258 
847	 0,396365331218285 
848	 0,396645058431027 
849	 0,396646620997116 
850	 0,396699285355607 
851	 0,396797531656724 
852	 0,396630449457201 
853	 0,396427613948339 
854	 0,396347200281443 
855	 0,396539217316807 
856	 0,396695305090401 
857	 0,396385636261899 
858	 0,396286196889322 
859	 0,396531717564963 
860	 0,396990932892852 
861	 0,397334781172104 
862	 0,397454161608979 
863	 0,39795910259083 
864	 0,3984971965874 
865	 0,398547499968369 
866	 0,398798455208652 
867	 0,399249201120133 
868	 0,399374628429225 
869	 0,399562003238874 
870	 0,399896144669059 
871	 0,399667937584196 
872	 0,39953793785573 
873	 0,400319779340273 
874	 0,400474526777867 
875	 0,400096474701038 
876	 0,400431538029183 
877	 0,401006051426114 
878	 0,401601280930187 
879	 0,402177288210256 
880	 0,402374811338515 
881	 0,401905132407808 
882	 0,402336983776345 
883	 0,403383966122496 
884	 0,403411859383063 
885	 0,40346196534208 
886	 0,403779664739222 
887	 0,403729090361384 
888	 0,403578079064762 
889	 0,403591185741349 
890	 0,403335456609451 
891	 0,403212201868373 
892	 0,404334056437091 
893	 0,404593859416523 
894	 0,40381934824792 
895	 0,404614230532385 
896	 0,405368965708046 
897	 0,404906359054692 
898	 0,405247328602122 
899	 0,406001358415138 
900	 0,405928218117657 
901	 0,406005403327799 
902	 0,406390537672191 
903	 0,406674723833914 
904	 0,406606855543539 
905	 0,406208995928448 
906	 0,406829227232173 
907	 0,407869244157752 
908	 0,408250414889769 
909	 0,407617171355271 
910	 0,406374358695088 
911	 0,406015124545667 
912	 0,406154028237894 
913	 0,40653870509162 
914	 0,406734659119858 
915	 0,40672065940049 
916	 0,406544845180331 
917	 0,406318599680151 
918	 0,406368586384582 
919	 0,407509854391522 
920	 0,408152401159717 
921	 0,407787071621714 
922	 0,407060810234518 
923	 0,406336807459293 
924	 0,405918460049666 
925	 0,405780284104193 
926	 0,405588086372701 
927	 0,404705516696111 
928	 0,404986832689643 
929	 0,406207802399841 
930	 0,405570011332003 
931	 0,404566885433934 
932	 0,404159639026252 
933	 0,404389034079391 
934	 0,404738807918556 
935	 0,404515063191041 
936	 0,403085240025283 
937	 0,40130332879139 
938	 0,401952309502317 
939	 0,402317174454219 
940	 0,401618192058547 
941	 0,401715135200235 
942	 0,401520961893163 
943	 0,400175425574761 
944	 0,400009338716843 
945	 0,400247382800395 
946	 0,398745057048019 
947	 0,397347203124906 
948	 0,396643335908687 
949	 0,39693030266528 
950	 0,395992676549258 
951	 0,392990115069003 
952	 0,391369946194997 
953	 0,390814829363366 
954	 0,390434561337629 
955	 0,389518580170605 
956	 0,388226541008216 
957	 0,387488518239275 
958	 0,386724183516261 
959	 0,385962923133853 
960	 0,386163501991925 
961	 0,386526526542737 
962	 0,386308489938919 
963	 0,384902923912294 
964	 0,38339641008512 
965	 0,38354356752889 
966	 0,384258044224368 
967	 0,384984126512723 
968	 0,384990914087638 
969	 0,384640811684959 
970	 0,384163398931223 
971	 0,383753338076355 
972	 0,383880497583463 
973	 0,38475524130042 
974	 0,384018741974213 
975	 0,382933367024247 
976	 0,384444938957319 
977	 0,385485064444914 
978	 0,385446146347278 
979	 0,385458549567458 
980	 0,384624993229988 
981	 0,38314650448211 
982	 0,384677525413833 
983	 0,386435643303356 
984	 0,385546614049879 
985	 0,385603809847118 
986	 0,386747084996485 
987	 0,388069217636372 
988	 0,387735043899611 
989	 0,386164909605025 
990	 0,386810650344565 
991	 0,388867451475418 
992	 0,391157662139275 
993	 0,389588121641536 
994	 0,388033003012989 
995	 0,390492539605252 
996	 0,390127609254443 
997	 0,38908946984571 
998	 0,393937273476588 
999	 0,395935576503258 
1000	 0,394083515976801 
1001	 0,394167291030353 
1002	 0,395664816127412 
1003	 0,39794246641952 
1004	 0,398454679812636 
1005	 0,398538652307427 
1006	 0,399600670953662 
1007	 0,400209426969082 
1008	 0,399364079084771 
1009	 0,395749068774416 
1010	 0,395505241964813 
1011	 0,39880836597991 
1012	 0,400210848465544 
1013	 0,401989882447461 
1014	 0,404363279283067 
1015	 0,404075132988892 
1016	 0,403124638177928 
1017	 0,403481029815921 
1018	 0,405715232647929 
1019	 0,407399142360731 
1020	 0,405018321037666 
1021	 0,406266828197919 
1022	 0,410288173349928 
1023	 0,409189677661309 
1024	 0,408942664612437 
1025	 0,410788139044867 
1026	 0,411175142636446 
1027	 0,410073099125774 
1028	 0,407933151030553 
1029	 0,407474849706964 
1030	 0,408519916317336 
1031	 0,410299351748021 
1032	 0,41087843894885 
1033	 0,410633701737447 
1034	 0,411296651507409 
1035	 0,410665382951445 
1036	 0,409744041032552 
1037	 0,414386868530963 
1038	 0,416186373911984 
1039	 0,413391093682449 
1040	 0,420362523242724 
1041	 0,420886429148093 
1042	 0,405103878904822 
1043	 0,407030367649622 
1044	 0,420744207834348 
1045	 0,430846497129641 
1046	 0,429518445082195 
1047	 0,419744791875007 
1048	 0,412899306875602 
1049	 0,412209370009922 
1050	 0,41741282535411 
1051	 0,422593666887319 
1052	 0,417124068311176 
1053	 0,401887829084883 
1054	 0,41219915110379 
1055	 0,427460123873066 
1056	 0,427970957757916 
1057	 0,424508986867341 
1058	 0,417240513890366 
1059	 0,405168999997084 
1060	 0,407181784333653 
1061	 0,420567264176235 
1062	 0,430895269195181 
1063	 0,427173249369719 
1064	 0,414239626518389 
1065	 0,424152022257014 
1066	 0,430900956571847 
1067	 0,424985909955087 
1068	 0,424772610363028 
1069	 0,424746469008732 
1070	 0,42059010031515 
1071	 0,415544952576666 
1072	 0,416442976043519 
1073	 0,42962508963817 
1074	 0,437633906368014 
1075	 0,436397887929863 
