Wavelength	NEUF00233.asd
325	-9,37952632609121E-02 
326	-0,101545427625784 
327	-2,41475465638829E-02 
328	 6,13608794067256E-02 
329	 5,89545592893618E-02 
330	-8,12527381502434E-03 
331	-0,167229364856268 
332	-0,141614115687454 
333	 8,16742153441454E-04 
334	 9,35185241295447E-02 
335	 0,11538517543148 
336	 4,03583066947361E-02 
337	-7,97012880905033E-02 
338	-0,157360944957762 
339	-0,139586649513385 
340	-9,42728087718088E-02 
341	-2,81335625771096E-02 
342	 5,17964617909903E-02 
343	 8,21120441452854E-02 
344	 7,16776010825769E-02 
345	 6,99623655317118E-02 
346	 6,35543354864192E-02 
347	 3,62828107168089E-02 
348	-6,55923279829985E-03 
349	-0,038992271965362 
350	 1,90024294257757E-02 
351	 5,23866525240792E-02 
352	 2,69358810672416E-02 
353	-2,01973437695158E-02 
354	-5,38876071247695E-02 
355	-3,20843604229211E-02 
356	 1,81900794691485E-03 
357	 2,55115694845313E-02 
358	 9,28940803234051E-03 
359	 8,73995948160893E-03 
360	 4,10194485255637E-02 
361	 3,17807358581584E-02 
362	 3,04525947084013E-03 
363	-7,77114357375353E-03 
364	 3,24194563578611E-03 
365	 2,51292453240647E-02 
366	 2,17671005410038E-02 
367	 1,71204901476679E-02 
368	 2,30882162610143E-02 
369	 2,13862023904018E-03 
370	-1,51726685478804E-02 
371	 2,67682789668585E-02 
372	 5,29126242959671E-02 
373	 4,60053123667733E-02 
374	 3,78911446946856E-02 
375	 2,40220312551843E-02 
376	 3,18610444946332E-03 
377	 4,47170978184236E-03 
378	 1,61963898736527E-02 
379	-1,19631322847722E-05 
380	 1,28605348646658E-02 
381	 5,54340248464913E-02 
382	 5,38772694440994E-02 
383	 3,04521297750235E-02 
384	 8,81520282123833E-03 
385	 1,06859613904103E-02 
386	 0,024037073075368 
387	 2,80048349351528E-03 
388	-7,71362083379025E-03 
389	 6,13923999253144E-03 
390	 1,15940198047831E-02 
391	 7,80522812424226E-03 
392	-3,00909236404295E-03 
393	 2,87510007158239E-03 
394	 2,23446088844441E-02 
395	 3,32080523387625E-02 
396	 3,42936089790996E-02 
397	 2,70472254974382E-02 
398	 0,028989585840804 
399	 3,11164323255492E-02 
400	 1,70236294069469E-02 
401	 9,78058213531796E-03 
402	 1,40616556576903E-02 
403	 2,46625869800085E-02 
404	 3,12055612975627E-02 
405	 2,67111343783924E-02 
406	 1,52467694667547E-02 
407	 6,12891652714662E-03 
408	 1,70467098009623E-02 
409	 0,021537609086207 
410	 0,013318541404901 
411	 1,83258178874576E-03 
412	-3,66656805530218E-03 
413	 4,03780823945951E-03 
414	 0,012028720502263 
415	 1,62958815824057E-02 
416	 1,38074392828776E-02 
417	 1,27281326855648E-02 
418	 1,53834875725126E-02 
419	 1,20125191731351E-02 
420	 9,47560759058178E-03 
421	 1,70738009687947E-02 
422	 1,79657452190197E-02 
423	 1,21408345731457E-02 
424	 0,012302994441942 
425	 1,43221635807234E-02 
426	 1,55910603549488E-02 
427	 0,016678212549867 
428	 1,74312783267557E-02 
429	 1,77002146634298E-02 
430	 1,69852684077645E-02 
431	 1,54436226770801E-02 
432	 1,37873791984366E-02 
433	 1,40282358225573E-02 
434	 1,75333170630925E-02 
435	 1,83826500321665E-02 
436	 1,64138321651231E-02 
437	 1,34292548901839E-02 
438	 1,42923629649109E-02 
439	 1,91571972856008E-02 
440	 1,57186176048319E-02 
441	 9,91073903378097E-03 
442	 1,05416539754876E-02 
443	 1,24198949406033E-02 
444	 1,42920310463922E-02 
445	 1,63909322070318E-02 
446	 1,72910800511564E-02 
447	 1,65885661222781E-02 
448	 1,89568624661406E-02 
449	 2,19191445431159E-02 
450	 1,96701236841857E-02 
451	 1,77550875275856E-02 
452	 1,78889328827821E-02 
453	 1,95139796224474E-02 
454	 1,99204806698611E-02 
455	 1,68712869856195E-02 
456	 1,56798414639789E-02 
457	 0,017081294435291 
458	 2,06073969727756E-02 
459	 2,20622198415556E-02 
460	 1,98647347047606E-02 
461	 1,72697763057801E-02 
462	 1,54776597726717E-02 
463	 1,55598993966099E-02 
464	 1,68688595005747E-02 
465	 0,018725799630944 
466	 2,01930697095912E-02 
467	 1,90916672925213E-02 
468	 1,47140722226048E-02 
469	 1,43360128812175E-02 
470	 1,66882292191793E-02 
471	 1,71279910812314E-02 
472	 1,66666416530271E-02 
473	 1,57326464108941E-02 
474	 1,55885316258807E-02 
475	 1,51016814480585E-02 
476	 1,32614718042586E-02 
477	 1,46570740345275E-02 
478	 1,79558444493834E-02 
479	 1,71651075964704E-02 
480	 1,54843770093534E-02 
481	 1,46488126541718E-02 
482	 1,58474593500909E-02 
483	 1,69486309476841E-02 
484	 1,45639718178578E-02 
485	 1,47888019093504E-02 
486	 1,79904032142324E-02 
487	 1,92316307662085E-02 
488	 1,92375654706109E-02 
489	 1,85915685031918E-02 
490	 1,67109341444368E-02 
491	 1,50070990828842E-02 
492	 1,67552670718102E-02 
493	 1,84870875226732E-02 
494	 0,018833335963359 
495	 1,77947274258215E-02 
496	 1,66452268598758E-02 
497	 0,016782013652741 
498	 1,66700642530134E-02 
499	 0,016382366016106 
500	 1,73707870925783E-02 
501	 1,76695011586697E-02 
502	 1,64674196117949E-02 
503	 1,68349524062917E-02 
504	 1,80334287772924E-02 
505	 1,81072126065393E-02 
506	 1,81021205135658E-02 
507	 0,018300982771391 
508	 1,86601360873587E-02 
509	 1,90500126193377E-02 
510	 1,92993016150464E-02 
511	 0,018607467052844 
512	 1,71845103299387E-02 
513	 1,56667312928324E-02 
514	 1,52854849494348E-02 
515	 1,64894268986523E-02 
516	 1,82506868469795E-02 
517	 1,93003025840267E-02 
518	 1,80972738479644E-02 
519	 0,017779824011038 
520	 1,86201082498626E-02 
521	 1,82174987799801E-02 
522	 1,80349332663565E-02 
523	 1,90127609437031E-02 
524	 1,91384783794592E-02 
525	 1,86678028252532E-02 
526	 1,88769907126392E-02 
527	 1,92155862943144E-02 
528	 1,94484860774895E-02 
529	 1,93166274557257E-02 
530	 1,89277077598391E-02 
531	 1,84382247903375E-02 
532	 1,86916184825069E-02 
533	 1,94726433044292E-02 
534	 1,94930360647516E-02 
535	 1,93899995248361E-02 
536	 1,94996617882293E-02 
537	 1,93962882989386E-02 
538	 1,90731951713503E-02 
539	 1,85555672678901E-02 
540	 1,84409830670265E-02 
541	 1,88257518232081E-02 
542	 1,91746733827351E-02 
543	 1,93530082582359E-02 
544	 1,92455273424464E-02 
545	 1,83990517393612E-02 
546	 1,74357177770075E-02 
547	 1,82642398901365E-02 
548	 1,92077313859394E-02 
549	 1,93936753943811E-02 
550	 1,90048812541128E-02 
551	 1,84563519179448E-02 
552	 1,83180993495278E-02 
553	 0,018845586659423 
554	 1,97286832286917E-02 
555	 0,019453191320234 
556	 1,89230225460742E-02 
557	 1,89515235981697E-02 
558	 1,96666463361532E-02 
559	 2,03383347505263E-02 
560	 0,018976897689769 
561	 1,80870627286301E-02 
562	 1,85407063924147E-02 
563	 1,87628833307449E-02 
564	 1,88180635601504E-02 
565	 1,89800563089074E-02 
566	 1,93485581902413E-02 
567	 1,96949655355693E-02 
568	 0,019075266883027 
569	 1,86486600158925E-02 
570	 1,91706330587916E-02 
571	 1,94939164594824E-02 
572	 1,96342992019269E-02 
573	 2,00500109417324E-02 
574	 2,04147117594008E-02 
575	 2,05519713043757E-02 
576	 2,01267602352491E-02 
577	 1,98630399799418E-02 
578	 2,05685631077657E-02 
579	 2,11455885297929E-02 
580	 2,15001621099533E-02 
581	 2,22756263614778E-02 
582	 2,27854875069642E-02 
583	 2,26582778685824E-02 
584	 2,22681309216193E-02 
585	 2,19120509412089E-02 
586	 2,19730774998055E-02 
587	 2,22395431429372E-02 
588	 2,26098014724747E-02 
589	 2,30231535796799E-02 
590	 2,31774425110747E-02 
591	 2,28437113879031E-02 
592	 2,29154503881587E-02 
593	 2,33680254187608E-02 
594	 2,36228558930594E-02 
595	 2,38592790986524E-02 
596	 2,40594141031838E-02 
597	 2,36388054021246E-02 
598	 0,023207536447572 
599	 2,37666328180143E-02 
600	 2,38651448936393E-02 
601	 2,32866873974829E-02 
602	 2,28147486949168E-02 
603	 2,27425866009677E-02 
604	 2,31945040803651E-02 
605	 2,28722236149437E-02 
606	 2,21193092324667E-02 
607	 2,23189263551719E-02 
608	 2,26921375088652E-02 
609	 2,28550769197395E-02 
610	 0,022344024004652 
611	 2,17045405856525E-02 
612	 2,16497927244557E-02 
613	 2,17351012253875E-02 
614	 2,18836536089173E-02 
615	 2,23325690949057E-02 
616	 2,22465945857353E-02 
617	 2,12156833233598E-02 
618	 2,06931033657795E-02 
619	 2,05998857764596E-02 
620	 0,020312649379843 
621	 2,01608122380335E-02 
622	 2,01749268734323E-02 
623	 1,99718481940044E-02 
624	 0,020059624703343 
625	 2,09379976994579E-02 
626	 2,15835718998252E-02 
627	 2,17515884472682E-02 
628	 2,14184138696838E-02 
629	 2,12455741670322E-02 
630	 2,15600250478263E-02 
631	 2,18371483193322E-02 
632	 2,20417642753048E-02 
633	 2,22229370780585E-02 
634	 2,24352818322396E-02 
635	 2,26876049496731E-02 
636	 0,022902298087372 
637	 2,32253305760671E-02 
638	 2,37565477626276E-02 
639	 2,41042670528081E-02 
640	 2,43032134693078E-02 
641	 2,47104288776599E-02 
642	 2,47511843216897E-02 
643	 0,024310062409149 
644	 2,41434800917467E-02 
645	 2,42659207907301E-02 
646	 0,024590453372603 
647	 2,49508175188896E-02 
648	 2,51961908852163E-02 
649	 2,50355324258741E-02 
650	 2,48833352041689E-02 
651	 2,50280389106052E-02 
652	 2,54239406333055E-02 
653	 2,56536551840403E-02 
654	 2,49021275184594E-02 
655	 2,41018529078847E-02 
656	 2,35517999614169E-02 
657	 2,29285960342652E-02 
658	 2,23784564557589E-02 
659	 2,20583534043841E-02 
660	 0,02181804860922 
661	 2,15892796820503E-02 
662	 2,12883624473758E-02 
663	 2,10261928758229E-02 
664	 2,08255633917242E-02 
665	 2,04202131948792E-02 
666	 1,99767360226136E-02 
667	 1,97852412341109E-02 
668	 1,98185885672587E-02 
669	 1,99527280954174E-02 
670	 1,97448662988798E-02 
671	 1,95012954318596E-02 
672	 1,94793581882208E-02 
673	 1,96091473631013E-02 
674	 1,97139337285361E-02 
675	 0,019356026063914 
676	 1,92437193755868E-02 
677	 1,95180778445842E-02 
678	 1,93290240518508E-02 
679	 1,90798293383283E-02 
680	 1,93201675803285E-02 
681	 1,94911303215237E-02 
682	 1,96492039397364E-02 
683	 2,04520654532682E-02 
684	 2,10722167083963E-02 
685	 2,10679448368651E-02 
686	 2,11064580789216E-02 
687	 2,14426385597767E-02 
688	 2,23638147633618E-02 
689	 2,31536180631856E-02 
690	 2,36816041756592E-02 
691	 0,02438940479048 
692	 2,55263554793356E-02 
693	 2,72695372791354E-02 
694	 2,90627523612916E-02 
695	 3,11095566314679E-02 
696	 3,42007079742336E-02 
697	 0,037593383632722 
698	 4,10092200752335E-02 
699	 4,47841636579092E-02 
700	 4,89569944676573E-02 
701	 5,35125546801396E-02 
702	 5,84785825442816E-02 
703	 6,37726665002261E-02 
704	 0,069179573007018 
705	 7,46406045012927E-02 
706	 8,00187287884201E-02 
707	 8,46082236544189E-02 
708	 8,89459516862239E-02 
709	 9,41950023044087E-02 
710	 9,92925841580277E-02 
711	 0,103976529814854 
712	 0,108709244276496 
713	 0,113228547269109 
714	 0,117273014924479 
715	 0,120715162578888 
716	 0,123949832002981 
717	 0,128099138220552 
718	 0,131908382686615 
719	 0,134869859764644 
720	 0,13742340523339 
721	 0,139822518400061 
722	 0,142339944647613 
723	 0,144599559574662 
724	 0,146589423575264 
725	 0,148564024663737 
726	 0,15050554565448 
727	 0,152329668094173 
728	 0,153483704342881 
729	 0,154324942724892 
730	 0,155592828066055 
731	 0,156926140195753 
732	 0,158231254069362 
733	 0,159594313746974 
734	 0,160711241363726 
735	 0,161350393265223 
736	 0,16207451288414 
737	 0,162885586124477 
738	 0,163525671738545 
739	 0,163979481033337 
740	 0,164312080803586 
741	 0,164947668298112 
742	 0,165633605744007 
743	 0,166040641515079 
744	 0,166239132533497 
745	 0,166340424022539 
746	 0,166567063983554 
747	 0,16709171260758 
748	 0,167904861501087 
749	 0,168230694564219 
750	 0,16826146281416 
751	 0,168427614887546 
752	 0,168972681908617 
753	 0,169693561496606 
754	 0,169530408881848 
755	 0,169287717287222 
756	 0,169548772281844 
757	 0,169831035039504 
758	 0,170054934696626 
759	 0,170204556947522 
760	 0,170361467795167 
761	 0,170580326605577 
762	 0,170979808875016 
763	 0,171301676226544 
764	 0,171324032816197 
765	 0,171552323215322 
766	 0,171893200181953 
767	 0,171871199572901 
768	 0,171646294293118 
769	 0,171408388385582 
770	 0,171845356849391 
771	 0,17237896258637 
772	 0,172278757312528 
773	 0,172364221517768 
774	 0,172687300694362 
775	 0,172850900160612 
776	 0,172865032177244 
777	 0,172766460089072 
778	 0,17280088174833 
779	 0,172987787777298 
780	 0,173313384499042 
781	 0,1733203728461 
782	 0,173083515968311 
783	 0,173386276230669 
784	 0,173568224811069 
785	 0,173263000853712 
786	 0,173267827732923 
787	 0,173575483561044 
788	 0,173991850955452 
789	 0,17408540632278 
790	 0,173857391366333 
791	 0,173992654249128 
792	 0,174096264433806 
793	 0,173881719372199 
794	 0,17392806222525 
795	 0,174204813426812 
796	 0,174495700583938 
797	 0,17434276344178 
798	 0,173783260845131 
799	 0,173847127878686 
800	 0,174063597416474 
801	 0,173952891612913 
802	 0,173864406685977 
803	 0,173801465136052 
804	 0,173570677416981 
805	 0,17358868125121 
806	 0,173946092862447 
807	 0,17420725332484 
808	 0,174374915991893 
809	 0,174479372028342 
810	 0,174220146278251 
811	 0,173976049327135 
812	 0,17498756342336 
813	 0,175791033658348 
814	 0,175793918437007 
815	 0,175617165031555 
816	 0,175545100682243 
817	 0,175842255366719 
818	 0,176268395002911 
819	 0,176686243445986 
820	 0,176911827508683 
821	 0,176984433335592 
822	 0,176977617784925 
823	 0,177193732018169 
824	 0,177568477079624 
825	 0,177970526971744 
826	 0,177998671886833 
827	 0,177821264150587 
828	 0,178304392767431 
829	 0,178802879787891 
830	 0,178945278292569 
831	 0,178662223262506 
832	 0,178462343177508 
833	 0,179029339073204 
834	 0,178879516112098 
835	 0,178113291076722 
836	 0,178267785459823 
837	 0,17873088744141 
838	 0,179158333878177 
839	 0,17968693377991 
840	 0,179759207737817 
841	 0,17862220184169 
842	 0,178601506883834 
843	 0,179615448466076 
844	 0,179277816195053 
845	 0,17881281354294 
846	 0,178864751357338 
847	 0,178948784717437 
848	 0,179090871699016 
849	 0,179392111954373 
850	 0,179243557149516 
851	 0,178838957534761 
852	 0,179375146618795 
853	 0,179743875268105 
854	 0,179393111985532 
855	 0,178964189409462 
856	 0,178810645898003 
857	 0,17929175120064 
858	 0,179526416072513 
859	 0,179393837022618 
860	 0,179332062789595 
861	 0,179104604445658 
862	 0,178684549675879 
863	 0,178602183034365 
864	 0,178849134454219 
865	 0,179320932285952 
866	 0,179660663973695 
867	 0,179684278249135 
868	 0,179084037061675 
869	 0,17895948710659 
870	 0,179684866543011 
871	 0,179912170035016 
872	 0,179903795764112 
873	 0,180116978223128 
874	 0,179997677014422 
875	 0,17963675385289 
876	 0,179544217311724 
877	 0,179841128660198 
878	 0,180435605698705 
879	 0,180373151460249 
880	 0,180417266953209 
881	 0,181399689782682 
882	 0,18184903485709 
883	 0,181742278905958 
884	 0,181850126107901 
885	 0,181911593689134 
886	 0,181835414967738 
887	 0,181489942596183 
888	 0,181281056629472 
889	 0,181531021082405 
890	 0,181148945664071 
891	 0,180783427458679 
892	 0,1823621650678 
893	 0,183145282283682 
894	 0,182621596262378 
895	 0,182951058052959 
896	 0,183144367354267 
897	 0,18251711613318 
898	 0,182765121173691 
899	 0,183215315858716 
900	 0,182173931677008 
901	 0,182077364740254 
902	 0,183149898997265 
903	 0,183449316112748 
904	 0,183684943417984 
905	 0,184164855836436 
906	 0,183719643131367 
907	 0,183175851050103 
908	 0,183863729862904 
909	 0,183954260197433 
910	 0,183250606952119 
911	 0,182599843322388 
912	 0,182024394075538 
913	 0,181724011206208 
914	 0,182461298179322 
915	 0,183576563906003 
916	 0,18421619728878 
917	 0,183555602583362 
918	 0,18240663753484 
919	 0,183349199411288 
920	 0,183784249829809 
921	 0,183002300010155 
922	 0,18205045191052 
923	 0,18207307854764 
924	 0,183674151068549 
925	 0,183376719952741 
926	 0,182123947348699 
927	 0,182684464101825 
928	 0,182252190115653 
929	 0,180809309379224 
930	 0,18118006504643 
931	 0,181772369702575 
932	 0,181635864007982 
933	 0,181155028622822 
934	 0,180882041579261 
935	 0,18143523194004 
936	 0,181424618371452 
937	 0,180947981452013 
938	 0,181385282652044 
939	 0,180766243676233 
940	 0,178869164299699 
941	 0,178557794891389 
942	 0,17879992189162 
943	 0,178517750366904 
944	 0,178071435380124 
945	 0,177265805605919 
946	 0,175623104154934 
947	 0,175318137479933 
948	 0,176364041441691 
949	 0,176523957207921 
950	 0,175498635928566 
951	 0,173408217208425 
952	 0,172184919879726 
953	 0,171915835821478 
954	 0,172331709389885 
955	 0,171831452959521 
956	 0,17028450037069 
957	 0,168062374382971 
958	 0,16810666647821 
959	 0,17031387268967 
960	 0,168837298361361 
961	 0,167300511794043 
962	 0,168274291897069 
963	 0,167593418120855 
964	 0,166359951317311 
965	 0,16707641577087 
966	 0,16811855762152 
967	 0,16843885141242 
968	 0,165999927379152 
969	 0,16431594510494 
970	 0,164708761178695 
971	 0,164785421638174 
972	 0,165643918640886 
973	 0,167985493005524 
974	 0,167008926229082 
975	 0,164836771183445 
976	 0,166707708445546 
977	 0,167359155080592 
978	 0,166157418715694 
979	 0,166019439428215 
980	 0,166069771396677 
981	 0,165994189765344 
982	 0,166425378570004 
983	 0,16672657703519 
984	 0,166319424852023 
985	 0,166591899767212 
986	 0,167548507775246 
987	 0,168777156543058 
988	 0,168506615450783 
989	 0,166768649917987 
990	 0,16545053640452 
991	 0,166021923992903 
992	 0,168491063754662 
993	 0,167634429273122 
994	 0,166984897643351 
995	 0,170238514590045 
996	 0,17091162274263 
997	 0,169345988328032 
998	 0,168414605212827 
999	 0,169295652725701 
1000	 0,17150844660083 
1001	 0,171908968313898 
1002	 0,171071997430392 
1003	 0,17003519299083 
1004	 0,173064277418147 
1005	 0,175871494337219 
1006	 0,174298967084495 
1007	 0,172901739812597 
1008	 0,172277493616428 
1009	 0,172039213682202 
1010	 0,170948310941722 
1011	 0,169484009879539 
1012	 0,17003750916325 
1013	 0,172878845900772 
1014	 0,176856592935138 
1015	 0,176194372480493 
1016	 0,173570847787137 
1017	 0,171884230918601 
1018	 0,173032862502306 
1019	 0,174537187715394 
1020	 0,172388205500925 
1021	 0,174651825861297 
1022	 0,180370070023473 
1023	 0,181744636366885 
1024	 0,18022839526287 
1025	 0,17757676184078 
1026	 0,179632942792033 
1027	 0,18158674694933 
1028	 0,180433943737716 
1029	 0,17981955517633 
1030	 0,178693377568856 
1031	 0,175706703933149 
1032	 0,175056708945449 
1033	 0,177708211285688 
1034	 0,183893819336403 
1035	 0,183717017144974 
1036	 0,178140867403164 
1037	 0,181774070567831 
1038	 0,182773679152058 
1039	 0,177890790514614 
1040	 0,179930245956025 
1041	 0,18464064081263 
1042	 0,1874324202856 
1043	 0,185439782597797 
1044	 0,183945381850357 
1045	 0,190362847056106 
1046	 0,194128566134915 
1047	 0,194218020002269 
1048	 0,194034916649251 
1049	 0,19370858433953 
1050	 0,193124627118586 
1051	 0,191132577976544 
1052	 0,188150407231972 
1053	 0,184811574428065 
1054	 0,182341611370401 
1055	 0,181687727820879 
1056	 0,183113950872685 
1057	 0,182850895704477 
1058	 0,178990586601385 
1059	 0,170438001257792 
1060	 0,175524080465248 
1061	 0,190075024800108 
1062	 0,196749479006023 
1063	 0,202863433498949 
1064	 0,206504776271628 
1065	 0,195745783442064 
1066	 0,185359314028406 
1067	 0,183387281861443 
1068	 0,190026513360493 
1069	 0,195800988631205 
1070	 0,193467544332404 
1071	 0,18624368773955 
1072	 0,178289448840842 
1073	 0,174906522642293 
1074	 0,185644059842023 
1075	 0,199417188193419 
