Wavelength	NEUF00295.asd
325	 0,116441573693482 
326	-8,46592974920067E-02 
327	-0,121143458363276 
328	 3,98909495641734E-02 
329	 5,27229480661489E-02 
330	 2,19243540359437E-02 
331	 3,84074802858369E-03 
332	 0,100579444288704 
333	 0,173206614550739 
334	 5,57026766614753E-02 
335	 4,75819016535304E-02 
336	 0,198111303120986 
337	 0,119440718987498 
338	-0,035744178735184 
339	-8,93424332948111E-02 
340	-0,073439762774981 
341	-0,014459864997217 
342	 3,00984186813113E-02 
343	 6,48481893228982E-02 
344	 9,91795700383899E-02 
345	 0,10779542934255 
346	 7,28904051212107E-02 
347	-9,84403021574914E-03 
348	-4,95413235938017E-02 
349	-3,62736426325465E-02 
350	 1,53820698073501E-02 
351	 4,13925176986847E-02 
352	 2,79102244897439E-02 
353	 2,56130563304051E-02 
354	 2,60674410213803E-02 
355	 1,50754371325257E-02 
356	 1,4302007160152E-03 
357	-8,68322834804278E-04 
358	 4,55027142737776E-02 
359	 5,69700795097071E-02 
360	 7,79956815512302E-03 
361	 3,69898547454836E-03 
362	 1,35753461116207E-02 
363	-2,48016242260373E-02 
364	-1,45246424755185E-02 
365	 3,97222499122944E-02 
366	 5,26294927419787E-02 
367	 3,91427800630347E-02 
368	 9,17973925007874E-03 
369	-4,5574209469447E-03 
370	-1,90715437107227E-03 
371	 3,81532905547804E-03 
372	 1,45333771599922E-02 
373	 2,37190103752252E-02 
374	 0,010572513584868 
375	-6,66056793997336E-03 
376	-1,22750238655149E-02 
377	-9,02818699330383E-04 
378	 0,01651056226147 
379	 1,58063993009986E-02 
380	 1,59382438893475E-02 
381	 2,30311306217538E-02 
382	 4,00942705856944E-02 
383	 4,31235743266864E-02 
384	 1,16726946544753E-02 
385	 4,65744382135272E-03 
386	 0,017875258994649 
387	 5,67932779608028E-03 
388	 2,64929852869759E-03 
389	 1,66131554949411E-02 
390	 1,39626300635576E-02 
391	 2,7598092511622E-03 
392	-4,02187047319471E-03 
393	-0,001300892736884 
394	 6,67375536043432E-03 
395	 2,19344901792847E-03 
396	 7,44906500209603E-03 
397	 2,78438500531869E-02 
398	 2,17077653153169E-02 
399	 4,63434670625572E-03 
400	 4,89814878373766E-03 
401	 1,07094009424599E-02 
402	 1,71291208821224E-02 
403	 1,75905055896891E-02 
404	 1,56414041677121E-02 
405	 1,40110839434965E-02 
406	 1,19781622312434E-02 
407	 1,12925560462254E-02 
408	 1,59683524111612E-02 
409	 1,74189329004217E-02 
410	 1,35456133110584E-02 
411	 7,09240646333542E-03 
412	 3,27162126859134E-03 
413	 6,33915796365033E-03 
414	 9,60567288662767E-03 
415	 1,19192749123343E-02 
416	 1,42007026098338E-02 
417	 1,64797007345144E-02 
418	 1,79026096966209E-02 
419	 1,27900655207098E-02 
420	 8,89420695910643E-03 
421	 1,60017988254397E-02 
422	 1,84454773973144E-02 
423	 0,014575043418776 
424	 0,011261050252438 
425	 9,30479655152074E-03 
426	 9,26910525879352E-03 
427	 1,04966683158186E-02 
428	 1,15220526910374E-02 
429	 9,70069646203379E-03 
430	 1,17929893657855E-02 
431	 0,017446696109592 
432	 1,68186688082885E-02 
433	 1,28571986056502E-02 
434	 8,9081909011071E-03 
435	 8,83427289781017E-03 
436	 1,16451358235044E-02 
437	 1,27115757724916E-02 
438	 1,49819607279277E-02 
439	 1,79974913125853E-02 
440	 1,27625287817314E-02 
441	 6,33989359493583E-03 
442	 8,49629362090019E-03 
443	 9,15781777774694E-03 
444	 7,60221952989056E-03 
445	 9,73509194881203E-03 
446	 0,012552214351688 
447	 1,42181994054276E-02 
448	 1,61140320835851E-02 
449	 1,74406840760825E-02 
450	 0,016338996155912 
451	 1,65420607931844E-02 
452	 1,76445526828551E-02 
453	 1,20582984767504E-02 
454	 6,50552638454092E-03 
455	 7,49178111188814E-03 
456	 8,33407769779331E-03 
457	 9,50280756091075E-03 
458	 1,69496116138483E-02 
459	 0,018568474799474 
460	 1,11254881459367E-02 
461	 9,48984646100494E-03 
462	 1,11967083963809E-02 
463	 1,09697581436058E-02 
464	 0,01054463134758 
465	 1,07637669421369E-02 
466	 1,41050836115594E-02 
467	 1,47222998432319E-02 
468	 9,51481444182948E-03 
469	 7,1305151519834E-03 
470	 8,19364179153338E-03 
471	 1,13097015488339E-02 
472	 1,33937855827956E-02 
473	 1,34694074553044E-02 
474	 1,38903063689454E-02 
475	 1,20054398302396E-02 
476	 5,5876028223872E-03 
477	 6,18355090458648E-03 
478	 1,23050160313035E-02 
479	 1,35776930033461E-02 
480	 1,26004876297126E-02 
481	 1,08712761663375E-02 
482	 1,16738948650111E-02 
483	 1,18840424988744E-02 
484	 6,12011099022957E-03 
485	 6,60044262972292E-03 
486	 1,33938102320494E-02 
487	 1,41714929182362E-02 
488	 1,17976976584782E-02 
489	 8,95339635600597E-03 
490	 8,54986669076777E-03 
491	 1,02366652333915E-02 
492	 1,22302627252542E-02 
493	 1,24414510236574E-02 
494	 1,06831640905235E-02 
495	 0,011044397211894 
496	 1,18591278246747E-02 
497	 1,09411203347562E-02 
498	 1,10024593374291E-02 
499	 1,21149785732717E-02 
500	 1,27501824153597E-02 
501	 0,01278015017124 
502	 0,01218600804086 
503	 1,15515652734992E-02 
504	 1,13769083853841E-02 
505	 1,24476000588029E-02 
506	 1,24686413461419E-02 
507	 1,12330386983491E-02 
508	 1,10935035516355E-02 
509	 1,13297991098513E-02 
510	 1,12297220716826E-02 
511	 1,16604609957028E-02 
512	 0,012081662527906 
513	 1,04196205039155E-02 
514	 1,02383869646713E-02 
515	 1,25862373387631E-02 
516	 1,35322742689901E-02 
517	 1,30967904676433E-02 
518	 1,18817220864957E-02 
519	 1,10363965705495E-02 
520	 1,09698780008565E-02 
521	 1,16145223253315E-02 
522	 0,01236093954798 
523	 1,27093104427887E-02 
524	 1,23178008266958E-02 
525	 1,18072668874765E-02 
526	 1,28579686398069E-02 
527	 1,28103406448987E-02 
528	 1,13947225003485E-02 
529	 1,25250094759428E-02 
530	 1,38887903065465E-02 
531	 1,25921110709843E-02 
532	 0,01180131652493 
533	 1,19641127102475E-02 
534	 1,21045633902747E-02 
535	 1,21259599948161E-02 
536	 1,19847557955175E-02 
537	 1,21131241616864E-02 
538	 1,20882945448858E-02 
539	 0,01087012685505 
540	 1,11024636591438E-02 
541	 1,27925759855054E-02 
542	 0,011798084579125 
543	 0,010701054146485 
544	 1,20717549482088E-02 
545	 1,23467553062989E-02 
546	 1,13912551836568E-02 
547	 1,06714727491314E-02 
548	 1,11304915557311E-02 
549	 1,28155725763064E-02 
550	 1,21657990017953E-02 
551	 1,08536681376092E-02 
552	 1,21221469312425E-02 
553	 1,28407134063678E-02 
554	 1,24717239721102E-02 
555	 1,27177531828787E-02 
556	 1,25712844984986E-02 
557	 1,13102322710043E-02 
558	 1,10917060911736E-02 
559	 1,17965617340018E-02 
560	 0,01217316006375 
561	 1,23055997851793E-02 
562	 1,21640743230401E-02 
563	 1,18404900059721E-02 
564	 0,011280059981128 
565	 1,03765827668899E-02 
566	 1,08046634532509E-02 
567	 1,22132152482535E-02 
568	 1,17880564187711E-02 
569	 1,12317564840848E-02 
570	 1,16640596976102E-02 
571	 1,15704870350528E-02 
572	 1,13520591256429E-02 
573	 1,24405982785474E-02 
574	 1,30522614241263E-02 
575	 1,27944926791413E-02 
576	 1,33004121166655E-02 
577	 1,37359104784857E-02 
578	 1,30722002369116E-02 
579	 0,01247620163706 
580	 1,24466991027182E-02 
581	 1,37517133728047E-02 
582	 1,42569285959295E-02 
583	 1,30728170964058E-02 
584	 1,38222365776629E-02 
585	 0,015147462895783 
586	 1,37637719244318E-02 
587	 1,30315579097065E-02 
588	 1,37609969642278E-02 
589	 1,47514623532446E-02 
590	 1,51356323134112E-02 
591	 1,42565591914195E-02 
592	 1,42724399159326E-02 
593	 1,50281592060533E-02 
594	 1,47752138963899E-02 
595	 1,48632557464321E-02 
596	 1,56850776360799E-02 
597	 1,55517559353398E-02 
598	 1,49745722094568E-02 
599	 1,49707131230951E-02 
600	 0,015125696593766 
601	 1,53114756615505E-02 
602	 1,55188131059619E-02 
603	 1,53004186402514E-02 
604	 1,44031140360101E-02 
605	 1,40641865124213E-02 
606	 1,43126441367518E-02 
607	 1,46879298428334E-02 
608	 0,015004492762416 
609	 1,50496559512466E-02 
610	 1,43906801581301E-02 
611	 1,35508795177705E-02 
612	 0,013204828337296 
613	 1,33182730192018E-02 
614	 1,36700266699087E-02 
615	 1,35616900261547E-02 
616	 1,33639240570361E-02 
617	 1,32982844025953E-02 
618	 1,30658552276684E-02 
619	 1,28646304605472E-02 
620	 1,31946023381645E-02 
621	 0,01323141427605 
622	 1,28257975735735E-02 
623	 1,26453543609557E-02 
624	 1,27898619666935E-02 
625	 1,32879521166517E-02 
626	 1,33665196364015E-02 
627	 1,31020884920159E-02 
628	 1,32937749176387E-02 
629	 1,33044805938608E-02 
630	 1,29281625903649E-02 
631	 1,31019305116833E-02 
632	 0,013615457589106 
633	 1,39574486303231E-02 
634	 1,42303122878479E-02 
635	 0,01442453521078 
636	 1,44040231849967E-02 
637	 0,014635055482398 
638	 1,54604487520548E-02 
639	 0,016042099611637 
640	 1,61740876037192E-02 
641	 1,56571043777158E-02 
642	 1,56773492042574E-02 
643	 1,65474490715619E-02 
644	 1,68080654362109E-02 
645	 1,66579257181218E-02 
646	 1,65391096447955E-02 
647	 0,016546465105163 
648	 1,66080005423443E-02 
649	 1,62706636359669E-02 
650	 1,60853812065121E-02 
651	 1,63883710906306E-02 
652	 1,67110711334788E-02 
653	 1,67453245675339E-02 
654	 1,60131551070569E-02 
655	 1,53711380988803E-02 
656	 1,50881825923312E-02 
657	 1,48478445412268E-02 
658	 1,44189092845219E-02 
659	 1,36243417929364E-02 
660	 1,36700580506358E-02 
661	 1,43348787783804E-02 
662	 1,42466867745571E-02 
663	 1,39515534179965E-02 
664	 1,37285896790487E-02 
665	 1,36600318918396E-02 
666	 1,35014626850505E-02 
667	 1,28380957307827E-02 
668	 1,23899126546162E-02 
669	 1,23200436571835E-02 
670	 1,23079485798234E-02 
671	 1,24616813947116E-02 
672	 1,28103145669838E-02 
673	 1,25720774440833E-02 
674	 1,20916951295883E-02 
675	 1,25350432967742E-02 
676	 1,29941071512864E-02 
677	 1,30919210881407E-02 
678	 1,26464429699501E-02 
679	 0,012465184037775 
680	 1,34884097385095E-02 
681	 0,013814121031726 
682	 1,33973316115402E-02 
683	 1,36590752270081E-02 
684	 1,39081778810367E-02 
685	 0,013804593190567 
686	 1,39790703507837E-02 
687	 0,014374742914192 
688	 1,47461176001051E-02 
689	 0,01507471273304 
690	 1,54519429220183E-02 
691	 1,62968256665497E-02 
692	 1,73115312193285E-02 
693	 1,82265136802681E-02 
694	 1,92800312324846E-02 
695	 2,07808499963822E-02 
696	 2,33240608765229E-02 
697	 2,63639548906603E-02 
698	 2,96065007551174E-02 
699	 3,27928752056045E-02 
700	 0,036368486752171 
701	 4,09041772678923E-02 
702	 4,58937211498218E-02 
703	 5,11039369442627E-02 
704	 5,62315029949466E-02 
705	 6,16650013966425E-02 
706	 6,76009558866244E-02 
707	 7,35710930600352E-02 
708	 7,94020458223899E-02 
709	 8,49002141523644E-02 
710	 9,03850736208351E-02 
711	 9,59496138542701E-02 
712	 0,101519308363657 
713	 0,106891070638557 
714	 0,111877385482066 
715	 0,116369107382238 
716	 0,120674232286906 
717	 0,125735980095997 
718	 0,13024642430212 
719	 0,133762902935869 
720	 0,137239917720593 
721	 0,140727705508907 
722	 0,144180251312894 
723	 0,147251121881644 
724	 0,149842681155774 
725	 0,151920237916307 
726	 0,154043672857515 
727	 0,156449557777726 
728	 0,157965631762584 
729	 0,159084182719282 
730	 0,160937350725489 
731	 0,162888836597949 
732	 0,164627310381753 
733	 0,165704989920362 
734	 0,166574565983324 
735	 0,167643661104466 
736	 0,168693447733892 
737	 0,169636700798903 
738	 0,170351868094396 
739	 0,170916641449075 
740	 0,171438050887096 
741	 0,172277995269928 
742	 0,173203470935667 
743	 0,173906275767933 
744	 0,173983946728363 
745	 0,173759213842214 
746	 0,174496750548505 
747	 0,175243973044011 
748	 0,175546226145613 
749	 0,176074324945748 
750	 0,176616317881924 
751	 0,176726097532181 
752	 0,177076239931303 
753	 0,177666191301888 
754	 0,177750419166582 
755	 0,177802125149121 
756	 0,17814666654881 
757	 0,178366660276846 
758	 0,178430218636322 
759	 0,178384576315816 
760	 0,178443722268865 
761	 0,17868337601174 
762	 0,179052973990356 
763	 0,17934266628392 
764	 0,179371505248739 
765	 0,179376419417622 
766	 0,179494439755398 
767	 0,18002134125474 
768	 0,180148917446309 
769	 0,179687746420874 
770	 0,17958828536912 
771	 0,179840160261982 
772	 0,180315988475787 
773	 0,180564020386798 
774	 0,180543643822457 
775	 0,180503308291973 
776	 0,180589704095593 
777	 0,180829298838466 
778	 0,18071701336416 
779	 0,18060109543327 
780	 0,181070468248684 
781	 0,181287439751454 
782	 0,18113170487524 
783	 0,181012584287834 
784	 0,181044589926276 
785	 0,181256118113256 
786	 0,181132906241146 
787	 0,180935190810574 
788	 0,181248803245915 
789	 0,181666284160582 
790	 0,181990808456467 
791	 0,182012899044034 
792	 0,181857854270777 
793	 0,181670687539175 
794	 0,181792974727802 
795	 0,182027807524846 
796	 0,181843649567885 
797	 0,181442717286975 
798	 0,18104960507031 
799	 0,181324507441165 
800	 0,181864067764796 
801	 0,182225990107975 
802	 0,182137615369545 
803	 0,181843541129277 
804	 0,182104020725768 
805	 0,182459441602621 
806	 0,182698554472097 
807	 0,18260656439597 
808	 0,182583024555317 
809	 0,183030124468312 
810	 0,182875491854584 
811	 0,182468812764987 
812	 0,183482126953592 
813	 0,18416108846431 
814	 0,183834259115611 
815	 0,183327462592254 
816	 0,18316756699212 
817	 0,183850884184862 
818	 0,184200445979567 
819	 0,184116736669911 
820	 0,184215658039734 
821	 0,184210213379914 
822	 0,184072724804441 
823	 0,184400226771343 
824	 0,184943162560229 
825	 0,185303973016542 
826	 0,185237494628491 
827	 0,184950191544383 
828	 0,185281074086379 
829	 0,185766680970249 
830	 0,186088787456906 
831	 0,185855882920671 
832	 0,185563637397826 
833	 0,18593461710399 
834	 0,185636191476699 
835	 0,184929620363516 
836	 0,185799408070539 
837	 0,186499227509519 
838	 0,186218510787213 
839	 0,186525638831191 
840	 0,186898840206086 
841	 0,186382890338179 
842	 0,186522996425028 
843	 0,187219924327739 
844	 0,186789178665916 
845	 0,186392845308241 
846	 0,186625490961807 
847	 0,186866312432858 
848	 0,186901288749417 
849	 0,186534188257235 
850	 0,186710821666999 
851	 0,187303115282994 
852	 0,187083953504381 
853	 0,186660456217637 
854	 0,186428632138446 
855	 0,186698783968519 
856	 0,186992166327812 
857	 0,18661898006543 
858	 0,186637491738974 
859	 0,187097374086731 
860	 0,187348550964992 
861	 0,18726651774929 
862	 0,186849508920299 
863	 0,186545179151044 
864	 0,186725232779358 
865	 0,187752811552762 
866	 0,188117288272191 
867	 0,187670035263049 
868	 0,187079093650937 
869	 0,187117855563558 
870	 0,187954221457328 
871	 0,187872912498965 
872	 0,187617100964724 
873	 0,188239512310354 
874	 0,188554613668635 
875	 0,188515829863211 
876	 0,188877313359936 
877	 0,188516258223535 
878	 0,187369873516418 
879	 0,187814051245336 
880	 0,188836061346493 
881	 0,189141099622884 
882	 0,188998712406749 
883	 0,188688188203095 
884	 0,188802501032147 
885	 0,189203961674484 
886	 0,189714396229948 
887	 0,18968973225516 
888	 0,189453488180912 
889	 0,189352839477686 
890	 0,189210712520808 
891	 0,189276946934897 
892	 0,19022451031913 
893	 0,19039500910557 
894	 0,189556518214802 
895	 0,189291790292784 
896	 0,189463851557745 
897	 0,189903788103501 
898	 0,190517678764341 
899	 0,190886866400832 
900	 0,190323751997812 
901	 0,190339900621728 
902	 0,190927281227532 
903	 0,190179245137882 
904	 0,1898712931181 
905	 0,190878169296054 
906	 0,190837297800565 
907	 0,190413506453238 
908	 0,19094621258812 
909	 0,191066021204711 
910	 0,190572881113372 
911	 0,18990184935424 
912	 0,189264493655876 
913	 0,188864208012376 
914	 0,188929569593419 
915	 0,189453608080889 
916	 0,190325646540943 
917	 0,190260522524134 
918	 0,189583805755136 
919	 0,189857378158399 
920	 0,190081553384638 
921	 0,189812425299889 
922	 0,188473388165134 
923	 0,187870068752433 
924	 0,18923340922244 
925	 0,188954208037325 
926	 0,187790890030727 
927	 0,188164425638652 
928	 0,18846806123899 
929	 0,188240871379643 
930	 0,187521528980594 
931	 0,186637893923362 
932	 0,185819669841841 
933	 0,184903085340006 
934	 0,184617443945356 
935	 0,185801460291473 
936	 0,185608932745372 
937	 0,184139852907049 
938	 0,183530986591061 
939	 0,183417876456947 
940	 0,183521500163507 
941	 0,182908916042253 
942	 0,181911046810638 
943	 0,180978045381546 
944	 0,181246203398308 
945	 0,181295571687582 
946	 0,178112657252824 
947	 0,176497773915556 
948	 0,177134533657817 
949	 0,177162922828331 
950	 0,176290686531547 
951	 0,174420445514013 
952	 0,172328105628876 
953	 0,170745224214552 
954	 0,170341472814594 
955	 0,169263093199754 
956	 0,16760198638851 
957	 0,166623255213581 
958	 0,166070029989632 
959	 0,165890788579538 
960	 0,166209862762606 
961	 0,166077382870635 
962	 0,16482893988648 
963	 0,163193048632389 
964	 0,161886967541534 
965	 0,161787210092789 
966	 0,162974188434566 
967	 0,164442798036533 
968	 0,163103014097463 
969	 0,162137151809945 
970	 0,162869162912571 
971	 0,164549421096032 
972	 0,164883630269362 
973	 0,162228593940682 
974	 0,16148435476633 
975	 0,162789074313824 
976	 0,164831294172495 
977	 0,164878942633787 
978	 0,16310612473629 
979	 0,163515627355319 
980	 0,162261481590197 
981	 0,158706759282435 
982	 0,160640028268102 
983	 0,1638020747904 
984	 0,163402608497186 
985	 0,162425332919899 
986	 0,162041417141232 
987	 0,163541051388069 
988	 0,164198920469647 
989	 0,163568151541201 
990	 0,163104310562294 
991	 0,163358574641335 
992	 0,164378894982987 
993	 0,164483356825049 
994	 0,163940090232315 
995	 0,16341845157789 
996	 0,165643744656921 
997	 0,169237724902636 
998	 0,17071457090958 
999	 0,170344705769815 
1000	 0,168771753512966 
1001	 0,168139007919197 
1002	 0,167636536436917 
1003	 0,167389197306755 
1004	 0,170318610137482 
1005	 0,173024649630839 
1006	 0,172171509760797 
1007	 0,169991806033982 
1008	 0,168562907243298 
1009	 0,170753384210048 
1010	 0,170441419425757 
1011	 0,1676034583818 
1012	 0,167355769660991 
1013	 0,170587718252161 
1014	 0,176101321896868 
1015	 0,17592056570438 
1016	 0,173441654821253 
1017	 0,172147490943869 
1018	 0,172218099318696 
1019	 0,173648744240763 
1020	 0,176150810648245 
1021	 0,178472319054756 
1022	 0,180051332901372 
1023	 0,18087135007099 
1024	 0,17826606213565 
1025	 0,174026985266963 
1026	 0,179850176575183 
1027	 0,184174692406576 
1028	 0,180332364828528 
1029	 0,180089082472479 
1030	 0,181370631403658 
1031	 0,180385518876608 
1032	 0,178424384000842 
1033	 0,177409735878508 
1034	 0,180562261570037 
1035	 0,182621915053536 
1036	 0,183742156256662 
1037	 0,191087212424756 
1038	 0,191748433121709 
1039	 0,183383801509381 
1040	 0,188334998798335 
1041	 0,191973388042575 
1042	 0,183436782780131 
1043	 0,183503565784872 
1044	 0,187921396276739 
1045	 0,187223950048793 
1046	 0,189749692246749 
1047	 0,192920699788265 
1048	 0,187098331973095 
1049	 0,183456932346626 
1050	 0,18444060031551 
1051	 0,184682273214438 
1052	 0,182741695615541 
1053	 0,180169732453691 
1054	 0,190807950773003 
1055	 0,196469993406646 
1056	 0,183649805887807 
1057	 0,186141016014901 
1058	 0,193239151525292 
1059	 0,184373830540238 
1060	 0,18282483596385 
1061	 0,187969302757008 
1062	 0,187014602518722 
1063	 0,187831379624108 
1064	 0,190638849000685 
1065	 0,188932976436462 
1066	 0,184786477150677 
1067	 0,182318285173159 
1068	 0,197361231336178 
1069	 0,207850648040607 
1070	 0,197401913741392 
1071	 0,176218586956101 
1072	 0,164002412508024 
1073	 0,180119590687777 
1074	 0,182412083688221 
1075	 0,177455609846667 
