Wavelength	NEUF00187.asd
325	 0,289799047432635 
326	 7,90555761712527E-02 
327	-1,19070132067103E-02 
328	 0,123229493640809 
329	 0,248026694022027 
330	 0,383862928498069 
331	 0,545294491870219 
332	 0,436970124189962 
333	 0,233997687665072 
334	 0,167471624479605 
335	 0,217034961485577 
336	 0,357111008081422 
337	 0,278376420169881 
338	 0,141259834803876 
339	 0,120162011295 
340	 0,165902351561961 
341	 0,235666896240765 
342	 0,241326389311069 
343	 0,217299629753962 
344	 0,179091908701326 
345	 0,191200614782661 
346	 0,205893596061389 
347	 0,174529645127982 
348	 0,185382159143092 
349	 0,225781739303933 
350	 0,211369950420691 
351	 0,203712338316868 
352	 0,215713857338114 
353	 0,196486115158833 
354	 0,161951632070069 
355	 0,138598746071482 
356	 0,159376658148485 
357	 0,207901090331473 
358	 0,230320023024575 
359	 0,224393496696428 
360	 0,193856612511613 
361	 0,186192033126955 
362	 0,188069426688022 
363	 0,170226764911051 
364	 0,174939766090431 
365	 0,201250404106771 
366	 0,215004017354973 
367	 0,224351977547463 
368	 0,231645937357139 
369	 0,216041447123961 
370	 0,192797950068457 
371	 0,186184061188737 
372	 0,197198286727177 
373	 0,215129734519186 
374	 0,195505970981363 
375	 0,179110597090623 
376	 0,196418542923002 
377	 0,213178692020331 
378	 0,223160574221442 
379	 0,227194503693949 
380	 0,221815101873334 
381	 0,213419701613695 
382	 0,235429632893757 
383	 0,246105309800096 
384	 0,207999421188695 
385	 0,192237160190749 
386	 0,204051498281268 
387	 0,216839005520775 
388	 0,226638392291293 
389	 0,228397654979448 
390	 0,21610079524717 
391	 0,203673792371611 
392	 0,208343329577994 
393	 0,21772821995923 
394	 0,223646336636446 
395	 0,210015762086065 
396	 0,202568998486121 
397	 0,212494292036952 
398	 0,213524185041663 
399	 0,209042008377745 
400	 0,207825519082469 
401	 0,207733645855143 
402	 0,20892567263866 
403	 0,213254452723509 
404	 0,217754915734488 
405	 0,219496030427555 
406	 0,211494740505234 
407	 0,200216499145379 
408	 0,199391917068594 
409	 0,203251740967576 
410	 0,208514099826809 
411	 0,208763713570928 
412	 0,207216065821657 
413	 0,207105860063131 
414	 0,203442399639265 
415	 0,199909689916683 
416	 0,20791837257107 
417	 0,214705586779041 
418	 0,214678642291323 
419	 0,209524697659121 
420	 0,205153432894219 
421	 0,208360556294125 
422	 0,205132412670075 
423	 0,197194942295504 
424	 0,200377284310776 
425	 0,20548160766974 
426	 0,206609972470252 
427	 0,205842001542019 
428	 0,20352758522874 
429	 0,198936443426391 
430	 0,202450152674526 
431	 0,212603302697267 
432	 0,209330886645524 
433	 0,203140393058833 
434	 0,204000731536658 
435	 0,207244722671649 
436	 0,210020929768088 
437	 0,206852921167987 
438	 0,205592545445999 
439	 0,208355065889196 
440	 0,207214946277287 
441	 0,204801694042237 
442	 0,205280376579878 
443	 0,205325249776933 
444	 0,205524604639087 
445	 0,210652666717645 
446	 0,214556733175398 
447	 0,21390408318295 
448	 0,214988811975715 
449	 0,217049831448842 
450	 0,216861708356939 
451	 0,218811165041095 
452	 0,222246632955926 
453	 0,218348886248935 
454	 0,213440651960851 
455	 0,213845956227311 
456	 0,21628121784129 
457	 0,219332343798825 
458	 0,221218815246244 
459	 0,222079470815502 
460	 0,221770072965366 
461	 0,219438504253361 
462	 0,217035844243696 
463	 0,217164778101967 
464	 0,217762450809618 
465	 0,218624171664444 
466	 0,221515846594204 
467	 0,221861914140864 
468	 0,217517367306333 
469	 0,217937166490114 
470	 0,221522463045864 
471	 0,222338471871764 
472	 0,222770277021056 
473	 0,223152979499972 
474	 0,222333119362035 
475	 0,220626119340353 
476	 0,21857435648995 
477	 0,220525163194844 
478	 0,224776790192016 
479	 0,224323552851554 
480	 0,223747617321083 
481	 0,224926200999575 
482	 0,225823860245712 
483	 0,22487075347775 
484	 0,219867286051172 
485	 0,220256280629896 
486	 0,225420084739893 
487	 0,222430075498737 
488	 0,219733617470065 
489	 0,223297727390706 
490	 0,224038063977451 
491	 0,222335908372506 
492	 0,222595302181664 
493	 0,221741322167167 
494	 0,219747839486814 
495	 0,221835019915711 
496	 0,224378753945916 
497	 0,222991634494309 
498	 0,221997214672581 
499	 0,222429306221612 
500	 0,224324590850005 
501	 0,225918318854183 
502	 0,226267578924634 
503	 0,226669467753472 
504	 0,227778053712893 
505	 0,230477041550668 
506	 0,232677904125078 
507	 0,233779316147386 
508	 0,234251204567041 
509	 0,235525346667767 
510	 0,238688968668951 
511	 0,240516690855297 
512	 0,241093240283999 
513	 0,242304625266583 
514	 0,243518759372415 
515	 0,244681187098781 
516	 0,247007817860825 
517	 0,249263462478118 
518	 0,249638506453734 
519	 0,250013413182476 
520	 0,250828460325534 
521	 0,2516573438473 
522	 0,252736126069341 
523	 0,254167746895935 
524	 0,255162981106929 
525	 0,255860372948584 
526	 0,257025540242306 
527	 0,257314528221614 
528	 0,256648479317964 
529	 0,25721893797567 
530	 0,257993899371115 
531	 0,257634645479716 
532	 0,257998465264773 
533	 0,258897339442544 
534	 0,25825799933178 
535	 0,258274063981757 
536	 0,259943574477275 
537	 0,260111692688332 
538	 0,259367708992184 
539	 0,259618380026176 
540	 0,259432540511347 
541	 0,258878025635925 
542	 0,260197268745346 
543	 0,261551261701004 
544	 0,261135252744579 
545	 0,261182987242083 
546	 0,262004407072465 
547	 0,263196218819612 
548	 0,264227233812915 
549	 0,264687509783937 
550	 0,263977077080314 
551	 0,263148509383819 
552	 0,263890157577738 
553	 0,264675550499412 
554	 0,265018276616609 
555	 0,264994347343707 
556	 0,264534580181917 
557	 0,263620273441486 
558	 0,262649964087817 
559	 0,261791051769752 
560	 0,261317357918671 
561	 0,260233173818853 
562	 0,258374073175921 
563	 0,257342918796992 
564	 0,256856250495097 
565	 0,256320043473806 
566	 0,256761125340596 
567	 0,257956460476109 
568	 0,258214343907813 
569	 0,258778535380669 
570	 0,260466450510824 
571	 0,262194515330937 
572	 0,264020633667464 
573	 0,266439749041637 
574	 0,269140728942092 
575	 0,271965937156658 
576	 0,274725243849157 
577	 0,277539775200333 
578	 0,280553115565061 
579	 0,28300925858617 
580	 0,284952505357479 
581	 0,287079844339847 
582	 0,289232085117392 
583	 0,291277627823088 
584	 0,292726385300029 
585	 0,294046020263696 
586	 0,296242269721582 
587	 0,297556500880291 
588	 0,297817239762538 
589	 0,298773592493669 
590	 0,30012958441596 
591	 0,301491996092607 
592	 0,302144163160768 
593	 0,30230725672675 
594	 0,302977279666688 
595	 0,303826378538286 
596	 0,304645131182583 
597	 0,30509352367027 
598	 0,305179270480281 
599	 0,30498853742901 
600	 0,30453285231251 
601	 0,303887299938614 
602	 0,303292208466195 
603	 0,302414734779899 
604	 0,301067126896867 
605	 0,300261238024395 
606	 0,29984574963303 
607	 0,299068238895013 
608	 0,297988037431667 
609	 0,296664193481638 
610	 0,295504073999103 
611	 0,294284065931905 
612	 0,292682835688194 
613	 0,29202740632641 
614	 0,29206778376175 
615	 0,290842607185482 
616	 0,289621352534231 
617	 0,28911456746671 
618	 0,287877844510139 
619	 0,28648815012954 
620	 0,286475950866942 
621	 0,286457298477007 
622	 0,286084529740296 
623	 0,286059658655445 
624	 0,286078920979794 
625	 0,285822715906298 
626	 0,286111788978614 
627	 0,286794602475552 
628	 0,286874320482477 
629	 0,28716988140377 
630	 0,288066021797169 
631	 0,28908074449109 
632	 0,290120300455542 
633	 0,291138908528391 
634	 0,292139082182998 
635	 0,293207088896466 
636	 0,294609913396467 
637	 0,296335938916179 
638	 0,298327298926012 
639	 0,300177729784548 
640	 0,301603259849584 
641	 0,30207370018642 
642	 0,302836545401416 
643	 0,304263849118955 
644	 0,305111148693605 
645	 0,305595435798982 
646	 0,306154885332155 
647	 0,306292896521135 
648	 0,305924671206014 
649	 0,305208302960836 
650	 0,304305875482477 
651	 0,303257919480002 
652	 0,301385424739748 
653	 0,298908660649657 
654	 0,296434662461518 
655	 0,293889663854547 
656	 0,29114309149173 
657	 0,287558790032585 
658	 0,283679541546035 
659	 0,280089372433047 
660	 0,27658406454393 
661	 0,27304213996605 
662	 0,269175884454257 
663	 0,26534930571633 
664	 0,261815909992204 
665	 0,258837446609455 
666	 0,256036814231231 
667	 0,252737418131103 
668	 0,250422399082221 
669	 0,249197310799344 
670	 0,247718671735109 
671	 0,24605763835881 
672	 0,244365405818856 
673	 0,24341646420303 
674	 0,243043878621993 
675	 0,242506986402072 
676	 0,242137329668784 
677	 0,241999730083694 
678	 0,241909544299349 
679	 0,241855775557069 
680	 0,241849219299792 
681	 0,242415012762866 
682	 0,24380909494225 
683	 0,246272431337258 
684	 0,24935514552741 
685	 0,252778955039803 
686	 0,256625137555176 
687	 0,261162561341053 
688	 0,266820193916474 
689	 0,273168218021766 
690	 0,280104246390006 
691	 0,287771932613392 
692	 0,296188503331979 
693	 0,30534601837844 
694	 0,315259188445 
695	 0,326032835471284 
696	 0,3380046407867 
697	 0,349963502690947 
698	 0,361417959413469 
699	 0,373097471380179 
700	 0,384864393468833 
701	 0,396397676234415 
702	 0,407787770523601 
703	 0,418889269896484 
704	 0,429286803696218 
705	 0,43897536084344 
706	 0,447963040313671 
707	 0,456474908085396 
708	 0,464397964699459 
709	 0,471411704894041 
710	 0,477842528516862 
711	 0,483867159724876 
712	 0,489671646839982 
713	 0,495053046266049 
714	 0,499814311236654 
715	 0,503931113853044 
716	 0,507595760789166 
717	 0,511285930103437 
718	 0,514758975578217 
719	 0,517912476699151 
720	 0,520666408127157 
721	 0,523222920351469 
722	 0,525853698608819 
723	 0,528008549700858 
724	 0,529712952735895 
725	 0,531524088966726 
726	 0,533100773120288 
727	 0,534269988112228 
728	 0,535429839922072 
729	 0,536614456704694 
730	 0,537775626283033 
731	 0,538829739602346 
732	 0,539719118902209 
733	 0,54034152893008 
734	 0,540935065305821 
735	 0,5416825329278 
736	 0,542075784399909 
737	 0,542334735836633 
738	 0,543304348242318 
739	 0,543826904174668 
740	 0,543676917348204 
741	 0,544291813144149 
742	 0,545030632511141 
743	 0,545039204738814 
744	 0,545238749411546 
745	 0,545637373798794 
746	 0,545552276391672 
747	 0,545637511732815 
748	 0,546197166614807 
749	 0,54673195058436 
750	 0,547106506661124 
751	 0,547221337420006 
752	 0,547193317862543 
753	 0,547140241992737 
754	 0,547326882402532 
755	 0,547490289444899 
756	 0,547469761439385 
757	 0,547696591003022 
758	 0,548058846901656 
759	 0,548208432809758 
760	 0,54825666103209 
761	 0,548300311967952 
762	 0,548667503962728 
763	 0,548917282484269 
764	 0,548660750746981 
765	 0,548657685395145 
766	 0,548922746431285 
767	 0,54913307141586 
768	 0,549131194450366 
769	 0,548904905637233 
770	 0,548849365935353 
771	 0,548975875815913 
772	 0,549245052649764 
773	 0,549348034981568 
774	 0,549335739256686 
775	 0,54965264855477 
776	 0,549838082862383 
777	 0,549639324641754 
778	 0,549045581862199 
779	 0,548677656815903 
780	 0,549425061770315 
781	 0,549548173396722 
782	 0,548947176173708 
783	 0,549075863350677 
784	 0,549325865921569 
785	 0,549268489695386 
786	 0,548809816553815 
787	 0,548439295251282 
788	 0,549059884440064 
789	 0,549473632922116 
790	 0,549375388112017 
791	 0,54920502837714 
792	 0,549007859836352 
793	 0,548822711162783 
794	 0,548643815335927 
795	 0,548566769356613 
796	 0,548814673944348 
797	 0,548928787231748 
798	 0,548749883681173 
799	 0,548352913766774 
800	 0,548125000223029 
801	 0,548382394409381 
802	 0,548373214397184 
803	 0,548190594068677 
804	 0,548443540521928 
805	 0,548790955057643 
806	 0,549058385307054 
807	 0,549040590944249 
808	 0,548941763514329 
809	 0,548985176154623 
810	 0,548769832298554 
811	 0,548471699266341 
812	 0,548801890105192 
813	 0,549093651288148 
814	 0,54907618514203 
815	 0,548993770101347 
816	 0,548950516150933 
817	 0,549042137993036 
818	 0,549146782859563 
819	 0,549194548318769 
820	 0,549062090949013 
821	 0,548959018632526 
822	 0,549027744838273 
823	 0,549440671769022 
824	 0,549849587200082 
825	 0,54979991745461 
826	 0,549542586280068 
827	 0,549360716563148 
828	 0,550004659610144 
829	 0,550188545590966 
830	 0,54943032615043 
831	 0,54939549772459 
832	 0,549780746473523 
833	 0,549920323715029 
834	 0,550105164895403 
835	 0,550189943402202 
836	 0,549428592208918 
837	 0,549259610207768 
838	 0,550220550620149 
839	 0,55011877610877 
840	 0,549492905505214 
841	 0,549448943900344 
842	 0,549405127124688 
843	 0,549327422743585 
844	 0,549564787663776 
845	 0,549598310914099 
846	 0,549209743750346 
847	 0,54899778140446 
848	 0,549112470413572 
849	 0,549651683717061 
850	 0,549685145188266 
851	 0,549190675180858 
852	 0,54896896493647 
853	 0,548767525803987 
854	 0,548505156320203 
855	 0,5484455977914 
856	 0,54864628632299 
857	 0,549137753473188 
858	 0,548906911462095 
859	 0,54811615109375 
860	 0,548115880509355 
861	 0,548306140330896 
862	 0,548408125048212 
863	 0,548710834773378 
864	 0,548963923017086 
865	 0,548826712191348 
866	 0,548281639655124 
867	 0,547751847952844 
868	 0,548494083967076 
869	 0,54921245650705 
870	 0,549285290985508 
871	 0,549161257271369 
872	 0,549016920903472 
873	 0,549016554424682 
874	 0,549083746885729 
875	 0,549105728886807 
876	 0,54876267530944 
877	 0,548681812600019 
878	 0,549021474452609 
879	 0,548939903193324 
880	 0,54898273368497 
881	 0,549743135838695 
882	 0,549949390657028 
883	 0,549718058073856 
884	 0,550080855786938 
885	 0,550391122873156 
886	 0,550341905592264 
887	 0,549609757617336 
888	 0,548828804747047 
889	 0,548623809263624 
890	 0,54884187143617 
891	 0,549363482262341 
892	 0,550016705938838 
893	 0,550486366652342 
894	 0,550652224001954 
895	 0,550655097128142 
896	 0,550493708380056 
897	 0,550204457257054 
898	 0,550085056835284 
899	 0,550133943574736 
900	 0,550249941545224 
901	 0,550444043701811 
902	 0,550517704868387 
903	 0,549683360244224 
904	 0,549388754657343 
905	 0,550325295435206 
906	 0,550413534013706 
907	 0,549942823156997 
908	 0,549701791671777 
909	 0,549996844592977 
910	 0,550465171649985 
911	 0,54965243344508 
912	 0,548902541214454 
913	 0,548788232440328 
914	 0,548440273162133 
915	 0,548475650770162 
916	 0,549526186784053 
917	 0,549160106871364 
918	 0,548122025445064 
919	 0,549747013912211 
920	 0,550408734505721 
921	 0,549247809633706 
922	 0,548615642951286 
923	 0,548215246469456 
924	 0,547763219382888 
925	 0,547732789897848 
926	 0,547764366965165 
927	 0,547088270149176 
928	 0,546876325696378 
929	 0,547135788326704 
930	 0,54663538548895 
931	 0,545941855797013 
932	 0,545452101620068 
933	 0,545362865897324 
934	 0,545490956168729 
935	 0,545550431036315 
936	 0,545158642719174 
937	 0,544429097699913 
938	 0,543849851665264 
939	 0,54383555129953 
940	 0,544324391168885 
941	 0,544133864900439 
942	 0,543333282844591 
943	 0,542186617559558 
944	 0,542188884429598 
945	 0,542211983372456 
946	 0,539659507441825 
947	 0,538179863692926 
948	 0,538515879235203 
949	 0,539418705122765 
950	 0,539046916080258 
951	 0,536632399758107 
952	 0,534821228849557 
953	 0,533940257747676 
954	 0,533928642014349 
955	 0,532935425154616 
956	 0,531370576868409 
957	 0,53135587794324 
958	 0,53178894765242 
959	 0,532038395964171 
960	 0,5310570667356 
961	 0,530165403240912 
962	 0,530257844078093 
963	 0,529678533505069 
964	 0,528569445612428 
965	 0,527513974331518 
966	 0,527756361587727 
967	 0,52895332965571 
968	 0,529151100253319 
969	 0,528475492693054 
970	 0,527342707934366 
971	 0,527819989215102 
972	 0,528337915897666 
973	 0,527494943075547 
974	 0,527606420604183 
975	 0,528201249003913 
976	 0,527770891597903 
977	 0,527265148119834 
978	 0,527174119839108 
979	 0,528543837939398 
980	 0,52821541211205 
981	 0,5255306260264 
982	 0,52654473759513 
983	 0,528579113026811 
984	 0,528540068762514 
985	 0,528876712229383 
986	 0,529065272949232 
987	 0,527310278422837 
988	 0,526521320665222 
989	 0,527166789749901 
990	 0,527525446149821 
991	 0,527886668205507 
992	 0,528562099551865 
993	 0,530915174962026 
994	 0,532376385119885 
995	 0,530387703856529 
996	 0,528217985221823 
997	 0,527536354199889 
998	 0,53024407635806 
999	 0,531754915675134 
1000	 0,531647076336518 
1001	 0,533908071505061 
1002	 0,535604063933005 
1003	 0,535277972456578 
1004	 0,533858403308763 
1005	 0,532492002300226 
1006	 0,532258003812853 
1007	 0,533463140655838 
1008	 0,534651554408778 
1009	 0,533223176160625 
1010	 0,532944248177602 
1011	 0,534204530731953 
1012	 0,534776332054167 
1013	 0,535306500511458 
1014	 0,535800895068652 
1015	 0,534961042843562 
1016	 0,534868036744442 
1017	 0,53714590254814 
1018	 0,539725838304735 
1019	 0,540963112311995 
1020	 0,539138469793214 
1021	 0,540019970677002 
1022	 0,543183833186613 
1023	 0,543483671729864 
1024	 0,542293827675686 
1025	 0,540224231906706 
1026	 0,537677696507272 
1027	 0,538020217997731 
1028	 0,54185630049783 
1029	 0,536772188127092 
1030	 0,5320068020667 
1031	 0,538703609719893 
1032	 0,538500816571228 
1033	 0,534365133316778 
1034	 0,539541250954844 
1035	 0,54105998247317 
1036	 0,538163223725935 
1037	 0,541190292244537 
1038	 0,54380853627171 
1039	 0,543833875686837 
1040	 0,546085620616655 
1041	 0,546650790001409 
1042	 0,542736027133757 
1043	 0,53856710101696 
1044	 0,539186148439141 
1045	 0,549687492097029 
1046	 0,550427977481067 
1047	 0,544428217170451 
1048	 0,549830903619631 
1049	 0,545410619205572 
1050	 0,532782316228378 
1051	 0,544078000015597 
1052	 0,547082839333274 
1053	 0,532179160357067 
1054	 0,542185392538538 
1055	 0,556501798653316 
1056	 0,555679344784655 
1057	 0,55458211944266 
1058	 0,551309385245802 
1059	 0,541032303090922 
1060	 0,534373928115181 
1061	 0,535069181759531 
1062	 0,5449233889985 
1063	 0,542633879719739 
1064	 0,530539120193056 
1065	 0,542161846436265 
1066	 0,554122317334856 
1067	 0,555882018110529 
1068	 0,55464793759887 
1069	 0,552145136505804 
1070	 0,548381724490961 
1071	 0,530187334095682 
1072	 0,525023388456872 
1073	 0,56228985590707 
1074	 0,566048886723273 
1075	 0,546029170025269 
