Wavelength	NEUF00603.asd
325	 0,395899393227638 
326	 0,179180394846825 
327	 0,127012725340999 
328	 0,28319597813989 
329	 0,336962427713084 
330	 0,328281171820574 
331	 0,242041100146469 
332	 0,22583358055201 
333	 0,260723188052229 
334	 0,22744451649002 
335	 0,185603531303499 
336	 0,146157719721287 
337	 9,53922520772634E-02 
338	 8,60522372520119E-02 
339	 0,143998531795353 
340	 0,1700727536032 
341	 0,16239146843191 
342	 0,145566430921164 
343	 0,124403649043021 
344	 0,107931753011139 
345	 0,176632831417072 
346	 0,231135861524976 
347	 0,1818629422314 
348	 0,117663580345796 
349	 7,09500371837646E-02 
350	 9,63249485778149E-02 
351	 0,122561517074266 
352	 0,122554053973699 
353	 0,106999458761814 
354	 7,93095686541918E-02 
355	 4,60160114074884E-02 
356	 0,069755829058995 
357	 0,125916163322389 
358	 0,118772853813843 
359	 0,101771279790689 
360	 9,65810342310073E-02 
361	 9,37267450049673E-02 
362	 8,85531274802884E-02 
363	 7,38261641107038E-02 
364	 7,43328893247654E-02 
365	 8,83621105085384E-02 
366	 8,83491349295624E-02 
367	 0,092342627349598 
368	 0,1069251317442 
369	 7,99956041588574E-02 
370	 4,22380736703227E-02 
371	 4,92662178385848E-02 
372	 6,30372882859811E-02 
373	 7,27213698990768E-02 
374	 8,49487323921944E-02 
375	 8,15298640110346E-02 
376	 5,36673729306852E-02 
377	 6,52317272639854E-02 
378	 9,68097222073466E-02 
379	 8,43453995553259E-02 
380	 8,56145041082863E-02 
381	 0,109449529563184 
382	 0,113324066609653 
383	 0,104022013812177 
384	 0,089605669238902 
385	 8,40994072448531E-02 
386	 8,48795258342997E-02 
387	 7,30846366310418E-02 
388	 7,32211852735888E-02 
389	 0,088971963122617 
390	 8,68508066569788E-02 
391	 7,26675896449141E-02 
392	 5,71384820779779E-02 
393	 5,80050455751335E-02 
394	 7,08203835857705E-02 
395	 7,01057283307303E-02 
396	 7,40661510842967E-02 
397	 8,75642162226208E-02 
398	 0,080350793788793 
399	 6,45577143948896E-02 
400	 6,18883778749237E-02 
401	 6,24490724501329E-02 
402	 6,44945598270437E-02 
403	 7,07833594256631E-02 
404	 7,52769326689137E-02 
405	 7,38537794784535E-02 
406	 7,00363264553559E-02 
407	 6,48888555077849E-02 
408	 5,87364692154102E-02 
409	 5,62483768732988E-02 
410	 5,75246678629873E-02 
411	 5,56841997274046E-02 
412	 5,53531607850026E-02 
413	 6,07104067216704E-02 
414	 6,34964016048663E-02 
415	 6,33730508941793E-02 
416	 6,35605401022794E-02 
417	 6,39638977509591E-02 
418	 6,39194220195992E-02 
419	 5,87648567725081E-02 
420	 5,42054290457346E-02 
421	 5,74758488423957E-02 
422	 0,056666232638208 
423	 5,24217600347756E-02 
424	 5,62105740319055E-02 
425	 5,97296634303626E-02 
426	 5,81566400274359E-02 
427	 5,67786285201484E-02 
428	 5,66101835195315E-02 
429	 5,81317532277391E-02 
430	 0,059983876812008 
431	 6,12173061779362E-02 
432	 6,01012472288554E-02 
433	 5,91810225709778E-02 
434	 0,060539417779212 
435	 5,96154100982749E-02 
436	 5,71200123796101E-02 
437	 5,63703517449531E-02 
438	 5,87491888476244E-02 
439	 6,31529341491746E-02 
440	 5,93701581410546E-02 
441	 5,37984094227172E-02 
442	 5,55838275264601E-02 
443	 5,62087487580964E-02 
444	 5,54229974224269E-02 
445	 5,96382575333423E-02 
446	 6,26113025271451E-02 
447	 6,10233661489858E-02 
448	 6,14946326548301E-02 
449	 6,32818183110257E-02 
450	 6,32957913920412E-02 
451	 0,063621160793942 
452	 0,064004125183112 
453	 6,04907687700291E-02 
454	 5,73379070665336E-02 
455	 5,84875725876674E-02 
456	 5,75800962964301E-02 
457	 5,55168396381363E-02 
458	 5,81433596137209E-02 
459	 0,06011457038642 
460	 5,94946200962586E-02 
461	 5,95455034003698E-02 
462	 5,97663980391173E-02 
463	 5,91050789584397E-02 
464	 5,79621915977912E-02 
465	 5,70339708616401E-02 
466	 5,86851766145677E-02 
467	 5,85388899301005E-02 
468	 5,43692628115916E-02 
469	 5,35878079329899E-02 
470	 5,59188190495567E-02 
471	 5,87997457052484E-02 
472	 5,99831007850995E-02 
473	 5,88965004657726E-02 
474	 5,78193103786874E-02 
475	 5,62549531246145E-02 
476	 5,37538060675719E-02 
477	 5,43813889987853E-02 
478	 5,73600992445237E-02 
479	 5,85804421133272E-02 
480	 5,83484066592217E-02 
481	 5,71252402419411E-02 
482	 0,057943086550506 
483	 5,87637914788736E-02 
484	 5,59744091753689E-02 
485	 5,70109389712759E-02 
486	 6,13840759974324E-02 
487	 5,96359401062188E-02 
488	 5,65405020810728E-02 
489	 5,60125438863844E-02 
490	 5,86163629322203E-02 
491	 6,18902666183266E-02 
492	 5,99571674851896E-02 
493	 5,83479653742292E-02 
494	 5,87443977480531E-02 
495	 0,059191294634994 
496	 5,88937289599704E-02 
497	 5,71735070785484E-02 
498	 5,78358098072766E-02 
499	 5,99229698519209E-02 
500	 5,76544891353727E-02 
501	 5,57967809354668E-02 
502	 5,68475277127878E-02 
503	 5,75069635302976E-02 
504	 0,057934767251985 
505	 5,92578323864265E-02 
506	 5,98169493371573E-02 
507	 5,93764030842555E-02 
508	 5,91427595670599E-02 
509	 5,93958249406648E-02 
510	 6,02634896018161E-02 
511	 6,06734387824484E-02 
512	 6,00948969344288E-02 
513	 5,73702770214643E-02 
514	 5,62981690195001E-02 
515	 5,82681474354094E-02 
516	 6,03552399560037E-02 
517	 6,13510878487729E-02 
518	 6,00961724836846E-02 
519	 5,90049650796803E-02 
520	 5,88136271739887E-02 
521	 5,93527557749291E-02 
522	 6,01276678060334E-02 
523	 6,06969012260594E-02 
524	 6,04879231018877E-02 
525	 5,99381588261776E-02 
526	 6,02356137131549E-02 
527	 6,05080429399865E-02 
528	 6,04418617423522E-02 
529	 5,99872204451631E-02 
530	 0,059635266817257 
531	 5,99320853898319E-02 
532	 6,05723046607319E-02 
533	 0,061188538131022 
534	 6,09286037036499E-02 
535	 0,060654141768569 
536	 6,08632210747305E-02 
537	 6,12002433460788E-02 
538	 6,12547062501603E-02 
539	 6,03153666201369E-02 
540	 5,97467071170989E-02 
541	 5,98879188652742E-02 
542	 0,059979810521573 
543	 6,01965757823991E-02 
544	 6,07013929856328E-02 
545	 6,05226147457433E-02 
546	 5,99975600503839E-02 
547	 6,06881487857386E-02 
548	 6,11365605278061E-02 
549	 6,06849136673425E-02 
550	 5,99839976480843E-02 
551	 5,96280695242382E-02 
552	 6,03923704044528E-02 
553	 6,13033677904264E-02 
554	 6,18908632764714E-02 
555	 6,17538307436896E-02 
556	 6,10866268736615E-02 
557	 6,01804853855677E-02 
558	 6,04605195083414E-02 
559	 6,13238490696101E-02 
560	 6,05924376738886E-02 
561	 5,97598833645184E-02 
562	 0,059452502376495 
563	 5,96665293951021E-02 
564	 0,059802256823096 
565	 5,90808164520389E-02 
566	 5,86566741005481E-02 
567	 5,88285914291268E-02 
568	 5,95139805883078E-02 
569	 0,060125522482909 
570	 0,060269246761916 
571	 6,05218766083429E-02 
572	 6,08490426990569E-02 
573	 6,08991453097023E-02 
574	 6,14732325808766E-02 
575	 0,062606941049908 
576	 6,28219771203954E-02 
577	 0,063049924107998 
578	 6,44099030481791E-02 
579	 6,48186329662228E-02 
580	 6,44366559019096E-02 
581	 6,52160693827283E-02 
582	 6,65613049264984E-02 
583	 6,79004338981704E-02 
584	 6,75275911570485E-02 
585	 6,64569097207839E-02 
586	 6,68633637489443E-02 
587	 6,70665558873628E-02 
588	 6,69600196127334E-02 
589	 6,84181761702293E-02 
590	 6,95374675846036E-02 
591	 6,85952021506013E-02 
592	 6,82354460395427E-02 
593	 6,86436738612985E-02 
594	 6,87878419581237E-02 
595	 6,89998103272083E-02 
596	 6,93188394426092E-02 
597	 6,91660891081666E-02 
598	 6,88573363169751E-02 
599	 6,89525643109239E-02 
600	 6,89488456141025E-02 
601	 6,87089085036545E-02 
602	 6,82284160382303E-02 
603	 6,78786499832501E-02 
604	 6,79362090041428E-02 
605	 6,80808199276424E-02 
606	 6,80736556012664E-02 
607	 6,74355211500108E-02 
608	 6,70787734497093E-02 
609	 6,72475531321077E-02 
610	 6,71826674126209E-02 
611	 6,66509382606116E-02 
612	 6,54641137301815E-02 
613	 6,50314943043591E-02 
614	 6,53704185198788E-02 
615	 6,52676336060587E-02 
616	 6,49741988778118E-02 
617	 6,46465340553993E-02 
618	 6,41556011723336E-02 
619	 6,39538758450086E-02 
620	 6,50457730798514E-02 
621	 6,54092152083274E-02 
622	 6,46134446336667E-02 
623	 6,41716417057439E-02 
624	 6,41413659433275E-02 
625	 6,44687787313551E-02 
626	 6,47157385401274E-02 
627	 6,48464245433115E-02 
628	 6,51521065270763E-02 
629	 6,52684468087728E-02 
630	 6,50480019864598E-02 
631	 6,47928114283587E-02 
632	 6,48865797573185E-02 
633	 6,59035833951029E-02 
634	 6,63455509353549E-02 
635	 0,066120575555109 
636	 6,69010390002608E-02 
637	 6,77193935774649E-02 
638	 6,77695476339363E-02 
639	 6,81463811121266E-02 
640	 6,88186506126991E-02 
641	 6,91805825589912E-02 
642	 0,069702686785149 
643	 7,04114845374038E-02 
644	 7,03497273322612E-02 
645	 7,01098003432559E-02 
646	 7,05606458399309E-02 
647	 7,09539838105938E-02 
648	 7,10351134338458E-02 
649	 7,05881318256622E-02 
650	 7,02337545901643E-02 
651	 7,03635213615618E-02 
652	 7,04973001660134E-02 
653	 7,03144881431131E-02 
654	 6,93240850943371E-02 
655	 6,82926301341918E-02 
656	 6,74971846287573E-02 
657	 6,67977249399797E-02 
658	 0,066007093071906 
659	 6,49531469810672E-02 
660	 6,41063682709156E-02 
661	 6,35179123553175E-02 
662	 6,30031502552734E-02 
663	 6,25508334745582E-02 
664	 6,21433771983432E-02 
665	 6,18668336266814E-02 
666	 6,13559113512506E-02 
667	 5,99807512816878E-02 
668	 5,97085384019672E-02 
669	 6,05154513029993E-02 
670	 5,99554683640067E-02 
671	 5,90021402964529E-02 
672	 5,85283857336035E-02 
673	 5,87040384315284E-02 
674	 5,91407004796596E-02 
675	 5,87991504395177E-02 
676	 5,85573571765856E-02 
677	 5,86649701880498E-02 
678	 5,85956434112902E-02 
679	 5,85699776329943E-02 
680	 5,88895542447685E-02 
681	 5,94168597254935E-02 
682	 0,0599701295594 
683	 0,060050005603176 
684	 6,04163095211242E-02 
685	 6,14056321710207E-02 
686	 6,17130955501635E-02 
687	 6,19979501901076E-02 
688	 6,37261858508746E-02 
689	 6,55151150086187E-02 
690	 6,70543231057734E-02 
691	 0,068893072415158 
692	 7,11424504532816E-02 
693	 7,39129506395727E-02 
694	 7,76224242787004E-02 
695	 8,21793949668363E-02 
696	 8,70728426402863E-02 
697	 9,26184018709527E-02 
698	 9,89147479293047E-02 
699	 0,105753958470907 
700	 0,113189949684492 
701	 0,121269269196741 
702	 0,13015083306206 
703	 0,139550706301668 
704	 0,148456319965991 
705	 0,157676900327384 
706	 0,167604876905979 
707	 0,177087575914945 
708	 0,186141120516967 
709	 0,195083326109465 
710	 0,203990220491436 
711	 0,212809401386118 
712	 0,221166377173995 
713	 0,229126335917982 
714	 0,236767527237605 
715	 0,244010297606022 
716	 0,250834635069168 
717	 0,257250560135613 
718	 0,263396484121669 
719	 0,269277760203146 
720	 0,274475723420232 
721	 0,279240487116702 
722	 0,283953625603027 
723	 0,288210893979084 
724	 0,292034821223924 
725	 0,295808899405387 
726	 0,299290827064252 
727	 0,302333876285192 
728	 0,305117756938306 
729	 0,307700901206284 
730	 0,310106539767312 
731	 0,312511099081098 
732	 0,314893180214727 
733	 0,316930132709948 
734	 0,318650915022831 
735	 0,320105060470826 
736	 0,32144347826286 
737	 0,322733341196273 
738	 0,32405344481831 
739	 0,32516000846401 
740	 0,326091102705108 
741	 0,327624065337532 
742	 0,329152042323593 
743	 0,329923385083656 
744	 0,330593155240767 
745	 0,331296294419559 
746	 0,331915660918846 
747	 0,332625842150416 
748	 0,333510619907766 
749	 0,334442923022991 
750	 0,335276521684387 
751	 0,335813189542455 
752	 0,336489145081433 
753	 0,337232604541647 
754	 0,337277955186678 
755	 0,337283155273303 
756	 0,33776082726647 
757	 0,338687125791292 
758	 0,339662268862834 
759	 0,339906645484202 
760	 0,340029154916956 
761	 0,340329367455087 
762	 0,341212170616797 
763	 0,34194558968376 
764	 0,341883269757935 
765	 0,342209357291865 
766	 0,34294119432196 
767	 0,343562168895703 
768	 0,343896735591436 
769	 0,343903547584418 
770	 0,343907173895021 
771	 0,344119220123199 
772	 0,344734141106938 
773	 0,345333881028323 
774	 0,345782999749977 
775	 0,346062298206266 
776	 0,346193619445408 
777	 0,34622071957042 
778	 0,346258914617307 
779	 0,346514813398612 
780	 0,347263505247041 
781	 0,347571427841388 
782	 0,347428633155376 
783	 0,347800190002933 
784	 0,348201776964663 
785	 0,348311555256838 
786	 0,348253357417468 
787	 0,348244175367704 
788	 0,348649403460627 
789	 0,348864787969819 
790	 0,348764884195827 
791	 0,348632623120227 
792	 0,348698294102067 
793	 0,349112082340818 
794	 0,34947751541763 
795	 0,349737711744911 
796	 0,349967659595747 
797	 0,349925709892701 
798	 0,349671022642101 
799	 0,349818902656343 
800	 0,350203539661954 
801	 0,350618457757836 
802	 0,350869349895572 
803	 0,350974252283664 
804	 0,351090552708412 
805	 0,3512251620361 
806	 0,351466696592871 
807	 0,352223941322973 
808	 0,352860302418619 
809	 0,352711789528015 
810	 0,352740868862835 
811	 0,353095371588966 
812	 0,353585550924442 
813	 0,354097113091131 
814	 0,354454442115955 
815	 0,354048915641177 
816	 0,353708301076346 
817	 0,354434495723428 
818	 0,355080957863533 
819	 0,355409895246423 
820	 0,355574610530942 
821	 0,355622908799345 
822	 0,355675068807953 
823	 0,35618010108853 
824	 0,356917992319613 
825	 0,357541526608653 
826	 0,357385319410586 
827	 0,356877242223829 
828	 0,357948868070431 
829	 0,358733197323832 
830	 0,358445765255636 
831	 0,358920074676314 
832	 0,359592239164022 
833	 0,359448132771814 
834	 0,359192808306473 
835	 0,359093345520569 
836	 0,359405662260694 
837	 0,359743616878148 
838	 0,359913722814541 
839	 0,360240497525787 
840	 0,360488778609256 
841	 0,360292207010479 
842	 0,360620129216992 
843	 0,361340030144831 
844	 0,361188812748009 
845	 0,360881554397437 
846	 0,360842475917905 
847	 0,361004113902604 
848	 0,361402413203012 
849	 0,362083478370938 
850	 0,362154597983279 
851	 0,36171650029883 
852	 0,361913666843333 
853	 0,362144456623937 
854	 0,362105967867603 
855	 0,362041983588391 
856	 0,362053539257671 
857	 0,362239232002417 
858	 0,36243457548365 
859	 0,362506599000211 
860	 0,362142101442412 
861	 0,362017854782428 
862	 0,362439207994886 
863	 0,362856899244808 
864	 0,363084508383291 
865	 0,362980634537906 
866	 0,363278341935106 
867	 0,363913998153602 
868	 0,364082955961082 
869	 0,364445395613027 
870	 0,365189718173127 
871	 0,365486959065551 
872	 0,365578858772801 
873	 0,365835991028756 
874	 0,365704095875532 
875	 0,365382985569001 
876	 0,365817036657248 
877	 0,365888601704223 
878	 0,365377337992097 
879	 0,365783433481302 
880	 0,366853453502323 
881	 0,368118133891041 
882	 0,36846731531844 
883	 0,368080381550323 
884	 0,368042770029455 
885	 0,368378037010882 
886	 0,368945196628741 
887	 0,368771210140829 
888	 0,368322251198244 
889	 0,368119380460488 
890	 0,368250959381297 
891	 0,36867371945126 
892	 0,369242999500736 
893	 0,369728576793537 
894	 0,370059323374853 
895	 0,37044281475676 
896	 0,370591094955299 
897	 0,370365965846104 
898	 0,370720500816116 
899	 0,371291120469133 
900	 0,371151328774735 
901	 0,371355318272152 
902	 0,371929325670156 
903	 0,371853175896572 
904	 0,371525590970428 
905	 0,371303956422838 
906	 0,37181624500438 
907	 0,372408571584557 
908	 0,372062339807528 
909	 0,371546576220439 
910	 0,371110155635568 
911	 0,370831921571489 
912	 0,370844058684558 
913	 0,371232746666195 
914	 0,372168469328745 
915	 0,372748640306253 
916	 0,372079669184466 
917	 0,372375161379316 
918	 0,373236819687068 
919	 0,372531669048293 
920	 0,371292241024808 
921	 0,370220727321018 
922	 0,370778762693793 
923	 0,371611295974398 
924	 0,371517727803908 
925	 0,371012054915647 
926	 0,37058904602876 
927	 0,37101883420093 
928	 0,370846138923512 
929	 0,370112198431961 
930	 0,370668909230775 
931	 0,370850571774652 
932	 0,369875356683461 
933	 0,369591326917754 
934	 0,369641397246259 
935	 0,369310682781832 
936	 0,368974103884069 
937	 0,368504052910137 
938	 0,367275999545982 
939	 0,366460796832264 
940	 0,366288979570932 
941	 0,365329836378562 
942	 0,364436607597133 
943	 0,364383250125546 
944	 0,364533646288801 
945	 0,36411114950185 
946	 0,361890292714966 
947	 0,36050973139788 
948	 0,360349227917719 
949	 0,359691355588278 
950	 0,358861226416811 
951	 0,357912190041154 
952	 0,356022141490894 
953	 0,354128757109432 
954	 0,353412850564263 
955	 0,352872590915846 
956	 0,352124371554096 
957	 0,35067398140673 
958	 0,349998939928447 
959	 0,350162150098195 
960	 0,348773833171823 
961	 0,347808748487857 
962	 0,348496015129031 
963	 0,347381186198994 
964	 0,345646555843865 
965	 0,345811279329824 
966	 0,345950669540763 
967	 0,345719928592692 
968	 0,34547674756376 
969	 0,345741122135653 
970	 0,346442424021351 
971	 0,345770995403937 
972	 0,345664620107012 
973	 0,34756546251729 
974	 0,346049620556948 
975	 0,343513886913564 
976	 0,345825869389753 
977	 0,34674969602973 
978	 0,345522075298597 
979	 0,345685691858386 
980	 0,34585302717069 
981	 0,345533364281319 
982	 0,345917203076541 
983	 0,346078412994475 
984	 0,345289069505583 
985	 0,347807252847723 
986	 0,350935131702144 
987	 0,34799789251844 
988	 0,3472827106504 
989	 0,349592461449408 
990	 0,348257333942508 
991	 0,348841224711123 
992	 0,353310649203981 
993	 0,355341429375462 
994	 0,354877539859949 
995	 0,352661916286638 
996	 0,350622348937001 
997	 0,350796129363089 
998	 0,356193738111653 
999	 0,358584969366117 
1000	 0,35698225039397 
1001	 0,35741979880536 
1002	 0,35840339689087 
1003	 0,359092412526496 
1004	 0,358447005699735 
1005	 0,358982654742218 
1006	 0,362698219568392 
1007	 0,363272907591077 
1008	 0,361362266829743 
1009	 0,360158081221041 
1010	 0,361211113985314 
1011	 0,363756919792937 
1012	 0,363037076486139 
1013	 0,365133824619049 
1014	 0,370892919608529 
1015	 0,37066417947647 
1016	 0,368093785589391 
1017	 0,367053954984878 
1018	 0,369622515153379 
1019	 0,370995331281113 
1020	 0,363963091353997 
1021	 0,363977329810217 
1022	 0,371148406187283 
1023	 0,375414387250478 
1024	 0,375246185978911 
1025	 0,371417040732123 
1026	 0,371180932304684 
1027	 0,373162302357811 
1028	 0,375991394827428 
1029	 0,377557319834501 
1030	 0,378359615988918 
1031	 0,379164151716925 
1032	 0,375972697015427 
1033	 0,37288926687038 
1034	 0,379386674023006 
1035	 0,381051156098219 
1036	 0,377464535292767 
1037	 0,382853002120896 
1038	 0,384626480581539 
1039	 0,378990850251235 
1040	 0,37818995960337 
1041	 0,379925853344351 
1042	 0,381753507074073 
1043	 0,384921848603587 
1044	 0,388029048263763 
1045	 0,388968639187315 
1046	 0,385957341043881 
1047	 0,383181178829367 
1048	 0,391474529150591 
1049	 0,390235504193041 
1050	 0,378799716346631 
1051	 0,380675631310409 
1052	 0,383626937438387 
1053	 0,383392892102188 
1054	 0,39269821779353 
1055	 0,400596818108835 
1056	 0,397297204773775 
1057	 0,390585633414079 
1058	 0,38314580007926 
1059	 0,37688403916457 
1060	 0,377104510540857 
1061	 0,383874639931077 
1062	 0,395207181802011 
1063	 0,396442750456367 
1064	 0,387935460056202 
1065	 0,389531342293816 
1066	 0,390190774855385 
1067	 0,386836076031776 
1068	 0,39043043772968 
1069	 0,393992685895283 
1070	 0,391710676841766 
1071	 0,382926310442674 
1072	 0,379657015393567 
1073	 0,39468519348819 
1074	 0,403555173769183 
1075	 0,40330650602737 
