Wavelength	NEUF00147.asd
325	 0,141860768578326 
326	-0,16079119297417 
327	-0,228743247936129 
328	 1,20330652926979E-02 
329	 0,008783776167018 
330	-5,52202609950947E-02 
331	-7,38766995605924E-02 
332	 4,70305181249847E-03 
333	 7,82693551979804E-02 
334	 6,05829227745492E-02 
335	 4,20652800226323E-02 
336	 0,033512501469652 
337	-5,32589856920431E-02 
338	-0,101271430379592 
339	-2,75379225631074E-02 
340	-3,07909799324185E-03 
341	-6,92521004378424E-03 
342	 5,91065988476165E-02 
343	 6,50491170207813E-02 
344	 3,58407029140546E-03 
345	-2,20194327569129E-02 
346	-8,55305934132435E-03 
347	 2,76919732623227E-02 
348	 3,48615427332628E-02 
349	 1,41063573034355E-02 
350	-5,35424832456811E-03 
351	 5,78882644700211E-03 
352	 4,04390746540741E-02 
353	 1,11395145509805E-02 
354	-2,97872234782407E-02 
355	-1,01989596421732E-02 
356	-5,62169513853735E-03 
357	-1,71549513825541E-02 
358	-9,25757682263517E-04 
359	 1,01486862064402E-03 
360	-2,11109086703649E-02 
361	 8,84889566430289E-03 
362	 4,07141567138288E-02 
363	-2,98359085064156E-04 
364	 1,43203009499832E-02 
365	 7,77289392217909E-02 
366	 0,07148535004553 
367	 3,44224486597996E-02 
368	-8,5931602443857E-03 
369	-2,70708736897483E-02 
370	-2,31810567067138E-02 
371	-1,57557820476624E-02 
372	 3,51335872859669E-03 
373	 0,025944448046271 
374	 1,78529523868265E-02 
375	 5,65238205836766E-03 
376	 1,01394677408089E-02 
377	 2,03660585742939E-02 
378	 2,72151830946694E-02 
379	 1,28652410748387E-02 
380	 1,42766348252722E-02 
381	 3,61420689196201E-02 
382	 4,41385071925229E-02 
383	 3,88702711490476E-02 
384	 2,26082606642482E-02 
385	 1,16313712382001E-02 
386	 1,05156640852361E-02 
387	 1,76615743125945E-02 
388	 3,24456290312703E-02 
389	 4,69443835594197E-02 
390	 3,15072787968703E-02 
391	 6,05052654083918E-03 
392	-2,19975027992105E-03 
393	 2,86026904689479E-04 
394	 9,81594768731366E-03 
395	 2,16647353912812E-02 
396	 2,74676437941403E-02 
397	 2,40413374484842E-02 
398	 2,75171404205364E-02 
399	 3,03034660000473E-02 
400	 1,83772261000148E-02 
401	 1,07644638773551E-02 
402	 0,011901668925712 
403	 1,82577986976585E-02 
404	 2,50940773126673E-02 
405	 2,81672733260416E-02 
406	 2,11715918777752E-02 
407	 9,54557784635488E-03 
408	 4,1439957638072E-03 
409	 8,50989588137385E-03 
410	 1,85895770447075E-02 
411	 1,06024382661288E-02 
412	 5,31659135956897E-04 
413	 3,9124535739526E-03 
414	 8,94713942758694E-03 
415	 1,24564342662259E-02 
416	 1,18366068290538E-02 
417	 1,41876868971855E-02 
418	 2,03186162397952E-02 
419	 1,57792188542034E-02 
420	 9,44375002173382E-03 
421	 1,34988734617629E-02 
422	 1,49834990746827E-02 
423	 1,33166795007013E-02 
424	 1,64854130286751E-02 
425	 2,03730858207057E-02 
426	 2,19032597818407E-02 
427	 0,018566198767968 
428	 1,32395197635602E-02 
429	 1,08141634944797E-02 
430	 1,28825608745945E-02 
431	 1,78694561563565E-02 
432	 1,68195603402183E-02 
433	 1,43155795575002E-02 
434	 1,47352829742333E-02 
435	 0,016584023443882 
436	 1,75989056038906E-02 
437	 1,16789263704021E-02 
438	 1,11438765654204E-02 
439	 1,86373340278206E-02 
440	 1,80841540345813E-02 
441	 1,35083765091912E-02 
442	 1,18283176129154E-02 
443	 1,02348727156547E-02 
444	 9,63518118886574E-03 
445	 1,44516882787954E-02 
446	 2,00606495711205E-02 
447	 2,32526809608394E-02 
448	 2,35662127323507E-02 
449	 0,022190997081203 
450	 0,02138881435205 
451	 2,09513712715567E-02 
452	 2,01768881943899E-02 
453	 1,53470512193185E-02 
454	 0,011761720380094 
455	 1,43365042723766E-02 
456	 1,65610782587266E-02 
457	 1,76232967511023E-02 
458	 1,91851180640951E-02 
459	 1,98122845176073E-02 
460	 1,89750695425397E-02 
461	 1,74133225061664E-02 
462	 1,55194642012372E-02 
463	 1,36511527882863E-02 
464	 1,47596770008204E-02 
465	 1,83010106844044E-02 
466	 2,04170042892085E-02 
467	 1,92338659750917E-02 
468	 1,42815857545585E-02 
469	 1,32087173665985E-02 
470	 1,48400967464146E-02 
471	 1,42184935499897E-02 
472	 1,52859959495056E-02 
473	 1,78844301755456E-02 
474	 0,015833179688361 
475	 0,012989999965934 
476	 1,34378249721405E-02 
477	 1,60410616127102E-02 
478	 0,018812029068667 
479	 1,70384065019905E-02 
480	 1,57043687051145E-02 
481	 1,68378534763422E-02 
482	 1,70978203207566E-02 
483	 1,58787788768155E-02 
484	 1,26677691357595E-02 
485	 1,27958239408539E-02 
486	 1,61698753535292E-02 
487	 1,66034026580829E-02 
488	 1,60402888047753E-02 
489	 1,60291844349452E-02 
490	 1,59992195296653E-02 
491	 1,62017679650919E-02 
492	 1,75767927731617E-02 
493	 1,74653556186151E-02 
494	 1,57505362278629E-02 
495	 0,017563803690353 
496	 1,89228455101627E-02 
497	 1,50916850810048E-02 
498	 1,41469477887062E-02 
499	 1,63450653977463E-02 
500	 1,65771121036491E-02 
501	 1,63584360604557E-02 
502	 1,65767899085092E-02 
503	 1,76769409146431E-02 
504	 1,86559805651722E-02 
505	 1,75594701615364E-02 
506	 1,77965458372932E-02 
507	 1,96243591055455E-02 
508	 1,94904875949048E-02 
509	 0,018887659986507 
510	 1,92120719229637E-02 
511	 1,84494790424175E-02 
512	 1,70509261265028E-02 
513	 1,69986203718533E-02 
514	 1,73674266399736E-02 
515	 1,77782151401909E-02 
516	 1,86164232744441E-02 
517	 1,89213332374561E-02 
518	 1,73174128589891E-02 
519	 1,71001560333496E-02 
520	 1,84428277851114E-02 
521	 1,85982295466868E-02 
522	 1,85048383553845E-02 
523	 1,88041894425943E-02 
524	 1,84767694973297E-02 
525	 1,79368981619573E-02 
526	 1,85233420815337E-02 
527	 1,85842817500581E-02 
528	 1,78612227136961E-02 
529	 0,018320937629913 
530	 1,87067541359916E-02 
531	 1,74710886401027E-02 
532	 1,70684425595341E-02 
533	 1,77798444198567E-02 
534	 1,87082983868686E-02 
535	 1,91774559364573E-02 
536	 1,88624767491003E-02 
537	 0,018953536474026 
538	 1,91508756162871E-02 
539	 1,85493046976984E-02 
540	 1,82159112192007E-02 
541	 1,83773187082287E-02 
542	 1,83971033085637E-02 
543	 1,83630240171687E-02 
544	 1,83846504335133E-02 
545	 1,83145853736883E-02 
546	 1,81591651456263E-02 
547	 1,79504550776868E-02 
548	 1,80843417225971E-02 
549	 1,85767066723103E-02 
550	 1,80182093056303E-02 
551	 1,72812296870647E-02 
552	 0,017944331598185 
553	 1,86897073556092E-02 
554	 1,91342838399696E-02 
555	 1,95177807919531E-02 
556	 1,93419024657953E-02 
557	 1,83060637421801E-02 
558	 1,79832494775513E-02 
559	 1,83553514523903E-02 
560	 1,86548680394523E-02 
561	 1,86811118988591E-02 
562	 1,83908225464238E-02 
563	 1,83903563297096E-02 
564	 1,83867153452864E-02 
565	 0,017917352134882 
566	 1,80261447793814E-02 
567	 1,86315813616958E-02 
568	 0,018437107063326 
569	 1,83472774888107E-02 
570	 1,88935770435689E-02 
571	 1,86703488034803E-02 
572	 0,018142397845333 
573	 1,87772916986626E-02 
574	 1,95267865506658E-02 
575	 1,99175586506921E-02 
576	 1,94482551362975E-02 
577	 1,92232009846336E-02 
578	 2,04690197005106E-02 
579	 2,09901033515505E-02 
580	 2,06614466910177E-02 
581	 2,07598370708515E-02 
582	 2,10564156556066E-02 
583	 2,14279533564666E-02 
584	 2,18363623313236E-02 
585	 2,20851295913199E-02 
586	 2,18456148187234E-02 
587	 0,02169274725953 
588	 2,18327145131546E-02 
589	 2,22856948708775E-02 
590	 2,25875768292988E-02 
591	 2,23287418171134E-02 
592	 2,20299432957057E-02 
593	 2,18887134850567E-02 
594	 2,20950477382528E-02 
595	 2,24577959135883E-02 
596	 2,27696679163219E-02 
597	 0,022435704691529 
598	 2,18105358867989E-02 
599	 2,14965467848042E-02 
600	 2,15985318398619E-02 
601	 2,19584095597618E-02 
602	 2,17786155866408E-02 
603	 2,15965999923672E-02 
604	 2,18146509948575E-02 
605	 2,18006930168171E-02 
606	 2,16331383727532E-02 
607	 2,18235371593411E-02 
608	 2,16964597659789E-02 
609	 2,11380663016615E-02 
610	 2,10413491269468E-02 
611	 2,11414072449918E-02 
612	 0,021017296928982 
613	 2,09727366522306E-02 
614	 2,10569426303242E-02 
615	 0,021315848451591 
616	 2,10973431496136E-02 
617	 2,01057197512824E-02 
618	 1,96146862624173E-02 
619	 0,019708118309129 
620	 2,02145942837272E-02 
621	 2,02601338059374E-02 
622	 1,97512126932848E-02 
623	 0,019913951664201 
624	 2,03287634825967E-02 
625	 2,04914542164435E-02 
626	 0,020596615570997 
627	 2,06647143659539E-02 
628	 2,07137325802297E-02 
629	 2,04778973154221E-02 
630	 2,00062943279546E-02 
631	 0,02070049397108 
632	 2,16755483184786E-02 
633	 2,12282294894839E-02 
634	 2,11572188277891E-02 
635	 2,17997899877541E-02 
636	 2,22947857407446E-02 
637	 2,25396422557598E-02 
638	 2,25183852305447E-02 
639	 2,30079210578686E-02 
640	 2,37728993321315E-02 
641	 0,023850996220641 
642	 2,38859077409199E-02 
643	 2,41026696657973E-02 
644	 2,42353633122084E-02 
645	 2,43533646622867E-02 
646	 2,45717234441383E-02 
647	 0,02476082588832 
648	 2,48755370622112E-02 
649	 2,48231664172575E-02 
650	 2,50737385936177E-02 
651	 2,57975067609101E-02 
652	 2,55096752449954E-02 
653	 2,46059002791456E-02 
654	 2,43358834026106E-02 
655	 2,40432098519271E-02 
656	 0,023581322180446 
657	 2,32337945143363E-02 
658	 2,27407777996225E-02 
659	 2,18619039115683E-02 
660	 2,17648783980027E-02 
661	 2,22969776584754E-02 
662	 2,23093377932228E-02 
663	 2,21149276437274E-02 
664	 2,18671000874933E-02 
665	 2,16863665129773E-02 
666	 2,14184265984878E-02 
667	 2,07899341538721E-02 
668	 2,01866507101065E-02 
669	 1,97886073002019E-02 
670	 1,96879258741883E-02 
671	 1,99473468315947E-02 
672	 2,05358154661844E-02 
673	 2,06281187771989E-02 
674	 2,02077604492417E-02 
675	 1,94723601113882E-02 
676	 1,94563546510903E-02 
677	 2,02897055943958E-02 
678	 2,01294869694132E-02 
679	 1,96678942594556E-02 
680	 1,98994322376375E-02 
681	 2,01325378329442E-02 
682	 0,020252727564311 
683	 2,03430286312837E-02 
684	 2,07487932240092E-02 
685	 2,15291512501402E-02 
686	 2,13351777114001E-02 
687	 0,020900895958136 
688	 0,021834485932665 
689	 2,28150815236137E-02 
690	 2,35358532860827E-02 
691	 2,44894961583379E-02 
692	 2,55684604052051E-02 
693	 2,66922171888696E-02 
694	 2,83090380205125E-02 
695	 0,030495848232548 
696	 3,32070231122313E-02 
697	 3,61285312640591E-02 
698	 3,91396460680352E-02 
699	 4,24172908739607E-02 
700	 4,62128932858515E-02 
701	 5,07887919036317E-02 
702	 5,58658322229658E-02 
703	 6,12055878206244E-02 
704	 6,63854781180314E-02 
705	 7,16173533823239E-02 
706	 7,69484094509987E-02 
707	 8,15978502479064E-02 
708	 8,61318455335339E-02 
709	 9,18203672824079E-02 
710	 9,70725856371578E-02 
711	 0,101579047074131 
712	 0,106414567293301 
713	 0,111201417921069 
714	 0,115554583304846 
715	 0,119587954294734 
716	 0,1234896053983 
717	 0,127805370857214 
718	 0,131518712652776 
719	 0,13434953156375 
720	 0,137458646775938 
721	 0,140519146958888 
722	 0,1429872974017 
723	 0,145401198870408 
724	 0,147829835914728 
725	 0,150046605409317 
726	 0,152092748988122 
727	 0,153953384905122 
728	 0,155332153722858 
729	 0,156567818402843 
730	 0,158311983437374 
731	 0,160003656236211 
732	 0,161414055587765 
733	 0,162384441485508 
734	 0,163228652047743 
735	 0,164219776465325 
736	 0,165122273808961 
737	 0,165954087778948 
738	 0,16692624768702 
739	 0,1674734731791 
740	 0,167538445732087 
741	 0,168087106257038 
742	 0,16887688206503 
743	 0,169527044613447 
744	 0,169775153262862 
745	 0,169799570076999 
746	 0,170340381294299 
747	 0,171004379428815 
748	 0,171538816696871 
749	 0,171696777103388 
750	 0,171861760533502 
751	 0,172676243320362 
752	 0,173186121056531 
753	 0,173202581421364 
754	 0,173070145431015 
755	 0,173100061528944 
756	 0,173486166003538 
757	 0,173768748302531 
758	 0,173889057688432 
759	 0,17389315378183 
760	 0,1738190590719 
761	 0,1737903088761 
762	 0,174245571127172 
763	 0,174718739685165 
764	 0,174768642738783 
765	 0,174830310903823 
766	 0,174979644281073 
767	 0,175223022272111 
768	 0,175292391273522 
769	 0,175134737457725 
770	 0,175116435653497 
771	 0,175272536060753 
772	 0,175597553834217 
773	 0,175958497300983 
774	 0,176232857521965 
775	 0,17620310508479 
776	 0,176108405802647 
777	 0,176095730834983 
778	 0,176149590999912 
779	 0,176382869260469 
780	 0,176969596460541 
781	 0,176878294881431 
782	 0,176184134477252 
783	 0,176186954308382 
784	 0,176423288645004 
785	 0,176569773994888 
786	 0,176630429270248 
787	 0,176645463921896 
788	 0,176701421312795 
789	 0,176762123564492 
790	 0,176852308155573 
791	 0,177139088410826 
792	 0,177292240274947 
793	 0,177066950183214 
794	 0,176786033650288 
795	 0,176678892740974 
796	 0,177157124241715 
797	 0,177182874067794 
798	 0,176625656589554 
799	 0,17672639145998 
800	 0,176997237765228 
801	 0,176928125450872 
802	 0,176744526057907 
803	 0,176585250216245 
804	 0,176705880086334 
805	 0,176826284998887 
806	 0,176856549457408 
807	 0,176917124287605 
808	 0,177061000433937 
809	 0,177318541773025 
810	 0,177233231049877 
811	 0,177085535821682 
812	 0,177979736967994 
813	 0,178600545429918 
814	 0,178456440061724 
815	 0,178318526859856 
816	 0,178289945239443 
817	 0,178416258659331 
818	 0,178933850775502 
819	 0,179644639829342 
820	 0,179862733034269 
821	 0,179885062635769 
822	 0,179900038625088 
823	 0,180142718051738 
824	 0,180532460553146 
825	 0,180923120098954 
826	 0,180855712462869 
827	 0,180539631945725 
828	 0,181028023820212 
829	 0,181415416537164 
830	 0,181281968009639 
831	 0,181186721562396 
832	 0,181315087225697 
833	 0,181825444909999 
834	 0,181742867034631 
835	 0,181207084924876 
836	 0,181524582018098 
837	 0,181897388103214 
838	 0,181915580284391 
839	 0,181948305985144 
840	 0,181960319824734 
841	 0,181848845121123 
842	 0,182342321731476 
843	 0,183161557016586 
844	 0,182791888649856 
845	 0,182340221690522 
846	 0,182389012961819 
847	 0,182343739309512 
848	 0,182338982627586 
849	 0,182641351560057 
850	 0,182685722251893 
851	 0,182493837492259 
852	 0,182634219272878 
853	 0,182823874034753 
854	 0,182899487451752 
855	 0,182818809253738 
856	 0,182844114465808 
857	 0,183327926591899 
858	 0,183246057478176 
859	 0,182703732590045 
860	 0,18285346583897 
861	 0,183221064119282 
862	 0,183512177464332 
863	 0,183477427053252 
864	 0,183344744746633 
865	 0,183447706112755 
866	 0,183534780353844 
867	 0,183605677910812 
868	 0,183868505753223 
869	 0,18395239627763 
870	 0,183732628998358 
871	 0,183628949607343 
872	 0,183639150676779 
873	 0,183710477875446 
874	 0,183917667301163 
875	 0,184257820684133 
876	 0,18475315676963 
877	 0,184958470748994 
878	 0,184738139566311 
879	 0,184506354418091 
880	 0,184601548340417 
881	 0,185301406382173 
882	 0,18580254475911 
883	 0,185972427811606 
884	 0,185890115454542 
885	 0,18620828555175 
886	 0,186949352691954 
887	 0,186851117836654 
888	 0,186467570103322 
889	 0,186382340559826 
890	 0,186210129967132 
891	 0,186148610157283 
892	 0,186738082048854 
893	 0,187410815705051 
894	 0,187860957890675 
895	 0,187751791412417 
896	 0,187512054750588 
897	 0,1875181686626 
898	 0,187871459731018 
899	 0,188161501186443 
900	 0,187613432878465 
901	 0,187565707058179 
902	 0,188120538177708 
903	 0,188144768667112 
904	 0,187894387566009 
905	 0,187615889299513 
906	 0,187825326883003 
907	 0,188260393781398 
908	 0,188450819455807 
909	 0,188474639269921 
910	 0,188345110378533 
911	 0,188149209452768 
912	 0,187582259208116 
913	 0,186664466513072 
914	 0,186140157501821 
915	 0,18662021763574 
916	 0,188515998866156 
917	 0,188753653261317 
918	 0,187701609196342 
919	 0,188069546239774 
920	 0,188072230035835 
921	 0,187382230496505 
922	 0,187213718692591 
923	 0,187464344234397 
924	 0,187878971389704 
925	 0,187147194752842 
926	 0,186372792562574 
927	 0,187917018980047 
928	 0,18897108962345 
929	 0,188665060624404 
930	 0,186978549832211 
931	 0,185903835284538 
932	 0,186421667734713 
933	 0,186259342977414 
934	 0,185877365035323 
935	 0,186161877057899 
936	 0,186016315218646 
937	 0,185548791878839 
938	 0,185787516043734 
939	 0,185846201134853 
940	 0,185364179979052 
941	 0,184351610040881 
942	 0,183479668929251 
943	 0,18330201706384 
944	 0,183141514447927 
945	 0,182804802681494 
946	 0,182140047649724 
947	 0,182013175828921 
948	 0,182285287449754 
949	 0,181540312084065 
950	 0,180512363391308 
951	 0,179619485917191 
952	 0,178553184547645 
953	 0,177461625417777 
954	 0,176592041030101 
955	 0,177146673157358 
956	 0,178071880453597 
957	 0,175824619234443 
958	 0,175338017325311 
959	 0,17732477867209 
960	 0,176606164010677 
961	 0,175679418602831 
962	 0,176244634574345 
963	 0,174575705778623 
964	 0,172599939726409 
965	 0,173933317159576 
966	 0,175616630740464 
967	 0,176443644326316 
968	 0,175097082920193 
969	 0,174088595845085 
970	 0,174371257303009 
971	 0,174305907859693 
972	 0,174473073923091 
973	 0,175332495878449 
974	 0,175114125553514 
975	 0,174375315035315 
976	 0,174631304532598 
977	 0,175150772202428 
978	 0,175575403133034 
979	 0,175450050020924 
980	 0,174691119062699 
981	 0,173613740620229 
982	 0,174252289918577 
983	 0,174777168577159 
984	 0,173443043285427 
985	 0,174256476814918 
986	 0,176051857913107 
987	 0,175169427886599 
988	 0,175209150613323 
989	 0,176299464116591 
990	 0,174863060215915 
991	 0,174828089393017 
992	 0,17733962617597 
993	 0,175869440104532 
994	 0,174271211289984 
995	 0,17675896958972 
996	 0,177274894002484 
997	 0,177190240417955 
998	 0,181388244228693 
999	 0,181891676619088 
1000	 0,178181713033907 
1001	 0,176885296423953 
1002	 0,176421114547567 
1003	 0,176649290607207 
1004	 0,180929312318813 
1005	 0,184560155422929 
1006	 0,183083539408527 
1007	 0,180746551102178 
1008	 0,179128825673047 
1009	 0,179529787862269 
1010	 0,180817402608546 
1011	 0,181789498933354 
1012	 0,179124454044443 
1013	 0,180500095180743 
1014	 0,187033834097002 
1015	 0,186061974522468 
1016	 0,182200610837426 
1017	 0,180348378758684 
1018	 0,182479618961712 
1019	 0,18467957702062 
1020	 0,180850898707702 
1021	 0,180039547541355 
1022	 0,182810655793965 
1023	 0,184480088492197 
1024	 0,185813575008868 
1025	 0,186492518400665 
1026	 0,184884294724823 
1027	 0,183538619264874 
1028	 0,184443117684062 
1029	 0,188848850224422 
1030	 0,191428726155179 
1031	 0,186493271424622 
1032	 0,182227970900371 
1033	 0,181413218251392 
1034	 0,185822415355439 
1035	 0,188104321116153 
1036	 0,186867035072712 
1037	 0,185721152895845 
1038	 0,184714415280278 
1039	 0,184525838330819 
1040	 0,187716687729337 
1041	 0,190329387991406 
1042	 0,189260353433966 
1043	 0,187388686625668 
1044	 0,186501608749771 
1045	 0,188357545645603 
1046	 0,18982694690394 
1047	 0,190346468173272 
1048	 0,190577094892844 
1049	 0,189173531508771 
1050	 0,186514707949702 
1051	 0,185396985882055 
1052	 0,184029865562871 
1053	 0,182807598918386 
1054	 0,188761669680825 
1055	 0,194064273244989 
1056	 0,191869974363745 
1057	 0,188264055567446 
1058	 0,185837626280082 
1059	 0,186361219572176 
1060	 0,179166532087637 
1061	 0,17113903890932 
1062	 0,180842027445816 
1063	 0,191404139275753 
1064	 0,196710058868588 
1065	 0,196887399622755 
1066	 0,188807896308138 
1067	 0,177516799938661 
1068	 0,195427622014141 
1069	 0,208243163366147 
1070	 0,192517886229356 
1071	 0,183662187545525 
1072	 0,183508571689942 
1073	 0,188533992576657 
1074	 0,191900546643573 
1075	 0,192546110965194 
