Wavelength	NEUF00545.asd
325	 0,342141319240556 
326	 8,62560769452784E-02 
327	-1,72295822058404E-02 
328	 0,133699335942874 
329	 0,219339638593604 
330	 0,270688445784027 
331	 0,285393025698688 
332	 0,255668565487547 
333	 0,235022327821208 
334	 0,278919397160327 
335	 0,328962887614436 
336	 0,340244949388514 
337	 0,168050774858341 
338	 2,58430269352158E-02 
339	 8,51722233124732E-02 
340	 0,166314392110889 
341	 0,222538230693892 
342	 0,191255125269351 
343	 0,169780229204596 
344	 0,172197709796839 
345	 0,164541941277401 
346	 0,161213504271333 
347	 0,174384000869518 
348	 0,120926109847393 
349	 4,12553068220738E-02 
350	 9,85383813603992E-02 
351	 0,166663485493395 
352	 0,19446348675632 
353	 0,173031350181107 
354	 0,131854909450813 
355	 0,109986507959345 
356	 0,107971768020834 
357	 0,124354333269066 
358	 0,16031656138052 
359	 0,164707768739756 
360	 0,125431424920111 
361	 0,137789857737081 
362	 0,163737649054936 
363	 0,138444018350585 
364	 0,13991890744617 
365	 0,173452264182014 
366	 0,196617922759655 
367	 0,199589892265948 
368	 0,177100755498206 
369	 0,167895017738416 
370	 0,164529418997561 
371	 0,139708885166589 
372	 0,132956605558054 
373	 0,149457466684741 
374	 0,163985511401556 
375	 0,16386741431368 
376	 0,142291089431652 
377	 0,128794994528855 
378	 0,130067368556342 
379	 0,149641061723559 
380	 0,165051584957584 
381	 0,16929193538647 
382	 0,179146944552345 
383	 0,178817603444857 
384	 0,154796237415327 
385	 0,162136641553899 
386	 0,188798398120873 
387	 0,176499300428385 
388	 0,163743810233178 
389	 0,164221456423911 
390	 0,160585954888591 
391	 0,154641550707747 
392	 0,150426319527877 
393	 0,157103833819882 
394	 0,166130135301929 
395	 0,144387617765814 
396	 0,135833531794943 
397	 0,158890293343427 
398	 0,169167143661927 
399	 0,167940175816153 
400	 0,163540245405811 
401	 0,157408162728874 
402	 0,152590989850794 
403	 0,154834610410068 
404	 0,161830098503221 
405	 0,170087237311732 
406	 0,164619855505669 
407	 0,153207600002333 
408	 0,15560615375195 
409	 0,15610154697631 
410	 0,15130988074048 
411	 0,14690215098391 
412	 0,145504652807032 
413	 0,148943319449376 
414	 0,152198581028432 
415	 0,154967134715613 
416	 0,160082817540783 
417	 0,162228131935601 
418	 0,159486118473865 
419	 0,15423265559272 
420	 0,152059541347479 
421	 0,15923424832058 
422	 0,158014701537454 
423	 0,149694010662183 
424	 0,152039957946294 
425	 0,156240029247701 
426	 0,156808687948784 
427	 0,15663078722419 
428	 0,155338852902124 
429	 0,151014442190052 
430	 0,152811663854965 
431	 0,160073054917769 
432	 0,157720913710002 
433	 0,152994292149256 
434	 0,152799875414064 
435	 0,153410240283859 
436	 0,153909171541753 
437	 0,153303160157429 
438	 0,154226498629027 
439	 0,156801697007772 
440	 0,154966879729401 
441	 0,152712364061976 
442	 0,155675412068021 
443	 0,156736738550701 
444	 0,155588587625633 
445	 0,157040961929551 
446	 0,159405358420598 
447	 0,161462769435728 
448	 0,162233927208171 
449	 0,162298161765181 
450	 0,163113020710306 
451	 0,163035937309699 
452	 0,161414035093022 
453	 0,157038667297939 
454	 0,154884307604951 
455	 0,159308944350524 
456	 0,16256598141423 
457	 0,163187653506252 
458	 0,161312476414815 
459	 0,160999123739919 
460	 0,163389631458244 
461	 0,163429614403788 
462	 0,161271997875742 
463	 0,157799428861766 
464	 0,156732135045448 
465	 0,158448300139026 
466	 0,160943025818185 
467	 0,160764406440597 
468	 0,156392052431737 
469	 0,15606370039519 
470	 0,158723364333828 
471	 0,159772606567877 
472	 0,160802665539195 
473	 0,161697825607661 
474	 0,160504432548638 
475	 0,158464476399306 
476	 0,15698863872335 
477	 0,158033775576059 
478	 0,160620691394776 
479	 0,161251640230429 
480	 0,160517301255864 
481	 0,159065476280305 
482	 0,159893862388005 
483	 0,160758629972939 
484	 0,157787945074519 
485	 0,157965605067893 
486	 0,161358076744297 
487	 0,16099378021514 
488	 0,15931261614002 
489	 0,158271952786277 
490	 0,156979655824408 
491	 0,156530719194746 
492	 0,160078928379649 
493	 0,161323628625831 
494	 0,158717381173262 
495	 0,15711406432321 
496	 0,156935439027366 
497	 0,158156717509004 
498	 0,158746204460209 
499	 0,158624121523083 
500	 0,159421041271815 
501	 0,159629429702685 
502	 0,15856937015015 
503	 0,157839409377819 
504	 0,157969761446917 
505	 0,159483671011298 
506	 0,16106563099244 
507	 0,161997250481581 
508	 0,16150091338357 
509	 0,160670984745162 
510	 0,160567192924708 
511	 0,161757186323446 
512	 0,162997485109745 
513	 0,160777115593732 
514	 0,158538012932954 
515	 0,158011966451603 
516	 0,159553217480646 
517	 0,161378476159822 
518	 0,16103484171408 
519	 0,161004935650758 
520	 0,161623801837876 
521	 0,161768467267771 
522	 0,161470036848255 
523	 0,160824402254092 
524	 0,160360573208305 
525	 0,160417198719748 
526	 0,161702245702797 
527	 0,162164129970095 
528	 0,161210271944166 
529	 0,159968542442721 
530	 0,159339544265661 
531	 0,160192046868103 
532	 0,161262777618129 
533	 0,161831006393422 
534	 0,16057639303553 
535	 0,160266054872467 
536	 0,162170391943473 
537	 0,162198197944996 
538	 0,160959462764138 
539	 0,160513403006419 
540	 0,160913947483189 
541	 0,161841498277468 
542	 0,161442378299922 
543	 0,160861708051722 
544	 0,161260007567912 
545	 0,161283947355314 
546	 0,160996723044161 
547	 0,161314149323469 
548	 0,161737798959858 
549	 0,162040415878056 
550	 0,162406132843724 
551	 0,162768922445465 
552	 0,163006296451383 
553	 0,163256064465001 
554	 0,163451087772393 
555	 0,16322016568277 
556	 0,162765648580475 
557	 0,162298279308449 
558	 0,16207574845875 
559	 0,162169886719966 
560	 0,162692264759341 
561	 0,162875042073361 
562	 0,162500542657152 
563	 0,162574092158492 
564	 0,162499986679017 
565	 0,161377139394788 
566	 0,16137223278539 
567	 0,162351498927444 
568	 0,161608849554421 
569	 0,161476152542434 
570	 0,163333064711801 
571	 0,163795093885868 
572	 0,163218721395854 
573	 0,163526827403318 
574	 0,163960992185115 
575	 0,164417261004436 
576	 0,165450362314259 
577	 0,166580513183416 
578	 0,167236953396221 
579	 0,167515003022647 
580	 0,16779118363232 
581	 0,169208286375091 
582	 0,170381354072345 
583	 0,170548260571806 
584	 0,170531323571634 
585	 0,170408098175163 
586	 0,170074816482096 
587	 0,169971789685721 
588	 0,170271422709829 
589	 0,171036558137729 
590	 0,171633453758444 
591	 0,171511330235047 
592	 0,171600032232971 
593	 0,171922501059694 
594	 0,171967432636984 
595	 0,172171898744541 
596	 0,172676118670641 
597	 0,17306770438913 
598	 0,173149555938459 
599	 0,172692763724459 
600	 0,17250801523375 
601	 0,172752931791861 
602	 0,173058848276848 
603	 0,173088767847072 
604	 0,172630578712141 
605	 0,172447747389754 
606	 0,172416195994241 
607	 0,171839374198645 
608	 0,171489813615738 
609	 0,171542950400577 
610	 0,171218356521786 
611	 0,170723658813796 
612	 0,170395702234494 
613	 0,169734031502926 
614	 0,168931752924572 
615	 0,168987769304054 
616	 0,169154114723813 
617	 0,168924254509324 
618	 0,168336897067654 
619	 0,167851784047974 
620	 0,168397825797283 
621	 0,168727348966169 
622	 0,168431377973946 
623	 0,167658055694581 
624	 0,167382055611784 
625	 0,168515504448754 
626	 0,169038932315278 
627	 0,168801222539883 
628	 0,168677017290921 
629	 0,168931672139891 
630	 0,169613096391382 
631	 0,169762295053946 
632	 0,16962514872231 
633	 0,169787949606649 
634	 0,169974235309648 
635	 0,170210682117366 
636	 0,170877071578858 
637	 0,171544866342626 
638	 0,171859347297096 
639	 0,172260987578256 
640	 0,172709167890281 
641	 0,172898909327811 
642	 0,173079551522314 
643	 0,173331833460653 
644	 0,173491211536072 
645	 0,173602333101984 
646	 0,173740073480743 
647	 0,173974635393813 
648	 0,17414328813888 
649	 0,173548440639026 
650	 0,173348722911083 
651	 0,174111054773941 
652	 0,173485968863375 
653	 0,171877128212081 
654	 0,170726746183853 
655	 0,170180276330865 
656	 0,170102501144469 
657	 0,169257536372488 
658	 0,168164166081291 
659	 0,167431163191798 
660	 0,166690770206567 
661	 0,166000780467311 
662	 0,165776092523225 
663	 0,165314593455695 
664	 0,164330973734249 
665	 0,163557789288412 
666	 0,163026084795004 
667	 0,162627788523512 
668	 0,162523135779786 
669	 0,162509218322552 
670	 0,16159056894331 
671	 0,161018347262182 
672	 0,161708445351742 
673	 0,16190546808516 
674	 0,161565391579543 
675	 0,161316393474419 
676	 0,161267753417439 
677	 0,161440357945722 
678	 0,161527108397576 
679	 0,161451189603989 
680	 0,161164337655767 
681	 0,161117718710915 
682	 0,16147186813083 
683	 0,162353009321702 
684	 0,163177693065361 
685	 0,163605579848264 
686	 0,163905607225533 
687	 0,164563661932652 
688	 0,166367532583181 
689	 0,168109434573534 
690	 0,169497665881977 
691	 0,170942244377718 
692	 0,173096925449748 
693	 0,176475778873656 
694	 0,180071840233219 
695	 0,183915056106259 
696	 0,188650189703156 
697	 0,19346268358626 
698	 0,19820109935809 
699	 0,204115922498217 
700	 0,210642727924827 
701	 0,2168797054228 
702	 0,223613220079219 
703	 0,230896073371747 
704	 0,238412361319907 
705	 0,245578600524502 
706	 0,252014933557472 
707	 0,258063157229333 
708	 0,26403475257183 
709	 0,270352097717545 
710	 0,276657055324936 
711	 0,282785010876849 
712	 0,288706546827561 
713	 0,293933375770599 
714	 0,298097230023522 
715	 0,302449549792711 
716	 0,306975282260498 
717	 0,310924342201699 
718	 0,314804717044055 
719	 0,31873435700376 
720	 0,322139894486151 
721	 0,325147594466242 
722	 0,32800167813347 
723	 0,33042656963682 
724	 0,33248613860229 
725	 0,334505528191669 
726	 0,336638157644011 
727	 0,338900317525534 
728	 0,340575632550868 
729	 0,341994196512063 
730	 0,343935056703926 
731	 0,345590019311385 
732	 0,346787949442005 
733	 0,347943305800448 
734	 0,348945775729877 
735	 0,349719852898815 
736	 0,350722846986754 
737	 0,351846749863873 
738	 0,352594640132495 
739	 0,353366719149595 
740	 0,354246059496942 
741	 0,354790055640783 
742	 0,355377802852471 
743	 0,35646570172926 
744	 0,357101454320114 
745	 0,357275838732707 
746	 0,357641782319284 
747	 0,358126748710792 
748	 0,358692306478753 
749	 0,359200080728587 
750	 0,359756938812938 
751	 0,360563434007738 
752	 0,361148634012115 
753	 0,361439636024553 
754	 0,361709291853416 
755	 0,361995400705868 
756	 0,362332123091134 
757	 0,362732413177069 
758	 0,36320613944763 
759	 0,363794896597769 
760	 0,364193761186859 
761	 0,364388010786614 
762	 0,36488565108045 
763	 0,365265621269102 
764	 0,365161047018022 
765	 0,365504023514092 
766	 0,366193522192335 
767	 0,366532696335437 
768	 0,366615728889264 
769	 0,366548037832723 
770	 0,366785888613186 
771	 0,367214301823227 
772	 0,367641431086129 
773	 0,36787125205509 
774	 0,368024302677001 
775	 0,368661138026091 
776	 0,369196063185127 
777	 0,369345299146052 
778	 0,369447650979235 
779	 0,369621425849656 
780	 0,36998021997945 
781	 0,370161730394463 
782	 0,370194695567538 
783	 0,370545061141139 
784	 0,370964424295827 
785	 0,37127318337197 
786	 0,371446799389362 
787	 0,371583565282507 
788	 0,371860477304098 
789	 0,372224554067349 
790	 0,37262249260788 
791	 0,372940809560141 
792	 0,3730823655735 
793	 0,373025043730742 
794	 0,373330145510531 
795	 0,373906744307389 
796	 0,374384022204585 
797	 0,374581212330527 
798	 0,37453925066026 
799	 0,374844199667476 
800	 0,375243681991626 
801	 0,375471581735435 
802	 0,37558131242434 
803	 0,37568810781271 
804	 0,37607420230354 
805	 0,376411881257373 
806	 0,376603509052421 
807	 0,376803675177493 
808	 0,377219282115425 
809	 0,37799859028811 
810	 0,377716092242208 
811	 0,376960570507908 
812	 0,378241875194023 
813	 0,3794081043108 
814	 0,379550093834028 
815	 0,379169033596085 
816	 0,378919729482273 
817	 0,379499505162327 
818	 0,379831533534487 
819	 0,379985106619249 
820	 0,381013315879596 
821	 0,381682898087479 
822	 0,381540445242051 
823	 0,381842578784555 
824	 0,382232635843381 
825	 0,382106878970203 
826	 0,38234968565373 
827	 0,38299688272843 
828	 0,383507149833855 
829	 0,383848172672558 
830	 0,383943044603159 
831	 0,383495862266015 
832	 0,383199522614881 
833	 0,383998510318062 
834	 0,384319061206073 
835	 0,384066136338052 
836	 0,384269023399381 
837	 0,384749411411406 
838	 0,385314136875209 
839	 0,38527253353565 
840	 0,385000674542487 
841	 0,385132062096765 
842	 0,385817623612929 
843	 0,386636651606912 
844	 0,386011857931608 
845	 0,385731484822711 
846	 0,386595668071024 
847	 0,386640817099464 
848	 0,38647503118903 
849	 0,387244115651445 
850	 0,38789069311882 
851	 0,38807899675612 
852	 0,387595598796172 
853	 0,387380538963132 
854	 0,387882584156982 
855	 0,388207148187794 
856	 0,38843139056305 
857	 0,388800149672334 
858	 0,388669779560658 
859	 0,388363252421806 
860	 0,389467937455066 
861	 0,390228108481668 
862	 0,389876939691671 
863	 0,389915909741247 
864	 0,390175076305639 
865	 0,390229695998033 
866	 0,390066907256875 
867	 0,39002517116502 
868	 0,391213838382276 
869	 0,392086469934774 
870	 0,391950335829036 
871	 0,391656570702404 
872	 0,391484361652827 
873	 0,391653755414928 
874	 0,391610747284161 
875	 0,391542419895193 
876	 0,392391011232899 
877	 0,393047366878655 
878	 0,393067574071013 
879	 0,392893384745057 
880	 0,392966665948716 
881	 0,393676582864765 
882	 0,394058281826733 
883	 0,394140399959526 
884	 0,394609583378459 
885	 0,394789925182663 
886	 0,394551278737671 
887	 0,394508829923326 
888	 0,394614092954159 
889	 0,39476485519446 
890	 0,394627707244413 
891	 0,394527334436908 
892	 0,3953197396389 
893	 0,395976369253304 
894	 0,396248997165692 
895	 0,396788333426636 
896	 0,396944247766625 
897	 0,396315657218051 
898	 0,396204534672561 
899	 0,396534635304073 
900	 0,396772013544015 
901	 0,397172647392087 
902	 0,397703521131846 
903	 0,398095379162109 
904	 0,398281809507062 
905	 0,398276142506506 
906	 0,39845183283792 
907	 0,398835869863805 
908	 0,399383494761289 
909	 0,399502354397393 
910	 0,399258169632511 
911	 0,39939456581319 
912	 0,399381190935093 
913	 0,399069005787376 
914	 0,399000663654876 
915	 0,39940295422563 
916	 0,400377936738199 
917	 0,400290044970677 
918	 0,399454714582325 
919	 0,399550749224599 
920	 0,399811148624132 
921	 0,399900595145762 
922	 0,399416338929154 
923	 0,398945970709794 
924	 0,398985989819406 
925	 0,399150717880092 
926	 0,399303563888417 
927	 0,39932648851419 
928	 0,399119062874597 
929	 0,398876410843633 
930	 0,399558442890233 
931	 0,399417223108588 
932	 0,397791976154382 
933	 0,397609314953973 
934	 0,398325522692864 
935	 0,398781841860817 
936	 0,39841528136922 
937	 0,397533170328743 
938	 0,397345858773263 
939	 0,3979088901275 
940	 0,398773366345925 
941	 0,397506337258138 
942	 0,395949500471267 
943	 0,395781355626681 
944	 0,395396126912283 
945	 0,39471733531857 
946	 0,394063378923363 
947	 0,393723731903341 
948	 0,393688847982244 
949	 0,39370801319114 
950	 0,392914876341571 
951	 0,391110235244701 
952	 0,390422119315212 
953	 0,390351531517598 
954	 0,389984534656205 
955	 0,388920777898956 
956	 0,387496051476388 
957	 0,386634517394611 
958	 0,387344221446037 
959	 0,389169184059443 
960	 0,388444428874614 
961	 0,386774461363895 
962	 0,385591916576246 
963	 0,384918500343347 
964	 0,38492554005036 
965	 0,385778914366098 
966	 0,385011803226561 
967	 0,383132706843489 
968	 0,383787626973756 
969	 0,384315549572747 
970	 0,383958762698572 
971	 0,385175073387293 
972	 0,386137275220824 
973	 0,385233151935576 
974	 0,384966012107474 
975	 0,385643062896212 
976	 0,387032321937043 
977	 0,387531569751795 
978	 0,387130524177617 
979	 0,387843636279151 
980	 0,386968680309212 
981	 0,384136840011039 
982	 0,385334874397713 
983	 0,387393354906436 
984	 0,386820222783639 
985	 0,387150411529056 
986	 0,388271118567528 
987	 0,388856333367981 
988	 0,388294832559053 
989	 0,387264114424486 
990	 0,389063759339979 
991	 0,389820834739644 
992	 0,38840066190916 
993	 0,391302240544359 
994	 0,39452944298696 
995	 0,393602519563671 
996	 0,393059518642656 
997	 0,393578012941868 
998	 0,394875770845368 
999	 0,395355668428585 
1000	 0,394968499234095 
1001	 0,395504561850638 
1002	 0,395778316490613 
1003	 0,395557172765202 
1004	 0,397031038787366 
1005	 0,398736084843426 
1006	 0,399176136519435 
1007	 0,399526816027239 
1008	 0,399950580958716 
1009	 0,400395203052603 
1010	 0,401019009790575 
1011	 0,401362694171401 
1012	 0,399202679357239 
1013	 0,400773766360039 
1014	 0,406894569822727 
1015	 0,40664951817622 
1016	 0,404850983272945 
1017	 0,406018848427154 
1018	 0,408162665627968 
1019	 0,409552997521028 
1020	 0,408122046647589 
1021	 0,405868275211448 
1022	 0,405129162928876 
1023	 0,411286007598919 
1024	 0,413691132825292 
1025	 0,410124168572676 
1026	 0,408896369949133 
1027	 0,409392627598351 
1028	 0,410768931056104 
1029	 0,410583339799376 
1030	 0,409305599199656 
1031	 0,408107953499527 
1032	 0,41108319253979 
1033	 0,415278239867608 
1034	 0,413358537198617 
1035	 0,410676875627163 
1036	 0,410120031868429 
1037	 0,416479901958517 
1038	 0,419384727843732 
1039	 0,415940663417329 
1040	 0,419228818792425 
1041	 0,422089149916538 
1042	 0,419145598255002 
1043	 0,420785772187629 
1044	 0,423786899844933 
1045	 0,422088376134736 
1046	 0,423741927887306 
1047	 0,426667733367294 
1048	 0,421986506863572 
1049	 0,421219963962837 
1050	 0,42547248222379 
1051	 0,424694836499156 
1052	 0,420657621674806 
1053	 0,4167946252728 
1054	 0,426493230363165 
1055	 0,434565402314165 
1056	 0,427730080197328 
1057	 0,417340659744315 
1058	 0,411153842355803 
1059	 0,416382205451663 
1060	 0,4211222563464 
1061	 0,423255301495325 
1062	 0,425532539888474 
1063	 0,426056814236356 
1064	 0,425224731208033 
1065	 0,425818882889371 
1066	 0,429314830875976 
1067	 0,434921524702987 
1068	 0,435164834639728 
1069	 0,433207138070498 
1070	 0,431485373462065 
1071	 0,426239407585413 
1072	 0,422281181639623 
1073	 0,425195490051706 
1074	 0,424604511870111 
1075	 0,424003797107225 
