Wavelength	NEUF00781.asd
325	 0,388132054544268 
326	 0,465363754605734 
327	 0,389675316414349 
328	 0,23057414054 
329	 0,248682771759348 
330	 0,307369484497581 
331	 0,333195247888032 
332	 0,376799366394409 
333	 0,399847258610265 
334	 0,377419165873829 
335	 0,415766471338322 
336	 0,513661662825237 
337	 0,406397068377367 
338	 0,24651622359863 
339	 0,19586903905279 
340	 0,214769671057168 
341	 0,256354990924391 
342	 0,230842807060206 
343	 0,218241784630011 
344	 0,225133134387417 
345	 0,197991101440373 
346	 0,182347852900314 
347	 0,218063148741916 
348	 0,200642894520446 
349	 0,14590866557765 
350	 0,156141136559093 
351	 0,181733157732569 
352	 0,194426959496366 
353	 0,142527998667721 
354	 0,100923201181062 
355	 0,165540464931884 
356	 0,196599232753731 
357	 0,182987347090291 
358	 0,183824572898112 
359	 0,175901865067649 
360	 0,152087702499971 
361	 0,142477940085784 
362	 0,146533655879739 
363	 0,156437412428307 
364	 0,180360964328059 
365	 0,204733845780189 
366	 0,194696555787669 
367	 0,181235201847208 
368	 0,181561755493207 
369	 0,170471589972477 
370	 0,151777010281305 
371	 0,132370807352527 
372	 0,133807595590178 
373	 0,156539476346805 
374	 0,178317505000513 
375	 0,180246761433928 
376	 0,151925306759179 
377	 0,138922879412862 
378	 0,144651839872046 
379	 0,159993158860649 
380	 0,170890300578219 
381	 0,17404416268491 
382	 0,188827163472759 
383	 0,193909418843274 
384	 0,170195807819087 
385	 0,163018565141683 
386	 0,16959206584055 
387	 0,154523853726002 
388	 0,151639852057986 
389	 0,16807344898782 
390	 0,166408595521931 
391	 0,155576261729515 
392	 0,1498719799419 
393	 0,159985290044902 
394	 0,17624586915739 
395	 0,164806644546966 
396	 0,148221714346198 
397	 0,141400989712298 
398	 0,149886651855105 
399	 0,16108065059726 
400	 0,156002136416594 
401	 0,150178150121048 
402	 0,147926860685991 
403	 0,148956387810131 
404	 0,151862784802593 
405	 0,154995293851225 
406	 0,154357712073069 
407	 0,149262269500236 
408	 0,138509866300384 
409	 0,134351440686009 
410	 0,138699003770394 
411	 0,142090415475634 
412	 0,143224609666691 
413	 0,141540454133783 
414	 0,137429350344661 
415	 0,13387247820912 
416	 0,137180776751841 
417	 0,143248052469455 
418	 0,148030474228678 
419	 0,13817437439732 
420	 0,129874895102785 
421	 0,143863726420984 
422	 0,149531066240587 
423	 0,143246378186764 
424	 0,137340452295982 
425	 0,132754886097022 
426	 0,130869301422789 
427	 0,135847833479397 
428	 0,142519172177865 
429	 0,141266846510456 
430	 0,140976374174372 
431	 0,142728580866359 
432	 0,139404714404635 
433	 0,135739492003673 
434	 0,136082593110198 
435	 0,137651768214158 
436	 0,13850351819148 
437	 0,134245162681337 
438	 0,13481785436062 
439	 0,141879001433024 
440	 0,139573586204617 
441	 0,134377914159998 
442	 0,136185505924492 
443	 0,136768597504659 
444	 0,135748889731037 
445	 0,138272900681859 
446	 0,141363176052636 
447	 0,143209633946905 
448	 0,145548025926384 
449	 0,146756827646266 
450	 0,143092978955258 
451	 0,143182357461082 
452	 0,147535116194253 
453	 0,145246049688679 
454	 0,142064791868964 
455	 0,143612914446941 
456	 0,143417484044826 
457	 0,142486564488668 
458	 0,147390674852584 
459	 0,148873066234378 
460	 0,144097534816208 
461	 0,141730948995972 
462	 0,141884882818925 
463	 0,143501241334209 
464	 0,144546174319487 
465	 0,144726154768145 
466	 0,145886419879276 
467	 0,144891041528105 
468	 0,140553504177731 
469	 0,14218758806562 
470	 0,14621673600482 
471	 0,142528908552555 
472	 0,141727639199832 
473	 0,145662038012677 
474	 0,146641129392396 
475	 0,14521712299502 
476	 0,14255069488672 
477	 0,142925400147005 
478	 0,145395918477599 
479	 0,144780742923087 
480	 0,143591874618571 
481	 0,143163852406202 
482	 0,144808677075925 
483	 0,145284741530164 
484	 0,139442147327184 
485	 0,139858169965564 
486	 0,146688134272888 
487	 0,147220336981073 
488	 0,145385500165495 
489	 0,144395391974606 
490	 0,144003153978604 
491	 0,144076168101954 
492	 0,144375515577705 
493	 0,143561268223719 
494	 0,141707525238136 
495	 0,142106047848209 
496	 0,142797044908489 
497	 0,141362198855207 
498	 0,141689231394649 
499	 0,143582137200125 
500	 0,143848644916515 
501	 0,143550989061573 
502	 0,143334474969342 
503	 0,143196198827493 
504	 0,143852273630636 
505	 0,146687436175258 
506	 0,14766732461343 
507	 0,14644855338338 
508	 0,147437400185518 
509	 0,148666202744221 
510	 0,148268847623175 
511	 0,148145258123567 
512	 0,148455575200628 
513	 0,148698035645545 
514	 0,148657555668742 
515	 0,148532595108776 
516	 0,150246063955466 
517	 0,15242129479317 
518	 0,152973183677284 
519	 0,153078370422451 
520	 0,15286890065532 
521	 0,151567476973836 
522	 0,15085950495691 
523	 0,151860692212769 
524	 0,15273973824514 
525	 0,153092201664098 
526	 0,152701935188466 
527	 0,152508977683073 
528	 0,152819208037076 
529	 0,153323223724458 
530	 0,153234101843202 
531	 0,151735805144256 
532	 0,151518906295888 
533	 0,152536165416559 
534	 0,152551754535522 
535	 0,152489708108562 
536	 0,15279767737751 
537	 0,152542596176521 
538	 0,152115270483634 
539	 0,15243479451169 
540	 0,152837441946019 
541	 0,153057937307895 
542	 0,152850912567864 
543	 0,15286833189186 
544	 0,15367651966473 
545	 0,153250353646723 
546	 0,15230207037735 
547	 0,154096641938157 
548	 0,155398904587684 
549	 0,15479321183506 
550	 0,154297569422454 
551	 0,154155827844215 
552	 0,154362570423725 
553	 0,154738244881278 
554	 0,155071738668433 
555	 0,154873377235702 
556	 0,154559199162504 
557	 0,154472642767736 
558	 0,15432217612961 
559	 0,153899626626708 
560	 0,152748279203889 
561	 0,151754872159647 
562	 0,151337361008858 
563	 0,151469900781556 
564	 0,151474919905372 
565	 0,150479241175043 
566	 0,15049472085603 
567	 0,151491367889704 
568	 0,151377676495547 
569	 0,151445215697488 
570	 0,152525971798119 
571	 0,153368255852126 
572	 0,154115990917514 
573	 0,155540644515815 
574	 0,156891070714263 
575	 0,157934219242071 
576	 0,158811504917724 
577	 0,160253709510841 
578	 0,163004234096556 
579	 0,164618485187153 
580	 0,165095981161265 
581	 0,166328845494857 
582	 0,167794677097483 
583	 0,169177873411439 
584	 0,170263853000287 
585	 0,171053741163346 
586	 0,171649370495988 
587	 0,171777087606621 
588	 0,171730281783311 
589	 0,173038560639469 
590	 0,174469797499063 
591	 0,174844729349415 
592	 0,175076798651013 
593	 0,175467673316096 
594	 0,176293759162734 
595	 0,177326224456146 
596	 0,17835348807274 
597	 0,179008413489934 
598	 0,179050915625627 
599	 0,178183611802784 
600	 0,177675811829438 
601	 0,177710328695717 
602	 0,177375023821597 
603	 0,176841211417037 
604	 0,176260984003083 
605	 0,175611350297419 
606	 0,175000777768272 
607	 0,174741136107936 
608	 0,174154795801595 
609	 0,173081720652604 
610	 0,17221422931941 
611	 0,171607285271423 
612	 0,171241684366997 
613	 0,170849069879296 
614	 0,170382736942549 
615	 0,170003816277312 
616	 0,169536667388353 
617	 0,168859136378142 
618	 0,167826961571229 
619	 0,16703592652117 
620	 0,167716294582375 
621	 0,16816414073021 
622	 0,167899374467874 
623	 0,16769395862595 
624	 0,167557622669791 
625	 0,167471806351611 
626	 0,167828898633033 
627	 0,168410052650405 
628	 0,16835344550297 
629	 0,168280697069349 
630	 0,168537248073356 
631	 0,169051104137134 
632	 0,169852886420779 
633	 0,171028758721176 
634	 0,171794005053934 
635	 0,172161330086338 
636	 0,173251702737942 
637	 0,174489747048354 
638	 0,175396230234516 
639	 0,176784882878239 
640	 0,178215408787501 
641	 0,178153060424718 
642	 0,178507419210972 
643	 0,179857224722266 
644	 0,180564966506365 
645	 0,180952730380731 
646	 0,181636241065401 
647	 0,182040762826822 
648	 0,181913361399895 
649	 0,180879448367238 
650	 0,17986015564149 
651	 0,179426394812687 
652	 0,178662879143851 
653	 0,177548368811154 
654	 0,176360515066103 
655	 0,174753659286814 
656	 0,172734360066448 
657	 0,170856137538798 
658	 0,168976658822402 
659	 0,166922280390765 
660	 0,165190422447576 
661	 0,163752920598334 
662	 0,162272029763918 
663	 0,160464213618487 
664	 0,158340725660381 
665	 0,157133550983669 
666	 0,156269768922215 
667	 0,154618451323943 
668	 0,153385951541586 
669	 0,152703472656999 
670	 0,1515187571642 
671	 0,151017283026377 
672	 0,151960715968871 
673	 0,151495431990144 
674	 0,149970415025381 
675	 0,149290863099269 
676	 0,149555348557664 
677	 0,150550975874485 
678	 0,150514029557689 
679	 0,149936064651722 
680	 0,149596067828915 
681	 0,150090831842316 
682	 0,151344124137244 
683	 0,152593684081812 
684	 0,15359860788427 
685	 0,154384161154091 
686	 0,156370088958667 
687	 0,15930092180813 
688	 0,162321581238342 
689	 0,166033612462641 
690	 0,170459170163914 
691	 0,174897395078426 
692	 0,179917206608504 
693	 0,186082643545748 
694	 0,193811420148377 
695	 0,202847276164081 
696	 0,212276068541732 
697	 0,222422989079577 
698	 0,233340984738226 
699	 0,244730851721914 
700	 0,256677531727403 
701	 0,269258833811928 
702	 0,282168744856758 
703	 0,295142137529422 
704	 0,307805446466528 
705	 0,319941109344531 
706	 0,331443766036459 
707	 0,342882173932846 
708	 0,354010849223864 
709	 0,364182478090962 
710	 0,373843979068443 
711	 0,383145204490516 
712	 0,392109392340289 
713	 0,400461513177733 
714	 0,407965075277136 
715	 0,414858468008267 
716	 0,421375497754545 
717	 0,428036041400742 
718	 0,434086418513369 
719	 0,43927171813652 
720	 0,444104354928693 
721	 0,448670764028068 
722	 0,453029035732126 
723	 0,456851275152249 
724	 0,460193842527081 
725	 0,463511321045031 
726	 0,466555759889352 
727	 0,469144271276779 
728	 0,471108282517178 
729	 0,472939002010473 
730	 0,475526844363045 
731	 0,477914265906631 
732	 0,479805657153318 
733	 0,481345251024618 
734	 0,482730215351562 
735	 0,484111015397102 
736	 0,485088988364429 
737	 0,485919210923199 
738	 0,487432696222053 
739	 0,488675917161917 
740	 0,489375173127835 
741	 0,490225136356653 
742	 0,491126941988754 
743	 0,491901084052539 
744	 0,4923391943895 
745	 0,492596665112728 
746	 0,493336177331529 
747	 0,493825893319616 
748	 0,493822774068876 
749	 0,494541377479563 
750	 0,495596885868188 
751	 0,496189794159117 
752	 0,496532458111667 
753	 0,496696310839802 
754	 0,496736506544755 
755	 0,496983566174258 
756	 0,49762411704066 
757	 0,497964196476726 
758	 0,498174484388443 
759	 0,498875471124386 
760	 0,499230117308852 
761	 0,499143498768484 
762	 0,499543083320772 
763	 0,500014045732906 
764	 0,500144325929938 
765	 0,500383350964081 
766	 0,500764818481327 
767	 0,501169429576597 
768	 0,501519592594138 
769	 0,501748821560622 
770	 0,501712187557804 
771	 0,501761374645515 
772	 0,502303461451524 
773	 0,502696878785529 
774	 0,502843244333908 
775	 0,50295221282851 
776	 0,503009451773391 
777	 0,503013835418168 
778	 0,502870487737942 
779	 0,502955251107632 
780	 0,503831388539933 
781	 0,503887368518581 
782	 0,503202014330164 
783	 0,503757840748235 
784	 0,504254811422272 
785	 0,503885363624523 
786	 0,503499472239196 
787	 0,503429306130523 
788	 0,504051608119869 
789	 0,504510953448782 
790	 0,504601026557714 
791	 0,504784589129816 
792	 0,504781503087657 
793	 0,504437625204797 
794	 0,504618595411506 
795	 0,50516376910626 
796	 0,505416083018565 
797	 0,505674647000237 
798	 0,505920613535961 
799	 0,505666258068956 
800	 0,505459880211173 
801	 0,505793577583018 
802	 0,505861143255628 
803	 0,505691324147729 
804	 0,505703421128874 
805	 0,50597824339086 
806	 0,506494468007914 
807	 0,506909688771604 
808	 0,507109377296338 
809	 0,507013347897024 
810	 0,506701066834384 
811	 0,506540781448244 
812	 0,507502818109182 
813	 0,508226588809531 
814	 0,508161895688864 
815	 0,507976311802782 
816	 0,507761898686054 
817	 0,507574110366209 
818	 0,507924441533005 
819	 0,50864034711762 
820	 0,508872566130895 
821	 0,508999447245005 
822	 0,509211053154964 
823	 0,509548566177931 
824	 0,509981006259321 
825	 0,510454393811028 
826	 0,51067443461316 
827	 0,510713027530394 
828	 0,511107372356916 
829	 0,511198629437202 
830	 0,510738824728393 
831	 0,510463458656529 
832	 0,51056656571368 
833	 0,511176895227992 
834	 0,511317922929739 
835	 0,510966788234241 
836	 0,510883878885329 
837	 0,51121389375238 
838	 0,511889353532814 
839	 0,511800816976078 
840	 0,51130770734264 
841	 0,511093549144617 
842	 0,511683664064772 
843	 0,512709239751422 
844	 0,512557883384053 
845	 0,511902613971477 
846	 0,51127247261374 
847	 0,511511477389424 
848	 0,51207242138924 
849	 0,51204042942912 
850	 0,512407446774997 
851	 0,512998576933696 
852	 0,512437075056124 
853	 0,512029762434362 
854	 0,512394524437583 
855	 0,512423122078987 
856	 0,512420291181594 
857	 0,512952492765265 
858	 0,513170804985407 
859	 0,512971016539321 
860	 0,51268401505569 
861	 0,512660512794896 
862	 0,513016161252539 
863	 0,51303695873341 
864	 0,513110063361975 
865	 0,513815288846152 
866	 0,514136553794387 
867	 0,514016028459261 
868	 0,51403759393788 
869	 0,514211357484161 
870	 0,514483969756329 
871	 0,514372176088373 
872	 0,514236464641895 
873	 0,514540944612917 
874	 0,51451617026814 
875	 0,514296304988097 
876	 0,514793147148703 
877	 0,515126021230139 
878	 0,514957318414888 
879	 0,514548000529877 
880	 0,5147497483184 
881	 0,516317873232096 
882	 0,516736585181556 
883	 0,516085459585434 
884	 0,515960566543316 
885	 0,516177489926643 
886	 0,51656122998084 
887	 0,516228540405496 
888	 0,515915261311919 
889	 0,51627829343816 
890	 0,515878063593736 
891	 0,515350140962647 
892	 0,51669943145124 
893	 0,517493589306466 
894	 0,517106895891225 
895	 0,516616749706096 
896	 0,516370464223646 
897	 0,516582065627715 
898	 0,516705833120017 
899	 0,516726513467498 
900	 0,516760923171473 
901	 0,517247137031772 
902	 0,51799207771084 
903	 0,517837215883782 
904	 0,517422187974938 
905	 0,517237787705216 
906	 0,517658774056948 
907	 0,518144574164694 
908	 0,517872597404009 
909	 0,517737868337367 
910	 0,517778536248054 
911	 0,517340119927824 
912	 0,51718466049207 
913	 0,517570831324912 
914	 0,517672765620839 
915	 0,51778032279916 
916	 0,518260850716156 
917	 0,518451832180598 
918	 0,518410830938027 
919	 0,518720359998771 
920	 0,518382582132206 
921	 0,517451438650214 
922	 0,517811488794612 
923	 0,518597997495303 
924	 0,518900996700543 
925	 0,517999441421871 
926	 0,516623911704331 
927	 0,516246136854263 
928	 0,516862075089381 
929	 0,51776855662188 
930	 0,516336958823809 
931	 0,515153942637974 
932	 0,51558766848881 
933	 0,515596590178051 
934	 0,515554408926271 
935	 0,516159801262658 
936	 0,515245627096125 
937	 0,513402543711334 
938	 0,513649754943317 
939	 0,513719978217987 
940	 0,513137196397346 
941	 0,5141992313695 
942	 0,514570362603264 
943	 0,512397818339969 
944	 0,511807629116114 
945	 0,512142595079415 
946	 0,510887416226228 
947	 0,509717205670406 
948	 0,508965852939387 
949	 0,507948810512995 
950	 0,507742153206537 
951	 0,508512000064108 
952	 0,507169235607345 
953	 0,505085669041097 
954	 0,50430623357116 
955	 0,504255766171911 
956	 0,504180825462795 
957	 0,502294197391065 
958	 0,501390824270068 
959	 0,501937958177329 
960	 0,501109457083201 
961	 0,500673845062599 
962	 0,501686549697893 
963	 0,50068752481974 
964	 0,498820477125024 
965	 0,498561544524072 
966	 0,498529176262669 
967	 0,498332675835469 
968	 0,497756348035179 
969	 0,497401209222464 
970	 0,497396845951352 
971	 0,496712294876298 
972	 0,496780693029879 
973	 0,498696985479924 
974	 0,499364479458432 
975	 0,498685119718649 
976	 0,497449617389751 
977	 0,497910774003733 
978	 0,499827204832919 
979	 0,499876399776849 
980	 0,49977013527958 
981	 0,50026145342863 
982	 0,500546466053709 
983	 0,500684142480891 
984	 0,50084709980629 
985	 0,50190954107004 
986	 0,5027287527564 
987	 0,500807888678168 
988	 0,499907939370315 
989	 0,500532754514534 
990	 0,499947741795932 
991	 0,500391025068978 
992	 0,502888693064643 
993	 0,506517331927862 
994	 0,508447828301953 
995	 0,506171126693783 
996	 0,504519599437128 
997	 0,504459236991564 
998	 0,505883370076171 
999	 0,507979631711491 
1000	 0,509531347623483 
1001	 0,507094408986209 
1002	 0,508010275632882 
1003	 0,514194479128859 
1004	 0,513304088275052 
1005	 0,511157724206301 
1006	 0,513977860765824 
1007	 0,516272608331279 
1008	 0,516838683374818 
1009	 0,515317184518942 
1010	 0,512935244738926 
1011	 0,511273447399417 
1012	 0,513781818032308 
1013	 0,516968590848476 
1014	 0,518874466072569 
1015	 0,518799980214757 
1016	 0,51894557607307 
1017	 0,52090356891703 
1018	 0,521231677566166 
1019	 0,520114379779618 
1020	 0,518671908463733 
1021	 0,520424582544006 
1022	 0,524198824373677 
1023	 0,524220371712426 
1024	 0,523519417594646 
1025	 0,523110272285671 
1026	 0,522635873346886 
1027	 0,523213107861322 
1028	 0,52529136032636 
1029	 0,527009291158886 
1030	 0,526661557634796 
1031	 0,522947984360985 
1032	 0,520682649787729 
1033	 0,521511514745912 
1034	 0,526508374431797 
1035	 0,525963303586624 
1036	 0,521728884857346 
1037	 0,531193736649775 
1038	 0,537345227620376 
1039	 0,53425135035259 
1040	 0,536109734403371 
1041	 0,535134456975915 
1042	 0,52672411416792 
1043	 0,530953786634795 
1044	 0,539419859887384 
1045	 0,537150414943439 
1046	 0,536858196945564 
1047	 0,538603950112153 
1048	 0,536301506653457 
1049	 0,535282479347555 
1050	 0,536991543394675 
1051	 0,541234134762636 
1052	 0,537713488133632 
1053	 0,526692719311897 
1054	 0,539569085435208 
1055	 0,55389212862848 
1056	 0,549164830669993 
1057	 0,540398578627293 
1058	 0,534419747437041 
1059	 0,536950408587978 
1060	 0,540511524489453 
1061	 0,543900764567229 
1062	 0,549733097682495 
1063	 0,545193256572931 
1064	 0,534802452039917 
1065	 0,550789074388404 
1066	 0,551071116553603 
1067	 0,526688099586637 
1068	 0,539998332312731 
1069	 0,557730124612028 
1070	 0,552649425897617 
1071	 0,534540714966229 
1072	 0,523148588900867 
1073	 0,53891249532099 
1074	 0,549028584821711 
1075	 0,549640044650539 
