Wavelength	NEUF00750.asd
325	 0,227184054283291 
326	 0,253438136041111 
327	 0,215931948135897 
328	 0,158865975513675 
329	 0,231913334610919 
330	 0,275397465699805 
331	 0,146196978887722 
332	 0,209726716763604 
333	 0,347866393712146 
334	 0,316529207747795 
335	 0,246078351836482 
336	 0,169678806176753 
337	 0,146576727162215 
338	 0,116515121202347 
339	 3,56730119273457E-02 
340	 0,108794221088201 
341	 0,274907551005914 
342	 0,320073493153924 
343	 0,267046387344495 
344	 0,147728123030252 
345	 0,154779922856124 
346	 0,199507096175145 
347	 0,175317645780121 
348	 0,150215188116063 
349	 0,135744747593191 
350	 0,128487097886439 
351	 0,173222155872037 
352	 0,255195577992921 
353	 0,231772346892044 
354	 0,176517952605255 
355	 0,19116095492955 
356	 0,206271384397699 
357	 0,205824885110889 
358	 0,185453932944904 
359	 0,175352754334348 
360	 0,187862212797959 
361	 0,212757417603307 
362	 0,227632254323722 
363	 0,209272183928471 
364	 0,201792233265512 
365	 0,21003088009085 
366	 0,206760404949381 
367	 0,199767052776062 
368	 0,192881174979961 
369	 0,17759415831883 
370	 0,171979046204913 
371	 0,20625629931528 
372	 0,212276640323618 
373	 0,18555808338294 
374	 0,195581623168265 
375	 0,206118792452115 
376	 0,190639595799669 
377	 0,189792907700574 
378	 0,199186632678927 
379	 0,193923260494104 
380	 0,204874542259279 
381	 0,231210975804639 
382	 0,227775487907242 
383	 0,221932641676861 
384	 0,239250563835341 
385	 0,241206866153754 
386	 0,22773164377739 
387	 0,216033793281989 
388	 0,215352615545874 
389	 0,225678462125456 
390	 0,221360551956964 
391	 0,211247950023596 
392	 0,208590156903572 
393	 0,202751306416537 
394	 0,196391265448942 
395	 0,203370351444138 
396	 0,211060648475049 
397	 0,212212498224044 
398	 0,210717995544471 
399	 0,209277417691424 
400	 0,211077395264339 
401	 0,213375670612164 
402	 0,215920009037638 
403	 0,22156920376803 
404	 0,223308345920796 
405	 0,217104724081617 
406	 0,212875783677836 
407	 0,210665736695037 
408	 0,20665130281368 
409	 0,209093912922515 
410	 0,216405171111099 
411	 0,210135421464188 
412	 0,203153197392028 
413	 0,207720777470745 
414	 0,211250506711084 
415	 0,211908697333809 
416	 0,210903457981981 
417	 0,21144986968132 
418	 0,21405861593687 
419	 0,21244592364733 
420	 0,210126915394262 
421	 0,212051156587192 
422	 0,210832304476716 
423	 0,207217350155042 
424	 0,20897362066801 
425	 0,21146060775093 
426	 0,211693895615089 
427	 0,209961211110218 
428	 0,209019536132685 
429	 0,213843212627554 
430	 0,216915422127955 
431	 0,215983896805594 
432	 0,21206221628516 
433	 0,209386933664851 
434	 0,211549228609575 
435	 0,215637879373142 
436	 0,218955464367599 
437	 0,215892064851597 
438	 0,215686126125444 
439	 0,220211412967145 
440	 0,216479462572548 
441	 0,210871422912437 
442	 0,212773304194941 
443	 0,214265444616783 
444	 0,214517503985144 
445	 0,217618476639996 
446	 0,219202764513067 
447	 0,217265819377531 
448	 0,2190954765374 
449	 0,222279504205057 
450	 0,220235748547474 
451	 0,221239446817026 
452	 0,225611787978988 
453	 0,222792699308802 
454	 0,219803532335529 
455	 0,223310619337931 
456	 0,224761343557643 
457	 0,224453375791926 
458	 0,227886231839942 
459	 0,229746610615498 
460	 0,228028287373591 
461	 0,225100471908134 
462	 0,222937087833536 
463	 0,223758154881019 
464	 0,225027626278414 
465	 0,226008470577137 
466	 0,226985474368845 
467	 0,226880478906218 
468	 0,2252018101967 
469	 0,223759683118848 
470	 0,224077177862661 
471	 0,228700725100405 
472	 0,231923285883174 
473	 0,231817218144058 
474	 0,22981744888062 
475	 0,227150281917117 
476	 0,225070321337158 
477	 0,226536390761894 
478	 0,229899349273869 
479	 0,229059704436625 
480	 0,228218378842634 
481	 0,229095106676878 
482	 0,229569625076194 
483	 0,228845855709916 
484	 0,225924932379013 
485	 0,226633056399919 
486	 0,230724450043948 
487	 0,231195486006562 
488	 0,230014707811472 
489	 0,228836453371943 
490	 0,228026655933792 
491	 0,227274380906277 
492	 0,225260521060958 
493	 0,224846236679901 
494	 0,226475101415242 
495	 0,226840757548315 
496	 0,226128436831938 
497	 0,224887861119685 
498	 0,225558068415701 
499	 0,227709529302623 
500	 0,228238899570934 
501	 0,228527646848295 
502	 0,229256250180613 
503	 0,229370670843326 
504	 0,22947762908204 
505	 0,23080096786486 
506	 0,232424864145147 
507	 0,233849440879474 
508	 0,234439377639333 
509	 0,234581747826804 
510	 0,234744651439433 
511	 0,236605582640049 
512	 0,239051883393999 
513	 0,238253632411989 
514	 0,238026776391745 
515	 0,239764477640792 
516	 0,240984938304132 
517	 0,24152272368582 
518	 0,241502172735868 
519	 0,241774566043508 
520	 0,242451443870496 
521	 0,242992776348323 
522	 0,24332736659897 
523	 0,243426685217886 
524	 0,243511007351947 
525	 0,24368792180379 
526	 0,244261164481371 
527	 0,243882826192021 
528	 0,242551023856901 
529	 0,242920617950154 
530	 0,243804242554334 
531	 0,243637735243369 
532	 0,243028678390865 
533	 0,242461023801783 
534	 0,243021022162111 
535	 0,243603059242092 
536	 0,243541286881873 
537	 0,243191755217032 
538	 0,242856758415442 
539	 0,242982317285143 
540	 0,243245553667935 
541	 0,243435305988959 
542	 0,24300955646777 
543	 0,242960809331334 
544	 0,244180451910925 
545	 0,24428075807581 
546	 0,243715201380559 
547	 0,245259758303162 
548	 0,246415269107395 
549	 0,246111363337043 
550	 0,245962599814599 
551	 0,246153206340058 
552	 0,246656669642347 
553	 0,247497333479535 
554	 0,248227294785263 
555	 0,247279576421136 
556	 0,245885500170475 
557	 0,245138251438149 
558	 0,244961340163172 
559	 0,244844228329054 
560	 0,243415015674236 
561	 0,24244066209453 
562	 0,242441091916358 
563	 0,241898544818353 
564	 0,240789650674107 
565	 0,239255908408831 
566	 0,239272896761893 
567	 0,240726117453713 
568	 0,241262869634233 
569	 0,241587233280984 
570	 0,242249875478478 
571	 0,243595227760572 
572	 0,245394091723417 
573	 0,246974010880207 
574	 0,248921109335481 
575	 0,251438691768713 
576	 0,254499835865131 
577	 0,257602263813604 
578	 0,260185250954878 
579	 0,261654983709597 
580	 0,262622811325223 
581	 0,265426920448147 
582	 0,268011260673871 
583	 0,269301525378849 
584	 0,270637840941717 
585	 0,272244928513126 
586	 0,274299916541009 
587	 0,275249870104827 
588	 0,275119707847149 
589	 0,276231802057418 
590	 0,278000050931984 
591	 0,279715979419307 
592	 0,28044917124409 
593	 0,280481199740508 
594	 0,281059314968525 
595	 0,282125154014631 
596	 0,283492395033969 
597	 0,284027770916996 
598	 0,283836465478142 
599	 0,283269033019501 
600	 0,282837601004761 
601	 0,282601799535503 
602	 0,282017741346805 
603	 0,28135850298741 
604	 0,28081288359929 
605	 0,279852827447706 
606	 0,278699780606285 
607	 0,278072823430828 
608	 0,277585848896737 
609	 0,276971866181847 
610	 0,275657590382178 
611	 0,273973154231834 
612	 0,27238596494845 
613	 0,271374588230754 
614	 0,27078623360715 
615	 0,269607255950184 
616	 0,268503636084037 
617	 0,267905172105033 
618	 0,267608828197909 
619	 0,267343553547539 
620	 0,26657876630392 
621	 0,266419424706613 
622	 0,266994286640448 
623	 0,267056359200475 
624	 0,266837024351654 
625	 0,266679268839005 
626	 0,267242979971989 
627	 0,268229449293741 
628	 0,268334337328907 
629	 0,268419707694213 
630	 0,268913927088432 
631	 0,269421159868178 
632	 0,270222160197353 
633	 0,271887465446316 
634	 0,272677665572905 
635	 0,272572835355367 
636	 0,273697674001738 
637	 0,275413421392071 
638	 0,277104085418834 
639	 0,27883971602383 
640	 0,280339036843703 
641	 0,280903258823924 
642	 0,281713099999797 
643	 0,283124957066913 
644	 0,284096572173057 
645	 0,284602396189029 
646	 0,284745720022789 
647	 0,284989223287325 
648	 0,285104664370367 
649	 0,283765063475727 
650	 0,282618950854653 
651	 0,282576226529752 
652	 0,28115362415075 
653	 0,278736945293437 
654	 0,276869679125667 
655	 0,274706937586508 
656	 0,272067963569471 
657	 0,269247056983272 
658	 0,266505883723436 
659	 0,264055992787488 
660	 0,261089855075984 
661	 0,257765157420585 
662	 0,255022081007669 
663	 0,252313118051085 
664	 0,249529896413708 
665	 0,247801240463373 
666	 0,246534001181569 
667	 0,244621733267187 
668	 0,242861671528881 
669	 0,241486469672482 
670	 0,24049386068628 
671	 0,23956518831673 
672	 0,238491339611822 
673	 0,237991375963473 
674	 0,237838420049083 
675	 0,237143418457901 
676	 0,236825611683112 
677	 0,237121043818583 
678	 0,237393050093848 
679	 0,237475883525401 
680	 0,237253192681174 
681	 0,237521304627377 
682	 0,238486618916809 
683	 0,240007013617647 
684	 0,242022383626945 
685	 0,244461430653661 
686	 0,247025120723671 
687	 0,250140304244671 
688	 0,254563386693525 
689	 0,259951386517916 
690	 0,266139836702419 
691	 0,272773842481467 
692	 0,280357194571459 
693	 0,289335882157625 
694	 0,299580154297417 
695	 0,310888037768858 
696	 0,322778445278399 
697	 0,335441402708612 
698	 0,348770805083608 
699	 0,361924815491567 
700	 0,375242148421529 
701	 0,38919247239543 
702	 0,402645808607016 
703	 0,41546921130021 
704	 0,428301073642019 
705	 0,440848053239218 
706	 0,452792538800164 
707	 0,463338598060828 
708	 0,47279298041647 
709	 0,481852984100778 
710	 0,490710767056388 
711	 0,499290972823558 
712	 0,506778207463413 
713	 0,513600017314101 
714	 0,520178441267012 
715	 0,526151632799508 
716	 0,53153379629716 
717	 0,536515164203571 
718	 0,541161966137286 
719	 0,545532101503044 
720	 0,549675588960192 
721	 0,553358555785188 
722	 0,556299920465724 
723	 0,559113723985664 
724	 0,561872385224145 
725	 0,56416534137794 
726	 0,566499683162945 
727	 0,569037243639006 
728	 0,57039750151557 
729	 0,571232934355713 
730	 0,572997770057252 
731	 0,574911785171268 
732	 0,576673010906094 
733	 0,578082533079352 
734	 0,579105095618755 
735	 0,579741361007306 
736	 0,58018554974402 
737	 0,580709838466832 
738	 0,581933901775119 
739	 0,582653501187692 
740	 0,5825785148924 
741	 0,582933453062507 
742	 0,583597801219881 
743	 0,584303123494786 
744	 0,584674513626063 
745	 0,584792233910543 
746	 0,585236558877562 
747	 0,585607395451816 
748	 0,585733359425621 
749	 0,585998518411404 
750	 0,586275374987177 
751	 0,586291233330141 
752	 0,586501198079074 
753	 0,586894117704427 
754	 0,586952502572567 
755	 0,586886015915664 
756	 0,586865631073539 
757	 0,586867737441712 
758	 0,587053121583739 
759	 0,58780552161636 
760	 0,588045713394902 
761	 0,587632329000305 
762	 0,587808091918584 
763	 0,58800930046983 
764	 0,587700119988401 
765	 0,587872182449857 
766	 0,588408897092528 
767	 0,588599416845765 
768	 0,588329029572927 
769	 0,587729390453327 
770	 0,587905947743563 
771	 0,588443494003867 
772	 0,588734952081468 
773	 0,588866015873139 
774	 0,588868218125354 
775	 0,58879989197414 
776	 0,588930550749193 
777	 0,58929510601249 
778	 0,58902920398229 
779	 0,588616410539745 
780	 0,588904537713359 
781	 0,588748583285693 
782	 0,588198829354341 
783	 0,588567367610553 
784	 0,588916685665695 
785	 0,588640062048948 
786	 0,588170426957702 
787	 0,587895615807395 
788	 0,588406436290938 
789	 0,588632920978114 
790	 0,588342748548193 
791	 0,588101532694692 
792	 0,587893105488901 
793	 0,587725172324757 
794	 0,587908801763823 
795	 0,588179913530014 
796	 0,587882186057103 
797	 0,587537874107108 
798	 0,587322739838216 
799	 0,587096279778843 
800	 0,587181800890952 
801	 0,58780173252086 
802	 0,587691247694652 
803	 0,587101964948714 
804	 0,587346777060338 
805	 0,587377209573456 
806	 0,587019119462435 
807	 0,587444524176431 
808	 0,587987706091344 
809	 0,587864980094693 
810	 0,587349124148661 
811	 0,586895939297934 
812	 0,587626528649292 
813	 0,588203931131459 
814	 0,588067554832902 
815	 0,587682007825854 
816	 0,587356878781308 
817	 0,587408381458426 
818	 0,587802326504685 
819	 0,588361526819483 
820	 0,588635625207934 
821	 0,588778188494656 
822	 0,588863650445603 
823	 0,588881220292749 
824	 0,589069182578168 
825	 0,589708465448943 
826	 0,589620527285727 
827	 0,589007976240649 
828	 0,589509261241932 
829	 0,589753329526214 
830	 0,589181187092178 
831	 0,589115255639922 
832	 0,5893777339805 
833	 0,589530113251697 
834	 0,589438159353333 
835	 0,589200888680905 
836	 0,58929540657125 
837	 0,589450614433238 
838	 0,589492923439506 
839	 0,589316665355927 
840	 0,589100581038013 
841	 0,589109942617996 
842	 0,588975598596067 
843	 0,588702208700727 
844	 0,588605294725087 
845	 0,588592565150594 
846	 0,588562222442267 
847	 0,588141587382086 
848	 0,587762099454466 
849	 0,588068764879625 
850	 0,588589519734063 
851	 0,588938486594287 
852	 0,588315183792299 
853	 0,587751956077204 
854	 0,587794312240277 
855	 0,587909752969663 
856	 0,587917405082854 
857	 0,587658812301967 
858	 0,587459774039638 
859	 0,587418992520047 
860	 0,587554493691437 
861	 0,587701335498466 
862	 0,587753597423705 
863	 0,587734482452291 
864	 0,587521265874178 
865	 0,586976211606625 
866	 0,587225921915954 
867	 0,588173906807046 
868	 0,588673915013338 
869	 0,58913534327878 
870	 0,58959493345533 
871	 0,58924444732908 
872	 0,588724648606206 
873	 0,588862252762051 
874	 0,58881130070244 
875	 0,58856056487162 
876	 0,588586261852032 
877	 0,588773476857172 
878	 0,588942787390292 
879	 0,588315408684859 
880	 0,58784181432519 
881	 0,588524723646732 
882	 0,588617602732712 
883	 0,588312155133442 
884	 0,589159662898466 
885	 0,589599827753283 
886	 0,589167230321905 
887	 0,588604050917179 
888	 0,588192951666616 
889	 0,588151621723894 
890	 0,588265073239553 
891	 0,588429093838862 
892	 0,588526875234799 
893	 0,588577734334162 
894	 0,588616407896088 
895	 0,588849745283547 
896	 0,588769771767153 
897	 0,588110780316151 
898	 0,58837711236724 
899	 0,588933603612195 
900	 0,588201406296556 
901	 0,588223274096564 
902	 0,589219516358915 
903	 0,589835089249585 
904	 0,589750658953498 
905	 0,588963620539768 
906	 0,589062920526629 
907	 0,589479078845874 
908	 0,58911745300374 
909	 0,589456039790591 
910	 0,590104749107461 
911	 0,588721013731366 
912	 0,587275871558409 
913	 0,586902770215473 
914	 0,588151593795943 
915	 0,589360969096594 
916	 0,588755606689677 
917	 0,589070740717591 
918	 0,590013735131907 
919	 0,589453949000266 
920	 0,588638231259136 
921	 0,588035022983362 
922	 0,587727109513742 
923	 0,587465355341479 
924	 0,58703584990283 
925	 0,586429825290784 
926	 0,58618760636188 
927	 0,587321597066076 
928	 0,587160124066915 
929	 0,585648479873012 
930	 0,585672448199599 
931	 0,585651298375578 
932	 0,584906994642184 
933	 0,585640834577599 
934	 0,586276244156701 
935	 0,584597438895382 
936	 0,583126673033418 
937	 0,582486582671354 
938	 0,582647601326213 
939	 0,583074736471039 
940	 0,583360612637863 
941	 0,58303213506447 
942	 0,581997877407366 
943	 0,580417381455194 
944	 0,580432248928334 
945	 0,581022586815512 
946	 0,579641656354686 
947	 0,577969633402493 
948	 0,576871281384713 
949	 0,577737559021005 
950	 0,577845986326001 
951	 0,575897089184178 
952	 0,574690709123439 
953	 0,573810952775588 
954	 0,572448218273811 
955	 0,571709872497515 
956	 0,571401261379802 
957	 0,570361440492056 
958	 0,570074523030158 
959	 0,5705563214325 
960	 0,569351278736336 
961	 0,568665745750479 
962	 0,569911695617592 
963	 0,569711180817642 
964	 0,568597459210348 
965	 0,568133699321499 
966	 0,567429027987875 
967	 0,56651068338543 
968	 0,565972362308735 
969	 0,565831464573961 
970	 0,565986734513974 
971	 0,565719864213091 
972	 0,5658373004157 
973	 0,566991374113094 
974	 0,56778905114034 
975	 0,56767821325564 
976	 0,566116224503442 
977	 0,56632623247346 
978	 0,568195719780519 
979	 0,568088372327158 
980	 0,566972154412968 
981	 0,565715372662946 
982	 0,566504792281479 
983	 0,567305839148386 
984	 0,566089156928933 
985	 0,566254519171626 
986	 0,567056902337007 
987	 0,565887196209272 
988	 0,564814909161711 
989	 0,56455579922604 
990	 0,565164427844577 
991	 0,566902179088152 
992	 0,569386120190116 
993	 0,569971299531512 
994	 0,570067065834345 
995	 0,571274639377071 
996	 0,571631467972666 
997	 0,571874615957444 
998	 0,574138917723233 
999	 0,574071062653371 
1000	 0,571997193687973 
1001	 0,573781843651096 
1002	 0,575263690843811 
1003	 0,574488739730623 
1004	 0,573161238076425 
1005	 0,572867061041136 
1006	 0,574624669300257 
1007	 0,573494792374518 
1008	 0,57131641507882 
1009	 0,57276642136822 
1010	 0,57614965273855 
1011	 0,579669517551086 
1012	 0,578996222963425 
1013	 0,578800149820169 
1014	 0,580298073861203 
1015	 0,578257707142441 
1016	 0,575719441284577 
1017	 0,575538893204785 
1018	 0,577010188810759 
1019	 0,578801130974326 
1020	 0,579121080044109 
1021	 0,579885770994736 
1022	 0,580823973218605 
1023	 0,579651222982562 
1024	 0,580507413167751 
1025	 0,583799183796746 
1026	 0,585045813861358 
1027	 0,583550596889081 
1028	 0,579643654715492 
1029	 0,577798683923032 
1030	 0,580062876007288 
1031	 0,58713099911772 
1032	 0,584513524637147 
1033	 0,576854972400853 
1034	 0,579328804416071 
1035	 0,580903390269381 
1036	 0,581296810346119 
1037	 0,591424881895592 
1038	 0,592808414441 
1039	 0,581074075203562 
1040	 0,58215878761814 
1041	 0,586818823518918 
1042	 0,586368403075319 
1043	 0,584825795300532 
1044	 0,584006570833548 
1045	 0,585723995543833 
1046	 0,587025506557455 
1047	 0,587687281472635 
1048	 0,588769802224064 
1049	 0,591154996290292 
1050	 0,593706927047435 
1051	 0,591097652779008 
1052	 0,589634386550884 
1053	 0,592435899844908 
1054	 0,598036217457988 
1055	 0,598512395847212 
1056	 0,588774289743778 
1057	 0,587453318133522 
1058	 0,587573039406298 
1059	 0,576320074028929 
1060	 0,575500420976416 
1061	 0,582677433135171 
1062	 0,582032276331615 
1063	 0,577525769877238 
1064	 0,573922645096454 
1065	 0,585967277621995 
1066	 0,587750131591534 
1067	 0,572966095296157 
1068	 0,577431938409299 
1069	 0,584052070609823 
1070	 0,579247616338126 
1071	 0,571326834890476 
1072	 0,570335033328883 
1073	 0,585482387042194 
1074	 0,593164067647212 
1075	 0,589115695162707 
