Wavelength	NEUF00191.asd
325	 0,142565407450904 
326	-6,91075652111984E-02 
327	-3,95960623992133E-02 
328	 0,191983792504033 
329	 0,168418086101748 
330	 0,104819383829412 
331	 0,142430205204835 
332	 0,1789854145517 
333	 0,173664838719942 
334	 0,135844963307256 
335	 0,125852611346517 
336	 0,147209214107772 
337	 6,62654184367175E-02 
338	 7,43300901106888E-03 
339	 6,92182173669712E-02 
340	 9,09661402661885E-02 
341	 8,11420568187636E-02 
342	 0,108247039671442 
343	 0,101118089128586 
344	 6,22139306952919E-02 
345	 0,10686166033258 
346	 0,148773110641202 
347	 0,103868268028911 
348	 7,97189205352471E-02 
349	 7,47569718224953E-02 
350	 2,74529075827412E-02 
351	 3,06247006288725E-02 
352	 8,93923987621506E-02 
353	 7,48848828011158E-02 
354	 3,13876816031725E-02 
355	 2,51073448495254E-02 
356	 3,97772668223929E-02 
357	 6,29818220535295E-02 
358	 7,82716183650164E-02 
359	 5,87726643387256E-02 
360	 4,4463740924086E-03 
361	 3,38156453062461E-02 
362	 8,05876887395501E-02 
363	 4,20872409168569E-02 
364	 2,95838517499305E-02 
365	 5,73294641888427E-02 
366	 7,66088167550485E-02 
367	 7,59603957410398E-02 
368	 4,86516181748394E-02 
369	 3,08122350186415E-02 
370	 2,25787155138915E-02 
371	 8,9869804329881E-03 
372	-2,79193293714571E-03 
373	-8,07169337584798E-03 
374	 4,13436792115982E-04 
375	 1,53891730221403E-02 
376	 0,029893129060048 
377	 0,037070711075685 
378	 3,64310552265076E-02 
379	 2,82281183233537E-02 
380	 2,73192520127216E-02 
381	 3,85908955902634E-02 
382	 6,11188421711348E-02 
383	 6,98601748890599E-02 
384	 4,33381074893048E-02 
385	 2,97203659715176E-02 
386	 3,17421176024538E-02 
387	 2,59535393636736E-02 
388	 2,65271651900474E-02 
389	 3,53542426038225E-02 
390	 3,46467952987617E-02 
391	 2,85683277667837E-02 
392	 2,38947716941567E-02 
393	 0,030447791009675 
394	 4,33949261191041E-02 
395	 4,32954995285769E-02 
396	 4,05552468374968E-02 
397	 4,03706991055471E-02 
398	 0,038464746993171 
399	 0,033258998252951 
400	 0,022863042719869 
401	 1,53056831293512E-02 
402	 1,39170010075568E-02 
403	 2,16274387207074E-02 
404	 3,01942161738992E-02 
405	 3,30056205868244E-02 
406	 2,56759289157188E-02 
407	 1,56823332613857E-02 
408	 1,83402515900509E-02 
409	 2,36889347835406E-02 
410	 2,69076983343276E-02 
411	 2,06479612566578E-02 
412	 1,26974038339918E-02 
413	 1,08822886436481E-02 
414	 1,95147822152638E-02 
415	 3,13288643954433E-02 
416	 2,68768647107063E-02 
417	 2,39980860928245E-02 
418	 2,77544492070945E-02 
419	 2,02705935986297E-02 
420	 1,30954799382008E-02 
421	 2,18518769397374E-02 
422	 2,57430122725469E-02 
423	 2,23717701519688E-02 
424	 2,06152001770474E-02 
425	 1,84586048394828E-02 
426	 1,56705127767374E-02 
427	 2,03952195402752E-02 
428	 2,67384767093674E-02 
429	 2,25657056307443E-02 
430	 2,06994898497434E-02 
431	 2,32347105154708E-02 
432	 2,15527844041564E-02 
433	 1,99425153248665E-02 
434	 0,022225497423081 
435	 2,31484513405329E-02 
436	 2,22432182044156E-02 
437	 2,06098961975224E-02 
438	 2,00438862723257E-02 
439	 2,07429878235168E-02 
440	 1,84799083712978E-02 
441	 1,62062364005867E-02 
442	 1,80562190106373E-02 
443	 1,97396644388938E-02 
444	 2,03136787370246E-02 
445	 2,02174333960334E-02 
446	 2,09845472261139E-02 
447	 2,34479377875152E-02 
448	 2,64619710884521E-02 
449	 2,79227701050069E-02 
450	 2,41175585958591E-02 
451	 2,23158592247236E-02 
452	 2,37556318899978E-02 
453	 0,022147310694042 
454	 0,02106070490662 
455	 2,37574363074327E-02 
456	 2,34772963066244E-02 
457	 0,021229850735974 
458	 0,023300301975769 
459	 2,47756844864516E-02 
460	 0,023850731825692 
461	 2,31718023280595E-02 
462	 2,20143306767064E-02 
463	 1,90781287694266E-02 
464	 1,90156030238895E-02 
465	 2,22601199651614E-02 
466	 2,71004190873485E-02 
467	 2,63953344397992E-02 
468	 1,69667250642085E-02 
469	 1,52198512510195E-02 
470	 0,019433870670604 
471	 2,11920071907626E-02 
472	 0,022336894275064 
473	 2,27778211155828E-02 
474	 2,10903448106563E-02 
475	 1,90405929885692E-02 
476	 1,84393399317787E-02 
477	 1,95556198052514E-02 
478	 2,12755149769496E-02 
479	 2,06193047588559E-02 
480	 1,93058074227433E-02 
481	 1,83054759975831E-02 
482	 0,018363853159957 
483	 1,85361189374353E-02 
484	 1,72404768068433E-02 
485	 1,75830030622291E-02 
486	 1,97438131952323E-02 
487	 2,13877442240548E-02 
488	 2,17886279861939E-02 
489	 2,05743687581881E-02 
490	 1,96555625615813E-02 
491	 0,01943891646059 
492	 2,01034050383361E-02 
493	 0,020153383856507 
494	 1,93699801368306E-02 
495	 1,99145028834682E-02 
496	 2,04966903048647E-02 
497	 1,95367407131477E-02 
498	 0,019682908615229 
499	 2,09005126940852E-02 
500	 2,13682883814369E-02 
501	 2,09744037550126E-02 
502	 1,99109247376115E-02 
503	 2,02404306888102E-02 
504	 2,16624120135018E-02 
505	 2,33400723620885E-02 
506	 2,35059048870241E-02 
507	 2,20791964196261E-02 
508	 2,13432234843947E-02 
509	 2,12299425334776E-02 
510	 2,15608176599546E-02 
511	 2,20467130728715E-02 
512	 2,23930621488042E-02 
513	 2,20640473400713E-02 
514	 2,17849594717261E-02 
515	 2,19082122082428E-02 
516	 2,25633399094997E-02 
517	 2,27321944070983E-02 
518	 2,09625705491356E-02 
519	 2,08510674290693E-02 
520	 2,25084205770778E-02 
521	 2,27145176460663E-02 
522	 2,25520724820996E-02 
523	 2,28120562296166E-02 
524	 2,28697856666616E-02 
525	 2,28789824899209E-02 
526	 2,35123381202831E-02 
527	 2,33072179762683E-02 
528	 2,22127940921746E-02 
529	 0,022921303488035 
530	 2,37632736364899E-02 
531	 2,26609485975683E-02 
532	 2,23726343445954E-02 
533	 2,31122909990834E-02 
534	 2,35056229084684E-02 
535	 2,38126193133859E-02 
536	 2,41025885537857E-02 
537	 2,38925696739903E-02 
538	 2,32769335856578E-02 
539	 2,24434100954344E-02 
540	 2,23073832941143E-02 
541	 2,28784582698291E-02 
542	 2,26607118596848E-02 
543	 2,22276053564862E-02 
544	 2,22251908664021E-02 
545	 2,28561923667709E-02 
546	 2,37150279931642E-02 
547	 2,35348885064071E-02 
548	 2,35604827813992E-02 
549	 2,41783365889366E-02 
550	 2,35796634252656E-02 
551	 2,25969261356066E-02 
552	 2,27508372353744E-02 
553	 0,023984432629239 
554	 2,56113444219377E-02 
555	 2,50699970697684E-02 
556	 2,40718002127076E-02 
557	 2,40596503232514E-02 
558	 2,37902813469967E-02 
559	 2,32557325064221E-02 
560	 2,29152544208747E-02 
561	 2,26730665547949E-02 
562	 2,25079854948266E-02 
563	 2,24812114748722E-02 
564	 2,22902220554501E-02 
565	 2,15334290954979E-02 
566	 2,17795513226688E-02 
567	 2,28422152443919E-02 
568	 2,25739472874266E-02 
569	 2,22182477334622E-02 
570	 2,26149175733954E-02 
571	 2,29251401362465E-02 
572	 2,31529004021125E-02 
573	 2,35503311534544E-02 
574	 2,41998261596077E-02 
575	 2,50039514703328E-02 
576	 2,51968096489762E-02 
577	 2,55894444799186E-02 
578	 2,71014325342433E-02 
579	 2,74269171297562E-02 
580	 0,026937597686333 
581	 2,86921228969166E-02 
582	 2,97101063897729E-02 
583	 2,86041026355519E-02 
584	 2,87195521102498E-02 
585	 2,95903442025699E-02 
586	 2,96414677530476E-02 
587	 2,92417883893032E-02 
588	 2,88028500144369E-02 
589	 2,97726661285983E-02 
590	 3,06218767642227E-02 
591	 2,99587114372389E-02 
592	 2,99308239667621E-02 
593	 3,04800874147009E-02 
594	 3,01522583907369E-02 
595	 3,03283661600841E-02 
596	 3,13503519343717E-02 
597	 3,10165827837668E-02 
598	 3,01292512338617E-02 
599	 3,02206348318147E-02 
600	 3,04706773807006E-02 
601	 3,05717560596479E-02 
602	 3,02214174870938E-02 
603	 2,97103388982415E-02 
604	 2,93010755813124E-02 
605	 2,91293542875924E-02 
606	 2,91126809651305E-02 
607	 2,88899344381702E-02 
608	 0,029215586695147 
609	 3,00697833456541E-02 
610	 2,97735961713594E-02 
611	 2,87371484511078E-02 
612	 2,76541603807087E-02 
613	 2,73543516724395E-02 
614	 2,77268334221309E-02 
615	 2,75598165624402E-02 
616	 2,73377951409615E-02 
617	 2,73071839308272E-02 
618	 2,67514058323788E-02 
619	 2,61872484051192E-02 
620	 2,68793067834114E-02 
621	 0,027088633276091 
622	 2,64671008443183E-02 
623	 2,63235163809689E-02 
624	 2,64972861647224E-02 
625	 2,67481592080464E-02 
626	 2,73662090498366E-02 
627	 2,79806751452426E-02 
628	 0,027369195601685 
629	 2,69075864204447E-02 
630	 0,027248080020512 
631	 2,74089826615372E-02 
632	 2,75499966555837E-02 
633	 2,81323507355024E-02 
634	 2,83726993286566E-02 
635	 2,83651188306904E-02 
636	 2,94839164666652E-02 
637	 3,07130222214232E-02 
638	 3,11541912643414E-02 
639	 3,12166742089778E-02 
640	 3,11105665083122E-02 
641	 3,10858157398989E-02 
642	 3,14800222937665E-02 
643	 3,22620999846478E-02 
644	 3,21973265787843E-02 
645	 3,20903993345784E-02 
646	 3,31252212394235E-02 
647	 3,34272699049247E-02 
648	 0,032894302194668 
649	 3,29153730624007E-02 
650	 3,29629199183714E-02 
651	 3,27263265604602E-02 
652	 3,28077668749591E-02 
653	 3,28169578168575E-02 
654	 3,18067005820428E-02 
655	 3,06094929881338E-02 
656	 2,96441706254031E-02 
657	 2,94103179582898E-02 
658	 2,90730109593488E-02 
659	 2,77792452994543E-02 
660	 2,67324704873337E-02 
661	 2,62322655516706E-02 
662	 0,026405851370346 
663	 2,62466416897348E-02 
664	 2,53432633151707E-02 
665	 2,49371789020747E-02 
666	 2,47146011112795E-02 
667	 2,39333329266075E-02 
668	 2,36714846804311E-02 
669	 2,39144203030326E-02 
670	 2,33216866208989E-02 
671	 2,28274400765924E-02 
672	 2,31072165118931E-02 
673	 2,25325471860381E-02 
674	 2,16014242894823E-02 
675	 2,22038553270263E-02 
676	 2,27307504195871E-02 
677	 2,26729305233702E-02 
678	 2,27247064709458E-02 
679	 0,02290581652979 
680	 2,31762864083354E-02 
681	 2,37061937958352E-02 
682	 2,43135285240396E-02 
683	 2,43152491362748E-02 
684	 2,43236603282731E-02 
685	 2,47228388832829E-02 
686	 2,53486255187917E-02 
687	 2,62360434247368E-02 
688	 2,74891524096727E-02 
689	 2,87195511476334E-02 
690	 0,029847475271407 
691	 3,10264487878396E-02 
692	 3,27454820222809E-02 
693	 3,53952225737147E-02 
694	 3,81980365504406E-02 
695	 4,13499571781017E-02 
696	 4,57574794091583E-02 
697	 0,050410831000364 
698	 5,49815582614839E-02 
699	 6,02424790906923E-02 
700	 6,60615591455502E-02 
701	 7,21468481668402E-02 
702	 7,85730160142289E-02 
703	 8,52041260286786E-02 
704	 0,091662998118969 
705	 9,80470420303343E-02 
706	 0,104356696578036 
707	 0,110155964934507 
708	 0,115650513936306 
709	 0,121294284930566 
710	 0,126909480972742 
711	 0,132434881308268 
712	 0,137873303006176 
713	 0,142922111416618 
714	 0,147320094690882 
715	 0,151320451143708 
716	 0,155087158757027 
717	 0,158962763552573 
718	 0,16227589512123 
719	 0,164913630295957 
720	 0,168000453967113 
721	 0,171087449778029 
722	 0,173484515508822 
723	 0,175501313619673 
724	 0,177304967922077 
725	 0,179109058440035 
726	 0,181125340833586 
727	 0,183322626839412 
728	 0,184335075534485 
729	 0,184827677903497 
730	 0,186298959127037 
731	 0,187811028337341 
732	 0,189050605817548 
733	 0,189949490395509 
734	 0,190647407273193 
735	 0,191279369224021 
736	 0,191862244714025 
737	 0,192437103430118 
738	 0,193095427879024 
739	 0,193585113922841 
740	 0,193889438861466 
741	 0,194484355112473 
742	 0,195204114939292 
743	 0,195811083084242 
744	 0,196293562661279 
745	 0,19657719696509 
746	 0,196430590279842 
747	 0,196429860748918 
748	 0,196868894760026 
749	 0,197354113308114 
750	 0,197774767816977 
751	 0,198035451364217 
752	 0,198452647826961 
753	 0,19893306688081 
754	 0,198837556550817 
755	 0,198459539021873 
756	 0,198111160340886 
757	 0,198477103749169 
758	 0,199250781757478 
759	 0,199624753076287 
760	 0,199698148846629 
761	 0,199564979427802 
762	 0,1996311433266 
763	 0,199748756952638 
764	 0,199774987488647 
765	 0,200056387710766 
766	 0,200471128622726 
767	 0,200573530820933 
768	 0,200507029073842 
769	 0,200380008367358 
770	 0,200448110389553 
771	 0,200728512592991 
772	 0,201199048535477 
773	 0,201507624214713 
774	 0,201568688892398 
775	 0,201381858242406 
776	 0,201423456668348 
777	 0,201855116667831 
778	 0,201837245121865 
779	 0,201654033046945 
780	 0,201859160136493 
781	 0,202001158256292 
782	 0,201967042738812 
783	 0,201767852647432 
784	 0,201662354307327 
785	 0,201828374021116 
786	 0,202201894033564 
787	 0,202538282210323 
788	 0,202451258644989 
789	 0,202121508522031 
790	 0,201792432095533 
791	 0,202195307705814 
792	 0,202547781936708 
793	 0,202257999365344 
794	 0,202173762112693 
795	 0,202357082260082 
796	 0,20266666962653 
797	 0,20273556700057 
798	 0,202491454915295 
799	 0,202298581247201 
800	 0,202271917878529 
801	 0,202471745140202 
802	 0,202411161222579 
803	 0,20225796505069 
804	 0,202734338937679 
805	 0,202962451451535 
806	 0,202764258888313 
807	 0,203098309909933 
808	 0,203510154642029 
809	 0,203454325272272 
810	 0,203114992062177 
811	 0,202906576027589 
812	 0,203924042097335 
813	 0,204606872457913 
814	 0,204333263845727 
815	 0,203832254510398 
816	 0,203585196149879 
817	 0,204055277828395 
818	 0,20441999497115 
819	 0,204555542165318 
820	 0,204747781799741 
821	 0,204792313509714 
822	 0,204723680307782 
823	 0,205386195979191 
824	 0,206074121447259 
825	 0,205801789011786 
826	 0,205470238789956 
827	 0,205395112689523 
828	 0,205795843627752 
829	 0,206370435535117 
830	 0,206784699783622 
831	 0,206037244880846 
832	 0,205289491326248 
833	 0,206227548030323 
834	 0,206270275640143 
835	 0,205447146434642 
836	 0,206057955459224 
837	 0,206734037722696 
838	 0,20674115251939 
839	 0,20647597723323 
840	 0,206245828742589 
841	 0,206413043172367 
842	 0,20676496733071 
843	 0,207066504263132 
844	 0,206778296366749 
845	 0,206395018116348 
846	 0,206249239119479 
847	 0,206515186938238 
848	 0,206862472106965 
849	 0,206806006878789 
850	 0,206718326222775 
851	 0,206625309641762 
852	 0,206211816455658 
853	 0,206248134323813 
854	 0,206968834640036 
855	 0,206886824522042 
856	 0,206457878600451 
857	 0,206529820324542 
858	 0,206665757288372 
859	 0,206752987744869 
860	 0,206757794437196 
861	 0,206680333012298 
862	 0,206578304535915 
863	 0,206858733097242 
864	 0,207024295643707 
865	 0,206408370130844 
866	 0,206521852782214 
867	 0,207158043191655 
868	 0,206481396045271 
869	 0,20612554214447 
870	 0,206708430911276 
871	 0,206866870489937 
872	 0,206861418849805 
873	 0,207138361005826 
874	 0,207052894458224 
875	 0,206787244937657 
876	 0,207278162534998 
877	 0,207609806549082 
878	 0,207511394593436 
879	 0,207871940460318 
880	 0,208157235985603 
881	 0,207786884421934 
882	 0,208049080984369 
883	 0,208794515428316 
884	 0,208905475279748 
885	 0,209165426753358 
886	 0,209755120386212 
887	 0,210330681896884 
888	 0,210156078043265 
889	 0,208734246256616 
890	 0,208262804459742 
891	 0,208783821504588 
892	 0,209455889485977 
893	 0,209900708472934 
894	 0,209983080207313 
895	 0,209999790068857 
896	 0,210117196454605 
897	 0,210395106330532 
898	 0,210187495399191 
899	 0,209639776959761 
900	 0,209143974260073 
901	 0,209463202931127 
902	 0,210412794145381 
903	 0,210400725407423 
904	 0,210238878415577 
905	 0,210438314979577 
906	 0,210729310685425 
907	 0,211037654022855 
908	 0,211298958157067 
909	 0,210408290241294 
910	 0,208951372275364 
911	 0,209628232817487 
912	 0,210183384569844 
913	 0,209740507673296 
914	 0,209906362157543 
915	 0,210463749709365 
916	 0,210976472746069 
917	 0,210532418383556 
918	 0,209740877918035 
919	 0,210763319548435 
920	 0,210928879228422 
921	 0,209816919861218 
922	 0,210146357232267 
923	 0,210675909419616 
924	 0,210296782381819 
925	 0,209691891867618 
926	 0,209164349782752 
927	 0,209043163604886 
928	 0,209332183035828 
929	 0,20973053962146 
930	 0,209217226044863 
931	 0,208531120822097 
932	 0,208187427363809 
933	 0,208338118971273 
934	 0,208840679758239 
935	 0,209440701516125 
936	 0,208875281851827 
937	 0,207722396260604 
938	 0,208511568427892 
939	 0,208865922950335 
940	 0,207997354230376 
941	 0,206817767183079 
942	 0,206092113669896 
943	 0,206307024827795 
944	 0,205591191778552 
945	 0,204407964336982 
946	 0,204195919463358 
947	 0,20428757564857 
948	 0,204341649649294 
949	 0,204028196964504 
950	 0,202707554267488 
951	 0,200323158453773 
952	 0,19872841879277 
953	 0,198334615818156 
954	 0,199255934146293 
955	 0,199696658847304 
956	 0,199126857072462 
957	 0,197171459523664 
958	 0,196636465713129 
959	 0,197992139102203 
960	 0,198326131220187 
961	 0,197782054873865 
962	 0,196679399801952 
963	 0,195993797365377 
964	 0,195849739987114 
965	 0,196165937519985 
966	 0,195282856922313 
967	 0,193622373993672 
968	 0,193715549595056 
969	 0,194828398538238 
970	 0,196148783794464 
971	 0,19523765821636 
972	 0,194067392006299 
973	 0,194515311873203 
974	 0,194904504006496 
975	 0,19511751470862 
976	 0,195391815412557 
977	 0,196658444637203 
978	 0,198191760630005 
979	 0,196685432695512 
980	 0,194582678197249 
981	 0,193734566118517 
982	 0,197100749191411 
983	 0,199627181523364 
984	 0,196467044061994 
985	 0,194732984301898 
986	 0,195119291302164 
987	 0,196341067197292 
988	 0,196678629414299 
989	 0,195969983469006 
990	 0,195977376732948 
991	 0,195893921030884 
992	 0,195643119241018 
993	 0,197380508575699 
994	 0,198811098511828 
995	 0,1976084938051 
996	 0,197540162766245 
997	 0,198720580511413 
998	 0,20005455557182 
999	 0,200203957543493 
1000	 0,19947288792159 
1001	 0,20074854023427 
1002	 0,201080793458539 
1003	 0,199589693623912 
1004	 0,200504143710692 
1005	 0,201429493561365 
1006	 0,199990827561489 
1007	 0,19971046669379 
1008	 0,200088556418619 
1009	 0,199111077041882 
1010	 0,200456948218201 
1011	 0,203717712012606 
1012	 0,204326928309345 
1013	 0,204968829849669 
1014	 0,206130953594785 
1015	 0,204107050450898 
1016	 0,202644432829797 
1017	 0,204805857612539 
1018	 0,207527966269638 
1019	 0,207706208720099 
1020	 0,201861637290731 
1021	 0,202020054690367 
1022	 0,207617570482924 
1023	 0,208737184344186 
1024	 0,206842727861576 
1025	 0,203882387077135 
1026	 0,206765264512033 
1027	 0,210907573412027 
1028	 0,21247949264017 
1029	 0,208569626912392 
1030	 0,204040891493996 
1031	 0,204750156397482 
1032	 0,207734780672163 
1033	 0,210628140679427 
1034	 0,210076445144899 
1035	 0,208270868975202 
1036	 0,207754890496901 
1037	 0,215638798386218 
1038	 0,217905215708039 
1039	 0,210674624672839 
1040	 0,211314161128852 
1041	 0,213481528060961 
1042	 0,211343204875447 
1043	 0,207406032388858 
1044	 0,206357052950686 
1045	 0,213582524481937 
1046	 0,215485349719845 
1047	 0,211844703627299 
1048	 0,209105948653673 
1049	 0,212078733845684 
1050	 0,219991535526961 
1051	 0,223822654617779 
1052	 0,221334959371048 
1053	 0,21418688749905 
1054	 0,218112725120643 
1055	 0,222271871658485 
1056	 0,217600061301388 
1057	 0,219727592658629 
1058	 0,221587598751439 
1059	 0,211461070172932 
1060	 0,212615778421952 
1061	 0,223346347920649 
1062	 0,228876896915814 
1063	 0,231575737090709 
1064	 0,230293532136616 
1065	 0,219912737397537 
1066	 0,215808529670321 
1067	 0,222918886925023 
1068	 0,224618600160509 
1069	 0,225340633288959 
1070	 0,2270063530925 
1071	 0,211446833910681 
1072	 0,202385010964253 
1073	 0,227321028737689 
1074	 0,234061742856037 
1075	 0,226369686993379 
