Wavelength	NEUF00568.asd
325	 0,132586285639721 
326	 5,55649263269949E-02 
327	-0,039544487118214 
328	-4,35576454110026E-02 
329	 1,32613376320328E-02 
330	 7,10279165639237E-02 
331	 8,53427231436138E-02 
332	 0,113099142400679 
333	 0,121386976675117 
334	 6,45622625273453E-02 
335	 4,27975012949084E-02 
336	 6,55387134056661E-02 
337	-4,97508164806875E-02 
338	-0,105629978646176 
339	 4,18928937441399E-02 
340	 9,27160195848562E-02 
341	 6,13012392046496E-02 
342	 6,13194993278889E-02 
343	 7,15020815619433E-02 
344	 8,35725038649873E-02 
345	 5,56116803771588E-02 
346	 2,96966470298156E-02 
347	 4,49540785826857E-02 
348	 5,39945962686487E-02 
349	 4,85053406982439E-02 
350	 2,71031574608736E-02 
351	 2,65882462009974E-02 
352	 4,83773826604248E-02 
353	 0,034875723385653 
354	 9,02098966901798E-03 
355	 4,8812732394006E-03 
356	-8,60102584119588E-03 
357	-2,06699682598149E-02 
358	 0,013280245949147 
359	 4,60565832204995E-02 
360	 5,81717791569592E-02 
361	 0,046384093676885 
362	 2,43032617426061E-02 
363	 6,12266460476726E-03 
364	 2,46234465799142E-02 
365	 6,41867499241353E-02 
366	 5,72226685949971E-02 
367	 3,26691519396383E-02 
368	 8,77702165620804E-03 
369	-4,31858749872831E-03 
370	 1,87239394047873E-03 
371	 3,63696267833435E-02 
372	 0,049196096738611 
373	 0,034234215649871 
374	 3,85749055431851E-02 
375	 3,49618197589265E-02 
376	 5,3947705418054E-03 
377	-2,92584353846596E-03 
378	 7,43437188728352E-03 
379	 1,47394651327863E-02 
380	 2,41228874459416E-02 
381	 3,46816463706959E-02 
382	 4,55067597769341E-02 
383	 4,69450287142585E-02 
384	 3,10694861415925E-02 
385	 2,92097987600292E-02 
386	 0,039126149462313 
387	 4,00211354481231E-02 
388	 2,83767964031349E-02 
389	 8,03783801336223E-03 
390	 4,12704376141394E-03 
391	 8,01511442062257E-03 
392	 7,52021547239449E-03 
393	 1,03475151223484E-02 
394	 1,32301139890063E-02 
395	-1,46249127327427E-04 
396	 4,10571806195623E-04 
397	 0,025202590091448 
398	 3,29156881772684E-02 
399	 2,74402941300468E-02 
400	 1,99348731455631E-02 
401	 0,017783515199636 
402	 2,09784204542549E-02 
403	 1,93381880773443E-02 
404	 0,020614564388871 
405	 2,82417816444749E-02 
406	 2,02655535788324E-02 
407	 5,96940427368875E-03 
408	 9,60171229028219E-03 
409	 0,013664204045353 
410	 1,33795024706165E-02 
411	 1,17926653696923E-02 
412	 9,17927922061027E-03 
413	 6,04926626314128E-03 
414	 9,83231282866784E-03 
415	 1,62216248442745E-02 
416	 1,04960536902499E-02 
417	 1,00178891323771E-02 
418	 1,84573254774851E-02 
419	 1,04957085557409E-02 
420	 2,64350516715184E-03 
421	 1,74900715093708E-02 
422	 0,021774946308588 
423	 1,33493221480565E-02 
424	 1,07732201348493E-02 
425	 1,07393781349493E-02 
426	 1,13455619396822E-02 
427	 1,39772675467017E-02 
428	 1,53266008176073E-02 
429	 8,77093245335864E-03 
430	 9,31630593381202E-03 
431	 1,76787187133826E-02 
432	 1,62433875684626E-02 
433	 0,013154975275537 
434	 0,015796151567904 
435	 1,40300839867161E-02 
436	 9,35221083247529E-03 
437	 9,41127359648678E-03 
438	 1,25807750592783E-02 
439	 1,65943902588134E-02 
440	 1,16349368332617E-02 
441	 5,7410004006181E-03 
442	 1,00523153981313E-02 
443	 1,06871547305271E-02 
444	 7,20826850350646E-03 
445	 9,77853746910475E-03 
446	 1,28670814329883E-02 
447	 1,31699647383355E-02 
448	 1,33020221671976E-02 
449	 1,34898423539536E-02 
450	 1,34065452473873E-02 
451	 1,46190317419804E-02 
452	 1,65732719971145E-02 
453	 1,45994185862807E-02 
454	 1,25590153033307E-02 
455	 1,40300752685319E-02 
456	 1,27836863682825E-02 
457	 1,06076892275362E-02 
458	 1,57908035439664E-02 
459	 1,89488901843227E-02 
460	 1,66868541007255E-02 
461	 1,51468066901829E-02 
462	 1,37641525779813E-02 
463	 1,09819142691303E-02 
464	 1,04049276335926E-02 
465	 0,012462055694114 
466	 1,60440057116437E-02 
467	 1,61188014173408E-02 
468	 1,03666664349007E-02 
469	 9,71960962814089E-03 
470	 0,012890898391108 
471	 1,41324188795075E-02 
472	 1,40662594160273E-02 
473	 1,29824657592824E-02 
474	 1,26765720231047E-02 
475	 1,13271643522234E-02 
476	 7,37215571698304E-03 
477	 9,0846299394183E-03 
478	 1,44134755504498E-02 
479	 1,32039100761275E-02 
480	 1,15402505457216E-02 
481	 1,19656294276774E-02 
482	 1,18212480793725E-02 
483	 1,05218133967072E-02 
484	 7,34557751110243E-03 
485	 9,44981130889792E-03 
486	 1,57345016604535E-02 
487	 1,48469671694606E-02 
488	 1,20145792375742E-02 
489	 1,13741824279028E-02 
490	 1,14392962590215E-02 
491	 1,19376562745195E-02 
492	 1,27462396660273E-02 
493	 1,30649475703776E-02 
494	 1,27103587669499E-02 
495	 1,27170940301499E-02 
496	 0,012363153593519 
497	 1,07924581620822E-02 
498	 1,08151711046276E-02 
499	 1,22447293570583E-02 
500	 1,25336312664936E-02 
501	 1,24391332655801E-02 
502	 1,23933069249926E-02 
503	 1,23548081286073E-02 
504	 1,26090289550331E-02 
505	 1,37000736868548E-02 
506	 0,014223191024248 
507	 1,37552649365837E-02 
508	 1,24189904733908E-02 
509	 1,17815471307994E-02 
510	 1,30840670504773E-02 
511	 1,31832704125355E-02 
512	 1,20159306182788E-02 
513	 1,07407563509257E-02 
514	 1,10403478079608E-02 
515	 1,32131234641695E-02 
516	 0,013897746168444 
517	 1,33006852629096E-02 
518	 1,21781294517214E-02 
519	 1,21542201675807E-02 
520	 1,31825763388889E-02 
521	 1,33611997828129E-02 
522	 1,28745128704809E-02 
523	 1,20324722940882E-02 
524	 1,23714510534283E-02 
525	 0,013639577278949 
526	 1,49822945430176E-02 
527	 1,48526053574605E-02 
528	 0,013225286540517 
529	 0,013428388223256 
530	 1,40791494103375E-02 
531	 1,33379479154127E-02 
532	 1,33854924889553E-02 
533	 1,40925866352186E-02 
534	 1,33786535143082E-02 
535	 1,32797196367459E-02 
536	 1,46658308154521E-02 
537	 1,42243058291076E-02 
538	 1,26930497223479E-02 
539	 1,21585926852181E-02 
540	 1,22692705169766E-02 
541	 1,28732424421655E-02 
542	 1,36040282652698E-02 
543	 1,38840306895795E-02 
544	 1,32388335619137E-02 
545	 1,29468427224951E-02 
546	 1,31417756425124E-02 
547	 1,34225131583128E-02 
548	 1,34974068144705E-02 
549	 1,32060656982429E-02 
550	 1,25748305765046E-02 
551	 1,22858562419505E-02 
552	 1,33999821822795E-02 
553	 1,38741614166949E-02 
554	 1,33824750130017E-02 
555	 1,33301986812788E-02 
556	 1,30344989275154E-02 
557	 1,20340415113276E-02 
558	 1,23143588954644E-02 
559	 1,32821990536025E-02 
560	 0,01246975048494 
561	 1,20544338891005E-02 
562	 0,012747188170092 
563	 0,01336877084195 
564	 1,33260000831229E-02 
565	 1,19986413846063E-02 
566	 1,19478986759456E-02 
567	 1,31245599280181E-02 
568	 0,012726111056278 
569	 1,25282292730897E-02 
570	 1,36183104789435E-02 
571	 1,38458152971769E-02 
572	 1,33568252404379E-02 
573	 1,31568360425094E-02 
574	 1,32008662622368E-02 
575	 1,34699982861374E-02 
576	 1,35883944706451E-02 
577	 1,39539938056192E-02 
578	 1,50058243295926E-02 
579	 1,50628043458584E-02 
580	 1,44745821318625E-02 
581	 1,57383738084589E-02 
582	 1,64398627576342E-02 
583	 1,54306466489863E-02 
584	 1,52259689922481E-02 
585	 1,56065478103882E-02 
586	 1,55756560627546E-02 
587	 1,56308129708876E-02 
588	 1,59209872338447E-02 
589	 0,016567595527931 
590	 1,69949391026556E-02 
591	 1,66959392270948E-02 
592	 1,64391149061787E-02 
593	 1,62853857969125E-02 
594	 1,57984626095468E-02 
595	 1,59291795712034E-02 
596	 1,69521952807139E-02 
597	 1,75387486807612E-02 
598	 1,75284889898686E-02 
599	 1,69191148094149E-02 
600	 1,64399866715367E-02 
601	 1,63199197211352E-02 
602	 1,64323155059877E-02 
603	 1,64695555564979E-02 
604	 1,62090168243926E-02 
605	 1,60431111761633E-02 
606	 1,59825599128563E-02 
607	 1,58384156396229E-02 
608	 1,59094130433418E-02 
609	 0,016245138804294 
610	 1,66241265622746E-02 
611	 1,63250712500158E-02 
612	 0,014524931049892 
613	 0,014212749137458 
614	 0,015410556196067 
615	 0,015552575702465 
616	 1,53211899525104E-02 
617	 0,015120925551741 
618	 1,45886046521172E-02 
619	 1,40823897804101E-02 
620	 1,43577898941084E-02 
621	 1,47599586688239E-02 
622	 1,49580671353595E-02 
623	 1,44970541522693E-02 
624	 1,41805116333909E-02 
625	 0,014815453065204 
626	 1,51023078896704E-02 
627	 1,49242115248354E-02 
628	 1,48140329357179E-02 
629	 1,46685125008321E-02 
630	 1,44926163277209E-02 
631	 1,45016521413454E-02 
632	 1,48063492938734E-02 
633	 1,55752070291283E-02 
634	 1,57161664592291E-02 
635	 1,53944376579184E-02 
636	 1,68706152849759E-02 
637	 1,79633345767623E-02 
638	 1,69346153173977E-02 
639	 1,68756143177455E-02 
640	 1,76830608677943E-02 
641	 1,75867949046007E-02 
642	 1,75671534564117E-02 
643	 1,79275086638393E-02 
644	 1,82546887456769E-02 
645	 1,82416122884762E-02 
646	 1,75465489575418E-02 
647	 1,75299324265569E-02 
648	 0,018171988768892 
649	 1,80448060811519E-02 
650	 1,80258918832685E-02 
651	 1,86071643610402E-02 
652	 1,86700442997995E-02 
653	 1,82579133252668E-02 
654	 0,017820975463733 
655	 1,71350933073718E-02 
656	 1,63362716494433E-02 
657	 1,63229558819911E-02 
658	 1,62400159660585E-02 
659	 1,52137948005453E-02 
660	 1,51487711836064E-02 
661	 1,58395305311194E-02 
662	 1,55212058890136E-02 
663	 1,49929105543647E-02 
664	 0,014681824023149 
665	 0,014755622551592 
666	 1,47236560282065E-02 
667	 1,37462713547781E-02 
668	 1,36012359078103E-02 
669	 1,44062744329896E-02 
670	 1,45936955200906E-02 
671	 1,41247129417598E-02 
672	 1,31084336304405E-02 
673	 1,28059744047078E-02 
674	 1,31953729844173E-02 
675	 1,36625038393813E-02 
676	 1,40780635701129E-02 
677	 1,42741282397308E-02 
678	 1,39148787179996E-02 
679	 1,35690216157552E-02 
680	 1,39228798957834E-02 
681	 1,41654329587334E-02 
682	 0,01418365234176 
683	 1,42669687513786E-02 
684	 1,43782847991338E-02 
685	 1,45051388421721E-02 
686	 1,46203254100858E-02 
687	 1,49264306651915E-02 
688	 1,57987596393228E-02 
689	 1,65661076269527E-02 
690	 1,70345819444092E-02 
691	 1,73149321246734E-02 
692	 1,79372091632935E-02 
693	 1,93636622782902E-02 
694	 2,13141242657246E-02 
695	 2,35802594567841E-02 
696	 2,57307266511162E-02 
697	 0,02833975742493 
698	 3,16079950403154E-02 
699	 3,51477131886859E-02 
700	 3,89604447539597E-02 
701	 4,30709453250503E-02 
702	 4,77768724098446E-02 
703	 5,29575195436465E-02 
704	 5,79984489218299E-02 
705	 6,31514658788985E-02 
706	 6,84894516355749E-02 
707	 7,33718335072246E-02 
708	 7,78762963978686E-02 
709	 8,22641441457306E-02 
710	 8,68996078760522E-02 
711	 9,18600755331384E-02 
712	 9,68863968649267E-02 
713	 0,101518842468831 
714	 0,105385975137663 
715	 0,10919032168251 
716	 0,113016806233899 
717	 0,116751451874724 
718	 0,120133954688753 
719	 0,123087730317424 
720	 0,125949062051066 
721	 0,128595303202099 
722	 0,130839093234576 
723	 0,1332273467255 
724	 0,135666454952455 
725	 0,137300590335185 
726	 0,139091970092097 
727	 0,14145884171265 
728	 0,142688937093072 
729	 0,143196886104358 
730	 0,144080224345755 
731	 0,145402985639749 
732	 0,147026938180198 
733	 0,148135414091821 
734	 0,148945395854128 
735	 0,149683756437456 
736	 0,150396825078915 
737	 0,151078118037031 
738	 0,151671237541593 
739	 0,15209679061587 
740	 0,152455931870507 
741	 0,15349633018082 
742	 0,154504982616757 
743	 0,154617517781318 
744	 0,154913589722013 
745	 0,155375529521454 
746	 0,155053282261239 
747	 0,155123120002763 
748	 0,156086479149051 
749	 0,156670939820884 
750	 0,156883481700005 
751	 0,156962485437888 
752	 0,157561825768087 
753	 0,158474816047351 
754	 0,158162691434167 
755	 0,15775579701776 
756	 0,158069858892242 
757	 0,158387820626364 
758	 0,158627037188769 
759	 0,158851437032663 
760	 0,158985936347116 
761	 0,159064691195944 
762	 0,159377541935481 
763	 0,159612279613672 
764	 0,159497090185343 
765	 0,159676113635372 
766	 0,160083706046766 
767	 0,160232180257628 
768	 0,160294352903535 
769	 0,160357014561831 
770	 0,160591151536484 
771	 0,160735472218945 
772	 0,160483232515102 
773	 0,160568337542112 
774	 0,161000094855228 
775	 0,161326824336119 
776	 0,1613033161206 
777	 0,16089966903665 
778	 0,160924822198703 
779	 0,161285674347434 
780	 0,16170446616884 
781	 0,161849402908105 
782	 0,161731165211155 
783	 0,161779031458598 
784	 0,161943256110452 
785	 0,162147405358105 
786	 0,161972332170825 
787	 0,161804851858655 
788	 0,162454205722821 
789	 0,162817044607723 
790	 0,162700184694484 
791	 0,162821001021689 
792	 0,163006710576586 
793	 0,163108217591791 
794	 0,163166465433179 
795	 0,163305965642223 
796	 0,16384366756074 
797	 0,163887462076018 
798	 0,163356774402569 
799	 0,16338292135795 
800	 0,163825875961599 
801	 0,16444666687147 
802	 0,164585397209604 
803	 0,164367526808732 
804	 0,164464348216431 
805	 0,16460297349374 
806	 0,16472561411492 
807	 0,164992851321331 
808	 0,165192872669903 
809	 0,165097383222304 
810	 0,164730012163868 
811	 0,164544685791826 
812	 0,165848492597851 
813	 0,166672393149744 
814	 0,16627856003391 
815	 0,165875531647723 
816	 0,165795238777373 
817	 0,166277397210332 
818	 0,16659503864274 
819	 0,166726011785394 
820	 0,167222946366471 
821	 0,167487770101488 
822	 0,167271763577732 
823	 0,166902202119545 
824	 0,166825183453413 
825	 0,167534816059131 
826	 0,167810615461849 
827	 0,167600082681232 
828	 0,167791245197222 
829	 0,167887920140842 
830	 0,167708928676918 
831	 0,167766725210503 
832	 0,168030428683451 
833	 0,168378157501686 
834	 0,168200219148681 
835	 0,167656979483205 
836	 0,167754918750031 
837	 0,168166167537866 
838	 0,168624128703322 
839	 0,168544339225492 
840	 0,168413465203155 
841	 0,169001409769293 
842	 0,169438245243224 
843	 0,169439748162159 
844	 0,168776688149904 
845	 0,168543651330316 
846	 0,169218035182712 
847	 0,169385590575411 
848	 0,169374836934438 
849	 0,169873138158952 
850	 0,170124872798358 
851	 0,170063049639315 
852	 0,170100056258175 
853	 0,170212134051265 
854	 0,170360543213615 
855	 0,17030997114896 
856	 0,170213835736395 
857	 0,170313878504512 
858	 0,170276571148851 
859	 0,170168901817739 
860	 0,170460945940231 
861	 0,170786442667352 
862	 0,170938462309179 
863	 0,170919019879978 
864	 0,170915885495731 
865	 0,171164808414957 
866	 0,171238021557106 
867	 0,171109469685743 
868	 0,170993233083815 
869	 0,170999679467102 
870	 0,171242846549368 
871	 0,172033003462532 
872	 0,172670132904017 
873	 0,172319872346933 
874	 0,171684672996691 
875	 0,17119215627706 
876	 0,171473673688532 
877	 0,172096731818936 
878	 0,172749438519429 
879	 0,172902527806926 
880	 0,17293836473171 
881	 0,173294181716378 
882	 0,173318754891654 
883	 0,173125179522373 
884	 0,173375681324831 
885	 0,17342640786991 
886	 0,173131262277581 
887	 0,172995097656377 
888	 0,172913288856289 
889	 0,172774806969964 
890	 0,172713880998457 
891	 0,17293012397349 
892	 0,173848643647286 
893	 0,174427019995018 
894	 0,174337699074755 
895	 0,17387287969546 
896	 0,173648696336598 
897	 0,174056841372881 
898	 0,174015429664779 
899	 0,173674729358524 
900	 0,17361201247113 
901	 0,173437727481405 
902	 0,173296316558186 
903	 0,174080414369283 
904	 0,174910301639182 
905	 0,175135361124077 
906	 0,174394863135323 
907	 0,173726020571833 
908	 0,174614474646315 
909	 0,17526253957811 
910	 0,17524270169364 
911	 0,174728617470544 
912	 0,174219402539893 
913	 0,173975594692147 
914	 0,173580252603801 
915	 0,174013821500771 
916	 0,176167875543995 
917	 0,175941846330251 
918	 0,174105667223018 
919	 0,174845996836936 
920	 0,175490166942543 
921	 0,175306375079094 
922	 0,175210327901046 
923	 0,175201288634615 
924	 0,175235218298505 
925	 0,17517050322153 
926	 0,174862586391894 
927	 0,174073391207203 
928	 0,174032667544537 
929	 0,174520006889496 
930	 0,173244771881052 
931	 0,172410750719831 
932	 0,173089076602961 
933	 0,173032741922628 
934	 0,172642499682173 
935	 0,172721624227963 
936	 0,171837283618042 
937	 0,170743027126435 
938	 0,172601093352011 
939	 0,173168313517081 
940	 0,171433539106055 
941	 0,171399346318275 
942	 0,17147270010582 
943	 0,170202896225482 
944	 0,169782093089596 
945	 0,169614259151739 
946	 0,167868723011532 
947	 0,167864998608982 
948	 0,169468352098858 
949	 0,168656506827828 
950	 0,167410620625394 
951	 0,166702019848852 
952	 0,164835217107263 
953	 0,163100027657092 
954	 0,163124888827401 
955	 0,162512317546807 
956	 0,161059341016483 
957	 0,15937851045343 
958	 0,159351202952569 
959	 0,161026812009582 
960	 0,161286117075103 
961	 0,160707728948347 
962	 0,159895609990106 
963	 0,159121003703089 
964	 0,158965797945677 
965	 0,160156615381744 
966	 0,160668325301302 
967	 0,160069842876328 
968	 0,15876047721865 
969	 0,157686182353325 
970	 0,15735428939673 
971	 0,157490391560586 
972	 0,158236956834428 
973	 0,159586369170789 
974	 0,160091778718831 
975	 0,160144346305642 
976	 0,160971098482826 
977	 0,160431132506377 
978	 0,158639124180808 
979	 0,157991475283966 
980	 0,157512580998112 
981	 0,157219972432048 
982	 0,160139736337807 
983	 0,162422439931953 
984	 0,160339999711169 
985	 0,159319584436101 
986	 0,159609523684713 
987	 0,15964627951081 
988	 0,160059272669683 
989	 0,160966034242144 
990	 0,162607959770253 
991	 0,162560155625651 
992	 0,160379593750979 
993	 0,16189253412947 
994	 0,163097593280444 
995	 0,159836372776414 
996	 0,159571558156737 
997	 0,16215021952604 
998	 0,164650605968169 
999	 0,166099623339145 
1000	 0,166308821147838 
1001	 0,166461438053464 
1002	 0,165705130256417 
1003	 0,164562895880388 
1004	 0,168460275089023 
1005	 0,171457909969502 
1006	 0,168082516246131 
1007	 0,16723023968668 
1008	 0,168434442322547 
1009	 0,168084741528118 
1010	 0,166398255650248 
1011	 0,164636892232459 
1012	 0,166524033169816 
1013	 0,170950911179701 
1014	 0,175619496998398 
1015	 0,172258568043671 
1016	 0,169097304217055 
1017	 0,172633313792429 
1018	 0,17230884875322 
1019	 0,169855227201926 
1020	 0,170066249646851 
1021	 0,170908636632278 
1022	 0,172736977648326 
1023	 0,178183005625741 
1024	 0,17970096914355 
1025	 0,175925660634395 
1026	 0,173447033021313 
1027	 0,173572672661056 
1028	 0,176352395882895 
1029	 0,176232795645972 
1030	 0,173947927778098 
1031	 0,171455094304198 
1032	 0,17323863988739 
1033	 0,177375410727281 
1034	 0,178129138734712 
1035	 0,179160121254724 
1036	 0,180457750633029 
1037	 0,178450471849873 
1038	 0,17780363596984 
1039	 0,17980274357921 
1040	 0,178666255762528 
1041	 0,177350026365264 
1042	 0,178634563181265 
1043	 0,18268148352713 
1044	 0,186358919087726 
1045	 0,185584433970012 
1046	 0,188708219549211 
1047	 0,192255644601474 
1048	 0,183853294923398 
1049	 0,180917042126181 
1050	 0,186036855639763 
1051	 0,186729006003495 
1052	 0,183700322757177 
1053	 0,178879787647333 
1054	 0,181255391468501 
1055	 0,183693918057933 
1056	 0,18010830266638 
1057	 0,17846097726011 
1058	 0,179292050864362 
1059	 0,181455442185797 
1060	 0,178077680403107 
1061	 0,174587188586621 
1062	 0,185937120066061 
1063	 0,19096120236364 
1064	 0,18736149665757 
1065	 0,193330581216363 
1066	 0,188888370028594 
1067	 0,17260544624943 
1068	 0,187211992439499 
1069	 0,199963017201149 
1070	 0,187538692557205 
1071	 0,180801703810755 
1072	 0,17923349684422 
1073	 0,177989938586713 
1074	 0,178900029101243 
1075	 0,182914659052829 
