Wavelength	NEUF00527.asd
325	 0,13229268610948 
326	 6,16559277625971E-02 
327	 3,48511365472756E-02 
328	 8,22455385615847E-02 
329	 9,35057322255915E-02 
330	 7,30700080678175E-02 
331	 4,92077347575861E-03 
332	 5,23078430465325E-02 
333	 0,1302502200961 
334	 8,89796528480559E-02 
335	 9,43566957683019E-02 
336	 0,160820964224789 
337	 3,15404892938075E-02 
338	-7,67859840520004E-02 
339	 1,85942303918362E-02 
340	 0,113649058685608 
341	 0,161980216988814 
342	 0,104295431670956 
343	 0,062406427726062 
344	 5,25929974926727E-02 
345	 5,86621569447374E-02 
346	 6,81345992384705E-02 
347	 6,91745013857943E-02 
348	 4,75218658892128E-02 
349	 1,82365826359821E-02 
350	 3,52643239022998E-02 
351	 5,47161802652735E-02 
352	 5,54186491199904E-02 
353	 1,26141804404846E-02 
354	-3,15027093587906E-02 
355	-2,06720762715929E-02 
356	 5,18409641199539E-05 
357	 1,91225263230593E-02 
358	 4,11119967850478E-02 
359	 3,89155985625134E-02 
360	 7,47846267358756E-03 
361	 9,28517027798172E-03 
362	 2,33141167915821E-02 
363	 1,05806415981001E-02 
364	 2,13598372293865E-02 
365	 5,12349558002195E-02 
366	 0,05188333601157 
367	 4,72291611584467E-02 
368	 4,84766443237094E-02 
369	 1,84679731962498E-02 
370	-9,4927104264171E-03 
371	 2,15535860045163E-02 
372	 3,86131685666061E-02 
373	 2,78241103652056E-02 
374	 2,75157122846141E-02 
375	 2,72684182336128E-02 
376	 2,06645090688957E-02 
377	 3,50996404676063E-02 
378	 5,86163562429267E-02 
379	 5,89277311609467E-02 
380	 5,41297953558652E-02 
381	 5,16681476296171E-02 
382	 5,85729983916406E-02 
383	 5,93747465846891E-02 
384	 4,01958778365838E-02 
385	 2,50655992816109E-02 
386	 2,40118956112718E-02 
387	 4,92091233952054E-02 
388	 6,24801507333725E-02 
389	 5,03319586847752E-02 
390	 4,00705886866284E-02 
391	 3,22612184877236E-02 
392	 2,57495925776979E-02 
393	 0,032171216613169 
394	 4,37599977516037E-02 
395	 2,91628820866411E-02 
396	 2,74743288167649E-02 
397	 5,24207268130876E-02 
398	 5,13639719240339E-02 
399	 3,52631454534688E-02 
400	 2,75477379090763E-02 
401	 2,08523107851748E-02 
402	 1,75176344288556E-02 
403	 3,07876108307715E-02 
404	 4,11912186219577E-02 
405	 3,59167251227774E-02 
406	 0,030125726260183 
407	 2,68990526248243E-02 
408	 2,76257106564812E-02 
409	 0,028334517301926 
410	 2,81638510879212E-02 
411	 3,00996179860559E-02 
412	 0,030244712097178 
413	 2,53921996143645E-02 
414	 2,55393495961379E-02 
415	 2,88538178647822E-02 
416	 2,53347770191775E-02 
417	 2,58231225785549E-02 
418	 3,28792087605834E-02 
419	 3,36826261692082E-02 
420	 3,13211502063058E-02 
421	 3,10884949834368E-02 
422	 3,00566276407102E-02 
423	 2,86375364492666E-02 
424	 3,01946166150921E-02 
425	 3,02430264226565E-02 
426	 0,026741508909365 
427	 2,67789570159189E-02 
428	 2,94780413925216E-02 
429	 3,17620191791841E-02 
430	 3,40047154698935E-02 
431	 3,51409380434417E-02 
432	 0,030801455596077 
433	 2,75615841814407E-02 
434	 3,09475272250855E-02 
435	 3,20986905382606E-02 
436	 3,02908688547105E-02 
437	 0,027644824876818 
438	 2,65352882390582E-02 
439	 2,77002930333599E-02 
440	 2,86767938533285E-02 
441	 2,80777737753374E-02 
442	 2,45177629348775E-02 
443	 2,34477037585776E-02 
444	 2,58458163953917E-02 
445	 3,05555168850073E-02 
446	 3,22384740233994E-02 
447	 2,86414283171328E-02 
448	 3,07376930594976E-02 
449	 3,58072689544143E-02 
450	 3,60647521238074E-02 
451	 3,60254869949311E-02 
452	 3,60375472766437E-02 
453	 3,15409326663596E-02 
454	 2,75930364081445E-02 
455	 2,89417490860392E-02 
456	 2,91077226926083E-02 
457	 0,028964268739048 
458	 3,49643920899942E-02 
459	 3,75218951765347E-02 
460	 3,36357903283067E-02 
461	 3,24121716924628E-02 
462	 3,27736639452873E-02 
463	 3,20865337612603E-02 
464	 3,06329655575314E-02 
465	 0,029548004676898 
466	 3,32533154124828E-02 
467	 3,43355126606445E-02 
468	 2,87047543344531E-02 
469	 2,61649730090514E-02 
470	 2,70708262015058E-02 
471	 2,91546197404496E-02 
472	 3,02947693049196E-02 
473	 2,99286295150069E-02 
474	 3,03049691656739E-02 
475	 2,97677305215294E-02 
476	 2,68311524802273E-02 
477	 2,75370068657777E-02 
478	 3,13019070925235E-02 
479	 3,37261067262211E-02 
480	 0,032781955862128 
481	 0,028545164911849 
482	 2,97276521037201E-02 
483	 3,20358241931666E-02 
484	 2,76581841679035E-02 
485	 2,75226475181923E-02 
486	 3,21001523718673E-02 
487	 3,17955662590116E-02 
488	 3,03152492987076E-02 
489	 3,04792042826498E-02 
490	 3,01427948186568E-02 
491	 2,93239367088976E-02 
492	 2,86083232596148E-02 
493	 2,84608972839591E-02 
494	 0,029068232671151 
495	 3,03350630921366E-02 
496	 3,12699441548338E-02 
497	 3,08386926644757E-02 
498	 3,14798013986962E-02 
499	 0,032838568314844 
500	 3,20712537724699E-02 
501	 3,12434230444144E-02 
502	 0,031508116838449 
503	 3,19751047981708E-02 
504	 3,25274570605382E-02 
505	 3,32606020905912E-02 
506	 3,30678297428844E-02 
507	 3,20833856648318E-02 
508	 3,24103568680392E-02 
509	 3,28446171244412E-02 
510	 3,22995305781127E-02 
511	 3,26936512056774E-02 
512	 3,34155927780402E-02 
513	 3,18335567150801E-02 
514	 3,07389586055334E-02 
515	 3,13450622053541E-02 
516	 3,30151854949769E-02 
517	 3,41948173782284E-02 
518	 3,28715819043278E-02 
519	 3,23566501157337E-02 
520	 3,31868246020989E-02 
521	 0,033979296125136 
522	 3,40467446275104E-02 
523	 3,30713927924879E-02 
524	 3,31141576714182E-02 
525	 3,40441443362238E-02 
526	 3,49365901666953E-02 
527	 3,50712670581144E-02 
528	 3,44125549739547E-02 
529	 3,46086246807082E-02 
530	 3,48242940396082E-02 
531	 3,39903695678344E-02 
532	 3,39146682477176E-02 
533	 3,45682650246338E-02 
534	 3,44384889976933E-02 
535	 3,46732389888302E-02 
536	 3,57108217006171E-02 
537	 3,53780427591733E-02 
538	 3,42429705608994E-02 
539	 3,38274959161262E-02 
540	 3,37216733193149E-02 
541	 0,033904776414715 
542	 3,46849736281387E-02 
543	 3,53536719211408E-02 
544	 0,035226568404021 
545	 3,46405821300733E-02 
546	 3,40270455328485E-02 
547	 3,42469095996362E-02 
548	 3,49212335277795E-02 
549	 3,56657587600208E-02 
550	 3,51838460033918E-02 
551	 3,45071507840541E-02 
552	 3,54947392271285E-02 
553	 3,56553192099125E-02 
554	 3,48498619604263E-02 
555	 3,55956334561642E-02 
556	 3,61160187843508E-02 
557	 0,035083918015741 
558	 3,59262779169052E-02 
559	 3,76957486504663E-02 
560	 3,64649310222298E-02 
561	 3,52676855181108E-02 
562	 0,035249724700398 
563	 3,55044944050045E-02 
564	 3,55197042197202E-02 
565	 3,47267394444969E-02 
566	 3,48383782505422E-02 
567	 3,57378529015993E-02 
568	 3,53554089403113E-02 
569	 3,49428875298626E-02 
570	 3,53321513985917E-02 
571	 3,54175738623271E-02 
572	 3,56468242057951E-02 
573	 3,74877123995347E-02 
574	 3,85811756589387E-02 
575	 0,038261382864975 
576	 3,79527055092653E-02 
577	 3,79796851961095E-02 
578	 3,85659935574874E-02 
579	 3,88481381291104E-02 
580	 0,038911075748058 
581	 3,96985736054686E-02 
582	 0,040618666480568 
583	 4,12392726943369E-02 
584	 4,11007895492392E-02 
585	 0,040532098601027 
586	 4,01529421732866E-02 
587	 4,02716850599883E-02 
588	 4,09320551534379E-02 
589	 4,17581798867838E-02 
590	 4,23890253260942E-02 
591	 4,25198055731885E-02 
592	 4,24889381809569E-02 
593	 0,04244281234597 
594	 4,24936226285165E-02 
595	 4,28190242890268E-02 
596	 4,34083110303623E-02 
597	 4,36712752148045E-02 
598	 4,34819507184436E-02 
599	 4,27454876993084E-02 
600	 4,23991447569371E-02 
601	 0,042591073721286 
602	 4,26410701129144E-02 
603	 4,27660655449214E-02 
604	 4,31148111743278E-02 
605	 4,33481934786281E-02 
606	 4,33199191078956E-02 
607	 4,27382600114155E-02 
608	 4,26187417754728E-02 
609	 4,31373495855729E-02 
610	 4,28630951960354E-02 
611	 4,20000576458113E-02 
612	 0,040960809639975 
613	 4,06972456545476E-02 
614	 4,11922256271209E-02 
615	 4,15511047121212E-02 
616	 4,14916493495719E-02 
617	 4,08657270674516E-02 
618	 4,01237178539436E-02 
619	 3,97634722960097E-02 
620	 4,06497072712349E-02 
621	 4,11553367639313E-02 
622	 4,08070358285352E-02 
623	 4,02172791674193E-02 
624	 4,01116372042817E-02 
625	 4,11328053655815E-02 
626	 4,16711679212306E-02 
627	 4,15463541485926E-02 
628	 4,13965524130244E-02 
629	 4,10395333819863E-02 
630	 4,05212238626151E-02 
631	 4,05493488675263E-02 
632	 4,11328272369266E-02 
633	 4,22116805794992E-02 
634	 4,21241018895678E-02 
635	 4,11067547510073E-02 
636	 4,23744612911893E-02 
637	 4,38651974168139E-02 
638	 4,38188648834503E-02 
639	 4,40388749823482E-02 
640	 4,45167378722825E-02 
641	 4,43455925173992E-02 
642	 4,44912383945161E-02 
643	 4,51881863819244E-02 
644	 0,045347375360923 
645	 4,52323455534224E-02 
646	 4,53149078071553E-02 
647	 4,55097007732654E-02 
648	 4,56720412494312E-02 
649	 4,53030393444648E-02 
650	 4,50887204675669E-02 
651	 4,54465002564406E-02 
652	 4,57868627698837E-02 
653	 4,56911830751865E-02 
654	 4,44932493014856E-02 
655	 4,33418375734013E-02 
656	 4,26869987016845E-02 
657	 4,24528844903282E-02 
658	 4,21868178393067E-02 
659	 4,14467053714923E-02 
660	 4,09872056617263E-02 
661	 4,07776895524569E-02 
662	 4,02156341355147E-02 
663	 3,98289273311098E-02 
664	 3,97536932402846E-02 
665	 3,89555190318796E-02 
666	 0,037997973193415 
667	 3,79256664509348E-02 
668	 3,79612065824799E-02 
669	 3,78126040645273E-02 
670	 3,71898376945694E-02 
671	 3,68759133671279E-02 
672	 3,74155636673375E-02 
673	 3,74245006069277E-02 
674	 3,69703613109304E-02 
675	 3,67284413574653E-02 
676	 3,70073196264787E-02 
677	 3,77233916199378E-02 
678	 3,75416211874431E-02 
679	 3,71575747373355E-02 
680	 3,75174026851552E-02 
681	 3,79411329099364E-02 
682	 3,82769943084269E-02 
683	 3,85449327425924E-02 
684	 3,89042680772036E-02 
685	 3,94027170460067E-02 
686	 3,95043281649809E-02 
687	 3,97134769196005E-02 
688	 4,10537834461246E-02 
689	 4,22480917671637E-02 
690	 4,30390688193026E-02 
691	 4,40731178711722E-02 
692	 4,56273044360151E-02 
693	 4,78769613971628E-02 
694	 5,00513761070644E-02 
695	 5,21910625968314E-02 
696	 5,46718157439944E-02 
697	 5,80085012601023E-02 
698	 6,22103752221802E-02 
699	 6,58691519451809E-02 
700	 6,93672838135912E-02 
701	 7,33546636674891E-02 
702	 7,74371218600526E-02 
703	 8,15801755235526E-02 
704	 8,59878585998438E-02 
705	 9,04099393949824E-02 
706	 9,46191311928997E-02 
707	 9,82265016383127E-02 
708	 0,101592109993946 
709	 0,105501413946829 
710	 0,108969091073283 
711	 0,111900597314676 
712	 0,115397123153848 
713	 0,118583404383796 
714	 0,120680099969114 
715	 0,123076287739069 
716	 0,12569495119346 
717	 0,127617906489978 
718	 0,129354453412249 
719	 0,131159822614968 
720	 0,133219579604035 
721	 0,135209897964085 
722	 0,136709127506706 
723	 0,138022924211927 
724	 0,139248225333247 
725	 0,140435153132484 
726	 0,141521655818617 
727	 0,142466289710128 
728	 0,143261967838019 
729	 0,144049876098747 
730	 0,145085941341088 
731	 0,145898865579544 
732	 0,146485553047117 
733	 0,14755615670735 
734	 0,148425023635754 
735	 0,148536379012787 
736	 0,148969731744507 
737	 0,149675119973575 
738	 0,150019685115648 
739	 0,150262239253893 
740	 0,15058080131509 
741	 0,151461423851125 
742	 0,152311048896066 
743	 0,152416122577554 
744	 0,152182648912608 
745	 0,151942169838728 
746	 0,152327668487507 
747	 0,152920372248086 
748	 0,153455166524625 
749	 0,1538168171816 
750	 0,15402918457695 
751	 0,154147793464145 
752	 0,154616048149782 
753	 0,155331753672681 
754	 0,155433708023145 
755	 0,155361359203367 
756	 0,15545404523271 
757	 0,155598288631626 
758	 0,155841302680708 
759	 0,156336313127363 
760	 0,156516639176361 
761	 0,156346369449997 
762	 0,156632608667948 
763	 0,157019223341199 
764	 0,157148107565299 
765	 0,157403182651257 
766	 0,157702317002306 
767	 0,157632202160135 
768	 0,157657950634812 
769	 0,157930124897051 
770	 0,158119655779553 
771	 0,158326493096618 
772	 0,15869008319998 
773	 0,158719537984333 
774	 0,158535558647946 
775	 0,158860892552693 
776	 0,159172700140502 
777	 0,159223782870768 
778	 0,15928664798913 
779	 0,159470306599495 
780	 0,159891279148629 
781	 0,160073274763588 
782	 0,160034149399866 
783	 0,160389791374278 
784	 0,160560817710717 
785	 0,160221804537048 
786	 0,160021600664823 
787	 0,160085055879735 
788	 0,160457795871641 
789	 0,16079080116127 
790	 0,160966332096401 
791	 0,161089281022621 
792	 0,161082601203983 
793	 0,160932592993936 
794	 0,161150701647487 
795	 0,161601129810543 
796	 0,16182326857035 
797	 0,161915673188307 
798	 0,161919212284778 
799	 0,161918045856674 
800	 0,162008706237605 
801	 0,162254165177954 
802	 0,162329194556095 
803	 0,162233261374583 
804	 0,162097087339697 
805	 0,162136281644623 
806	 0,162399487155048 
807	 0,162573418611391 
808	 0,162792687660983 
809	 0,163186804946739 
810	 0,162756526982941 
811	 0,162093019695196 
812	 0,163499665389293 
813	 0,164437305215598 
814	 0,16397783763973 
815	 0,163657266459814 
816	 0,163631313530609 
817	 0,163919084811091 
818	 0,164446131755863 
819	 0,165006580842649 
820	 0,16514837432655 
821	 0,165040878262216 
822	 0,164863085658258 
823	 0,165145100794111 
824	 0,165640134850525 
825	 0,165956623836542 
826	 0,166052956673583 
827	 0,166063959112734 
828	 0,16652927337826 
829	 0,166739582672375 
830	 0,166401140719833 
831	 0,16623428773198 
832	 0,166218281281633 
833	 0,166211313862714 
834	 0,165958875120051 
835	 0,165672612790512 
836	 0,166244670967465 
837	 0,166925651219313 
838	 0,167254721266981 
839	 0,167193583854159 
840	 0,167005736172694 
841	 0,167065908473344 
842	 0,16742410254155 
843	 0,167827463415684 
844	 0,167364780305921 
845	 0,16709704544566 
846	 0,167493198100778 
847	 0,167315526958595 
848	 0,167074923938102 
849	 0,167663648651592 
850	 0,168158957835824 
851	 0,168347405988677 
852	 0,168454208068027 
853	 0,168108062989345 
854	 0,167300448693047 
855	 0,167276687721261 
856	 0,167787863204282 
857	 0,168285277700539 
858	 0,168198008634202 
859	 0,167739383485011 
860	 0,168159785656691 
861	 0,168470803554915 
862	 0,168290590882773 
863	 0,168710071412214 
864	 0,169249220326134 
865	 0,169158628602104 
866	 0,168826012582798 
867	 0,168532229080654 
868	 0,168798548231084 
869	 0,169232439541694 
870	 0,169549326203127 
871	 0,169303599346868 
872	 0,169043479607681 
873	 0,169447459605819 
874	 0,169525952948339 
875	 0,169312292830318 
876	 0,16959533917363 
877	 0,169587975622083 
878	 0,169170067594361 
879	 0,169662254620798 
880	 0,170193923464862 
881	 0,169776090145976 
882	 0,169536373749669 
883	 0,169730421657253 
884	 0,170467662720088 
885	 0,170874216296598 
886	 0,17070589999529 
887	 0,170622419549085 
888	 0,170859818814119 
889	 0,171520596909787 
890	 0,171457241045191 
891	 0,171086943818807 
892	 0,171840485899477 
893	 0,172176763837178 
894	 0,171793206543615 
895	 0,171720945529866 
896	 0,17166638153088 
897	 0,171442974548381 
898	 0,171775345105204 
899	 0,172254544406681 
900	 0,171968602350669 
901	 0,171835553365794 
902	 0,17196726310943 
903	 0,171699429617913 
904	 0,171615729404583 
905	 0,172061774037939 
906	 0,172763548142484 
907	 0,173185277619176 
908	 0,172656598571444 
909	 0,172471586766141 
910	 0,172692806240114 
911	 0,172409057885292 
912	 0,172093725006367 
913	 0,17199321162389 
914	 0,172073996336898 
915	 0,172575345226361 
916	 0,173636703183099 
917	 0,172894902461156 
918	 0,171323502874027 
919	 0,172759226882308 
920	 0,1733477664394 
921	 0,172322660121886 
922	 0,172840530870625 
923	 0,173284991496732 
924	 0,172383830688056 
925	 0,172478398555345 
926	 0,173229562524791 
927	 0,173391436009655 
928	 0,173050282261029 
929	 0,172482579986797 
930	 0,172735265352674 
931	 0,172771232458917 
932	 0,172211662443617 
933	 0,172967312053092 
934	 0,173898611606876 
935	 0,173340071647019 
936	 0,173134332406932 
937	 0,173411667078222 
938	 0,173413387903393 
939	 0,172985145076983 
940	 0,172273778189012 
941	 0,172493259024322 
942	 0,172596992603629 
943	 0,171733089779409 
944	 0,171745334071051 
945	 0,172160707988559 
946	 0,171523135185426 
947	 0,171440161732963 
948	 0,171828541722847 
949	 0,170630374399969 
950	 0,169805913657244 
951	 0,170163706141742 
952	 0,168999242202099 
953	 0,167421876046367 
954	 0,16709829634168 
955	 0,167940488173855 
956	 0,168842871352187 
957	 0,166820363903068 
958	 0,166452123427249 
959	 0,168373861646304 
960	 0,167566704194224 
961	 0,166662213232583 
962	 0,167526070469182 
963	 0,167019972643131 
964	 0,166193422163142 
965	 0,167252424868837 
966	 0,167314768837639 
967	 0,166298485400858 
968	 0,166026092243666 
969	 0,167064322791779 
970	 0,1689788858694 
971	 0,167919193266447 
972	 0,166925278581059 
973	 0,168609901094216 
974	 0,167408273814182 
975	 0,165393703947327 
976	 0,167815737367149 
977	 0,170204084942267 
978	 0,171106220475995 
979	 0,17018042797554 
980	 0,168368664145369 
981	 0,166747245522347 
982	 0,168022865946187 
983	 0,169566138117844 
984	 0,168695614435632 
985	 0,168902582382707 
986	 0,1695760947295 
987	 0,168290742828121 
988	 0,168418346249862 
989	 0,170002322602695 
990	 0,169351433603112 
991	 0,169695864589996 
992	 0,172094317843752 
993	 0,172367085657306 
994	 0,17110205734294 
995	 0,169482154051654 
996	 0,169059985242345 
997	 0,170438589400718 
998	 0,174159700798212 
999	 0,175581447108841 
1000	 0,173941741601247 
1001	 0,171843418706671 
1002	 0,171335748274394 
1003	 0,173316360104448 
1004	 0,175616126806959 
1005	 0,177664892437114 
1006	 0,178894380284569 
1007	 0,176963099268844 
1008	 0,173746542231711 
1009	 0,173127384846007 
1010	 0,17487306319394 
1011	 0,177381015228534 
1012	 0,175351045281631 
1013	 0,174401058814786 
1014	 0,176613453010464 
1015	 0,179042052535963 
1016	 0,179560495342185 
1017	 0,177041798034513 
1018	 0,177180275665074 
1019	 0,177869338594673 
1020	 0,174827782815533 
1021	 0,174336119387659 
1022	 0,176689153472186 
1023	 0,178571853947563 
1024	 0,178852125720904 
1025	 0,177789194400962 
1026	 0,17898334266221 
1027	 0,180792960138947 
1028	 0,181781716205046 
1029	 0,180523983705747 
1030	 0,178850674470588 
1031	 0,178859222464326 
1032	 0,176203009567696 
1033	 0,174090647163333 
1034	 0,18047509559674 
1035	 0,180871630509876 
1036	 0,17558341159209 
1037	 0,181247106005672 
1038	 0,184597349505232 
1039	 0,180784339138967 
1040	 0,178347038442919 
1041	 0,17802321199444 
1042	 0,179982981477376 
1043	 0,184027313726125 
1044	 0,18765290104967 
1045	 0,187512563279168 
1046	 0,182430879059433 
1047	 0,177072031953126 
1048	 0,182167742091443 
1049	 0,186956249771944 
1050	 0,18816514658962 
1051	 0,188403244128813 
1052	 0,18496414611972 
1053	 0,179828937772529 
1054	 0,19083866480489 
1055	 0,198630427133189 
1056	 0,18754109596452 
1057	 0,183978516112643 
1058	 0,183943692885052 
1059	 0,176982213033407 
1060	 0,17994269806549 
1061	 0,188838798107634 
1062	 0,187640244071603 
1063	 0,187179620637808 
1064	 0,189714959961252 
1065	 0,193269317335921 
1066	 0,188315533150866 
1067	 0,176719435472503 
1068	 0,193493773768426 
1069	 0,204643439224649 
1070	 0,187422489666959 
1071	 0,179618988929613 
1072	 0,18647500985267 
1073	 0,206042332525733 
1074	 0,201796931641237 
1075	 0,18751500049813 
