Wavelength	NEUF00212.asd
325	 0,154808507861943 
326	-0,129028026103221 
327	-0,159546412595371 
328	 8,85034328376874E-02 
329	 0,112110383388382 
330	 8,80373657259001E-02 
331	 0,121877172996405 
332	 0,148821107122347 
333	 0,156644780805499 
334	 0,181633630066841 
335	 0,254122384961174 
336	 0,350507002198377 
337	 0,228867850150743 
338	 7,44260394167915E-02 
339	 6,65580049860811E-02 
340	 0,100927522239846 
341	 0,154572736176419 
342	 0,203016731851311 
343	 0,206836687437363 
344	 0,18041722839507 
345	 0,228265200266932 
346	 0,268361187172952 
347	 0,222666159447856 
348	 0,192482833007614 
349	 0,183767819665677 
350	 0,156684091422502 
351	 0,18603501290193 
352	 0,265505609482816 
353	 0,240338898372122 
354	 0,187946249764152 
355	 0,215439434485272 
356	 0,248719985606509 
357	 0,266276556866153 
358	 0,257034365769778 
359	 0,244785038736804 
360	 0,240851724213679 
361	 0,252152391969057 
362	 0,261551906049646 
363	 0,246311333202864 
364	 0,252218335114247 
365	 0,277848119740072 
366	 0,282949274197868 
367	 0,284708247871785 
368	 0,290991512935011 
369	 0,275140484663248 
370	 0,252509106454597 
371	 0,248875666696215 
372	 0,262978102130903 
373	 0,284461130724694 
374	 0,27619360599281 
375	 0,26064093509596 
376	 0,257924515122587 
377	 0,285021823055738 
378	 0,315911492640155 
379	 0,286411565424598 
380	 0,290930013509473 
381	 0,339410005722556 
382	 0,335268955183498 
383	 0,309374067577158 
384	 0,293945509272261 
385	 0,299954603499623 
386	 0,317727378418766 
387	 0,317087746163707 
388	 0,310992612868449 
389	 0,305339075467665 
390	 0,301937947835013 
391	 0,299697750696796 
392	 0,297374417558258 
393	 0,305248820706532 
394	 0,318511386019191 
395	 0,318177355856083 
396	 0,31540103868539 
397	 0,316594169201063 
398	 0,322863810859612 
399	 0,326708405111648 
400	 0,316464700699507 
401	 0,311813242839779 
402	 0,316810727693739 
403	 0,327646198574004 
404	 0,331416696407116 
405	 0,320701598486992 
406	 0,312794955474662 
407	 0,310160547715857 
408	 0,311791931124292 
409	 0,317159749693639 
410	 0,323436997786855 
411	 0,319969341595802 
412	 0,31643103463575 
413	 0,321696796125601 
414	 0,32227213763266 
415	 0,319058766462024 
416	 0,320441616136802 
417	 0,321861514716536 
418	 0,32173466822168 
419	 0,321639014479262 
420	 0,323166207106279 
421	 0,328154712838251 
422	 0,326561652696703 
423	 0,319750241170367 
424	 0,319320575617774 
425	 0,321006454555188 
426	 0,322137452126867 
427	 0,32356651406931 
428	 0,324885914842353 
429	 0,325188704453245 
430	 0,327760351458088 
431	 0,331259166853895 
432	 0,325516624517468 
433	 0,320232487203727 
434	 0,324003328117286 
435	 0,328651557805026 
436	 0,330959369308888 
437	 0,326529412478983 
438	 0,323859762432588 
439	 0,325790328882592 
440	 0,326333462420078 
441	 0,3254394314814 
442	 0,323738940643009 
443	 0,323717142663033 
444	 0,32580356065252 
445	 0,329472062277472 
446	 0,331034527149605 
447	 0,328832041481286 
448	 0,329547769479299 
449	 0,331933111871712 
450	 0,331787278335703 
451	 0,333028267476565 
452	 0,335736268867839 
453	 0,335163935984318 
454	 0,333680856011972 
455	 0,333698568797765 
456	 0,333592603103963 
457	 0,334363636565185 
458	 0,339915203749765 
459	 0,342820281757451 
460	 0,340525092985528 
461	 0,339185543419238 
462	 0,33849781093037 
463	 0,33719400917946 
464	 0,338206793641949 
465	 0,340834604790792 
466	 0,340436687260358 
467	 0,338684785101818 
468	 0,336910042590357 
469	 0,336271568329805 
470	 0,33726541867146 
471	 0,340675947752132 
472	 0,342197899197319 
473	 0,340869877599338 
474	 0,339885834386215 
475	 0,339451146564796 
476	 0,33957206533087 
477	 0,33993519148434 
478	 0,340539276643911 
479	 0,341605552741609 
480	 0,343141373040407 
481	 0,344704466833383 
482	 0,34379189754043 
483	 0,341536708425973 
484	 0,339748104579276 
485	 0,342117214329608 
486	 0,347083023032143 
487	 0,34524536803511 
488	 0,341782564163153 
489	 0,340762859419488 
490	 0,340465148494195 
491	 0,340493326945338 
492	 0,340276248509825 
493	 0,341218535741039 
494	 0,343161805176636 
495	 0,342841356406898 
496	 0,341401360233509 
497	 0,340430632945729 
498	 0,34215427974042 
499	 0,345212961032365 
500	 0,343776308531428 
501	 0,342728426460211 
502	 0,344548720319135 
503	 0,345448712324517 
504	 0,345413143888859 
505	 0,345138971523153 
506	 0,346255541350779 
507	 0,348559414735841 
508	 0,348815750956922 
509	 0,348780019462902 
510	 0,350104253167461 
511	 0,351542327300013 
512	 0,352505445948886 
513	 0,351906050414029 
514	 0,352165779045079 
515	 0,354035289207246 
516	 0,354833984865823 
517	 0,355012019416595 
518	 0,355547240121489 
519	 0,35691317426767 
520	 0,358491601962727 
521	 0,357606525105603 
522	 0,356617241708765 
523	 0,357201141871058 
524	 0,357762236756676 
525	 0,357979223524488 
526	 0,357746740476683 
527	 0,357232047345624 
528	 0,356705914162474 
529	 0,357123323700115 
530	 0,357662829950681 
531	 0,357328357610048 
532	 0,356900703262418 
533	 0,356574720424698 
534	 0,356316626056135 
535	 0,356305737155759 
536	 0,356530789515769 
537	 0,355895287116608 
538	 0,35516944306679 
539	 0,35607753711349 
540	 0,35660727556555 
541	 0,356328377485052 
542	 0,356429041894028 
543	 0,356642554125329 
544	 0,356651446515423 
545	 0,356315254179504 
546	 0,356104746028341 
547	 0,357492926222304 
548	 0,35843762501711 
549	 0,358107162862907 
550	 0,358354601725911 
551	 0,358926727583604 
552	 0,359095341293044 
553	 0,359458764877689 
554	 0,359891210070064 
555	 0,35931080016627 
556	 0,358488321303678 
557	 0,358093406007242 
558	 0,357864434315601 
559	 0,357616727007568 
560	 0,356996540204663 
561	 0,356265316337405 
562	 0,355611666122566 
563	 0,355461485753209 
564	 0,35528321415297 
565	 0,354329706703906 
566	 0,35422167120481 
567	 0,35506441009671 
568	 0,355651250651914 
569	 0,356264247346358 
570	 0,357117351832209 
571	 0,358409677561402 
572	 0,359795440161292 
573	 0,360399516559537 
574	 0,361508369291495 
575	 0,363385833721661 
576	 0,36477850690186 
577	 0,366098594577369 
578	 0,367893796297794 
579	 0,369338369749704 
580	 0,370434191033837 
581	 0,371809718511989 
582	 0,373084950414066 
583	 0,374115001615074 
584	 0,375412403100775 
585	 0,376958253555116 
586	 0,378663864434832 
587	 0,37969153036168 
588	 0,38017147285907 
589	 0,382032705679394 
590	 0,383781316141988 
591	 0,384009507552211 
592	 0,384221644636078 
593	 0,384679432043187 
594	 0,385188419386343 
595	 0,385877521279051 
596	 0,386660008870604 
597	 0,386714701206634 
598	 0,386298318431208 
599	 0,385909195809729 
600	 0,38590461604841 
601	 0,386061762307043 
602	 0,384944293621597 
603	 0,384077994936881 
604	 0,38455646181019 
605	 0,384236443858272 
606	 0,38315051224449 
607	 0,382238360628129 
608	 0,381581635428282 
609	 0,381208480111337 
610	 0,380829551259484 
611	 0,38011259872492 
612	 0,37870216078892 
613	 0,377859341863058 
614	 0,377653134876384 
615	 0,377121361584293 
616	 0,37669066778899 
617	 0,376569022502653 
618	 0,376073787468635 
619	 0,375526675022073 
620	 0,375792329263019 
621	 0,375794424706613 
622	 0,375304044050773 
623	 0,375046124276116 
624	 0,375003988502218 
625	 0,375123374750708 
626	 0,375683169873489 
627	 0,37640516673974 
628	 0,376372772713192 
629	 0,376250243193379 
630	 0,376448630867038 
631	 0,377257782480275 
632	 0,378161255059969 
633	 0,378235977529154 
634	 0,379013516444143 
635	 0,380603117687393 
636	 0,381459379190094 
637	 0,382369048582117 
638	 0,38397374904311 
639	 0,385191615870638 
640	 0,385947445349876 
641	 0,386551276119628 
642	 0,38723675861721 
643	 0,388087998882472 
644	 0,388892506127311 
645	 0,389334364733168 
646	 0,389045777910725 
647	 0,38910491029068 
648	 0,389471122481036 
649	 0,389001736235305 
650	 0,388224672074404 
651	 0,387477101593817 
652	 0,386434697057153 
653	 0,385129375224947 
654	 0,383678220067766 
655	 0,3821726527779 
656	 0,380721097030208 
657	 0,379638305089512 
658	 0,378297678484722 
659	 0,37607571395595 
660	 0,374224764656478 
661	 0,372745003553821 
662	 0,370819938696574 
663	 0,36870125338459 
664	 0,366572205694006 
665	 0,364698427066099 
666	 0,363259039485988 
667	 0,362471910844804 
668	 0,361684448443924 
669	 0,360654194380078 
670	 0,359277471325155 
671	 0,358183647140182 
672	 0,357846795294035 
673	 0,35753550226759 
674	 0,357228552104178 
675	 0,357250850387181 
676	 0,357171612592776 
677	 0,356892797508426 
678	 0,356836289294478 
679	 0,356954554575409 
680	 0,357148392197558 
681	 0,357578795723391 
682	 0,358276387396145 
683	 0,359078004004171 
684	 0,360561169632854 
685	 0,363007736293306 
686	 0,365659537017639 
687	 0,368510522004992 
688	 0,371699030652745 
689	 0,375676972704428 
690	 0,380540710137726 
691	 0,385851267436922 
692	 0,39195687853452 
693	 0,39912830351579 
694	 0,406691643315177 
695	 0,414705838052141 
696	 0,423670264501619 
697	 0,43300672920873 
698	 0,442411434671905 
699	 0,451809498407355 
700	 0,461236103402447 
701	 0,470702964801794 
702	 0,480203377539102 
703	 0,489513005975984 
704	 0,497951462100767 
705	 0,50610302985373 
706	 0,514273464389677 
707	 0,521784009712087 
708	 0,528606764011996 
709	 0,534798771940194 
710	 0,540940717715363 
711	 0,547140755190583 
712	 0,552894561881858 
713	 0,558098521916228 
714	 0,562693298571541 
715	 0,566896381466112 
716	 0,570714147520108 
717	 0,573946436030862 
718	 0,57729661660825 
719	 0,580919196469449 
720	 0,5836888860785 
721	 0,586019969413028 
722	 0,588582067556315 
723	 0,590653656238426 
724	 0,592348558550587 
725	 0,59468044848127 
726	 0,596473569256414 
727	 0,597137122593881 
728	 0,598260461652806 
729	 0,599668622592108 
730	 0,60062867142481 
731	 0,601539300996859 
732	 0,602521010154836 
733	 0,603613441565286 
734	 0,604571102437409 
735	 0,605186368029776 
736	 0,605665192158536 
737	 0,606082375670315 
738	 0,606503000320478 
739	 0,606910568180784 
740	 0,607291463265112 
741	 0,607600821394661 
742	 0,607822566614125 
743	 0,607948779253068 
744	 0,608196466649071 
745	 0,608508995953003 
746	 0,608535804315243 
747	 0,608553149372359 
748	 0,608733677075721 
749	 0,609200276292023 
750	 0,60957750575888 
751	 0,609268631150334 
752	 0,609181051576832 
753	 0,609407080334505 
754	 0,609251998687008 
755	 0,609068461515316 
756	 0,609114770074239 
757	 0,60917753736307 
758	 0,609313089735748 
759	 0,609762204063376 
760	 0,609715879928686 
761	 0,609135217533384 
762	 0,609207151234916 
763	 0,609420593765801 
764	 0,609266678470003 
765	 0,609405746286859 
766	 0,609673940385133 
767	 0,60932608725411 
768	 0,609020147467712 
769	 0,608995676135069 
770	 0,608967530313463 
771	 0,608989177310655 
772	 0,609140312186827 
773	 0,609027854917703 
774	 0,608778440119485 
775	 0,609113309686209 
776	 0,609227951772676 
777	 0,608767543249866 
778	 0,608385768039476 
779	 0,608259016785243 
780	 0,608533623264469 
781	 0,60823486229237 
782	 0,607448778684271 
783	 0,607438438357272 
784	 0,607812661923538 
785	 0,608182738736912 
786	 0,607622858500375 
787	 0,606718227672832 
788	 0,606731747401626 
789	 0,606968167980279 
790	 0,607107036439463 
791	 0,606794183079085 
792	 0,606093689765015 
793	 0,605165042843886 
794	 0,604878655453536 
795	 0,605147905296196 
796	 0,605507472701392 
797	 0,605434332204049 
798	 0,604860434509346 
799	 0,604570198361969 
800	 0,604459149982972 
801	 0,604350200681853 
802	 0,603641550405183 
803	 0,602722213167134 
804	 0,602861687031159 
805	 0,603089602848152 
806	 0,603029474748996 
807	 0,602728070296906 
808	 0,602465343917925 
809	 0,60250942463634 
810	 0,601985247946011 
811	 0,601316804911759 
812	 0,602167717573296 
813	 0,60317487738768 
814	 0,603607018544432 
815	 0,602937530886201 
816	 0,602313357615115 
817	 0,603109115089928 
818	 0,604067413053835 
819	 0,604718716801672 
820	 0,604664802945103 
821	 0,60423890988418 
822	 0,603822829528829 
823	 0,604517282413855 
824	 0,605630141121086 
825	 0,606129116867908 
826	 0,605992299773875 
827	 0,605492388047947 
828	 0,605516338158223 
829	 0,605740360944983 
830	 0,605964838998874 
831	 0,606017687422189 
832	 0,605899885755367 
833	 0,605653942250912 
834	 0,605285764764354 
835	 0,605011143735982 
836	 0,605491681857984 
837	 0,605882702845319 
838	 0,605735793708918 
839	 0,605543771752489 
840	 0,605225561884577 
841	 0,60459403115845 
842	 0,604613713604273 
843	 0,605183271328164 
844	 0,60516803301925 
845	 0,604823089194734 
846	 0,604321583820693 
847	 0,603825131739243 
848	 0,603656569502919 
849	 0,604202891820372 
850	 0,604716542195721 
851	 0,604939112753431 
852	 0,604823290516746 
853	 0,60451790003143 
854	 0,604184771506015 
855	 0,604235826287624 
856	 0,604332742714227 
857	 0,603958421300158 
858	 0,603812568500143 
859	 0,603850731158361 
860	 0,603298334108673 
861	 0,603063793702851 
862	 0,603510087150354 
863	 0,603705828284808 
864	 0,603599434466974 
865	 0,603273411983306 
866	 0,603103075435323 
867	 0,603245228767067 
868	 0,603904633298782 
869	 0,604182412223655 
870	 0,603777374206582 
871	 0,603860389720322 
872	 0,604083592015163 
873	 0,603899185345346 
874	 0,603295201962339 
875	 0,602685247865066 
876	 0,603298101285128 
877	 0,60359827219529 
878	 0,603080711563968 
879	 0,602979282761078 
880	 0,603028565263312 
881	 0,602865841062379 
882	 0,603020425146842 
883	 0,603405039601003 
884	 0,603513234804835 
885	 0,603783151822867 
886	 0,604143385538408 
887	 0,603458648895741 
888	 0,602812459724832 
889	 0,603147931188271 
890	 0,602206806016093 
891	 0,600962208412272 
892	 0,602426325716045 
893	 0,6036876593998 
894	 0,603803858101374 
895	 0,603252477187483 
896	 0,602744248444175 
897	 0,60279487568534 
898	 0,602619553000578 
899	 0,60243917568342 
900	 0,602862622237538 
901	 0,603000759901724 
902	 0,602801818108418 
903	 0,603147542641508 
904	 0,603295004798151 
905	 0,602907517947021 
906	 0,603261212831936 
907	 0,603503210813405 
908	 0,602246816332297 
909	 0,602174429521524 
910	 0,603119740223227 
911	 0,60244081509927 
912	 0,601324166565191 
913	 0,600532617624063 
914	 0,601011056012261 
915	 0,601836943735769 
916	 0,601906324512697 
917	 0,602000214453983 
918	 0,602147774220853 
919	 0,602089602937852 
920	 0,601833983571831 
921	 0,601407947143289 
922	 0,600918553192725 
923	 0,600517715308133 
924	 0,600301235072412 
925	 0,59997338931476 
926	 0,599425156880917 
927	 0,598488774882379 
928	 0,598939726210008 
929	 0,600478301627636 
930	 0,600204129730138 
931	 0,59899277093369 
932	 0,597596314232116 
933	 0,597088080529263 
934	 0,597601765421128 
935	 0,599009698086491 
936	 0,59849238524341 
937	 0,59655710321788 
938	 0,596481213694753 
939	 0,596896437921388 
940	 0,597185449682277 
941	 0,596901876707389 
942	 0,595860135397038 
943	 0,594175043504395 
944	 0,594350454431459 
945	 0,595375776076712 
946	 0,594629761933277 
947	 0,593045125949491 
948	 0,591508611443064 
949	 0,592204954552826 
950	 0,593117664868869 
951	 0,592921852502295 
952	 0,591600149280198 
953	 0,589486922320916 
954	 0,587137231456411 
955	 0,586966180471486 
956	 0,588103136348523 
957	 0,586841307086104 
958	 0,586271169213194 
959	 0,586850129725342 
960	 0,58565907680075 
961	 0,584724235264396 
962	 0,585421923595072 
963	 0,585195539087529 
964	 0,584164234164589 
965	 0,583081187332853 
966	 0,583830098054916 
967	 0,585609846613192 
968	 0,584535532716641 
969	 0,582517633342138 
970	 0,580886513827841 
971	 0,581845499585535 
972	 0,583117781694756 
973	 0,582558839968773 
974	 0,582066041538852 
975	 0,581612055316541 
976	 0,58057226885737 
977	 0,580845101682612 
978	 0,582203788919316 
979	 0,58192796710374 
980	 0,581892910892045 
981	 0,582730346781445 
982	 0,582459505510546 
983	 0,581703951931503 
984	 0,581278145159982 
985	 0,581428295155233 
986	 0,581421949532156 
987	 0,579668140119515 
988	 0,579461435442829 
989	 0,581062965799174 
990	 0,581745600525213 
991	 0,581985476734008 
992	 0,582180076958816 
993	 0,583532157229191 
994	 0,584284354871814 
995	 0,582697444341436 
996	 0,581450403171294 
997	 0,581607991669568 
998	 0,584230069012472 
999	 0,584715307091775 
1000	 0,583377364385722 
1001	 0,586804006086063 
1002	 0,58887323439435 
1003	 0,587037795221995 
1004	 0,586077328581313 
1005	 0,585758417427889 
1006	 0,585422339178281 
1007	 0,584309422336374 
1008	 0,582820144193631 
1009	 0,581859271372763 
1010	 0,582502477217634 
1011	 0,584747349093212 
1012	 0,587857880685115 
1013	 0,589171641125883 
1014	 0,587718265141735 
1015	 0,585862228032093 
1016	 0,584087613109259 
1017	 0,582971353587599 
1018	 0,584562619159884 
1019	 0,586624981095835 
1020	 0,585546686321507 
1021	 0,585732284410912 
1022	 0,58758900601421 
1023	 0,589480618358161 
1024	 0,589657813057382 
1025	 0,587937819628294 
1026	 0,586872096983247 
1027	 0,585900232354313 
1028	 0,584694161486114 
1029	 0,583060692757431 
1030	 0,584398071251399 
1031	 0,591601620226576 
1032	 0,588825095893088 
1033	 0,581284163353203 
1034	 0,585683516572431 
1035	 0,589251969719698 
1036	 0,589025089104186 
1037	 0,587032424091659 
1038	 0,5878803893168 
1039	 0,592574047398228 
1040	 0,594074586000665 
1041	 0,590928706285331 
1042	 0,583686667425709 
1043	 0,582386031548792 
1044	 0,58443057748055 
1045	 0,584180814233455 
1046	 0,58302344891962 
1047	 0,581357692204078 
1048	 0,578979738089292 
1049	 0,585986165482514 
1050	 0,598730388423119 
1051	 0,592088066546263 
1052	 0,582211034312035 
1053	 0,579093033254141 
1054	 0,587159156810655 
1055	 0,593775088053731 
1056	 0,588679925338599 
1057	 0,587217101570031 
1058	 0,585294729760019 
1059	 0,574892956462319 
1060	 0,575997785440141 
1061	 0,584226694064123 
1062	 0,580801800346296 
1063	 0,571130672241944 
1064	 0,562687471595213 
1065	 0,576161323826819 
1066	 0,585772291560596 
1067	 0,582230109894169 
1068	 0,587779722881983 
1069	 0,588603931056842 
1070	 0,576265158967557 
1071	 0,573544006301625 
1072	 0,572611651626608 
1073	 0,562602749680868 
1074	 0,573965377932062 
1075	 0,592409012072854 
