Wavelength	NEUF00658.asd
325	 0,236057284530567 
326	 1,85953588443215E-02 
327	-2,61417907625233E-02 
328	 0,151542588447157 
329	 0,247578036050457 
330	 0,254184132972955 
331	 9,63145980973798E-02 
332	 4,02589944505077E-02 
333	 0,113631108329709 
334	 0,190523515473976 
335	 0,22085208090213 
336	 0,183667674533649 
337	 0,163505350343439 
338	 0,15109565941671 
339	 0,128945799989824 
340	 5,71064064547273E-02 
341	 1,48645099914281E-05 
342	 0,134160131314974 
343	 0,190946246940141 
344	 0,147421206890648 
345	 0,142554579847118 
346	 0,13520555175086 
347	 7,67675669800554E-02 
348	 0,03275558260981 
349	 1,74363581463387E-02 
350	 4,54952580620871E-02 
351	 6,87896908172252E-02 
352	 7,01128012755659E-02 
353	 6,02572963070902E-02 
354	 4,56751218963194E-02 
355	 3,45293931459155E-02 
356	 3,45131218628593E-02 
357	 4,32672247337479E-02 
358	 5,15380442639497E-02 
359	 5,29793234039521E-02 
360	 4,78589306735204E-02 
361	 6,30061564580485E-02 
362	 7,29549353877448E-02 
363	 4,10925105266128E-02 
364	 3,22004771872301E-02 
365	 5,52840092678824E-02 
366	 8,34093952541647E-02 
367	 8,80218494372596E-02 
368	 5,21838680774929E-02 
369	 2,07866705910067E-02 
370	 1,74274272248881E-02 
371	 6,46684440108403E-02 
372	 0,066234550598617 
373	 1,79459372378443E-02 
374	 2,70603535800109E-02 
375	 4,14778194366104E-02 
376	 2,32047311928101E-02 
377	 3,63510994016604E-02 
378	 0,061795566599191 
379	 3,43519128162365E-02 
380	 4,19013709245597E-02 
381	 9,01062226324825E-02 
382	 7,50422659117214E-02 
383	 0,04553463307015 
384	 4,85139564320017E-02 
385	 3,62013187549503E-02 
386	 1,69992313468314E-02 
387	 3,14743146816299E-02 
388	 0,053308543409189 
389	 6,55048450949671E-02 
390	 4,84556409766268E-02 
391	 2,42288308160014E-02 
392	 2,15654763720219E-02 
393	 2,38555518730222E-02 
394	 2,61721522070586E-02 
395	 2,41063472984936E-02 
396	 2,78188860245424E-02 
397	 3,95924239143598E-02 
398	 4,03623421832496E-02 
399	 3,48147467607459E-02 
400	 3,24463568549164E-02 
401	 2,85776632106178E-02 
402	 2,50130178259542E-02 
403	 3,09281269538873E-02 
404	 3,87354150356977E-02 
405	 4,18807151155867E-02 
406	 3,24503627455772E-02 
407	 1,85697784985504E-02 
408	 1,70879375314644E-02 
409	 2,40238597331642E-02 
410	 3,33510249442037E-02 
411	 2,35527452711314E-02 
412	 1,12613977717241E-02 
413	 0,012601397032203 
414	 1,69998009956881E-02 
415	 2,16519827083302E-02 
416	 2,53949019241518E-02 
417	 2,71199346831679E-02 
418	 2,62022628477955E-02 
419	 2,14980710734785E-02 
420	 1,97949920574818E-02 
421	 2,91802727367359E-02 
422	 0,032198531937958 
423	 2,74889613109612E-02 
424	 2,46805830653203E-02 
425	 2,22890148990855E-02 
426	 1,98562577177662E-02 
427	 2,02748317551129E-02 
428	 2,17013809061308E-02 
429	 2,01835368863211E-02 
430	 2,06237722862381E-02 
431	 2,32293434445646E-02 
432	 2,26233521551933E-02 
433	 2,12908327950948E-02 
434	 2,15266520900289E-02 
435	 2,08053805912091E-02 
436	 1,94614221679853E-02 
437	 1,91206361363171E-02 
438	 2,04832438003509E-02 
439	 2,28422703950402E-02 
440	 2,00481318250546E-02 
441	 1,69248521247909E-02 
442	 2,01662142226646E-02 
443	 2,13509534639314E-02 
444	 1,96756878545661E-02 
445	 1,94193405333186E-02 
446	 2,02036503214265E-02 
447	 2,19180871048771E-02 
448	 2,61784097952903E-02 
449	 2,88459575501745E-02 
450	 2,15613643682675E-02 
451	 1,89924346426378E-02 
452	 2,33140977591324E-02 
453	 2,12777581746434E-02 
454	 1,90982683139355E-02 
455	 2,26739397301058E-02 
456	 2,21918757959648E-02 
457	 1,92173415122043E-02 
458	 2,28615702617981E-02 
459	 2,66965466099148E-02 
460	 2,76355836105798E-02 
461	 2,49048484815608E-02 
462	 2,07642893170058E-02 
463	 1,82950276396234E-02 
464	 1,81400526529846E-02 
465	 1,96919069179848E-02 
466	 2,03608210082806E-02 
467	 0,019515500558533 
468	 1,72110886098776E-02 
469	 1,80490122587898E-02 
470	 0,020752286093785 
471	 2,15395621653956E-02 
472	 2,16241663489934E-02 
473	 2,12993198481373E-02 
474	 2,09024713946141E-02 
475	 1,91856833446078E-02 
476	 1,51636616727896E-02 
477	 1,50988860361261E-02 
478	 1,81430401818371E-02 
479	 1,83159023788155E-02 
480	 1,83765396636754E-02 
481	 1,93925224271977E-02 
482	 2,04154560579631E-02 
483	 2,00332341569153E-02 
484	 1,61765536543851E-02 
485	 1,61565479131555E-02 
486	 2,02437610717726E-02 
487	 2,14987316539583E-02 
488	 2,14928211458888E-02 
489	 2,13947034297211E-02 
490	 1,96998652337209E-02 
491	 1,75605628151246E-02 
492	 1,78383641323918E-02 
493	 1,86766179046552E-02 
494	 1,94999483378383E-02 
495	 2,11723085421675E-02 
496	 2,17082450247285E-02 
497	 1,89556170689109E-02 
498	 1,81752049101165E-02 
499	 1,95431198790877E-02 
500	 1,96320147615461E-02 
501	 1,93099064285626E-02 
502	 1,91233479865564E-02 
503	 1,96082183398309E-02 
504	 2,03587184614485E-02 
505	 2,05948803017326E-02 
506	 0,020355332355169 
507	 1,99218074646551E-02 
508	 2,06714635257964E-02 
509	 2,06817597181034E-02 
510	 1,84224528037384E-02 
511	 1,88840044554254E-02 
512	 2,09393668693295E-02 
513	 0,019043588943868 
514	 1,75751332864651E-02 
515	 1,83291027969056E-02 
516	 1,99233503636467E-02 
517	 2,10240437100635E-02 
518	 2,00239982338997E-02 
519	 1,95483120811133E-02 
520	 1,99613001351408E-02 
521	 1,98488040057585E-02 
522	 1,95060953025713E-02 
523	 1,91973110491378E-02 
524	 1,92385208081881E-02 
525	 1,94919079976045E-02 
526	 0,019610251885015 
527	 1,91948390955737E-02 
528	 1,84816204272865E-02 
529	 0,019509009635957 
530	 2,09360136417294E-02 
531	 2,10893423217367E-02 
532	 2,06473598448844E-02 
533	 2,00526437114061E-02 
534	 2,01458500420122E-02 
535	 2,04657637649365E-02 
536	 2,06299532811365E-02 
537	 1,98897799184738E-02 
538	 1,88588831137776E-02 
539	 1,87949187753567E-02 
540	 1,90748567255211E-02 
541	 1,94703526759757E-02 
542	 1,99225439430705E-02 
543	 2,00197493454866E-02 
544	 1,94251037762051E-02 
545	 0,019265572774516 
546	 1,96111032804763E-02 
547	 0,020000087425231 
548	 2,01657827413938E-02 
549	 1,99398631628611E-02 
550	 1,92467650836825E-02 
551	 1,87949060962021E-02 
552	 1,96908224257265E-02 
553	 2,00185597300584E-02 
554	 1,96507599094474E-02 
555	 2,06345044346614E-02 
556	 2,11511610065153E-02 
557	 1,98160354016005E-02 
558	 1,94953390022087E-02 
559	 2,00251725358504E-02 
560	 1,96530606657165E-02 
561	 1,91638199499419E-02 
562	 1,88977255335372E-02 
563	 1,91082225944635E-02 
564	 0,019301792838474 
565	 1,88042604612973E-02 
566	 1,88061357469336E-02 
567	 1,93470183115583E-02 
568	 0,019470824351576 
569	 1,93672471948062E-02 
570	 1,92383274329827E-02 
571	 1,97000085972443E-02 
572	 2,04715530315035E-02 
573	 0,020782853571188 
574	 2,07837959569685E-02 
575	 2,05450153137012E-02 
576	 2,01461941783399E-02 
577	 2,02952963361532E-02 
578	 2,16990562218351E-02 
579	 2,15056124155054E-02 
580	 2,01136591725819E-02 
581	 0,020878390097172 
582	 2,21321342121465E-02 
583	 2,28712528078958E-02 
584	 2,31292276772897E-02 
585	 2,30167217882371E-02 
586	 2,27567248686695E-02 
587	 2,23558096003148E-02 
588	 2,20146563614893E-02 
589	 2,23824362291949E-02 
590	 2,29633104510556E-02 
591	 2,32657104296927E-02 
592	 2,35015267044056E-02 
593	 2,35595896266557E-02 
594	 2,29160937137957E-02 
595	 2,29233637670313E-02 
596	 2,40044840568601E-02 
597	 2,42808806050737E-02 
598	 0,02405117563993 
599	 2,40812824512944E-02 
600	 2,39644408773717E-02 
601	 2,37152294726053E-02 
602	 2,37992639126632E-02 
603	 2,36043558092298E-02 
604	 2,27592337805473E-02 
605	 2,29248063159938E-02 
606	 2,36219128643082E-02 
607	 2,29373337713839E-02 
608	 0,022492617538824 
609	 2,27340685027058E-02 
610	 2,25474459934818E-02 
611	 2,21933009978624E-02 
612	 2,21014668294702E-02 
613	 0,021982221791587 
614	 2,18161870663458E-02 
615	 2,18155336824351E-02 
616	 2,15614522483221E-02 
617	 2,08906837358501E-02 
618	 2,08087691588049E-02 
619	 2,12442859589224E-02 
620	 2,18277108308405E-02 
621	 2,19372416801494E-02 
622	 2,14775015251258E-02 
623	 2,11996063280211E-02 
624	 2,12397227971502E-02 
625	 0,02166744849201 
626	 2,21022972795703E-02 
627	 2,22492804560017E-02 
628	 2,14598424606863E-02 
629	 2,11612504146346E-02 
630	 2,19400911558837E-02 
631	 2,20891288377768E-02 
632	 2,18931840795171E-02 
633	 2,21482631271395E-02 
634	 2,23949493663725E-02 
635	 2,26229463545818E-02 
636	 2,33163041551282E-02 
637	 2,39415662373092E-02 
638	 2,40639768359506E-02 
639	 2,43052762466601E-02 
640	 2,46352477461156E-02 
641	 2,46741120489047E-02 
642	 2,47110885335333E-02 
643	 2,48637666874282E-02 
644	 2,50773138730811E-02 
645	 2,52889304150807E-02 
646	 2,54253007941947E-02 
647	 2,55235269228224E-02 
648	 2,55423466152869E-02 
649	 2,52451139745119E-02 
650	 2,52479789561676E-02 
651	 2,58452801714329E-02 
652	 0,025711659987818 
653	 2,50643118652715E-02 
654	 2,47650562567841E-02 
655	 2,43540158330491E-02 
656	 2,37775594053265E-02 
657	 2,33879096408623E-02 
658	 2,31245259857747E-02 
659	 2,28969712675467E-02 
660	 2,26182152836802E-02 
661	 2,23395164091179E-02 
662	 2,23208327227771E-02 
663	 0,022135011059125 
664	 2,16064292520752E-02 
665	 2,11836288556554E-02 
666	 2,08153813079474E-02 
667	 2,03093325528654E-02 
668	 2,02407280119634E-02 
669	 2,05883055481389E-02 
670	 2,06704301341604E-02 
671	 2,03939996672734E-02 
672	 1,97694016316117E-02 
673	 1,96614937163832E-02 
674	 1,99587407379597E-02 
675	 1,99855097140321E-02 
676	 2,01301469971834E-02 
677	 2,04328780802473E-02 
678	 0,020440588634323 
679	 2,02675460940205E-02 
680	 2,00968083818203E-02 
681	 2,00958080273876E-02 
682	 2,03131332314858E-02 
683	 2,07361116712606E-02 
684	 2,11518319686614E-02 
685	 2,14279347460478E-02 
686	 0,021592603460599 
687	 2,19454231646264E-02 
688	 2,30380052865471E-02 
689	 2,36831676858533E-02 
690	 2,38791790143384E-02 
691	 2,52962675638623E-02 
692	 2,70047141746668E-02 
693	 2,81616613693685E-02 
694	 2,98375417663023E-02 
695	 3,21851453762626E-02 
696	 3,50177210397975E-02 
697	 3,82669281982852E-02 
698	 4,18724283529189E-02 
699	 4,57686738906145E-02 
700	 4,99646826330831E-02 
701	 5,44565649444259E-02 
702	 0,059498621054994 
703	 6,49887163621892E-02 
704	 7,04573662928399E-02 
705	 7,58544920258994E-02 
706	 8,10862361760219E-02 
707	 0,085815118152735 
708	 9,02962935616574E-02 
709	 9,50558619216716E-02 
710	 9,97662855407183E-02 
711	 0,104371507584354 
712	 0,1091534738357 
713	 0,113494064952811 
714	 0,116871355555044 
715	 0,120282272158456 
716	 0,123850312198867 
717	 0,127415026255526 
718	 0,130576871628305 
719	 0,133166658449293 
720	 0,135353657560398 
721	 0,137527420437502 
722	 0,140149785939212 
723	 0,14251557298608 
724	 0,144417613795594 
725	 0,14576915559553 
726	 0,147212117969904 
727	 0,149061576347717 
728	 0,150335583696038 
729	 0,151269505680756 
730	 0,152486694907948 
731	 0,154006871354725 
732	 0,155635662337322 
733	 0,156502218259357 
734	 0,157098220097937 
735	 0,157900442625649 
736	 0,15899197411464 
737	 0,160136335606088 
738	 0,160735337224351 
739	 0,161010351347416 
740	 0,161219975092297 
741	 0,162286436652161 
742	 0,163495629999595 
743	 0,163946460639308 
744	 0,164036519261031 
745	 0,164037019771053 
746	 0,164400997115058 
747	 0,165138644540883 
748	 0,166166065660144 
749	 0,16683523769283 
750	 0,167272543907519 
751	 0,167805314307734 
752	 0,168374975421883 
753	 0,16888539889082 
754	 0,168980524322179 
755	 0,169159836201587 
756	 0,16974903679674 
757	 0,170108037633065 
758	 0,170349375365743 
759	 0,170917179059767 
760	 0,171398794720188 
761	 0,171721182506257 
762	 0,172227238650031 
763	 0,172674619185067 
764	 0,172856146020787 
765	 0,173416207708395 
766	 0,174186450497258 
767	 0,174401568767026 
768	 0,174630156368684 
769	 0,175058073185904 
770	 0,175343655887318 
771	 0,175738345775554 
772	 0,176548760748043 
773	 0,177021173250831 
774	 0,177185247873708 
775	 0,177754522210622 
776	 0,178076439360275 
777	 0,177929293352156 
778	 0,178194067283491 
779	 0,178847080084558 
780	 0,179711332935568 
781	 0,180029532980309 
782	 0,179819600630759 
783	 0,179930303591449 
784	 0,180374405031652 
785	 0,181091039323251 
786	 0,181475674655919 
787	 0,181595263998192 
788	 0,181719422536093 
789	 0,18214145689737 
790	 0,182854878890773 
791	 0,18343619991626 
792	 0,183690177685183 
793	 0,18353599939583 
794	 0,183723576006972 
795	 0,184219265439252 
796	 0,184678780219964 
797	 0,184929587811658 
798	 0,18500624377053 
799	 0,185391720797276 
800	 0,186119083340579 
801	 0,187120124259344 
802	 0,187330007139317 
803	 0,187039939945636 
804	 0,187476756777388 
805	 0,188216319523462 
806	 0,189034833794269 
807	 0,189468591188555 
808	 0,189867859559512 
809	 0,190600514769794 
810	 0,19043173245726 
811	 0,18991991388579 
812	 0,191374677475992 
813	 0,192501311172676 
814	 0,192464632644015 
815	 0,192615390847153 
816	 0,193016939582304 
817	 0,193600657786609 
818	 0,194177055211476 
819	 0,194673280125802 
820	 0,195088280682293 
821	 0,195270144223717 
822	 0,195285868842422 
823	 0,195974637487658 
824	 0,196941258152058 
825	 0,197570955562648 
826	 0,197858440285978 
827	 0,198009482512595 
828	 0,198734115531299 
829	 0,199326656177373 
830	 0,199506847886546 
831	 0,200068145520007 
832	 0,200731360628218 
833	 0,201010340019312 
834	 0,200932950854243 
835	 0,200826344484364 
836	 0,201692781246091 
837	 0,202649566000664 
838	 0,203197915089236 
839	 0,203568102157477 
840	 0,203854889998344 
841	 0,204162759326725 
842	 0,204670499659858 
843	 0,205257466257983 
844	 0,20538086135954 
845	 0,20541525151055 
846	 0,20559990740925 
847	 0,206000766715749 
848	 0,206480418218229 
849	 0,206831055403885 
850	 0,207449640056666 
851	 0,208151385605602 
852	 0,208037659058418 
853	 0,207891798720624 
854	 0,208148525272652 
855	 0,208575110639821 
856	 0,208989170427196 
857	 0,209179960384891 
858	 0,209378481663437 
859	 0,209594109889919 
860	 0,20961536008215 
861	 0,209852398014478 
862	 0,210486770507022 
863	 0,211142238291 
864	 0,211786144800168 
865	 0,212434501032981 
866	 0,212954293436892 
867	 0,213259827786639 
868	 0,213155350471817 
869	 0,213251074651639 
870	 0,213814096348186 
871	 0,214448199473056 
872	 0,214910343832373 
873	 0,214980924124824 
874	 0,215298822985531 
875	 0,215947038609453 
876	 0,216743614332928 
877	 0,21739363037132 
878	 0,217781623308737 
879	 0,218146961541971 
880	 0,218620818735003 
881	 0,21931535058025 
882	 0,220047073323432 
883	 0,220806168674325 
884	 0,22176361586175 
885	 0,222311795969249 
886	 0,22237590682181 
887	 0,222838494428131 
888	 0,223407993881622 
889	 0,223761483938552 
890	 0,223905313740992 
891	 0,224197555047225 
892	 0,225433957951343 
893	 0,226471788046173 
894	 0,226995508412704 
895	 0,227542644012764 
896	 0,227894537588801 
897	 0,227916930368572 
898	 0,22810969351633 
899	 0,228325709944923 
900	 0,228118161447136 
901	 0,228620464046496 
902	 0,229746237658493 
903	 0,229897913329639 
904	 0,229978886092379 
905	 0,230537379968661 
906	 0,231115342143061 
907	 0,231660692439359 
908	 0,232171243520501 
909	 0,232714667792043 
910	 0,23315153792865 
911	 0,232985572970639 
912	 0,232880012320227 
913	 0,233106815548354 
914	 0,233061995135123 
915	 0,233362222467029 
916	 0,234643289480266 
917	 0,23512589203158 
918	 0,234906472400012 
919	 0,235200577956016 
920	 0,235492240333678 
921	 0,235627865945454 
922	 0,235587162247796 
923	 0,235658727719686 
924	 0,236027331996186 
925	 0,236064283274438 
926	 0,235784514258661 
927	 0,235365549242782 
928	 0,23573658803459 
929	 0,236642860834735 
930	 0,236046634054192 
931	 0,235643633290341 
932	 0,236237061254129 
933	 0,235965371437681 
934	 0,23543250214702 
935	 0,235633740367263 
936	 0,235120924009201 
937	 0,234401158256721 
938	 0,235970907746271 
939	 0,23631828770528 
940	 0,234737924085079 
941	 0,235243910977046 
942	 0,235536158603041 
943	 0,233704016623364 
944	 0,233981198753571 
945	 0,235064241163501 
946	 0,233253687504761 
947	 0,23185676130505 
948	 0,231726430134839 
949	 0,232430935580089 
950	 0,232460463709797 
951	 0,23099089523988 
952	 0,228910381077885 
953	 0,22755698812798 
954	 0,228259531197502 
955	 0,22783241576318 
956	 0,226202382426188 
957	 0,224910634142057 
958	 0,224623809705932 
959	 0,225228723491051 
960	 0,224497097133029 
961	 0,224835938187415 
962	 0,227438588554181 
963	 0,225925932906269 
964	 0,222772863239853 
965	 0,223093594167798 
966	 0,224431757304002 
967	 0,225544850201564 
968	 0,224363327563219 
969	 0,223611420517205 
970	 0,224233434861114 
971	 0,224249206710896 
972	 0,224438228415478 
973	 0,225412304287467 
974	 0,224540503726492 
975	 0,223660400557599 
976	 0,226809688071028 
977	 0,227901140236979 
978	 0,22642433610583 
979	 0,226822451581212 
980	 0,227013983969172 
981	 0,226496859207346 
982	 0,22850283837178 
983	 0,230146650916427 
984	 0,228591700945444 
985	 0,228371967642357 
986	 0,22944089365417 
987	 0,230094576813844 
988	 0,230028589742526 
989	 0,229502950989072 
990	 0,229990889339841 
991	 0,230405913269543 
992	 0,230518388817556 
993	 0,232736848778289 
994	 0,234517129838938 
995	 0,233269032560183 
996	 0,232938418741898 
997	 0,234133830418511 
998	 0,23662094203943 
999	 0,2373910008647 
1000	 0,236736629771676 
1001	 0,239385890880937 
1002	 0,241096871509989 
1003	 0,240323965450587 
1004	 0,241671519008943 
1005	 0,242826302471271 
1006	 0,241486595282227 
1007	 0,241026158116758 
1008	 0,241590828219323 
1009	 0,242306373217044 
1010	 0,244093618185512 
1011	 0,246138480066071 
1012	 0,244716030553921 
1013	 0,246209436152239 
1014	 0,25162045700894 
1015	 0,250768869775667 
1016	 0,248250269342804 
1017	 0,2485415608796 
1018	 0,251418028249862 
1019	 0,253126940508158 
1020	 0,248455613135327 
1021	 0,249781652764594 
1022	 0,256948626275154 
1023	 0,261667434743265 
1024	 0,259420314988957 
1025	 0,251560279163611 
1026	 0,252095764539268 
1027	 0,25532194586528 
1028	 0,257020269121953 
1029	 0,257388465990837 
1030	 0,256559797405866 
1031	 0,255079067819669 
1032	 0,256872071760543 
1033	 0,2605709480741 
1034	 0,261963261105771 
1035	 0,260368567112179 
1036	 0,257920685528241 
1037	 0,263741873159251 
1038	 0,26337947558648 
1039	 0,254388533797832 
1040	 0,262218514374554 
1041	 0,269985345068076 
1042	 0,264454897918826 
1043	 0,264022297965032 
1044	 0,268561113131702 
1045	 0,274114521834099 
1046	 0,273490144303708 
1047	 0,268676308878405 
1048	 0,26798912689825 
1049	 0,271073081536543 
1050	 0,275686639923366 
1051	 0,273855293774584 
1052	 0,268203705832939 
1053	 0,263475241716096 
1054	 0,27695965431192 
1055	 0,286366105377512 
1056	 0,274162653370982 
1057	 0,274347263079242 
1058	 0,277261228845099 
1059	 0,263992449360266 
1060	 0,26703398980819 
1061	 0,280705993631126 
1062	 0,277178179124012 
1063	 0,280306949636255 
1064	 0,290954208815992 
1065	 0,288159821873621 
1066	 0,281874280553605 
1067	 0,278763853652413 
1068	 0,288287459589047 
1069	 0,292440262168036 
1070	 0,279485481650963 
1071	 0,26877408392454 
1072	 0,268268924439462 
1073	 0,282862004522014 
1074	 0,289832395906986 
1075	 0,288675812630759 
