Wavelength	NEUF00451.asd
325	 0,208517648593984 
326	-6,84066315075322E-02 
327	-0,14420104732204 
328	 5,35672748646249E-02 
329	 8,35788927842722E-02 
330	 8,64692884280684E-02 
331	 0,150342501220577 
332	 0,100369875429004 
333	 2,63330398718669E-02 
334	 8,05725401317424E-02 
335	 0,125759003513414 
336	 0,105670749156475 
337	-0,053593726257094 
338	-0,132724429509924 
339	 1,69643051830531E-02 
340	 7,39586925039652E-02 
341	 5,42884937131381E-02 
342	 8,65152221344087E-02 
343	 7,82662390010463E-02 
344	 3,17696251945176E-02 
345	 8,35149680581922E-02 
346	 0,136374292778867 
347	 9,33471007010489E-02 
348	 0,016913892715642 
349	-3,87788787681237E-02 
350	 5,77266043919896E-02 
351	 0,132384980135845 
352	 0,127518363442839 
353	 7,59540363878596E-02 
354	 3,86236722155835E-02 
355	 8,74105193156786E-02 
356	 8,29623146685533E-02 
357	 3,98989666454682E-02 
358	 8,27167141703262E-02 
359	 0,106763542610484 
360	 7,55709152087703E-02 
361	 6,77303872747421E-02 
362	 7,50882804442776E-02 
363	 7,23745901314581E-02 
364	 8,61214631790038E-02 
365	 0,108295658006987 
366	 0,098403235309872 
367	 9,52520444807501E-02 
368	 0,118581167592177 
369	 0,105733580472455 
370	 7,86099355686884E-02 
371	 8,51044860091791E-02 
372	 9,47291048673807E-02 
373	 9,81186677432854E-02 
374	 9,21901404480441E-02 
375	 9,36560602541558E-02 
376	 0,11246734499057 
377	 0,109603375019768 
378	 0,095104979989361 
379	 0,102761977089272 
380	 0,111353695774957 
381	 0,116641134947562 
382	 0,136250109768746 
383	 0,144619680121492 
384	 0,119042191765476 
385	 0,107823763672015 
386	 0,112010094682075 
387	 0,104086223254339 
388	 0,105405480462625 
389	 0,118516759617804 
390	 0,111660362058052 
391	 0,10073825223379 
392	 0,10745415378946 
393	 0,118101568305192 
394	 0,12737750339016 
395	 0,129286819585292 
396	 0,132292698144767 
397	 0,13858252731565 
398	 0,13270979708898 
399	 0,122955551748499 
400	 0,123456340277001 
401	 0,124563915151416 
402	 0,124589170960601 
403	 0,127084683467887 
404	 0,127097262173389 
405	 0,122107009198942 
406	 0,122639955175543 
407	 0,125463952782915 
408	 0,120158307526862 
409	 0,122910451109547 
410	 0,132856579093999 
411	 0,123691007439777 
412	 0,111931769558627 
413	 0,113660101764277 
414	 0,115387921618687 
415	 0,116251461094811 
416	 0,121331284097659 
417	 0,122824917991477 
418	 0,118126955757842 
419	 0,111748186094782 
420	 0,110425288448412 
421	 0,121485208274857 
422	 0,123510275754491 
423	 0,117198153845405 
424	 0,122318925345174 
425	 0,126733118879798 
426	 0,123786873146657 
427	 0,124253115727786 
428	 0,126507901250462 
429	 0,125126593275448 
430	 0,124625610488718 
431	 0,125997769445331 
432	 0,127849812206904 
433	 0,128480638145199 
434	 0,126619039801961 
435	 0,125743086237029 
436	 0,125555328954312 
437	 0,123387350663066 
438	 0,122011943131797 
439	 0,122138443408281 
440	 0,120874742372138 
441	 0,11925991137026 
442	 0,118906916373591 
443	 0,120401745132627 
444	 0,123185775153133 
445	 0,125272333132717 
446	 0,125670253806756 
447	 0,124350985853489 
448	 0,126435110466988 
449	 0,130326675271885 
450	 0,131753179471739 
451	 0,133586821307786 
452	 0,135422648660739 
453	 0,1317203695337 
454	 0,128638637323495 
455	 0,131820412544764 
456	 0,132128300060448 
457	 0,130885892038755 
458	 0,137147460583994 
459	 0,139251540884657 
460	 0,133843137196159 
461	 0,13313409343272 
462	 0,135019409707237 
463	 0,13511521775438 
464	 0,133473592212837 
465	 0,131566309964951 
466	 0,135187469063546 
467	 0,136871080937776 
468	 0,132386333943476 
469	 0,130551726138949 
470	 0,131747507105646 
471	 0,134212716886732 
472	 0,134899505201622 
473	 0,133428534201237 
474	 0,134071891222493 
475	 0,13468318119406 
476	 0,133057902555259 
477	 0,132541833837298 
478	 0,133446028143513 
479	 0,134955479704748 
480	 0,135018101054131 
481	 0,133121256920238 
482	 0,13359232547186 
483	 0,134286788494298 
484	 0,13123678375617 
485	 0,132097211447275 
486	 0,136488537122971 
487	 0,135052602848865 
488	 0,132778004133477 
489	 0,133438294025969 
490	 0,134230339263866 
491	 0,134352984466099 
492	 0,132911622539262 
493	 0,131647521345431 
494	 0,131326919824211 
495	 0,132129292975897 
496	 0,133117979887402 
497	 0,133252686780703 
498	 0,133229018517539 
499	 0,133165866670397 
500	 0,132806468538825 
501	 0,13305367555449 
502	 0,134236311187392 
503	 0,134275538050573 
504	 0,134613866090212 
505	 0,138460990671262 
506	 0,140001080236666 
507	 0,138463704853745 
508	 0,138609754862424 
509	 0,139843526279771 
510	 0,141384247150636 
511	 0,142869065772405 
512	 0,1435482325509 
513	 0,141598120783494 
514	 0,14046929748164 
515	 0,141662846494972 
516	 0,143988283525354 
517	 0,145657123871432 
518	 0,144431974127121 
519	 0,144125196242867 
520	 0,145237461743581 
521	 0,145678112482425 
522	 0,145611983883687 
523	 0,145274845535708 
524	 0,145763707109624 
525	 0,146595420253874 
526	 0,146225430772847 
527	 0,146090388399613 
528	 0,146580841814426 
529	 0,147067483070908 
530	 0,147157581440369 
531	 0,146483848962722 
532	 0,14588538591012 
533	 0,145641750616019 
534	 0,14585029049209 
535	 0,146295973328773 
536	 0,14670841841193 
537	 0,146087535495899 
538	 0,145150038307422 
539	 0,145429351463932 
540	 0,145834944304057 
541	 0,146062227594109 
542	 0,146337140213692 
543	 0,146669927158983 
544	 0,147037338710893 
545	 0,146756131985139 
546	 0,14628526406241 
547	 0,147348523228003 
548	 0,148090298940317 
549	 0,147701846496571 
550	 0,147308999120255 
551	 0,147372758385583 
552	 0,148427614382148 
553	 0,148821715694093 
554	 0,148336811483635 
555	 0,148349748233441 
556	 0,148114334134275 
557	 0,147055283069403 
558	 0,146352159692238 
559	 0,145921892799826 
560	 0,144909807326799 
561	 0,144200976131954 
562	 0,144089342476288 
563	 0,144125644151672 
564	 0,143689397670166 
565	 0,142033376686877 
566	 0,141934944182479 
567	 0,143308150030712 
568	 0,143034526741449 
569	 0,143033221903758 
570	 0,144540832570588 
571	 0,145775130106128 
572	 0,146713546783566 
573	 0,147864360854839 
574	 0,149538784010837 
575	 0,151700833245848 
576	 0,153315328253347 
577	 0,15513739937939 
578	 0,15804804491708 
579	 0,159710757997352 
580	 0,160281426862867 
581	 0,162015651217055 
582	 0,1637781502332 
583	 0,165000572438744 
584	 0,166411168532874 
585	 0,167869858548499 
586	 0,168998345225313 
587	 0,169865491338276 
588	 0,170648072785232 
589	 0,17203259473747 
590	 0,173386307740967 
591	 0,17411055818497 
592	 0,174756077321619 
593	 0,175408068930776 
594	 0,175970613743506 
595	 0,176615734589437 
596	 0,177309534672147 
597	 0,177389970004901 
598	 0,17696479674387 
599	 0,176283730916801 
600	 0,175955179838136 
601	 0,175973741641484 
602	 0,175523931558851 
603	 0,174887866111448 
604	 0,174272479049166 
605	 0,173153188055444 
606	 0,171988581100525 
607	 0,172133438211009 
608	 0,172039902424941 
609	 0,171128064399318 
610	 0,169890872500433 
611	 0,168487011684609 
612	 0,167057877888083 
613	 0,166485450050161 
614	 0,166656024584742 
615	 0,16647708998127 
616	 0,16598038194058 
617	 0,165209980695455 
618	 0,164503559513429 
619	 0,1638859877522 
620	 0,163236868319857 
621	 0,162948612681465 
622	 0,163040777026318 
623	 0,162877323933246 
624	 0,162879425729614 
625	 0,163493672734626 
626	 0,164131399337158 
627	 0,164536612799919 
628	 0,16427648409214 
629	 0,164581722192121 
630	 0,165908763949563 
631	 0,166456374276203 
632	 0,166598736170649 
633	 0,167265763374517 
634	 0,168419820660783 
635	 0,16986370372712 
636	 0,170753119633266 
637	 0,17160031971479 
638	 0,172872031468326 
639	 0,174534796308664 
640	 0,176211241066315 
641	 0,177025408995123 
642	 0,177647167599332 
643	 0,178379727192215 
644	 0,179326813383696 
645	 0,180113159178244 
646	 0,180249106448709 
647	 0,180246900020217 
648	 0,180164282717345 
649	 0,179755703705931 
650	 0,179029513664559 
651	 0,178022470435578 
652	 0,177097035454801 
653	 0,175917670554665 
654	 0,17359808572326 
655	 0,171731271065086 
656	 0,170565012230476 
657	 0,168408903570286 
658	 0,165825098283614 
659	 0,163494464309824 
660	 0,161333537960386 
661	 0,159242690179957 
662	 0,156923063039913 
663	 0,154558984435524 
664	 0,152336632898936 
665	 0,150786276967582 
666	 0,149506041999866 
667	 0,14777971148986 
668	 0,146183212195469 
669	 0,144914124178086 
670	 0,144038011516524 
671	 0,143290931079926 
672	 0,142494508578355 
673	 0,142190772024723 
674	 0,142218863490288 
675	 0,14204307706298 
676	 0,141676318630773 
677	 0,141177422449838 
678	 0,140887076380618 
679	 0,140969149978605 
680	 0,141565008821315 
681	 0,14245208526507 
682	 0,143563462997312 
683	 0,144846318993314 
684	 0,146558855705682 
685	 0,148810871921366 
686	 0,150984434872559 
687	 0,153675997089953 
688	 0,158039707294336 
689	 0,162982075119853 
690	 0,168318709579133 
691	 0,174677161612921 
692	 0,182062935995208 
693	 0,190421730417524 
694	 0,199427964563752 
695	 0,209341226902288 
696	 0,221054294322517 
697	 0,232977813499863 
698	 0,244591933166054 
699	 0,257375633294914 
700	 0,270621326109327 
701	 0,28319766885316 
702	 0,296062727844377 
703	 0,309101942471098 
704	 0,321327454689579 
705	 0,332804716282998 
706	 0,343594880017137 
707	 0,354005503097325 
708	 0,364005628668079 
709	 0,373391987908701 
710	 0,382281843279282 
711	 0,390666966188009 
712	 0,398340442109271 
713	 0,405476748763728 
714	 0,412231321045075 
715	 0,418184633812543 
716	 0,423570843356855 
717	 0,429206966970028 
718	 0,434460059959838 
719	 0,439059311780131 
720	 0,443041443201172 
721	 0,44662206313858 
722	 0,450080497889626 
723	 0,453241352198526 
724	 0,456168688684468 
725	 0,459201345467572 
726	 0,461870784925042 
727	 0,463929707131108 
728	 0,465968249521868 
729	 0,468000309753133 
730	 0,469874452126135 
731	 0,471723112813586 
732	 0,473504608113239 
733	 0,474928999190789 
734	 0,476043711496571 
735	 0,476931862183762 
736	 0,477977827557512 
737	 0,479136968941884 
738	 0,480115383440638 
739	 0,480919971877645 
740	 0,481587315462757 
741	 0,482363664007062 
742	 0,483156719704761 
743	 0,483836041576558 
744	 0,484381049646004 
745	 0,484785308749575 
746	 0,484987195827144 
747	 0,485426980295149 
748	 0,486287563187363 
749	 0,487005927136639 
750	 0,487540090590531 
751	 0,487944910110282 
752	 0,488237773983521 
753	 0,488457590538926 
754	 0,488646107161618 
755	 0,489000014159843 
756	 0,489613204972526 
757	 0,489921078539947 
758	 0,490097775359216 
759	 0,490693303395841 
760	 0,491210588512729 
761	 0,49153650953365 
762	 0,491990609862369 
763	 0,492307272792713 
764	 0,492259734052204 
765	 0,492444200163443 
766	 0,492882510033244 
767	 0,493350891842685 
768	 0,493607538878653 
769	 0,493612935234023 
770	 0,493815634175807 
771	 0,494200147407375 
772	 0,494692052208431 
773	 0,495002045632014 
774	 0,495147414893477 
775	 0,495450069327572 
776	 0,495636831005221 
777	 0,49559949402554 
778	 0,495606872618341 
779	 0,495701684073614 
780	 0,495892451388292 
781	 0,496151625147115 
782	 0,496400977319854 
783	 0,496406116638034 
784	 0,496502423566488 
785	 0,496827992508187 
786	 0,496465478943775 
787	 0,496065558020261 
788	 0,4970199688912 
789	 0,497669900436854 
790	 0,497655335052335 
791	 0,497795265549227 
792	 0,497903268564304 
793	 0,49784123489055 
794	 0,497862041491614 
795	 0,498047226667309 
796	 0,498515122118324 
797	 0,498670276904185 
798	 0,498444600571469 
799	 0,498588661893232 
800	 0,498910426728517 
801	 0,499173831712694 
802	 0,499139442825653 
803	 0,498979248597928 
804	 0,499222030080612 
805	 0,499677046702764 
806	 0,500203938882902 
807	 0,500449296061625 
808	 0,500558314069856 
809	 0,500709698705327 
810	 0,500620327114261 
811	 0,500454859317223 
812	 0,500813084932594 
813	 0,501120823098445 
814	 0,501184799099997 
815	 0,501469283926213 
816	 0,501667187214204 
817	 0,501401021889391 
818	 0,501664317664496 
819	 0,502422107365385 
820	 0,502948036316999 
821	 0,502996640160417 
822	 0,502586160166318 
823	 0,502737483413237 
824	 0,503315991422164 
825	 0,50399125800245 
826	 0,503862723062134 
827	 0,503161907861661 
828	 0,503358831953116 
829	 0,503697709024987 
830	 0,503808899024384 
831	 0,503915457064284 
832	 0,504153993790358 
833	 0,504678726073958 
834	 0,504742718912965 
835	 0,504365722890383 
836	 0,504201623294268 
837	 0,504411100312544 
838	 0,504978466303482 
839	 0,505073717518724 
840	 0,504853523370607 
841	 0,504681264248957 
842	 0,505011105851395 
843	 0,505673520469302 
844	 0,505734826733667 
845	 0,50547075746398 
846	 0,505121778348283 
847	 0,50517816859186 
848	 0,50557885183401 
849	 0,506140114750602 
850	 0,506414137868678 
851	 0,506277752264821 
852	 0,50579871069029 
853	 0,505338490896172 
854	 0,505166669849007 
855	 0,505434054147811 
856	 0,505984501029884 
857	 0,506579746861515 
858	 0,506576488570971 
859	 0,50604509697 
860	 0,505692063327847 
861	 0,505844460288548 
862	 0,506557778228992 
863	 0,506812529658367 
864	 0,506957376630983 
865	 0,507579398575335 
866	 0,50739354828855 
867	 0,506677091532075 
868	 0,507088115407765 
869	 0,508117201431806 
870	 0,509272005256884 
871	 0,509239577630563 
872	 0,508550642911979 
873	 0,508023964145457 
874	 0,507803115386026 
875	 0,507964610387701 
876	 0,508529150224602 
877	 0,509099155031285 
878	 0,509414661552454 
879	 0,509286875852022 
880	 0,509024939213509 
881	 0,508983133566851 
882	 0,509109884314122 
883	 0,509400393235597 
884	 0,509880764172985 
885	 0,510259149907772 
886	 0,510388748240503 
887	 0,510235652677122 
888	 0,510069494719345 
889	 0,510099065459933 
890	 0,509519228851981 
891	 0,508884931534523 
892	 0,50972843416411 
893	 0,510305526542755 
894	 0,510206285446202 
895	 0,510411409057829 
896	 0,510560977840715 
897	 0,510397373141727 
898	 0,510426740357708 
899	 0,510645239089397 
900	 0,510890955748714 
901	 0,511325614304812 
902	 0,511821990360611 
903	 0,511826600124674 
904	 0,511623613476109 
905	 0,511468726027341 
906	 0,511801164533871 
907	 0,512132532952015 
908	 0,511707855505032 
909	 0,511610237105493 
910	 0,511921400808763 
911	 0,512047250931507 
912	 0,511938765531547 
913	 0,511677720790098 
914	 0,512009375996336 
915	 0,512288981992035 
916	 0,511797608924016 
917	 0,51181918269324 
918	 0,512565875177137 
919	 0,514075227845934 
920	 0,514345689592613 
921	 0,513105649811457 
922	 0,513020085491594 
923	 0,512710648495601 
924	 0,511181874892892 
925	 0,511238994663667 
926	 0,512207958382002 
927	 0,51209462064706 
928	 0,511864446711274 
929	 0,511652471019135 
930	 0,51103276573913 
931	 0,510575475091276 
932	 0,510556860657989 
933	 0,510301713289764 
934	 0,510183565261238 
935	 0,510716854390584 
936	 0,509841473074294 
937	 0,508212051257818 
938	 0,508974805886372 
939	 0,509749815811413 
940	 0,509568254673185 
941	 0,508411080189717 
942	 0,507633295443827 
943	 0,50828074071589 
944	 0,508326538874563 
945	 0,507328381521627 
946	 0,505138220758804 
947	 0,503333440684661 
948	 0,502526319253078 
949	 0,502956239977763 
950	 0,502696130823375 
951	 0,500988474019919 
952	 0,500998195424933 
953	 0,501154040814595 
954	 0,499298772654505 
955	 0,49863959483046 
956	 0,49856520934824 
957	 0,495439309198173 
958	 0,494561105434301 
959	 0,496817004889506 
960	 0,497238861145797 
961	 0,496882434198487 
962	 0,496618381021515 
963	 0,495675960566907 
964	 0,494546951202145 
965	 0,494085730171197 
966	 0,494908425625848 
967	 0,496145979024454 
968	 0,494527716482512 
969	 0,49383444657412 
970	 0,49508335005198 
971	 0,494223965315748 
972	 0,493403441030634 
973	 0,494588960658036 
974	 0,494762458606886 
975	 0,49405684570433 
976	 0,493582946635424 
977	 0,494322638172447 
978	 0,495807978336096 
979	 0,495372511365689 
980	 0,494666808755078 
981	 0,494513399978465 
982	 0,494580465816697 
983	 0,494345920832494 
984	 0,493467702565872 
985	 0,494208424471236 
986	 0,495834581583197 
987	 0,496233639165049 
988	 0,494763523453739 
989	 0,492740362301952 
990	 0,495892521503699 
991	 0,497146082013561 
992	 0,494004754250305 
993	 0,495526194270869 
994	 0,499400994982082 
995	 0,502139037101097 
996	 0,501617392575412 
997	 0,499791656913205 
998	 0,501363330610676 
999	 0,500949986598564 
1000	 0,498795019806516 
1001	 0,501098752615978 
1002	 0,504133063225802 
1003	 0,505516571111586 
1004	 0,50355744776794 
1005	 0,50177137354383 
1006	 0,503394931329835 
1007	 0,503903935189505 
1008	 0,503412730130461 
1009	 0,503505269374035 
1010	 0,504625392310444 
1011	 0,505911578530652 
1012	 0,503474356081411 
1013	 0,504881500591701 
1014	 0,510927335672705 
1015	 0,507135005297288 
1016	 0,503353849394363 
1017	 0,507767074383909 
1018	 0,510329718389744 
1019	 0,509694752622016 
1020	 0,5063067032271 
1021	 0,506887345661906 
1022	 0,510727825713375 
1023	 0,510906993100748 
1024	 0,510049753967614 
1025	 0,509177577315875 
1026	 0,508652418350242 
1027	 0,510815769809611 
1028	 0,51585099285082 
1029	 0,514124405962275 
1030	 0,510531143361429 
1031	 0,51167508120568 
1032	 0,511156580586841 
1033	 0,509408255486511 
1034	 0,509685830184072 
1035	 0,508124072528578 
1036	 0,506101310499901 
1037	 0,512360326003073 
1038	 0,516314756406265 
1039	 0,514542638134208 
1040	 0,517246589629807 
1041	 0,520458399980002 
1042	 0,520538360588937 
1043	 0,518660244882957 
1044	 0,517351329495692 
1045	 0,519607188789814 
1046	 0,518077190189511 
1047	 0,514883603097024 
1048	 0,518908675867755 
1049	 0,517694959488599 
1050	 0,511252983979107 
1051	 0,514924787730796 
1052	 0,518992063955808 
1053	 0,518699461971602 
1054	 0,518118967004543 
1055	 0,51468814801909 
1056	 0,507536292603445 
1057	 0,510056115526811 
1058	 0,516740303070333 
1059	 0,517461631999627 
1060	 0,51537044438425 
1061	 0,512523954875339 
1062	 0,511734603954822 
1063	 0,512286116760177 
1064	 0,514297449596839 
1065	 0,520232890579196 
1066	 0,515907501012155 
1067	 0,501331161522291 
1068	 0,513730107513266 
1069	 0,524748835322378 
1070	 0,513259150476732 
1071	 0,498298638730496 
1072	 0,49109988772477 
1073	 0,501183703746361 
1074	 0,511482655042617 
1075	 0,512516642062076 
