Wavelength	NEUF00248.asd
325	 0,130338618124878 
326	 1,75383358259585E-02 
327	 0,102383809487789 
328	 0,277780973700336 
329	 0,248191277097025 
330	 0,186792719333316 
331	 0,208610613839121 
332	 0,269187117774978 
333	 0,29544639731854 
334	 0,256703773504869 
335	 0,244131308907929 
336	 0,26106786575478 
337	 0,132951464820308 
338	 2,76742296495605E-02 
339	 8,31189173080977E-02 
340	 0,144869319357286 
341	 0,195276719369613 
342	 0,234214845887288 
343	 0,211397991213089 
344	 0,141334882287514 
345	 0,183757599979277 
346	 0,244471289045132 
347	 0,222724851910222 
348	 0,181839831694059 
349	 0,13714033910313 
350	 0,104953769573127 
351	 0,113181600457362 
352	 0,149929111631554 
353	 0,119368833007203 
354	 7,62369207649097E-02 
355	 9,65927801596665E-02 
356	 7,38139092356202E-02 
357	 0,030572589486891 
358	 8,95358876994922E-02 
359	 0,127424867908009 
360	 0,101144350158744 
361	 9,64939725545873E-02 
362	 0,107404507411755 
363	 0,111570089171546 
364	 0,127691204239062 
365	 0,146843175731234 
366	 0,136347420858107 
367	 0,119965127919043 
368	 0,111043960652547 
369	 9,43130981376975E-02 
370	 8,09445913548215E-02 
371	 8,80430989736119E-02 
372	 9,65258634423152E-02 
373	 0,099963948990277 
374	 0,100666076547485 
375	 9,29934162191371E-02 
376	 0,076211320403269 
377	 9,17270178863834E-02 
378	 0,120565885162852 
379	 0,107842320599539 
380	 0,10893916336193 
381	 0,131611801200135 
382	 0,130976463207494 
383	 0,115362991606303 
384	 9,44660504608318E-02 
385	 8,83353940871345E-02 
386	 0,093791977867528 
387	 8,67523728861348E-02 
388	 9,46270616534243E-02 
389	 0,119911364934014 
390	 0,122599558026983 
391	 0,108301654842637 
392	 8,79198933705953E-02 
393	 8,91514081149919E-02 
394	 0,105421386932602 
395	 9,93178399464521E-02 
396	 9,00848580059413E-02 
397	 8,93918129329467E-02 
398	 0,100673304564531 
399	 0,111931036281059 
400	 0,105064304070758 
401	 9,70356200539662E-02 
402	 9,49045945769365E-02 
403	 0,107269585781712 
404	 0,115538741020032 
405	 0,108027674853521 
406	 0,104983059669255 
407	 0,103651609196073 
408	 9,12679318883101E-02 
409	 8,80986053745113E-02 
410	 9,62584904008093E-02 
411	 9,78108178141793E-02 
412	 0,093450034644323 
413	 8,55059065614709E-02 
414	 8,50473326131405E-02 
415	 9,04302830730964E-02 
416	 9,26202227150343E-02 
417	 9,29061190532259E-02 
418	 9,20904533268709E-02 
419	 0,093325519743398 
420	 9,44736204186376E-02 
421	 9,26065071514781E-02 
422	 9,09425581637354E-02 
423	 8,99380965646554E-02 
424	 8,80861319424651E-02 
425	 8,75706828289756E-02 
426	 8,94584552948332E-02 
427	 9,09276292878821E-02 
428	 9,13406341231872E-02 
429	 9,03237395878545E-02 
430	 8,94327637765146E-02 
431	 8,92394439417288E-02 
432	 0,089613142412581 
433	 9,00938088096977E-02 
434	 9,03497706457808E-02 
435	 0,092370145127152 
436	 9,40784072612983E-02 
437	 8,89297940565241E-02 
438	 8,61704686834424E-02 
439	 8,85478462470411E-02 
440	 8,75571254856945E-02 
441	 8,69175046542397E-02 
442	 9,22213197383759E-02 
443	 9,03769238901556E-02 
444	 8,32516461622332E-02 
445	 8,76758845820659E-02 
446	 9,40790323673406E-02 
447	 9,63615067661705E-02 
448	 9,62422374201943E-02 
449	 9,52934883306264E-02 
450	 0,095933312181074 
451	 9,82139736375987E-02 
452	 0,100440010296586 
453	 9,48284315916141E-02 
454	 8,98291066823521E-02 
455	 9,33331414647967E-02 
456	 9,48339704350808E-02 
457	 9,43206582017988E-02 
458	 9,77579906575522E-02 
459	 9,87273963768243E-02 
460	 9,56665673023486E-02 
461	 9,70507634327023E-02 
462	 9,87999342039802E-02 
463	 9,44347730492472E-02 
464	 9,36143581176302E-02 
465	 9,70493901975196E-02 
466	 9,90327007228992E-02 
467	 9,73804431592059E-02 
468	 9,16921216699439E-02 
469	 9,23079437175995E-02 
470	 9,71204682250513E-02 
471	 9,93088952907603E-02 
472	 9,74684517257482E-02 
473	 9,29145722952032E-02 
474	 9,50596656093455E-02 
475	 9,84947249771267E-02 
476	 9,75447833730469E-02 
477	 9,74306761989974E-02 
478	 9,79559020480703E-02 
479	 9,54654530798802E-02 
480	 9,41961187988057E-02 
481	 0,095678711063422 
482	 9,57094659591955E-02 
483	 9,43805960796691E-02 
484	 9,24083264383018E-02 
485	 9,25169405170564E-02 
486	 9,46948939001986E-02 
487	 9,59019849850994E-02 
488	 9,61243222722135E-02 
489	 9,54967554099772E-02 
490	 9,54536336004304E-02 
491	 9,56498917967402E-02 
492	 9,46482532659363E-02 
493	 0,09371252192792 
494	 9,32643167030866E-02 
495	 9,28955217785321E-02 
496	 9,28677250007204E-02 
497	 9,34797564433812E-02 
498	 9,35951584691724E-02 
499	 9,33833001343259E-02 
500	 0,094312462268145 
501	 0,09486994650649 
502	 9,44549397834247E-02 
503	 9,56638999827443E-02 
504	 9,72998077050346E-02 
505	 9,66657909071023E-02 
506	 9,68622914041805E-02 
507	 9,83136165437513E-02 
508	 9,86955104017035E-02 
509	 0,098685313760417 
510	 9,89976975169408E-02 
511	 9,99132583935363E-02 
512	 0,100836445713466 
513	 9,98320843624348E-02 
514	 9,99226519288321E-02 
515	 0,102092320186003 
516	 0,103578270399474 
517	 0,104079758455745 
518	 0,103610875227547 
519	 0,103284633137447 
520	 0,103349341494703 
521	 0,103198575620144 
522	 0,103621110450167 
523	 0,104997335177089 
524	 0,104965986029281 
525	 0,10413771836218 
526	 0,104853913533162 
527	 0,10492760174607 
528	 0,103982226672243 
529	 0,104120983160916 
530	 0,10459124211875 
531	 0,104371192969785 
532	 0,104093929901126 
533	 0,103951155931044 
534	 0,103926192302017 
535	 0,104764090171495 
536	 0,106490623389413 
537	 0,105506843156982 
538	 0,103398704591436 
539	 0,103920465287198 
540	 0,104736176390915 
541	 0,105113108431447 
542	 0,105138858554991 
543	 0,104943380493127 
544	 0,104662834312246 
545	 0,10416758779508 
546	 0,10383762342974 
547	 0,10473580193044 
548	 0,105718086008348 
549	 0,106189783370755 
550	 0,106415052641455 
551	 0,106431974250768 
552	 0,106227766641528 
553	 0,106618858280667 
554	 0,107405169874074 
555	 0,106827091767601 
556	 0,105898505776906 
557	 0,105529133436291 
558	 0,105809778005965 
559	 0,105978758046208 
560	 0,103914075882016 
561	 0,102565873855534 
562	 0,102919952292748 
563	 0,102853439990525 
564	 0,102468386940322 
565	 0,102159641965994 
566	 0,102057838079165 
567	 0,102115861993426 
568	 0,101840834402579 
569	 0,102190712343109 
570	 0,103711525064079 
571	 0,104696262155839 
572	 0,105511517858308 
573	 0,107698764318346 
574	 0,109132587537597 
575	 0,109498808596622 
576	 0,111379132698241 
577	 0,113661380490454 
578	 0,114917530470187 
579	 0,116322229892831 
580	 0,118181700475409 
581	 0,12073223694592 
582	 0,122710469375115 
583	 0,123469563934534 
584	 0,124104076945162 
585	 0,12505550099123 
586	 0,126868483807164 
587	 0,127932806604138 
588	 0,128092061625461 
589	 0,129089471888703 
590	 0,130360136528584 
591	 0,13128729647622 
592	 0,131691149258064 
593	 0,131766427098818 
594	 0,13208899248358 
595	 0,132780797012416 
596	 0,133717249019331 
597	 0,133603912421012 
598	 0,133035809062651 
599	 0,133099897640905 
600	 0,133275021306318 
601	 0,133265749187833 
602	 0,132478598847715 
603	 0,131590695139999 
604	 0,131127588649567 
605	 0,130552796456579 
606	 0,129799303203712 
607	 0,128841642085743 
608	 0,128309764200581 
609	 0,128204311226661 
610	 0,127030102349797 
611	 0,125423184420852 
612	 0,124317882289757 
613	 0,123487010395666 
614	 0,122951190644639 
615	 0,122903449810971 
616	 0,122817717259562 
617	 0,122311468799436 
618	 0,121198832150866 
619	 0,120264718982297 
620	 0,121202464083203 
621	 0,121234761494198 
622	 0,119856122116806 
623	 0,119347388752935 
624	 0,119775584977083 
625	 0,120996179450028 
626	 0,121339756623596 
627	 0,120923609377465 
628	 0,121263474053366 
629	 0,12176798745146 
630	 0,122190533715404 
631	 0,1228703681546 
632	 0,123673176246193 
633	 0,124315187535695 
634	 0,125254346760202 
635	 0,126496273745628 
636	 0,127491755541518 
637	 0,128508531813803 
638	 0,129773036129154 
639	 0,131003069899281 
640	 0,132123221113877 
641	 0,13304408492431 
642	 0,134235985672993 
643	 0,135710854360365 
644	 0,136362343646785 
645	 0,136513064841104 
646	 0,13671954136519 
647	 0,13687619167764 
648	 0,136971231304319 
649	 0,137145384307091 
650	 0,136467695782643 
651	 0,134525100592881 
652	 0,133654940405486 
653	 0,13333335934946 
654	 0,131807442949505 
655	 0,129670375513177 
656	 0,127262108303612 
657	 0,125400875083923 
658	 0,123364596262319 
659	 0,120398876747052 
660	 0,11804235849393 
661	 0,116331023687908 
662	 0,114356479466188 
663	 0,112340953237519 
664	 0,110367481750706 
665	 0,108333020212942 
666	 0,106331723616978 
667	 0,104480918094999 
668	 0,103329998618313 
669	 0,10279674500185 
670	 0,101909991398039 
671	 0,10092721034845 
672	 0,100093977115415 
673	 9,95089170874852E-02 
674	 9,91851834092313E-02 
675	 9,90926619964528E-02 
676	 9,91777596171136E-02 
677	 9,93041460383665E-02 
678	 9,89464560193237E-02 
679	 9,85774777374316E-02 
680	 9,87992917528873E-02 
681	 9,93350459741912E-02 
682	 0,100074733213697 
683	 0,10073301725014 
684	 0,102094780787825 
685	 0,104532664349516 
686	 0,106881078280921 
687	 0,109487960860624 
688	 0,113208471303847 
689	 0,117708196686846 
690	 0,122830222385044 
691	 0,128192005860583 
692	 0,134423367350362 
693	 0,142084676341665 
694	 0,150869972991372 
695	 0,160806434039496 
696	 0,172106886104591 
697	 0,184062889199812 
698	 0,196279577156369 
699	 0,208622843830655 
700	 0,22142826211712 
701	 0,235069885490821 
702	 0,248810744178743 
703	 0,262299245598263 
704	 0,275215191869428 
705	 0,287693924803709 
706	 0,299764758575404 
707	 0,311028653065626 
708	 0,321672572835478 
709	 0,332123165415238 
710	 0,34180616972316 
711	 0,350684963068635 
712	 0,359451997244899 
713	 0,367580668933067 
714	 0,374601032000164 
715	 0,381275541833649 
716	 0,387628066233315 
717	 0,393314838828268 
718	 0,398637705439727 
719	 0,403674391100247 
720	 0,408004191946458 
721	 0,411924001228033 
722	 0,415864799440044 
723	 0,419426743731715 
724	 0,422711661939072 
725	 0,426435039663609 
726	 0,42955855378383 
727	 0,431512559904144 
728	 0,433385967702885 
729	 0,435315802085281 
730	 0,437216043471068 
731	 0,43919532838007 
732	 0,441176256032614 
733	 0,442749316199776 
734	 0,444053684040764 
735	 0,445235490892364 
736	 0,446369616472618 
737	 0,447482510192802 
738	 0,44861629222114 
739	 0,449469634227363 
740	 0,45002792750655 
741	 0,450904132999912 
742	 0,451883846088101 
743	 0,45266709343859 
744	 0,453654325543713 
745	 0,45468509660318 
746	 0,455012552438558 
747	 0,455248139230453 
748	 0,455740678021287 
749	 0,456390750497597 
750	 0,457090496656183 
751	 0,457693166554922 
752	 0,458155658077008 
753	 0,458448905194428 
754	 0,458488088694486 
755	 0,458711002906308 
756	 0,45940397965644 
757	 0,460057881402498 
758	 0,460573200987632 
759	 0,460946969655238 
760	 0,461168594511055 
761	 0,461320093109724 
762	 0,461772641160777 
763	 0,462173853692623 
764	 0,462206832815978 
765	 0,462481078997364 
766	 0,462957192952933 
767	 0,463229305553654 
768	 0,463481435030628 
769	 0,463710364571469 
770	 0,463422552754027 
771	 0,463449367625866 
772	 0,464754452741276 
773	 0,465158736329054 
774	 0,464718022273981 
775	 0,465300754314722 
776	 0,465653762229833 
777	 0,465252373600578 
778	 0,465132561844925 
779	 0,465345567112284 
780	 0,465793607803051 
781	 0,465865933778313 
782	 0,465544018370406 
783	 0,46538310072903 
784	 0,465568214728047 
785	 0,466124910816437 
786	 0,466126107221431 
787	 0,465893920341354 
788	 0,466257206614885 
789	 0,466481851338555 
790	 0,466432936985002 
791	 0,46652611030599 
792	 0,466530226602394 
793	 0,466299095176662 
794	 0,466341105771543 
795	 0,466679539281436 
796	 0,467229081641177 
797	 0,467410048885601 
798	 0,467088818992102 
799	 0,466724732629869 
800	 0,46662105367207 
801	 0,466991878412509 
802	 0,46706610714479 
803	 0,466934728818374 
804	 0,467205199358856 
805	 0,467634540130279 
806	 0,468112266310422 
807	 0,468521457410591 
808	 0,468865686891603 
809	 0,469157397206946 
810	 0,469241972462933 
811	 0,469251807511407 
812	 0,469614453401324 
813	 0,47006402591979 
814	 0,470414476502982 
815	 0,470323484854622 
816	 0,470091282381253 
817	 0,470113985427743 
818	 0,470519195648722 
819	 0,471096216545384 
820	 0,471179017876948 
821	 0,470939688220778 
822	 0,470595078691731 
823	 0,470885455822724 
824	 0,471641275592123 
825	 0,472522861437267 
826	 0,47238711353329 
827	 0,471632419398502 
828	 0,472486673870685 
829	 0,473285389446394 
830	 0,473236241144862 
831	 0,473225598996283 
832	 0,473458206885552 
833	 0,474076995388879 
834	 0,473930624035387 
835	 0,473268786252367 
836	 0,473908054770526 
837	 0,47456380326194 
838	 0,474553114741598 
839	 0,474329055697167 
840	 0,474215283533727 
841	 0,474582721109579 
842	 0,475177893057964 
843	 0,475594999579036 
844	 0,474726405652871 
845	 0,474151555288352 
846	 0,474672820368869 
847	 0,475169491360545 
848	 0,475399981409404 
849	 0,47522152225168 
850	 0,475316948827545 
851	 0,475678295451231 
852	 0,475621220910998 
853	 0,475689057805485 
854	 0,476054383881791 
855	 0,475782743500617 
856	 0,475303244431952 
857	 0,4753296395849 
858	 0,475329976979204 
859	 0,475253890422923 
860	 0,475323047585361 
861	 0,475522823908266 
862	 0,475816463782817 
863	 0,475983273908717 
864	 0,476190709305605 
865	 0,476680018002614 
866	 0,477034521409631 
867	 0,477179186567768 
868	 0,477214285556422 
869	 0,477238086906949 
870	 0,477347674265918 
871	 0,477716955526765 
872	 0,478193993003242 
873	 0,478567242864164 
874	 0,478508313865801 
875	 0,478346414368193 
876	 0,479338417477914 
877	 0,47973469420704 
878	 0,479064619957288 
879	 0,479303121927605 
880	 0,479673320474039 
881	 0,479251125744067 
882	 0,479631676617187 
883	 0,480676609622073 
884	 0,481215800180474 
885	 0,481641981802453 
886	 0,481976973626156 
887	 0,481854981737254 
888	 0,481520069033295 
889	 0,481257820936259 
890	 0,481374934455975 
891	 0,481809263749981 
892	 0,48229930589695 
893	 0,482698756286346 
894	 0,482868008960966 
895	 0,482513855455411 
896	 0,482335979167584 
897	 0,482842004854393 
898	 0,483342400014148 
899	 0,48354206226351 
900	 0,483108989440822 
901	 0,483193064272269 
902	 0,483837668248607 
903	 0,483805761685546 
904	 0,483784183710221 
905	 0,484177439400872 
906	 0,484572082486655 
907	 0,484921679617672 
908	 0,485232035544682 
909	 0,485162536676515 
910	 0,484716331412954 
911	 0,484182698030387 
912	 0,483549383179628 
913	 0,482993890669718 
914	 0,48332140356572 
915	 0,4841702399067 
916	 0,484985410101212 
917	 0,484567496696978 
918	 0,483547906464909 
919	 0,484223267339229 
920	 0,484688870381953 
921	 0,484424922133329 
922	 0,484232685386509 
923	 0,484258166398605 
924	 0,4844678133721 
925	 0,483466608877394 
926	 0,482107368147827 
927	 0,482313782204198 
928	 0,482070434113421 
929	 0,481249629870397 
930	 0,481641142779591 
931	 0,481676874875625 
932	 0,480624388071605 
933	 0,480124657238489 
934	 0,480402479576129 
935	 0,481423276867372 
936	 0,480847031646598 
937	 0,47910500661197 
938	 0,478971219409541 
939	 0,478987344597256 
940	 0,478612758492821 
941	 0,477939306433707 
942	 0,477103642143137 
943	 0,476284085830595 
944	 0,476005609209698 
945	 0,475797226249292 
946	 0,474674760648294 
947	 0,472853714892704 
948	 0,471042985248792 
949	 0,471561654690095 
950	 0,471543931982466 
951	 0,469644169386564 
952	 0,468959551015851 
953	 0,468257156407065 
954	 0,465815759827658 
955	 0,464834416370782 
956	 0,464866649822334 
957	 0,462796530066206 
958	 0,462202837000904 
959	 0,463586788596382 
960	 0,463368080716562 
961	 0,462700573224443 
962	 0,462414222547665 
963	 0,461034809387721 
964	 0,459095829718213 
965	 0,457704191605319 
966	 0,457541622358963 
967	 0,458623322240444 
968	 0,460712209985319 
969	 0,46087591505892 
970	 0,45857329150632 
971	 0,458528220740201 
972	 0,459397679180956 
973	 0,459559177922586 
974	 0,458161967207282 
975	 0,456722742517062 
976	 0,45815985005336 
977	 0,460161365593139 
978	 0,46145344875014 
979	 0,460036953527976 
980	 0,458920792679351 
981	 0,459564282316934 
982	 0,460632224190905 
983	 0,46142909697586 
984	 0,461388305727435 
985	 0,461028698322136 
986	 0,460629298798178 
987	 0,460498724992329 
988	 0,460651091003374 
989	 0,460778862149318 
990	 0,459404282623154 
991	 0,460048804182855 
992	 0,463830628274633 
993	 0,465615668669789 
994	 0,466189324572344 
995	 0,466783073952483 
996	 0,46636544404467 
997	 0,465950009729078 
998	 0,467665883763018 
999	 0,469774363384436 
1000	 0,471072921677394 
1001	 0,469261646674772 
1002	 0,468447149030877 
1003	 0,470359549723728 
1004	 0,471501788730224 
1005	 0,472311348375912 
1006	 0,473368797944944 
1007	 0,473486690623552 
1008	 0,472285104282894 
1009	 0,469402993549559 
1010	 0,471265605256917 
1011	 0,476717265465773 
1012	 0,476059702185612 
1013	 0,47456649553885 
1014	 0,47446186860091 
1015	 0,474506119187917 
1016	 0,475007800638573 
1017	 0,476460751765676 
1018	 0,481212406978413 
1019	 0,484773174415225 
1020	 0,480454189716296 
1021	 0,476569605948146 
1022	 0,476484707122978 
1023	 0,484170139808265 
1024	 0,485796240405211 
1025	 0,479758991936269 
1026	 0,482876676348979 
1027	 0,486065077927864 
1028	 0,484250841495691 
1029	 0,488343662890759 
1030	 0,491123146194555 
1031	 0,483846596988808 
1032	 0,479670571299166 
1033	 0,480141174169461 
1034	 0,482628515331879 
1035	 0,48393838606656 
1036	 0,483798436904019 
1037	 0,485694573358472 
1038	 0,486067277625113 
1039	 0,484420491992961 
1040	 0,487406094796965 
1041	 0,489425551783948 
1042	 0,486671979961289 
1043	 0,489479650507877 
1044	 0,492837524842156 
1045	 0,488427834829803 
1046	 0,48790591661452 
1047	 0,491529934422402 
1048	 0,494145679943411 
1049	 0,4936082108203 
1050	 0,490437980811981 
1051	 0,490236465300883 
1052	 0,489496726248257 
1053	 0,487996784131623 
1054	 0,495083608218414 
1055	 0,498173162657702 
1056	 0,48780153817528 
1057	 0,48584819112484 
1058	 0,487583603697837 
1059	 0,482312082092795 
1060	 0,482801196290335 
1061	 0,486346019373916 
1062	 0,480897227512399 
1063	 0,481717825984531 
1064	 0,489596966742128 
1065	 0,491254635962996 
1066	 0,487902419606753 
1067	 0,483603535707131 
1068	 0,497362640985876 
1069	 0,506875116943464 
1070	 0,496881805632635 
1071	 0,488959136130818 
1072	 0,487982933739531 
1073	 0,495808018691358 
1074	 0,501426745892323 
1075	 0,503818900401221 
