Wavelength	NEUF00270.asd
325	 0,596088601813793 
326	 0,33594965271921 
327	 0,202642717398405 
328	 0,334697297500094 
329	 0,362012873552853 
330	 0,359752842289728 
331	 0,367995739077688 
332	 0,370691931054567 
333	 0,374080634725331 
334	 0,40048721662354 
335	 0,429285522612532 
336	 0,436997961343162 
337	 0,332401785576646 
338	 0,250243956214453 
339	 0,296909865317663 
340	 0,343796979518654 
341	 0,371373266013619 
342	 0,364207212866706 
343	 0,373452305400299 
344	 0,400887013008425 
345	 0,354848259452098 
346	 0,325401985704865 
347	 0,393835117656649 
348	 0,383120281079465 
349	 0,312401238960903 
350	 0,328678915517016 
351	 0,364282513635872 
352	 0,386724294790278 
353	 0,361822723677089 
354	 0,336922916508055 
355	 0,372290002142101 
356	 0,367459426821905 
357	 0,330489282291969 
358	 0,339838615766794 
359	 0,352778513036131 
360	 0,351680279730039 
361	 0,343789381574503 
362	 0,334740315290696 
363	 0,328530572501258 
364	 0,342580616830364 
365	 0,367834367718161 
366	 0,368413412609138 
367	 0,363125736037302 
368	 0,362431392197499 
369	 0,354493577882826 
370	 0,347054883607033 
371	 0,353663991768809 
372	 0,353473430760265 
373	 0,346902068954678 
374	 0,36010344593302 
375	 0,376505998397899 
376	 0,382895992921838 
377	 0,387255444826202 
378	 0,391309295575525 
379	 0,396243310615197 
380	 0,402665132917938 
381	 0,406955472928367 
382	 0,395769136746937 
383	 0,3775223674781 
384	 0,361304674912653 
385	 0,378453069312081 
386	 0,409942802725683 
387	 0,394115689115574 
388	 0,379532931624528 
389	 0,38365751226495 
390	 0,383741980888404 
391	 0,382131571331357 
392	 0,383530674662405 
393	 0,384003983189488 
394	 0,384914900543597 
395	 0,393930661215912 
396	 0,39734381767715 
397	 0,390467400256786 
398	 0,397592174832038 
399	 0,402679328405984 
400	 0,377357510322409 
401	 0,373052970090176 
402	 0,394695675678156 
403	 0,412229297801842 
404	 0,418285984024334 
405	 0,409015662978342 
406	 0,395101014494914 
407	 0,382483768033088 
408	 0,377412039680212 
409	 0,381503202553035 
410	 0,392288005878066 
411	 0,398582329446256 
412	 0,398403999881486 
413	 0,391477559924446 
414	 0,392210835139023 
415	 0,398464194362471 
416	 0,397795531971225 
417	 0,39755121876589 
418	 0,399663147690956 
419	 0,396819412935001 
420	 0,394817356856035 
421	 0,401493639728073 
422	 0,396877609726839 
423	 0,384580363562047 
424	 0,390756277164673 
425	 0,399558774450276 
426	 0,400749010268592 
427	 0,396606047215853 
428	 0,391091471855929 
429	 0,389968118915649 
430	 0,393460439011279 
431	 0,399376214248186 
432	 0,398947246677889 
433	 0,394385328904247 
434	 0,388631892251891 
435	 0,390370523051672 
436	 0,395661516205408 
437	 0,389687099901111 
438	 0,387528620453745 
439	 0,392876670710366 
440	 0,389690114656919 
441	 0,383915926869804 
442	 0,384748975412678 
443	 0,387271558598582 
444	 0,389934755607332 
445	 0,391629689215901 
446	 0,392823791024875 
447	 0,393931139731872 
448	 0,395924715094375 
449	 0,3978527654923 
450	 0,397721363330141 
451	 0,397182248337699 
452	 0,397055801048196 
453	 0,398295840712833 
454	 0,399761950425887 
455	 0,400303800155713 
456	 0,400260894588343 
457	 0,400478558299705 
458	 0,403534352412591 
459	 0,403604354227971 
460	 0,399570566391592 
461	 0,400922093578412 
462	 0,404841676252037 
463	 0,406357724119609 
464	 0,406587947302292 
465	 0,405957946761327 
466	 0,405607353815381 
467	 0,404040303233898 
468	 0,400766756509614 
469	 0,400455987450507 
470	 0,402758637205669 
471	 0,405778573615715 
472	 0,407271561507182 
473	 0,40695285635945 
474	 0,408356789218771 
475	 0,409024733699065 
476	 0,406563150903278 
477	 0,405962690331732 
478	 0,407357328549067 
479	 0,408226516863445 
480	 0,408502855634453 
481	 0,408248400567965 
482	 0,408817727415284 
483	 0,409471038474571 
484	 0,408867967366768 
485	 0,409469907726296 
486	 0,411185239278811 
487	 0,4114693934779 
488	 0,410084841398015 
489	 0,407285820823797 
490	 0,407379667987582 
491	 0,409378614840101 
492	 0,409305454336102 
493	 0,409583937104756 
494	 0,410611098745145 
495	 0,410372793365108 
496	 0,409671677445579 
497	 0,409564021260769 
498	 0,409828776506374 
499	 0,410543318475739 
500	 0,412221356780971 
501	 0,413080608011759 
502	 0,412409463586397 
503	 0,413360953352066 
504	 0,415058183175436 
505	 0,415185009771461 
506	 0,41609284178155 
507	 0,41834742232491 
508	 0,421666705779328 
509	 0,423531515582455 
510	 0,421916245929182 
511	 0,421369875154441 
512	 0,422261672829535 
513	 0,423099639498389 
514	 0,423499749848593 
515	 0,423647294751489 
516	 0,426343260011459 
517	 0,429208038373312 
518	 0,42868054192509 
519	 0,427651946332856 
520	 0,427240922093615 
521	 0,42851490403615 
522	 0,429476274520586 
523	 0,428741653202022 
524	 0,427884721270918 
525	 0,427527400324155 
526	 0,428429779903232 
527	 0,429527275507131 
528	 0,430234428798959 
529	 0,42985897589438 
530	 0,429309566531129 
531	 0,429656033064484 
532	 0,429304521784714 
533	 0,428465063125698 
534	 0,428922751811418 
535	 0,429421861107716 
536	 0,429238194220011 
537	 0,428957370960633 
538	 0,428712036188504 
539	 0,428590106680653 
540	 0,428516285918362 
541	 0,428499312977917 
542	 0,428669540887133 
543	 0,428914737003506 
544	 0,429111344924547 
545	 0,429028276555866 
546	 0,428973699571463 
547	 0,429990951488587 
548	 0,430780611924216 
549	 0,430738883543093 
550	 0,430445670360444 
551	 0,430464848276252 
552	 0,431571897229244 
553	 0,432269352209972 
554	 0,432163316629421 
555	 0,431659443913588 
556	 0,431160149851254 
557	 0,430982609852455 
558	 0,430885509168606 
559	 0,430457246723096 
560	 0,428613792184214 
561	 0,427521953554368 
562	 0,427874490014243 
563	 0,427918515155328 
564	 0,427254824948673 
565	 0,425585151983233 
566	 0,42553849452628 
567	 0,426965955206479 
568	 0,426546093570687 
569	 0,426753166631141 
570	 0,429131871146505 
571	 0,430925510819597 
572	 0,432047880893037 
573	 0,433274484136352 
574	 0,434784159456272 
575	 0,436476110322246 
576	 0,437126745367112 
577	 0,438048547448758 
578	 0,440746735550587 
579	 0,44270198974129 
580	 0,443639577607196 
581	 0,444546187301993 
582	 0,446036179164734 
583	 0,448338240941373 
584	 0,449917197817973 
585	 0,451203887962113 
586	 0,453405144966611 
587	 0,454924122409291 
588	 0,455513723549851 
589	 0,456392140874056 
590	 0,457435964881626 
591	 0,458460975949357 
592	 0,459143510214122 
593	 0,459567662290506 
594	 0,460068342901195 
595	 0,461049298831752 
596	 0,462420045369016 
597	 0,462188478153577 
598	 0,461428727666916 
599	 0,462048763243851 
600	 0,462614888577037 
601	 0,462571077579124 
602	 0,461297296504011 
603	 0,460301635124649 
604	 0,460686597880837 
605	 0,460658813824888 
606	 0,459993754730986 
607	 0,458845457026911 
608	 0,458097118983412 
609	 0,458017875349806 
610	 0,457850849610556 
611	 0,457193586639585 
612	 0,455659320750594 
613	 0,454439543231999 
614	 0,453971905925358 
615	 0,454661547655521 
616	 0,454830154204766 
617	 0,453503491277541 
618	 0,452400598238897 
619	 0,45189481472346 
620	 0,45218879085856 
621	 0,452521235251819 
622	 0,452565007443634 
623	 0,452225996399156 
624	 0,452108740578866 
625	 0,452800442212293 
626	 0,453227592433262 
627	 0,453255426511922 
628	 0,453146239788254 
629	 0,453422391059156 
630	 0,45426662796066 
631	 0,454737043823624 
632	 0,454975581971076 
633	 0,455380063829512 
634	 0,456110639662065 
635	 0,45724446283455 
636	 0,458868084816447 
637	 0,460250208236893 
638	 0,460824358513421 
639	 0,461636418969713 
640	 0,462667501362978 
641	 0,463332046803498 
642	 0,464062991811634 
643	 0,465030775819901 
644	 0,466285054144082 
645	 0,467098959641438 
646	 0,466555455764183 
647	 0,466440242977818 
648	 0,466819894695413 
649	 0,466214222858578 
650	 0,465380804071901 
651	 0,464771489062464 
652	 0,463575332190265 
653	 0,462102382527153 
654	 0,461181472037329 
655	 0,460329157912302 
656	 0,459177227343821 
657	 0,456817754414086 
658	 0,454191247773358 
659	 0,452303735610908 
660	 0,450578359162293 
661	 0,448766285539615 
662	 0,446481627664836 
663	 0,444235790577665 
664	 0,442264127930349 
665	 0,440099829817308 
666	 0,438107406892654 
667	 0,436915275887153 
668	 0,435908126039433 
669	 0,434872107686839 
670	 0,433694690076775 
671	 0,432787474148448 
672	 0,432458634586724 
673	 0,432226356668837 
674	 0,431985778398834 
675	 0,431732064922586 
676	 0,431486644807563 
677	 0,431280578784625 
678	 0,431180963629977 
679	 0,431289758323337 
680	 0,43171257211417 
681	 0,432272344510681 
682	 0,433073871352568 
683	 0,434503866191465 
684	 0,436456702681975 
685	 0,438825952087304 
686	 0,44120478038529 
687	 0,443987476949621 
688	 0,447959339316799 
689	 0,452313943785341 
690	 0,456837351691918 
691	 0,461702745478633 
692	 0,467251274312436 
693	 0,473730561300078 
694	 0,480424404920843 
695	 0,487512074452106 
696	 0,495974513095467 
697	 0,503951014384749 
698	 0,510851312408692 
699	 0,51838529574639 
700	 0,52630004042125 
701	 0,53402076697073 
702	 0,541434399353527 
703	 0,548485680139531 
704	 0,555286351151366 
705	 0,561444525492366 
706	 0,566771768844856 
707	 0,571995846501696 
708	 0,576959443612984 
709	 0,581102916722963 
710	 0,585162072556029 
711	 0,589305680089447 
712	 0,59315521219168 
713	 0,596574870924201 
714	 0,599450419180028 
715	 0,601644166734686 
716	 0,603496552655137 
717	 0,605822614795794 
718	 0,608452560180731 
719	 0,611111339087945 
720	 0,612562705273609 
721	 0,613557087050891 
722	 0,615197563117006 
723	 0,616835407714549 
724	 0,618272001801201 
725	 0,619374067669034 
726	 0,620308130841276 
727	 0,621163154598984 
728	 0,621721349166578 
729	 0,622217131101552 
730	 0,623089402762146 
731	 0,624090427037472 
732	 0,624979953523438 
733	 0,625143262944234 
734	 0,625104134878453 
735	 0,625364350181065 
736	 0,626060717109715 
737	 0,626862286400453 
738	 0,626866168337969 
739	 0,626915323498093 
740	 0,627274218597449 
741	 0,627484569981963 
742	 0,627646678204689 
743	 0,627911075430303 
744	 0,628026210002423 
745	 0,627987672087435 
746	 0,627921761429833 
747	 0,628021942662691 
748	 0,628371535820895 
749	 0,62874438327841 
750	 0,628964647279265 
751	 0,62881616433413 
752	 0,628752509189716 
753	 0,628782369448866 
754	 0,628295363400405 
755	 0,628254717440325 
756	 0,629206797833939 
757	 0,629242126421997 
758	 0,628650424867715 
759	 0,628601340356452 
760	 0,628958763660656 
761	 0,629504922049809 
762	 0,629316593710875 
763	 0,628939937812518 
764	 0,628940829657581 
765	 0,629239624978989 
766	 0,629585733730544 
767	 0,629362226389782 
768	 0,629133945002749 
769	 0,629090641263778 
770	 0,628868288269128 
771	 0,628779860590609 
772	 0,62920305254409 
773	 0,629361579686276 
774	 0,629265798604257 
775	 0,629594255307704 
776	 0,629700306217972 
777	 0,629299675734797 
778	 0,628834448236376 
779	 0,628728553881943 
780	 0,629514751735198 
781	 0,629639551886127 
782	 0,628981720911482 
783	 0,62872196110904 
784	 0,628782155739004 
785	 0,629013007511928 
786	 0,628493076675317 
787	 0,627842830297978 
788	 0,628410295397477 
789	 0,628794238365497 
790	 0,628688006601845 
791	 0,628812914778212 
792	 0,628597321778116 
793	 0,62769526636375 
794	 0,627504817955073 
795	 0,627942792051521 
796	 0,628386030394138 
797	 0,628207791208008 
798	 0,627441796064113 
799	 0,627513400042664 
800	 0,627875102548947 
801	 0,627908338890729 
802	 0,627195769592613 
803	 0,626353394991434 
804	 0,627177949595718 
805	 0,627913595746848 
806	 0,62796812859249 
807	 0,628042453903263 
808	 0,628067690197926 
809	 0,627929916823249 
810	 0,62760116795267 
811	 0,627357445464016 
812	 0,628002335913525 
813	 0,628404738098497 
814	 0,628136723014739 
815	 0,627908844187723 
816	 0,627681309055727 
817	 0,627351497131939 
818	 0,627589129744323 
819	 0,628232848116445 
820	 0,628385674521408 
821	 0,628316352608904 
822	 0,628182140382166 
823	 0,628140187415012 
824	 0,628416975189387 
825	 0,629247178951857 
826	 0,629288433141713 
827	 0,62866910316128 
828	 0,628951260477898 
829	 0,62902207591223 
830	 0,628466244713854 
831	 0,628526808961245 
832	 0,628894934959136 
833	 0,628972217623755 
834	 0,62882443150875 
835	 0,628525708236921 
836	 0,628242518153756 
837	 0,62831132600876 
838	 0,62878589057878 
839	 0,628703069751376 
840	 0,628162024639663 
841	 0,627468112510127 
842	 0,627644872690431 
843	 0,62840640701092 
844	 0,627881189437051 
845	 0,627185066206553 
846	 0,626960956788271 
847	 0,626982249614372 
848	 0,627344645088137 
849	 0,628195639049726 
850	 0,62825774494383 
851	 0,627697704390567 
852	 0,628312122759448 
853	 0,628555412756676 
854	 0,627767262913274 
855	 0,627540392389767 
856	 0,627645063987342 
857	 0,627523575109079 
858	 0,627358487715407 
859	 0,627181928189843 
860	 0,626928097162256 
861	 0,627043938482624 
862	 0,627596622159013 
863	 0,627341230922109 
864	 0,627002360579402 
865	 0,627660582048358 
866	 0,627718050484666 
867	 0,627263218520767 
868	 0,627787241244927 
869	 0,628146902849713 
870	 0,62788990924867 
871	 0,627848625909329 
872	 0,627792632825867 
873	 0,627377565956748 
874	 0,627140466992874 
875	 0,627349546083928 
876	 0,628545944104977 
877	 0,628997725517018 
878	 0,628103656375663 
879	 0,627160244048811 
880	 0,626892498053556 
881	 0,627850046215947 
882	 0,627942829725213 
883	 0,627376376406191 
884	 0,627862602086981 
885	 0,628667272098548 
886	 0,629322666543023 
887	 0,62883998146675 
888	 0,628155677081593 
889	 0,628176531101811 
890	 0,628058177765635 
891	 0,627974175004391 
892	 0,6286796402454 
893	 0,628751854465993 
894	 0,628088132826619 
895	 0,628479146839837 
896	 0,628952405473252 
897	 0,628750376472915 
898	 0,628799579498943 
899	 0,628768103329355 
900	 0,627817243255252 
901	 0,627250990004948 
902	 0,627288129553425 
903	 0,627061563269335 
904	 0,627382306216185 
905	 0,628536932337726 
906	 0,628835584632727 
907	 0,628476717458896 
908	 0,628068251501598 
909	 0,628072518836401 
910	 0,628378700128293 
911	 0,62817723086218 
912	 0,627851010600926 
913	 0,62764330755961 
914	 0,627866361390676 
915	 0,6281164117114 
916	 0,627924432661364 
917	 0,627482520383905 
918	 0,627183303745258 
919	 0,627892661078076 
920	 0,628757520362429 
921	 0,629274785371444 
922	 0,628752874708053 
923	 0,628140591164405 
924	 0,628182171475685 
925	 0,627608520750106 
926	 0,626893401404936 
927	 0,627217950504497 
928	 0,627458609941785 
929	 0,62739088654648 
930	 0,627504018235883 
931	 0,627381235917422 
932	 0,626888347021393 
933	 0,626794888813155 
934	 0,627090656387423 
935	 0,627602734820126 
936	 0,626959035186153 
937	 0,625660390366398 
938	 0,625990062549442 
939	 0,626426904633241 
940	 0,62642950996822 
941	 0,626375641966251 
942	 0,626158372398998 
943	 0,625716968600178 
944	 0,625562169649487 
945	 0,625403043396179 
946	 0,624540148107113 
947	 0,623812380446556 
948	 0,623473974127711 
949	 0,623509150036091 
950	 0,623256510396654 
951	 0,622478957184951 
952	 0,622444822538528 
953	 0,622331014823674 
954	 0,621064934679922 
955	 0,620225706857686 
956	 0,620063028466449 
957	 0,620378616959843 
958	 0,620240174799563 
959	 0,619497279426124 
960	 0,619151702299717 
961	 0,619561641735533 
962	 0,620624402400425 
963	 0,619356814239585 
964	 0,617487401817597 
965	 0,618264572483659 
966	 0,618577149552468 
967	 0,61823561558754 
968	 0,619203206898696 
969	 0,619567218051368 
970	 0,618720628377927 
971	 0,618072784687442 
972	 0,617931694045995 
973	 0,618381944198377 
974	 0,617983410396793 
975	 0,617469348763179 
976	 0,618571185803698 
977	 0,619598630579087 
978	 0,620133896479193 
979	 0,620728410861386 
980	 0,619804383825044 
981	 0,617272255986902 
982	 0,617158708916592 
983	 0,618388941480811 
984	 0,619426928922821 
985	 0,619618360825913 
986	 0,619351118527676 
987	 0,619800150249867 
988	 0,618650433032507 
989	 0,6167676671241 
990	 0,619523910191723 
991	 0,622559437721572 
992	 0,62332745467526 
993	 0,622225762206878 
994	 0,620670205538487 
995	 0,620195327569801 
996	 0,620598063071245 
997	 0,622056725280095 
998	 0,625032403719053 
999	 0,625770298440035 
1000	 0,623927245273346 
1001	 0,622621154745806 
1002	 0,621734539550527 
1003	 0,621366194797861 
1004	 0,621523663054731 
1005	 0,622842408256423 
1006	 0,62558192025269 
1007	 0,626004457939068 
1008	 0,623994520320144 
1009	 0,620635504678841 
1010	 0,620353923254763 
1011	 0,622997315404378 
1012	 0,623512143376957 
1013	 0,624208771491898 
1014	 0,625600155609552 
1015	 0,625509500404055 
1016	 0,624985985016232 
1017	 0,625062568601225 
1018	 0,626357517237609 
1019	 0,625630074940639 
1020	 0,618373896124017 
1021	 0,620030157297523 
1022	 0,62893077340744 
1023	 0,629622622436449 
1024	 0,62929502912159 
1025	 0,629150052894441 
1026	 0,624177311903264 
1027	 0,62128524877716 
1028	 0,624310276652245 
1029	 0,624972840444108 
1030	 0,626180973737296 
1031	 0,631707031762807 
1032	 0,631078193507648 
1033	 0,62665683573881 
1034	 0,627453216448845 
1035	 0,625290202553912 
1036	 0,621434473260947 
1037	 0,628038930611006 
1038	 0,633823886941102 
1039	 0,63339721085592 
1040	 0,628332261992785 
1041	 0,62495638552834 
1042	 0,627851531367414 
1043	 0,63099703402477 
1044	 0,632453900385097 
1045	 0,630802801034419 
1046	 0,626800333207328 
1047	 0,624044085213053 
1048	 0,630315945936944 
1049	 0,629962566990491 
1050	 0,622203491454104 
1051	 0,625141616018249 
1052	 0,622161737975457 
1053	 0,611941497020134 
1054	 0,635567938778017 
1055	 0,654918881247886 
1056	 0,638454843173276 
1057	 0,633819956426318 
1058	 0,637498353405177 
1059	 0,634981973916856 
1060	 0,629095900389193 
1061	 0,625157610948164 
1062	 0,632802874156904 
1063	 0,638664650770687 
1064	 0,640325516193663 
1065	 0,646578335423039 
1066	 0,646545818562816 
1067	 0,637797366570021 
1068	 0,635750102080141 
1069	 0,635239337988385 
1070	 0,631495591302414 
1071	 0,622447087883683 
1072	 0,620706243640972 
1073	 0,639248012877731 
1074	 0,644097410101552 
1075	 0,634276251437784 
