Wavelength	OSM-GIL00014.asd
325	 0,382643067284324 
326	 0,410729604944284 
327	 0,31660331032158 
328	 9,82760809025004E-02 
329	 7,90691459230834E-02 
330	 0,151044268707276 
331	 0,130407449318452 
332	 0,16273087859537 
333	 0,198521655848988 
334	 0,158765508838632 
335	 0,134179387789496 
336	 0,161335385897692 
337	 0,102073419635801 
338	 4,83486509912909E-02 
339	 5,93128978769279E-02 
340	 7,11613017142769E-02 
341	 7,30399959348979E-02 
342	 6,29961448661563E-02 
343	 8,64374702656357E-02 
344	 0,140352748695022 
345	 0,154497883349012 
346	 0,146156505651962 
347	 0,136238926843577 
348	 0,129192403378094 
349	 0,121072723123129 
350	 9,82463342227651E-02 
351	 8,13779699786852E-02 
352	 7,72502031763163E-02 
353	 6,49492648131536E-02 
354	 6,94324790006461E-02 
355	 0,116446021677996 
356	 0,102866148206516 
357	 4,27910879447438E-02 
358	 5,30112793727511E-02 
359	 7,70732046894559E-02 
360	 8,68857662880886E-02 
361	 8,92494335114368E-02 
362	 0,087930580673646 
363	 8,71192457900062E-02 
364	 9,59821561660691E-02 
365	 0,110315364436437 
366	 0,112706192118275 
367	 0,110725388976773 
368	 0,109507406510686 
369	 0,110937211314994 
370	 0,11099176922908 
371	 0,101381679201923 
372	 0,102602831706943 
373	 0,114982797954152 
374	 0,115522553052681 
375	 0,108247630624913 
376	 9,67667125868936E-02 
377	 7,91939772858655E-02 
378	 6,30298308015195E-02 
379	 6,48236644640096E-02 
380	 0,059370628425456 
381	 0,045601787479673 
382	 6,20422448501665E-02 
383	 8,13889295820258E-02 
384	 0,079758511632574 
385	 8,61008071548252E-02 
386	 9,36576012668103E-02 
387	 7,13615423841213E-02 
388	 5,80984739991197E-02 
389	 6,94484805197126E-02 
390	 9,14484731476315E-02 
391	 0,109755406214903 
392	 0,109135639147298 
393	 0,109066186801628 
394	 0,109824855526689 
395	 9,88780578020949E-02 
396	 8,62458822584163E-02 
397	 7,81471322199658E-02 
398	 7,62321117856091E-02 
399	 0,082709527972862 
400	 0,101449845108738 
401	 0,10474067535526 
402	 0,091891072702671 
403	 8,82260839666281E-02 
404	 8,88567019702839E-02 
405	 8,95751753134429E-02 
406	 8,62001207169765E-02 
407	 8,12038883974027E-02 
408	 8,02315115851932E-02 
409	 8,26084862790547E-02 
410	 8,69901336406367E-02 
411	 8,82170099501599E-02 
412	 8,89745606346662E-02 
413	 9,16318155893037E-02 
414	 8,62864842727328E-02 
415	 7,81003456912151E-02 
416	 8,51753658318515E-02 
417	 8,69047042445476E-02 
418	 7,79214145446821E-02 
419	 8,04815481522909E-02 
420	 8,65406369431177E-02 
421	 8,36725489579482E-02 
422	 8,18841258957969E-02 
423	 8,25431686474806E-02 
424	 8,22391269156984E-02 
425	 8,37722250361569E-02 
426	 8,78379587832337E-02 
427	 8,53947402754217E-02 
428	 8,16159300980769E-02 
429	 8,80934942378002E-02 
430	 9,13946145893397E-02 
431	 8,87429814868561E-02 
432	 8,65754289130603E-02 
433	 8,46939141261624E-02 
434	 8,28718682794633E-02 
435	 8,39073905600116E-02 
436	 8,66708281605877E-02 
437	 0,08769037004172 
438	 8,61109516838597E-02 
439	 8,25436013672065E-02 
440	 8,32750858509763E-02 
441	 8,56680972958336E-02 
442	 8,56935268566928E-02 
443	 0,08525880442835 
444	 8,51140730725865E-02 
445	 0,086570030981825 
446	 0,087068737182301 
447	 8,51897707633615E-02 
448	 8,33450062677938E-02 
449	 8,26808166759569E-02 
450	 8,46933369075527E-02 
451	 8,49821965158142E-02 
452	 8,32215352318869E-02 
453	 8,51730965085589E-02 
454	 8,68174101986254E-02 
455	 8,45981765471572E-02 
456	 8,48720074449488E-02 
457	 8,73037065369399E-02 
458	 8,83383336428838E-02 
459	 8,55688617375111E-02 
460	 7,98137704602898E-02 
461	 8,36092500323929E-02 
462	 9,04362578724252E-02 
463	 9,04683332567007E-02 
464	 8,64999751669949E-02 
465	 8,17894638375807E-02 
466	 8,50365538129732E-02 
467	 8,84117294090986E-02 
468	 0,08693102314521 
469	 8,65994708971247E-02 
470	 8,65713009393595E-02 
471	 8,33344498035013E-02 
472	 8,07427181363004E-02 
473	 8,04729008748422E-02 
474	 8,35739588513501E-02 
475	 8,65904489590442E-02 
476	 8,61635051692956E-02 
477	 8,56401910531678E-02 
478	 8,50919158987396E-02 
479	 0,082545786691572 
480	 8,05700151447823E-02 
481	 8,06771098129063E-02 
482	 8,40566108804969E-02 
483	 8,69179879259068E-02 
484	 8,37172619079551E-02 
485	 8,29753455360478E-02 
486	 8,53530021997518E-02 
487	 8,41116477184934E-02 
488	 0,081891795040341 
489	 8,08859583661975E-02 
490	 8,11764113003162E-02 
491	 8,22494874606403E-02 
492	 8,29910351219869E-02 
493	 0,08300451312879 
494	 8,24397262688563E-02 
495	 8,31468642403518E-02 
496	 8,42914072341124E-02 
497	 8,47791898312703E-02 
498	 8,40461365035425E-02 
499	 0,082723087031339 
500	 8,32784969668744E-02 
501	 8,33186971053428E-02 
502	 8,17699474748372E-02 
503	 8,12889314646452E-02 
504	 0,082191455948784 
505	 0,08450053505482 
506	 8,60229122923714E-02 
507	 8,61026802887111E-02 
508	 8,54910983596932E-02 
509	 8,47434887035215E-02 
510	 8,43558559065433E-02 
511	 0,084439223655628 
512	 8,49200799043452E-02 
513	 8,58228206352274E-02 
514	 0,085413861697534 
515	 8,34131086368174E-02 
516	 8,32793284509797E-02 
517	 8,42993253637674E-02 
518	 8,50085553351442E-02 
519	 8,49910457207937E-02 
520	 8,44511450723897E-02 
521	 8,47617188288025E-02 
522	 8,51394625830685E-02 
523	 8,49253483449965E-02 
524	 8,33577243421106E-02 
525	 8,17178324488338E-02 
526	 8,31954621269509E-02 
527	 8,42525657801839E-02 
528	 0,083797155638145 
529	 8,32615552117639E-02 
530	 8,29774624806929E-02 
531	 8,31905781669452E-02 
532	 8,36237004317636E-02 
533	 8,41430785015745E-02 
534	 0,08476384664824 
535	 8,46676334485749E-02 
536	 8,35885945842781E-02 
537	 8,36703470865116E-02 
538	 8,43832260408364E-02 
539	 8,41803527852427E-02 
540	 8,41790199176681E-02 
541	 8,45773313408002E-02 
542	 0,084782893545401 
543	 8,47013410736489E-02 
544	 0,084312411126843 
545	 8,44686921172082E-02 
546	 0,085182492827746 
547	 8,61624072879068E-02 
548	 8,62300158915545E-02 
549	 0,08500721619466 
550	 8,42840775806803E-02 
551	 0,084528528346326 
552	 8,61489141161793E-02 
553	 0,086997477811133 
554	 8,65899670274448E-02 
555	 8,58105907196211E-02 
556	 0,085699819420659 
557	 8,69385039834898E-02 
558	 0,08689279932936 
559	 8,59299656836807E-02 
560	 8,61992274248036E-02 
561	 8,67374144108986E-02 
562	 8,69138545719641E-02 
563	 8,51058354782968E-02 
564	 8,34149578836605E-02 
565	 8,47333239594527E-02 
566	 8,54297712468391E-02 
567	 8,49890692539187E-02 
568	 8,51283578414799E-02 
569	 8,54320878165598E-02 
570	 8,56287094485012E-02 
571	 8,60306403423232E-02 
572	 8,64147574471264E-02 
573	 8,61693245697913E-02 
574	 8,61988981643202E-02 
575	 8,67671264764373E-02 
576	 8,73208525718009E-02 
577	 8,79700282168032E-02 
578	 8,88694627874857E-02 
579	 0,089747052986782 
580	 0,090425783095057 
581	 9,05132992956152E-02 
582	 0,090987088467702 
583	 9,22876192314442E-02 
584	 9,31592709525812E-02 
585	 9,34235047127636E-02 
586	 9,30378184425443E-02 
587	 9,30835181150779E-02 
588	 9,37155128693979E-02 
589	 9,37369140868383E-02 
590	 9,40384905401213E-02 
591	 9,54071750396349E-02 
592	 9,61405477372957E-02 
593	 9,61119122681548E-02 
594	 9,59643091731028E-02 
595	 9,57384029867496E-02 
596	 9,55089435727103E-02 
597	 9,52566733475457E-02 
598	 0,095269148746848 
599	 0,095991124959669 
600	 9,61468876585787E-02 
601	 9,55204253253717E-02 
602	 9,48369007486178E-02 
603	 9,42100798484546E-02 
604	 9,38008764254571E-02 
605	 0,09445962704475 
606	 9,54342352450034E-02 
607	 9,45927117112106E-02 
608	 0,093717362358098 
609	 9,33468885897701E-02 
610	 9,23627644597496E-02 
611	 9,15665859471914E-02 
612	 9,20279844438488E-02 
613	 9,15223801356542E-02 
614	 9,01677893690847E-02 
615	 9,02392039562195E-02 
616	 0,090593083138902 
617	 9,04959412007931E-02 
618	 9,04179381794584E-02 
619	 9,01490344385366E-02 
620	 8,91018968962936E-02 
621	 8,84614680916929E-02 
622	 8,86474930058909E-02 
623	 8,94825956710074E-02 
624	 9,02282449163615E-02 
625	 9,01487376582668E-02 
626	 8,95139835423505E-02 
627	 0,088894335295185 
628	 8,97649235677803E-02 
629	 0,090401397735979 
630	 9,00243678711996E-02 
631	 9,00658969330715E-02 
632	 0,090282110216488 
633	 8,99673255088608E-02 
634	 9,02664718416523E-02 
635	 9,12050881715259E-02 
636	 0,091512475057057 
637	 9,14797062913638E-02 
638	 9,14328490940004E-02 
639	 9,19502791576993E-02 
640	 9,26530620057573E-02 
641	 9,23136670473088E-02 
642	 9,17801276239482E-02 
643	 9,15417231105164E-02 
644	 9,22372786559936E-02 
645	 9,32134539287321E-02 
646	 9,35632658890369E-02 
647	 9,32246659349141E-02 
648	 9,24479707640601E-02 
649	 9,21881760776982E-02 
650	 9,19061977140495E-02 
651	 9,13416377561192E-02 
652	 9,17027900343183E-02 
653	 9,21588872024895E-02 
654	 9,06229970020785E-02 
655	 0,089525885873657 
656	 8,95029465019218E-02 
657	 8,92939035523375E-02 
658	 8,89015454837862E-02 
659	 8,84073646479726E-02 
660	 8,78937410363658E-02 
661	 0,087387404214543 
662	 8,69213860047732E-02 
663	 8,62451608222167E-02 
664	 8,53524266228377E-02 
665	 8,51040292402254E-02 
666	 8,52413892379497E-02 
667	 0,085230222951611 
668	 8,47955502879673E-02 
669	 8,40836602199622E-02 
670	 8,39886069244035E-02 
671	 8,43226551989361E-02 
672	 8,48167367763857E-02 
673	 8,43630882037634E-02 
674	 8,34242510895022E-02 
675	 8,35814541499744E-02 
676	 8,38203067502862E-02 
677	 8,38380138284874E-02 
678	 8,40643599098907E-02 
679	 8,42779330133185E-02 
680	 8,41921954228306E-02 
681	 8,43287649189438E-02 
682	 8,47879913597612E-02 
683	 8,55485921030986E-02 
684	 8,59231523391895E-02 
685	 8,56118294107795E-02 
686	 0,085760078566033 
687	 8,63079566779143E-02 
688	 8,68275384543307E-02 
689	 8,76039838773067E-02 
690	 8,87500730693983E-02 
691	 9,03102911154692E-02 
692	 9,22429568448878E-02 
693	 9,45268458388004E-02 
694	 9,73905195521831E-02 
695	 0,100962059170348 
696	 0,105319176472785 
697	 0,110621804628046 
698	 0,117024891312721 
699	 0,124730842933337 
700	 0,133585821243967 
701	 0,143364891925539 
702	 0,154187171752817 
703	 0,166036879166653 
704	 0,178851507787797 
705	 0,192321298681498 
706	 0,206237312408212 
707	 0,220636436196101 
708	 0,235491895275161 
709	 0,250783261724129 
710	 0,265901478591654 
711	 0,280761368519295 
712	 0,295830820205876 
713	 0,31113403723337 
714	 0,326630049392718 
715	 0,341766341899851 
716	 0,356220386201005 
717	 0,369586508097352 
718	 0,382481498888837 
719	 0,395155248508859 
720	 0,407570700426088 
721	 0,419292378919042 
722	 0,429761862760264 
723	 0,439566879990014 
724	 0,44885572738606 
725	 0,457492977361829 
726	 0,465602718858371 
727	 0,473239971811261 
728	 0,480035702091321 
729	 0,486268058786161 
730	 0,492511529688034 
731	 0,498265998052748 
732	 0,503313019101182 
733	 0,507390673803107 
734	 0,511055613639676 
735	 0,514784887303837 
736	 0,518246291190095 
737	 0,521393100402896 
738	 0,524193972202597 
739	 0,526908092113577 
740	 0,529550619992633 
741	 0,531593206439497 
742	 0,533282810953122 
743	 0,534956904396595 
744	 0,53677480114701 
745	 0,538612621483923 
746	 0,539962447722839 
747	 0,541075046497871 
748	 0,542112371043489 
749	 0,54324740971511 
750	 0,54421793176172 
751	 0,544570136427993 
752	 0,545200815676926 
753	 0,546232928479114 
754	 0,547120399975288 
755	 0,547734110561634 
756	 0,548062744880865 
757	 0,54897378578216 
758	 0,550020823317165 
759	 0,549980034151151 
760	 0,550271759518755 
761	 0,551141400018683 
762	 0,551428537733432 
763	 0,551446180936737 
764	 0,551552147212951 
765	 0,551789925979752 
766	 0,552068363650128 
767	 0,552086610601441 
768	 0,552160516594821 
769	 0,552368706597819 
770	 0,552385850811123 
771	 0,552335613644654 
772	 0,552396514508604 
773	 0,552709133955871 
774	 0,553145869355235 
775	 0,55319327634828 
776	 0,553392694933364 
777	 0,553888269121314 
778	 0,553584169768875 
779	 0,553141398697695 
780	 0,553692264261247 
781	 0,553984809779164 
782	 0,553811279057763 
783	 0,55369590824006 
784	 0,553578767855297 
785	 0,553475821495048 
786	 0,55382696264672 
787	 0,554253063581941 
788	 0,55397660372527 
789	 0,55374550198821 
790	 0,55377044291524 
791	 0,553883723363699 
792	 0,554093211191985 
793	 0,55435317396095 
794	 0,554105044817721 
795	 0,553651041510498 
796	 0,553821974455673 
797	 0,554112058715824 
798	 0,554273425608991 
799	 0,554000111907359 
800	 0,553600079796885 
801	 0,553402586989985 
802	 0,553598619475421 
803	 0,554069002300182 
804	 0,554477021689122 
805	 0,554580869141749 
806	 0,554332268029184 
807	 0,55412444972269 
808	 0,554075478746316 
809	 0,554268415807444 
810	 0,554597236345291 
811	 0,554831864786216 
812	 0,5544000021438 
813	 0,554159418273804 
814	 0,554401819160466 
815	 0,554406750604278 
816	 0,554336150847721 
817	 0,55445571184713 
818	 0,554883511399546 
819	 0,555366506671658 
820	 0,555071167060099 
821	 0,554853867608266 
822	 0,555036805594357 
823	 0,554791340489659 
824	 0,554529530007819 
825	 0,554859021959833 
826	 0,554504130386875 
827	 0,553771978824526 
828	 0,554722891722919 
829	 0,555136179510071 
830	 0,554111250797211 
831	 0,554007499795844 
832	 0,554392996241067 
833	 0,5543365985106 
834	 0,553753287563272 
835	 0,553010043713185 
836	 0,553378803297404 
837	 0,553929521134826 
838	 0,554147909336047 
839	 0,554355501014299 
840	 0,554357000908995 
841	 0,553854784194556 
842	 0,553851263567967 
843	 0,554303839579731 
844	 0,554145101154093 
845	 0,553957471753567 
846	 0,554074352658976 
847	 0,554508056988365 
848	 0,554801278253949 
849	 0,554334125370103 
850	 0,553751861377593 
851	 0,553404221532322 
852	 0,553771953841247 
853	 0,554336765593039 
854	 0,554673431835791 
855	 0,554051811033976 
856	 0,553423803632784 
857	 0,554158720803282 
858	 0,554626099810252 
859	 0,554527831529034 
860	 0,554336215539133 
861	 0,553902489278638 
862	 0,553379072190216 
863	 0,554092071095537 
864	 0,555141329267248 
865	 0,555195114059699 
866	 0,554686461400735 
867	 0,554085170035103 
868	 0,554547387045617 
869	 0,554742250631557 
870	 0,554149518237726 
871	 0,553724606644517 
872	 0,553912851513678 
873	 0,555045187886324 
874	 0,55447183002836 
875	 0,552640257435412 
876	 0,55254382255802 
877	 0,552824212208796 
878	 0,552971156145409 
879	 0,553363318597871 
880	 0,553435101535357 
881	 0,55264525097607 
882	 0,552597602736431 
883	 0,553010504016709 
884	 0,552193523847246 
885	 0,551706593415129 
886	 0,551895977264702 
887	 0,551475705591472 
888	 0,550936387664525 
889	 0,550786048087648 
890	 0,550548917933763 
891	 0,550372281625511 
892	 0,550786720104176 
893	 0,550907185307578 
894	 0,550583404649777 
895	 0,550599206889015 
896	 0,550591568682748 
897	 0,550288014449678 
898	 0,550064810920683 
899	 0,550010969326701 
900	 0,550218313333926 
901	 0,54952687369422 
902	 0,54826172922853 
903	 0,548895933037549 
904	 0,54990619074739 
905	 0,550225057764077 
906	 0,549784917726191 
907	 0,548984357913285 
908	 0,548419630855344 
909	 0,548133016738254 
910	 0,548083396327277 
911	 0,54802765283022 
912	 0,548033447536473 
913	 0,548031337634905 
914	 0,547506775459847 
915	 0,546949979220497 
916	 0,546907926472564 
917	 0,546539669078996 
918	 0,545866196028009 
919	 0,545304742973556 
920	 0,545155541749859 
921	 0,545359115044285 
922	 0,545105464408594 
923	 0,544373912779186 
924	 0,543265614403746 
925	 0,542511221731508 
926	 0,542118977726783 
927	 0,541889382680257 
928	 0,541014011122332 
929	 0,5396245635883 
930	 0,539258399375609 
931	 0,538479291651503 
932	 0,536606727912046 
933	 0,535038812175688 
934	 0,534193463608036 
935	 0,53431536391984 
936	 0,532967406194525 
937	 0,530722968446428 
938	 0,531089617667257 
939	 0,530233281090654 
940	 0,527364604887247 
941	 0,526389244206905 
942	 0,525840969318838 
943	 0,524238163225286 
944	 0,522139926286275 
945	 0,520072251112598 
946	 0,518841523003296 
947	 0,517241553901494 
948	 0,515126058096087 
949	 0,513469672230122 
950	 0,510985610594797 
951	 0,507314161002653 
952	 0,505049524235858 
953	 0,503675081370916 
954	 0,502183227815611 
955	 0,499723250624815 
956	 0,496702039914163 
957	 0,494756790566904 
958	 0,492587154844163 
959	 0,490172348945773 
960	 0,489413813249142 
961	 0,489172568519955 
962	 0,488429132676029 
963	 0,486925843694296 
964	 0,485317965553507 
965	 0,48465418896089 
966	 0,484496920414778 
967	 0,484621418687343 
968	 0,484893999372928 
969	 0,484097837134275 
970	 0,482120438502272 
971	 0,481162960764093 
972	 0,481652997608986 
973	 0,483451573640581 
974	 0,482392385867333 
975	 0,480200479647199 
976	 0,481250305594597 
977	 0,482274442037644 
978	 0,482378540634992 
979	 0,48158824035683 
980	 0,481155027351001 
981	 0,481870792475871 
982	 0,484363624749301 
983	 0,485480312859076 
984	 0,482506512090939 
985	 0,482976855458356 
986	 0,485276598781008 
987	 0,483508009077001 
988	 0,482736326949712 
989	 0,483910861093778 
990	 0,485158845864029 
991	 0,485641902044774 
992	 0,484995971925521 
993	 0,484222773743902 
994	 0,483802497718489 
995	 0,484232666424491 
996	 0,486808477872754 
997	 0,489731541244222 
998	 0,489276749965071 
999	 0,488319770070277 
1000	 0,48827269217987 
1001	 0,491257420828853 
1002	 0,49181127832033 
1003	 0,488561610659282 
1004	 0,490786450066752 
1005	 0,494080587685693 
1006	 0,493814372898703 
1007	 0,496297356083133 
1008	 0,498658169991481 
1009	 0,494042975501536 
1010	 0,493960144765181 
1011	 0,498861067675438 
1012	 0,499253119142543 
1013	 0,500273178060576 
1014	 0,50268581765626 
1015	 0,498874560247911 
1016	 0,49592138106237 
1017	 0,499474328004826 
1018	 0,501137145368873 
1019	 0,502229613053352 
1020	 0,506375354206033 
1021	 0,507152935189897 
1022	 0,504835728123633 
1023	 0,504311084121065 
1024	 0,504615964668261 
1025	 0,50564846287151 
1026	 0,507768296405245 
1027	 0,509190139508367 
1028	 0,50913376397038 
1029	 0,511580839867977 
1030	 0,513728616504182 
1031	 0,51231292525599 
1032	 0,515267965201801 
1033	 0,51942325997454 
1034	 0,515413940897812 
1035	 0,508723542545006 
1036	 0,504048819612021 
1037	 0,511210409024718 
1038	 0,516911270927415 
1039	 0,515412718617241 
1040	 0,51259918467979 
1041	 0,511917733240394 
1042	 0,515559150408265 
1043	 0,519700859254667 
1044	 0,520246349498353 
1045	 0,512963272976666 
1046	 0,510861490924317 
1047	 0,514909980819729 
1048	 0,520521699131602 
1049	 0,517767822309868 
1050	 0,509702914780689 
1051	 0,523325951478392 
1052	 0,529164719054796 
1053	 0,516173248692091 
1054	 0,511798526468998 
1055	 0,511937115844849 
1056	 0,511524727078635 
1057	 0,510958105868447 
1058	 0,508247547508518 
1059	 0,501494332935958 
1060	 0,508352776792747 
1061	 0,518948156801098 
1062	 0,502918591973044 
1063	 0,498356845524428 
1064	 0,511677942810072 
1065	 0,522527832264571 
1066	 0,52187918043503 
1067	 0,510001275345171 
1068	 0,513810946201317 
1069	 0,518783241284805 
1070	 0,514053456172963 
1071	 0,513624331960113 
1072	 0,520846685723657 
1073	 0,535390350080405 
1074	 0,528674059562067 
1075	 0,511248454198632 
