Wavelength	OSM-GIL00068.asd
325	 0,24822741283787 
326	 0,244601860932924 
327	 0,192344397347916 
328	 0,11692387330551 
329	 9,57376039599934E-02 
330	 0,094127359352724 
331	 7,53314054252615E-02 
332	 0,148247911967843 
333	 0,211572435304243 
334	 0,123479623764679 
335	 4,33789549313015E-02 
336	 6,61037707364992E-02 
337	 2,65691831587006E-03 
338	-3,71596521882696E-02 
339	 2,19734527963088E-02 
340	 9,65184747311126E-02 
341	 0,13467161254084 
342	 8,66373459303904E-02 
343	 6,31936929165556E-02 
344	 8,89003422009936E-02 
345	 0,050865475070555 
346	 2,95660456415669E-02 
347	 0,105442808307342 
348	 0,133776667943431 
349	 0,108098445186691 
350	 4,87093226801767E-02 
351	 7,17661919187525E-03 
352	 4,85177706932123E-03 
353	 0,012199569782998 
354	 1,79877001705561E-02 
355	 1,44837616741985E-02 
356	 2,61673918256878E-03 
357	-5,83045084530929E-03 
358	 2,55116946107038E-02 
359	 5,41859398366323E-02 
360	 0,060273183892235 
361	 5,28213627760035E-02 
362	 4,44008592509573E-02 
363	 5,09273575095222E-02 
364	 5,61549573281948E-02 
365	 5,35031117382125E-02 
366	 3,35426035898123E-02 
367	 2,54814879274497E-02 
368	 4,43670299722068E-02 
369	 3,46650524616626E-02 
370	 1,60467094578919E-02 
371	 3,23383178523074E-02 
372	 6,04440599527131E-02 
373	 8,18026272215476E-02 
374	 5,35714285714286E-02 
375	 2,15758361392902E-02 
376	 2,15287369316143E-02 
377	 2,72734145018276E-02 
378	 2,66199922346081E-02 
379	 4,74020258038611E-04 
380	-1,02915734627263E-02 
381	 3,46414365940912E-03 
382	 1,54943655023728E-02 
383	 1,99669229049246E-02 
384	 1,50683176885592E-02 
385	 1,98819548025675E-02 
386	 3,00370836454749E-02 
387	 0,026624471301293 
388	 2,06055766686334E-02 
389	 1,83099542524199E-02 
390	 2,76414102038158E-02 
391	 4,02448142476777E-02 
392	 4,51597189181057E-02 
393	 3,64127317131486E-02 
394	 2,05040511743755E-02 
395	 1,89095386011024E-02 
396	 2,31963065801432E-02 
397	 0,027338627385607 
398	 2,17108755343619E-02 
399	 1,42831976658001E-02 
400	 1,74455409512727E-02 
401	 2,84379391029629E-02 
402	 4,12923666808753E-02 
403	 3,95742429801627E-02 
404	 3,32552924022661E-02 
405	 2,96952079901065E-02 
406	 2,85678783756595E-02 
407	 2,77057356435038E-02 
408	 2,24278520154352E-02 
409	 1,77780326045485E-02 
410	 1,66174350572241E-02 
411	 2,45358378439534E-02 
412	 3,10432689938046E-02 
413	 0,027028050705311 
414	 0,02227924360202 
415	 1,95405627327882E-02 
416	 0,020906433474732 
417	 1,94784938476095E-02 
418	 1,43202541354578E-02 
419	 1,86302882142318E-02 
420	 2,43862694938387E-02 
421	 2,03349680944212E-02 
422	 1,57944486351888E-02 
423	 1,36947254690109E-02 
424	 1,59049796007089E-02 
425	 1,94052427553937E-02 
426	 2,15613064565906E-02 
427	 1,70971782738522E-02 
428	 1,25537103396538E-02 
429	 2,10622076720466E-02 
430	 2,65505718626045E-02 
431	 2,47538410267027E-02 
432	 1,96098318979775E-02 
433	 1,56906106013818E-02 
434	 1,66297290777909E-02 
435	 1,67252281926613E-02 
436	 1,58141865298645E-02 
437	 1,64190180405178E-02 
438	 1,66547107979474E-02 
439	 0,016035689003705 
440	 1,66420297185637E-02 
441	 1,66313359444627E-02 
442	 1,34964760864033E-02 
443	 1,45554792618779E-02 
444	 1,89347254165365E-02 
445	 1,77468278437708E-02 
446	 1,64055602046686E-02 
447	 1,78284969953842E-02 
448	 1,62613086584023E-02 
449	 0,013984949014901 
450	 1,66864502953567E-02 
451	 1,72458707835807E-02 
452	 1,49329591941106E-02 
453	 1,72503720676882E-02 
454	 1,97795335582624E-02 
455	 1,84455320112134E-02 
456	 1,80828510533611E-02 
457	 1,88263031447593E-02 
458	 1,86862620849391E-02 
459	 1,74014000648235E-02 
460	 1,54412892364876E-02 
461	 1,68986051096812E-02 
462	 1,86547368217978E-02 
463	 1,62092232271426E-02 
464	 1,46128376114926E-02 
465	 1,49955220213162E-02 
466	 1,66287038202904E-02 
467	 0,01738990645289 
468	 1,62301019901014E-02 
469	 1,81749465754481E-02 
470	 2,02663951478761E-02 
471	 1,48751042038823E-02 
472	 1,21981362499758E-02 
473	 0,014632367723224 
474	 1,62237501525307E-02 
475	 1,67683906102467E-02 
476	 1,64528316087746E-02 
477	 1,71802578393245E-02 
478	 1,83974170608724E-02 
479	 1,78116222712156E-02 
480	 0,015005964580556 
481	 1,08269919479349E-02 
482	 1,23871254251064E-02 
483	 1,56521948196659E-02 
484	 1,36532028798756E-02 
485	 1,39974493921122E-02 
486	 1,69320666526354E-02 
487	 0,015784569399759 
488	 1,37244940151186E-02 
489	 1,32203869796454E-02 
490	 0,012611446708811 
491	 1,23750157324567E-02 
492	 1,42938421465127E-02 
493	 1,55265449698653E-02 
494	 1,52881623626666E-02 
495	 1,55590192706222E-02 
496	 1,55083279442301E-02 
497	 1,40936619346387E-02 
498	 1,41008848370901E-02 
499	 1,53988898527149E-02 
500	 1,55977491255523E-02 
501	 1,53721671159352E-02 
502	 1,51143166057532E-02 
503	 0,014838342678771 
504	 1,47643721956548E-02 
505	 0,015189369354196 
506	 1,61736476776971E-02 
507	 1,72898127372675E-02 
508	 1,69082619873749E-02 
509	 1,58640465306222E-02 
510	 1,50455637043226E-02 
511	 1,52632227923745E-02 
512	 0,016086228380803 
513	 1,60834507528892E-02 
514	 1,54639347842382E-02 
515	 1,45432492735024E-02 
516	 1,49056598470082E-02 
517	 1,55502474053609E-02 
518	 1,48827652746037E-02 
519	 1,43238075593195E-02 
520	 1,43081858721654E-02 
521	 1,49668213107562E-02 
522	 1,57817971684484E-02 
523	 1,62763116675233E-02 
524	 1,56167900914252E-02 
525	 1,44725944152537E-02 
526	 1,45795021779821E-02 
527	 0,014891697249019 
528	 1,49332040029833E-02 
529	 1,41055076898103E-02 
530	 1,33628839648054E-02 
531	 1,38163630198023E-02 
532	 1,35693263675329E-02 
533	 0,012979410558789 
534	 1,47742069719114E-02 
535	 1,56206190374357E-02 
536	 1,38966618642515E-02 
537	 1,37071920116986E-02 
538	 1,47796476281029E-02 
539	 0,01567401062596 
540	 1,55705711949215E-02 
541	 1,45678308606408E-02 
542	 1,47607917381979E-02 
543	 1,50035284352719E-02 
544	 0,014160605593084 
545	 1,44747376669113E-02 
546	 0,015577331533065 
547	 1,51811597118181E-02 
548	 1,47385552087921E-02 
549	 1,49170612363747E-02 
550	 0,015246272270541 
551	 1,53662669023443E-02 
552	 0,014755327006511 
553	 1,50343707512181E-02 
554	 1,61056660926347E-02 
555	 1,55668689079894E-02 
556	 1,49841224112864E-02 
557	 1,56106625967194E-02 
558	 1,55677065201457E-02 
559	 1,49901130061597E-02 
560	 1,49652433836427E-02 
561	 1,55350279679758E-02 
562	 1,63478871893522E-02 
563	 1,49914668968294E-02 
564	 1,33978802804086E-02 
565	 1,43520621218244E-02 
566	 1,45688624790258E-02 
567	 0,013859265486285 
568	 1,46619459370111E-02 
569	 1,55758160802949E-02 
570	 1,56369830731028E-02 
571	 1,57371087680176E-02 
572	 0,015680790613924 
573	 1,45867947811807E-02 
574	 1,45493418066798E-02 
575	 1,58719870069002E-02 
576	 1,58197608826567E-02 
577	 1,52523346466682E-02 
578	 1,53503753615583E-02 
579	 1,55028162391621E-02 
580	 1,55953414784397E-02 
581	 1,55290349622945E-02 
582	 1,60516047117826E-02 
583	 1,73817691273745E-02 
584	 1,76393633502359E-02 
585	 1,73594281922975E-02 
586	 1,79716164012595E-02 
587	 1,81785766013294E-02 
588	 1,77604222171953E-02 
589	 1,74043745863696E-02 
590	 1,75286325878531E-02 
591	 1,84190740368899E-02 
592	 1,87065438430191E-02 
593	 1,84179856784193E-02 
594	 0,018464708969609 
595	 1,83893352441091E-02 
596	 1,80662854249092E-02 
597	 1,79914964991839E-02 
598	 1,80566799169053E-02 
599	 1,80349678560541E-02 
600	 1,76557413335384E-02 
601	 1,71092884374555E-02 
602	 1,74165680829982E-02 
603	 1,78698848316335E-02 
604	 1,79033259993884E-02 
605	 1,80990820980204E-02 
606	 0,018169114961123 
607	 1,70393176846674E-02 
608	 0,01670579807611 
609	 1,74948358873473E-02 
610	 1,63641748773179E-02 
611	 1,50235249028179E-02 
612	 1,58649899154512E-02 
613	 1,63964516520563E-02 
614	 1,62043303541396E-02 
615	 1,60166768880892E-02 
616	 1,60797361072593E-02 
617	 1,64815629859224E-02 
618	 1,64996656073595E-02 
619	 1,59891177534987E-02 
620	 1,47388594238263E-02 
621	 1,45973269603993E-02 
622	 1,57670241244335E-02 
623	 1,58215271513927E-02 
624	 1,55790817648506E-02 
625	 0,015999084268363 
626	 1,60730517723438E-02 
627	 0,015884455496664 
628	 0,01634079131349 
629	 1,64855595777355E-02 
630	 1,59764508189454E-02 
631	 1,62126010867149E-02 
632	 1,65710370018652E-02 
633	 1,57275022328398E-02 
634	 1,57565611656708E-02 
635	 1,68792603045372E-02 
636	 1,74320857189742E-02 
637	 1,74614080102254E-02 
638	 1,71036350833683E-02 
639	 1,71043534279137E-02 
640	 1,74217366165297E-02 
641	 1,75384352082605E-02 
642	 1,76633907116749E-02 
643	 1,78532469066939E-02 
644	 1,80160285354399E-02 
645	 1,81654202479276E-02 
646	 1,83312203272756E-02 
647	 1,83842644465142E-02 
648	 1,82812234123072E-02 
649	 1,79774182618122E-02 
650	 1,77380409791656E-02 
651	 1,77361086206224E-02 
652	 0,017818982038597 
653	 1,77589219859566E-02 
654	 1,71274943264048E-02 
655	 1,66390253366431E-02 
656	 0,01652402235333 
657	 1,66243422984517E-02 
658	 0,016417792441544 
659	 1,54401052737991E-02 
660	 1,53851533451086E-02 
661	 1,61001413198558E-02 
662	 1,60972086168311E-02 
663	 1,58071896452509E-02 
664	 1,54520838462163E-02 
665	 1,51892410032735E-02 
666	 1,49349966883526E-02 
667	 1,44928921175404E-02 
668	 1,44079781726163E-02 
669	 1,46964016644061E-02 
670	 1,47957793722592E-02 
671	 0,014768974747599 
672	 1,46537161958358E-02 
673	 1,40836553531152E-02 
674	 1,34773314201905E-02 
675	 1,40080065837141E-02 
676	 1,43217585082718E-02 
677	 0,014051774515449 
678	 1,42200640536003E-02 
679	 1,45525065878867E-02 
680	 1,46335917727352E-02 
681	 1,47561591382466E-02 
682	 1,50838313761598E-02 
683	 1,60658806682254E-02 
684	 1,63889182688424E-02 
685	 1,54726532851095E-02 
686	 1,53766136923875E-02 
687	 1,59683985349408E-02 
688	 1,64996708419947E-02 
689	 1,69496116453809E-02 
690	 1,72910070875512E-02 
691	 1,75463081187244E-02 
692	 1,81088770133245E-02 
693	 1,93067671305657E-02 
694	 2,06438740237864E-02 
695	 2,21378376466681E-02 
696	 2,40733186764123E-02 
697	 2,62310650140782E-02 
698	 2,86910956562432E-02 
699	 0,032279235880319 
700	 3,66960702531068E-02 
701	 4,14535091106044E-02 
702	 4,65880977548652E-02 
703	 5,22684420946188E-02 
704	 5,90612574802903E-02 
705	 6,63813892894616E-02 
706	 7,38537270157639E-02 
707	 8,16214244535098E-02 
708	 8,99566079710526E-02 
709	 9,93665615049702E-02 
710	 0,108660821926337 
711	 0,117536925070974 
712	 0,126439237542802 
713	 0,135870169670677 
714	 0,146179689026998 
715	 0,155791491267174 
716	 0,164634344839425 
717	 0,173454843570456 
718	 0,182058894495299 
719	 0,190403566242647 
720	 0,198746426615163 
721	 0,206766399332555 
722	 0,214024031141696 
723	 0,22063358774503 
724	 0,226794546468807 
725	 0,233006158482779 
726	 0,238868781955668 
727	 0,244160216782689 
728	 0,249185866659325 
729	 0,253856168027996 
730	 0,257914462712156 
731	 0,26188540881461 
732	 0,265813526956986 
733	 0,269158129665921 
734	 0,271934636542371 
735	 0,274220770664416 
736	 0,276714356967086 
737	 0,279276295372181 
738	 0,28116143085243 
739	 0,283008028104348 
740	 0,284963443967325 
741	 0,286452646476609 
742	 0,287668644331346 
743	 0,288886985278027 
744	 0,290136512664701 
745	 0,291374556934358 
746	 0,292345259379296 
747	 0,293606584794495 
748	 0,295269078126162 
749	 0,295875999606773 
750	 0,29597387669568 
751	 0,296653946386087 
752	 0,297512835708939 
753	 0,298318089243391 
754	 0,298535474381699 
755	 0,298832307743772 
756	 0,299644076478977 
757	 0,300143963572386 
758	 0,300376377728454 
759	 0,300661671653253 
760	 0,301274693374055 
761	 0,302124362480601 
762	 0,302333590765252 
763	 0,302195648387068 
764	 0,302070479053763 
765	 0,302421625102488 
766	 0,303096691480854 
767	 0,303457303645706 
768	 0,303695226601142 
769	 0,303844662607593 
770	 0,303759574487744 
771	 0,303681597396075 
772	 0,303893879034873 
773	 0,304037992273541 
774	 0,304075980278291 
775	 0,304120260109501 
776	 0,304357048976848 
777	 0,304811147335182 
778	 0,304899079521684 
779	 0,304868649653691 
780	 0,30517876711872 
781	 0,305484316663952 
782	 0,30562842338182 
783	 0,305396159967166 
784	 0,305147338918728 
785	 0,305166197366314 
786	 0,305690651867212 
787	 0,306185012116508 
788	 0,305608423332053 
789	 0,305612889074384 
790	 0,306391113818892 
791	 0,306514086589923 
792	 0,306484261847434 
793	 0,30666964647689 
794	 0,30619795826248 
795	 0,305511787965149 
796	 0,305828056594532 
797	 0,306185097654172 
798	 0,306297126324872 
799	 0,3064828336844 
800	 0,306515490862702 
801	 0,30621342076423 
802	 0,306201533788864 
803	 0,306443521817536 
804	 0,306509321456401 
805	 0,306692334943736 
806	 0,306983978036784 
807	 0,306798915789821 
808	 0,306612205920631 
809	 0,306934699014482 
810	 0,306750601051545 
811	 0,306324947618365 
812	 0,307047243858365 
813	 0,307430049693732 
814	 0,307031330753379 
815	 0,30730778673828 
816	 0,30776507628465 
817	 0,30768428791291 
818	 0,307569277511404 
819	 0,307560833756718 
820	 0,307748386776324 
821	 0,307865298780759 
822	 0,307805643947969 
823	 0,307814959224464 
824	 0,307879439943782 
825	 0,30794730002797 
826	 0,307875238169885 
827	 0,307658009199814 
828	 0,30744237985726 
829	 0,306986193909494 
830	 0,306325133547162 
831	 0,306524901270998 
832	 0,306969297517764 
833	 0,306679706339226 
834	 0,306338536186539 
835	 0,306125324959025 
836	 0,306011685901777 
837	 0,30614338921769 
838	 0,306552066194867 
839	 0,306940032166559 
840	 0,307074276946446 
841	 0,306702442105359 
842	 0,306669712786322 
843	 0,306984841003303 
844	 0,306943631331467 
845	 0,30654124742028 
846	 0,305934849258822 
847	 0,30623472285041 
848	 0,30685540467738 
849	 0,306798785735509 
850	 0,307212156221623 
851	 0,307897175408135 
852	 0,307273740673812 
853	 0,306716352770722 
854	 0,3069318803242 
855	 0,307221507985092 
856	 0,307265131566904 
857	 0,306748978309073 
858	 0,306828448699456 
859	 0,307408739082684 
860	 0,307283116397232 
861	 0,306682250612252 
862	 0,305905015112494 
863	 0,3060337329638 
864	 0,306670916108033 
865	 0,307129568223434 
866	 0,307288444510595 
867	 0,307156595996727 
868	 0,306940865343842 
869	 0,306725914499591 
870	 0,306592692745846 
871	 0,30664367900905 
872	 0,306725567058209 
873	 0,306644919307584 
874	 0,306413214870068 
875	 0,306118858851813 
876	 0,305967394534077 
877	 0,305986281808849 
878	 0,306159850623415 
879	 0,306362051912742 
880	 0,306287576216724 
881	 0,305687793837376 
882	 0,305798932381999 
883	 0,306323657333205 
884	 0,305768728434832 
885	 0,305408609472128 
886	 0,305507811109646 
887	 0,304991400488814 
888	 0,304216193572018 
889	 0,303636382888878 
890	 0,303880003083839 
891	 0,304574161917883 
892	 0,304694962344871 
893	 0,304394589576534 
894	 0,303907612814828 
895	 0,304162806546614 
896	 0,304348113811686 
897	 0,303837328379836 
898	 0,30315623142763 
899	 0,302933465815589 
900	 0,304171637620882 
901	 0,304110838327533 
902	 0,302597354933675 
903	 0,302293826384372 
904	 0,302382149017272 
905	 0,302311419996526 
906	 0,302009562425075 
907	 0,301752521651668 
908	 0,301950327032495 
909	 0,301804771875647 
910	 0,301380445825864 
911	 0,301514096317204 
912	 0,301775336195881 
913	 0,301822153190025 
914	 0,301024325890247 
915	 0,299904058408197 
916	 0,299105039595993 
917	 0,29854804739739 
918	 0,298314501818037 
919	 0,29861124846439 
920	 0,298945714714024 
921	 0,298835547399193 
922	 0,29709223461393 
923	 0,295549031251955 
924	 0,295596126708925 
925	 0,294699049334488 
926	 0,293328116872517 
927	 0,293057190940636 
928	 0,292631074626225 
929	 0,291730445330047 
930	 0,290568759784628 
931	 0,289359779546513 
932	 0,28822578938845 
933	 0,287017103254818 
934	 0,285583268791992 
935	 0,283783360473614 
936	 0,282248899624697 
937	 0,281317050273516 
938	 0,281726917498151 
939	 0,280795640990975 
940	 0,277844172451096 
941	 0,27543930231809 
942	 0,273266629710892 
943	 0,27103761108106 
944	 0,270102264295554 
945	 0,269423617015794 
946	 0,266730240865971 
947	 0,264079917384097 
948	 0,262190243099949 
949	 0,261419605799739 
950	 0,259867309253808 
951	 0,256554881659291 
952	 0,252772693089919 
953	 0,250011550844315 
954	 0,249700636158692 
955	 0,247436436069241 
956	 0,243611650308251 
957	 0,241757378773219 
958	 0,240117165959852 
959	 0,238310713785282 
960	 0,23732294443056 
961	 0,236044021144732 
962	 0,233771315598878 
963	 0,232218858560132 
964	 0,231534707390293 
965	 0,23151921149668 
966	 0,230854461595761 
967	 0,229944386381816 
968	 0,231386457026316 
969	 0,231948314125869 
970	 0,230408743062333 
971	 0,228324499203314 
972	 0,227131861936978 
973	 0,227955689708601 
974	 0,229164467724556 
975	 0,229879966449046 
976	 0,229116509952678 
977	 0,22888434896214 
978	 0,22919391086546 
979	 0,227721101850753 
980	 0,227633559726757 
981	 0,230116869796418 
982	 0,23255691083643 
983	 0,232403886390695 
984	 0,228018986243441 
985	 0,228609925049965 
986	 0,232003845701588 
987	 0,230551196229785 
988	 0,229872103062517 
989	 0,230983851886273 
990	 0,231735064470426 
991	 0,232226849199067 
992	 0,232734638296491 
993	 0,235001508836835 
994	 0,23654066076755 
995	 0,235021368882197 
996	 0,236364221467618 
997	 0,239154244824995 
998	 0,238607034228629 
999	 0,237956845211502 
1000	 0,238270809384009 
1001	 0,239997620264811 
1002	 0,241238982417224 
1003	 0,241178678393094 
1004	 0,241347399975343 
1005	 0,241782017399255 
1006	 0,242616784918256 
1007	 0,246903346566465 
1008	 0,250425423578765 
1009	 0,24499022630658 
1010	 0,242422378429778 
1011	 0,244896637581224 
1012	 0,248195964186588 
1013	 0,249860834975427 
1014	 0,249120350913466 
1015	 0,249183859067376 
1016	 0,250025421950638 
1017	 0,251464628530112 
1018	 0,253416882857278 
1019	 0,255563062013536 
1020	 0,257438929138948 
1021	 0,257956989869085 
1022	 0,257414147115351 
1023	 0,257101402371286 
1024	 0,258617122061707 
1025	 0,261533442776418 
1026	 0,261266430223403 
1027	 0,260354735006031 
1028	 0,261158804938976 
1029	 0,267419084823844 
1030	 0,270806563908064 
1031	 0,262560529820539 
1032	 0,262819164080168 
1033	 0,268678012622758 
1034	 0,265942388607185 
1035	 0,265836169185727 
1036	 0,269662931698725 
1037	 0,271034736037754 
1038	 0,272253364641645 
1039	 0,273834229567863 
1040	 0,273689255516657 
1041	 0,27236386817742 
1042	 0,271004829466325 
1043	 0,274214973505507 
1044	 0,277163806419684 
1045	 0,272814658407902 
1046	 0,274660263019968 
1047	 0,278748057534071 
1048	 0,268757561826996 
1049	 0,264587850946147 
1050	 0,270182653518435 
1051	 0,275292713359696 
1052	 0,274671603983789 
1053	 0,268471693446164 
1054	 0,273682555484264 
1055	 0,281014330500882 
1056	 0,281419154859675 
1057	 0,278199281049836 
1058	 0,276390319115492 
1059	 0,282211171287925 
1060	 0,287605441867325 
1061	 0,287726497986806 
1062	 0,276135899041347 
1063	 0,275681842957826 
1064	 0,28714036111002 
1065	 0,286160823893111 
1066	 0,280131816253813 
1067	 0,27395803026526 
1068	 0,275060212593785 
1069	 0,279525743926631 
1070	 0,283258890155888 
1071	 0,284494498723022 
1072	 0,282271408181612 
1073	 0,276503098443713 
1074	 0,273368696972238 
1075	 0,273727878095407 
