Wavelength	OSM-GIL00070.asd
325	 0,419592135657155 
326	 0,274343109792312 
327	 0,157013649894887 
328	 0,106819771189372 
329	 0,150536103856869 
330	 0,24613120986511 
331	 0,278545736044238 
332	 0,247039385702173 
333	 0,198308106464075 
334	 0,139618158902793 
335	 9,15122539671276E-02 
336	 0,093296704698643 
337	 7,47575704168633E-02 
338	 0,052864837719962 
339	 4,02617499962277E-02 
340	 5,68375313797895E-02 
341	 8,39539709592405E-02 
342	 8,42876147038063E-02 
343	 0,10289004950935 
344	 0,142313662269793 
345	 0,164039275634995 
346	 0,162554865358064 
347	 0,135978412152703 
348	 0,135443588723323 
349	 0,148659660157399 
350	 0,132761460403598 
351	 0,110074597771998 
352	 9,22815824031784E-02 
353	 9,49604703209245E-02 
354	 0,106422920874784 
355	 0,112537638791413 
356	 0,103833635958752 
357	 8,76511338546679E-02 
358	 9,44871499445584E-02 
359	 0,107742873018971 
360	 0,11656452960103 
361	 0,107372474769946 
362	 9,53276106540326E-02 
363	 0,103107316889754 
364	 0,114595681597056 
365	 0,123440453783759 
366	 0,126866749532649 
367	 0,130301391603965 
368	 0,134479743398371 
369	 0,11753162772154 
370	 0,100730276844524 
371	 0,124485198452338 
372	 0,139856067573489 
373	 0,136219045516429 
374	 0,134825392798246 
375	 0,134667104144927 
376	 0,133109079380627 
377	 0,113631148780249 
378	 8,41916231384056E-02 
379	 6,35744816663549E-02 
380	 7,14944618274956E-02 
381	 0,104099635130334 
382	 0,105813716740449 
383	 9,92902688574138E-02 
384	 0,107694477078635 
385	 0,11286775067312 
386	 0,111101953785797 
387	 9,89854323378319E-02 
388	 0,099050388415529 
389	 0,116864182444871 
390	 0,12664912952662 
391	 0,123718561248599 
392	 0,106465647702016 
393	 0,109291231043606 
394	 0,126746298190009 
395	 0,120744253606725 
396	 0,112532647156111 
397	 0,112900463734732 
398	 0,1152229035162 
399	 0,119010357337089 
400	 0,124856509364238 
401	 0,128409368281359 
402	 0,127935759497238 
403	 0,123064633677365 
404	 0,114404011104165 
405	 0,10378525887389 
406	 0,105045261641946 
407	 0,111841501276937 
408	 0,107186299243906 
409	 0,10759040368909 
410	 0,114945672814133 
411	 0,115289066733358 
412	 0,112985698437836 
413	 0,112583793951823 
414	 0,110148088968486 
415	 0,107904308141376 
416	 0,113546209554842 
417	 0,115785021438296 
418	 0,111453214951145 
419	 0,112179784558754 
420	 0,114105477446791 
421	 0,111140735054306 
422	 0,109595091940263 
423	 0,109896179157254 
424	 0,108832351542107 
425	 0,106849629330592 
426	 0,104651559195346 
427	 0,104923577556972 
428	 0,107571353607084 
429	 0,112103730438703 
430	 0,114284262701323 
431	 0,113616596850102 
432	 0,114981886564989 
433	 0,114527334842757 
434	 0,109217863070829 
435	 0,108650308996293 
436	 0,111422252431154 
437	 0,109048239242599 
438	 0,10845928360397 
439	 0,11142213322212 
440	 0,11160712903783 
441	 0,10985264954588 
442	 0,107942081807308 
443	 0,107875401963738 
444	 0,109579883877577 
445	 0,111276188272104 
446	 0,110989636133476 
447	 0,10793444523589 
448	 0,106912915163485 
449	 0,107921159927644 
450	 0,109824816451543 
451	 0,109027495629139 
452	 0,106249376192273 
453	 0,110629818466205 
454	 0,115704316706967 
455	 0,115422706281683 
456	 0,11379568660925 
457	 0,112363051767209 
458	 0,112932873931873 
459	 0,113692145551705 
460	 0,114268013924576 
461	 0,117795698668114 
462	 0,120606002771627 
463	 0,11776724595976 
464	 0,115021614896545 
465	 0,114380297878454 
466	 0,117100779976048 
467	 0,119187033377686 
468	 0,118155920221173 
469	 0,11823878890145 
470	 0,118122883244243 
471	 0,113629920975178 
472	 0,111394210591389 
473	 0,113141174241793 
474	 0,115751093979978 
475	 0,116795117008292 
476	 0,114381927546035 
477	 0,116679852450102 
478	 0,12136306872012 
479	 0,117262797469656 
480	 0,113419796134906 
481	 0,113908216217854 
482	 0,115397733434477 
483	 0,115740474604851 
484	 0,112286143558172 
485	 0,111866523130243 
486	 0,114736903117245 
487	 0,114515697053562 
488	 0,112839897795825 
489	 0,111252320072245 
490	 0,111566127801038 
491	 0,113006950358569 
492	 0,113091239690535 
493	 0,112940817253582 
494	 0,11284413429381 
495	 0,112475181011414 
496	 0,112158716147002 
497	 0,112264182143925 
498	 0,112734810374016 
499	 0,113435938960423 
500	 0,114158408480548 
501	 0,114245029650487 
502	 0,113511930978531 
503	 0,113597728336348 
504	 0,114293701466149 
505	 0,114790151448242 
506	 0,115887618670303 
507	 0,117284818932552 
508	 0,116877713556514 
509	 0,116092412996744 
510	 0,116307180854805 
511	 0,117237024565607 
512	 0,118398503121067 
513	 0,118906090234382 
514	 0,118373189546106 
515	 0,117050435686224 
516	 0,117853488371851 
517	 0,118924453200661 
518	 0,117261534211796 
519	 0,117324586665433 
520	 0,119250082301447 
521	 0,119246496092483 
522	 0,11878839641722 
523	 0,118907655690036 
524	 0,118174750231156 
525	 0,117317111388997 
526	 0,11863060075683 
527	 0,118760972987082 
528	 0,117054838330255 
529	 0,11680608265265 
530	 0,117117751022055 
531	 0,116695759365006 
532	 0,117127997594965 
533	 0,118130754750424 
534	 0,117966320328893 
535	 0,116833570202326 
536	 0,115247768387942 
537	 0,116500061776918 
538	 0,11880299881829 
539	 0,118031118983233 
540	 0,117940628161947 
541	 0,119113100220651 
542	 0,118698669548714 
543	 0,118031725941004 
544	 0,118516546077536 
545	 0,119152138066103 
546	 0,119881304279084 
547	 0,121173776538309 
548	 0,122360821255114 
549	 0,122939887199483 
550	 0,12207914597137 
551	 0,120920545943622 
552	 0,121292695189091 
553	 0,122490676769154 
554	 0,123627322086812 
555	 0,121990314253899 
556	 0,120655732970237 
557	 0,122030818861198 
558	 0,122185253021923 
559	 0,121156688696159 
560	 0,12081475233193 
561	 0,120764063811923 
562	 0,120711233756142 
563	 0,119443448136561 
564	 0,118306947580179 
565	 0,119185288912624 
566	 0,119075330612234 
567	 0,117885664859157 
568	 0,118124570507808 
569	 0,11876622371079 
570	 0,119100589863075 
571	 0,119594867597576 
572	 0,120253867073172 
573	 0,120939446712592 
574	 0,121910908450741 
575	 0,12318201423359 
576	 0,12432720876762 
577	 0,125541978280614 
578	 0,127067900210245 
579	 0,128608453253539 
580	 0,129943796703299 
581	 0,130583706583655 
582	 0,131505682756218 
583	 0,133177540670546 
584	 0,134473939233979 
585	 0,135394266125306 
586	 0,136189599411667 
587	 0,137256585104021 
588	 0,138467137953397 
589	 0,13856344579091 
590	 0,138685063023025 
591	 0,139885637855689 
592	 0,140832394872086 
593	 0,14132990173558 
594	 0,141619218781528 
595	 0,14177944501137 
596	 0,141820444488871 
597	 0,14141592990925 
598	 0,140935459558457 
599	 0,140978339881685 
600	 0,140640362609537 
601	 0,139891586211 
602	 0,139682952182952 
603	 0,139300659434745 
604	 0,138258885878416 
605	 0,137932544226134 
606	 0,137972251213276 
607	 0,136871497397062 
608	 0,136220362917593 
609	 0,136299130254711 
610	 0,135012066791096 
611	 0,13362430032052 
612	 0,133888870913474 
613	 0,133322954057347 
614	 0,131915389628126 
615	 0,131783896156392 
616	 0,131498883425089 
617	 0,130302590974255 
618	 0,130104774705937 
619	 0,130368070058369 
620	 0,12946091553568 
621	 0,128854814981796 
622	 0,128898667822563 
623	 0,128766444930374 
624	 0,128780274159472 
625	 0,129277327586315 
626	 0,129204150235677 
627	 0,128679677047118 
628	 0,128687505610507 
629	 0,128966133415066 
630	 0,129355784153161 
631	 0,129632538880666 
632	 0,129765298346864 
633	 0,129731440777356 
634	 0,130230065219523 
635	 0,131192446102259 
636	 0,131412452761377 
637	 0,131536967597098 
638	 0,132154294552537 
639	 0,133196261749687 
640	 0,134254733651558 
641	 0,134305119764218 
642	 0,134571291048959 
643	 0,135421194768605 
644	 0,135829837274345 
645	 0,136000898892938 
646	 0,136326784557999 
647	 0,135961495067914 
648	 0,135003385160857 
649	 0,134544933621217 
650	 0,133958715278358 
651	 0,132897261434743 
652	 0,13229856932745 
653	 0,131741926826523 
654	 0,130013572866467 
655	 0,128855952328217 
656	 0,128567131594682 
657	 0,127563433912609 
658	 0,126075529169047 
659	 0,124473066258653 
660	 0,123516424874625 
661	 0,122926062143723 
662	 0,12134808152055 
663	 0,119785908578753 
664	 0,118739875700357 
665	 0,117902341241524 
666	 0,117101848001673 
667	 0,116106191307572 
668	 0,115409042314398 
669	 0,115130706763559 
670	 0,115157628685298 
671	 0,115135012035743 
672	 0,114776455794842 
673	 0,114168375232893 
674	 0,113632013536196 
675	 0,113880523739861 
676	 0,114178266055232 
677	 0,114291016944656 
678	 0,114605384069575 
679	 0,114972255302855 
680	 0,115186951450471 
681	 0,115209678946372 
682	 0,115363460710702 
683	 0,116716627597633 
684	 0,117945298657242 
685	 0,118341215867063 
686	 0,118907149455724 
687	 0,120077438632808 
688	 0,122353579870133 
689	 0,124756107373466 
690	 0,127132724337486 
691	 0,130132888143199 
692	 0,134076382243278 
693	 0,139198560318598 
694	 0,14498027819995 
695	 0,151386696159937 
696	 0,158558573058578 
697	 0,166585760652302 
698	 0,175630947070683 
699	 0,186198350499162 
700	 0,197647909478022 
701	 0,209123770856223 
702	 0,221095479114556 
703	 0,233663172063713 
704	 0,246872495904742 
705	 0,260303509281817 
706	 0,273651158186185 
707	 0,286747744451735 
708	 0,299848348970969 
709	 0,313506295758877 
710	 0,326584401053579 
711	 0,338810366887851 
712	 0,350650277299057 
713	 0,362339083973689 
714	 0,374031793513071 
715	 0,384992231659901 
716	 0,395143117554399 
717	 0,404747231222583 
718	 0,413760588831582 
719	 0,422174543787438 
720	 0,430071110571564 
721	 0,437521008497636 
722	 0,444581850836968 
723	 0,450991041379608 
724	 0,456727979277088 
725	 0,461843318937287 
726	 0,466793475318107 
727	 0,471785021550643 
728	 0,475891558074374 
729	 0,479344356461509 
730	 0,482779158646755 
731	 0,485880095206225 
732	 0,488639178608533 
733	 0,491324766902972 
734	 0,49381230907588 
735	 0,495975552145315 
736	 0,497897730885223 
737	 0,499448139420206 
738	 0,500106934178814 
739	 0,501304343317383 
740	 0,503320770079961 
741	 0,504268682580539 
742	 0,504736232660823 
743	 0,50558198580844 
744	 0,506664364492854 
745	 0,507751254554591 
746	 0,50819653693053 
747	 0,50853989388271 
748	 0,509055182140851 
749	 0,50946832545406 
750	 0,509753623706457 
751	 0,509904964322719 
752	 0,510270237524925 
753	 0,510786140230215 
754	 0,510809778706797 
755	 0,510803249631313 
756	 0,51109166678204 
757	 0,511327413964074 
758	 0,511456084126864 
759	 0,511440205070299 
760	 0,511749378803861 
761	 0,512333269989927 
762	 0,512198845160488 
763	 0,511839361482141 
764	 0,511766762383795 
765	 0,511740729434617 
766	 0,511787105631146 
767	 0,512094858182838 
768	 0,512276250879353 
769	 0,512195315108015 
770	 0,512111075277286 
771	 0,512045287165378 
772	 0,51199321164691 
773	 0,511750133823642 
774	 0,511416901724141 
775	 0,511381663196616 
776	 0,511651024177235 
777	 0,51210983631142 
778	 0,511943581495639 
779	 0,511573066471236 
780	 0,511755873324249 
781	 0,511616834220391 
782	 0,511179722139288 
783	 0,51132749599169 
784	 0,511658798051391 
785	 0,51187232554782 
786	 0,511891216874052 
787	 0,5116717085528 
788	 0,511142220282116 
789	 0,510966268804048 
790	 0,511239040295004 
791	 0,511418006443056 
792	 0,511365014898661 
793	 0,511011348052716 
794	 0,510756532063196 
795	 0,510608194436294 
796	 0,510369725828218 
797	 0,510480337372172 
798	 0,510943351049168 
799	 0,511081501464121 
800	 0,510977888280662 
801	 0,510758786680927 
802	 0,510577678483377 
803	 0,510460058780334 
804	 0,510343047250505 
805	 0,510314493507825 
806	 0,510398656135364 
807	 0,51056595632577 
808	 0,510630112625889 
809	 0,510417960550452 
810	 0,510423502888989 
811	 0,510574586245363 
812	 0,510372098548941 
813	 0,510115389965675 
814	 0,509953997387678 
815	 0,509967196043509 
816	 0,510007382871032 
817	 0,509897208994052 
818	 0,509967668890129 
819	 0,510177454073856 
820	 0,510217902135517 
821	 0,51006517330799 
822	 0,509757379390862 
823	 0,509648259151952 
824	 0,509655258185883 
825	 0,509618194791942 
826	 0,509194754691608 
827	 0,508610881452013 
828	 0,508880821462054 
829	 0,50899443632794 
830	 0,508499049588549 
831	 0,508141992706479 
832	 0,508109677109257 
833	 0,508527822893929 
834	 0,508451361678348 
835	 0,507858993431034 
836	 0,507491388350326 
837	 0,507429781569737 
838	 0,507701622051774 
839	 0,50810635019337 
840	 0,508177609827577 
841	 0,507333225899427 
842	 0,507193747088326 
843	 0,507785439255686 
844	 0,507772566137188 
845	 0,507330501329008 
846	 0,506717270752538 
847	 0,507153942464655 
848	 0,507689501524137 
849	 0,506816318934482 
850	 0,506503416099922 
851	 0,506973424956834 
852	 0,507274728059045 
853	 0,50736234563438 
854	 0,507197603575586 
855	 0,506882268058305 
856	 0,506622014631528 
857	 0,50665963549025 
858	 0,506838461443185 
859	 0,506926851803427 
860	 0,506305004326555 
861	 0,505906269432442 
862	 0,506128253911974 
863	 0,506048945956906 
864	 0,505829912921042 
865	 0,505803271631237 
866	 0,505676933618 
867	 0,505463194389491 
868	 0,505384540909097 
869	 0,505348215934666 
870	 0,505336555218448 
871	 0,505513866099608 
872	 0,505714407208325 
873	 0,505717460089369 
874	 0,505181911017251 
875	 0,504377548984555 
876	 0,504235439554613 
877	 0,504256343064659 
878	 0,504274906422609 
879	 0,504576430005295 
880	 0,504884346048662 
881	 0,504876271265593 
882	 0,504372882547333 
883	 0,503756748185674 
884	 0,504127754648359 
885	 0,504352580848106 
886	 0,504043882373412 
887	 0,503520378841624 
888	 0,503124051743709 
889	 0,503127089700033 
890	 0,502986848936642 
891	 0,502654339832036 
892	 0,502204417751979 
893	 0,502193222535691 
894	 0,502603369917418 
895	 0,502501615727287 
896	 0,502107586099547 
897	 0,501667560185879 
898	 0,501483603383631 
899	 0,501609221098955 
900	 0,502069411450697 
901	 0,501766639513853 
902	 0,500737050134256 
903	 0,500347366276552 
904	 0,500539339135447 
905	 0,501064209440162 
906	 0,500360655504705 
907	 0,499514945798236 
908	 0,500310075624277 
909	 0,500634255429924 
910	 0,500277621570276 
911	 0,50038429831923 
912	 0,500106154016382 
913	 0,499179125582688 
914	 0,498404240277108 
915	 0,498123416395455 
916	 0,498546588536968 
917	 0,498242014267444 
918	 0,497417000198747 
919	 0,497318932666126 
920	 0,49781343972036 
921	 0,498389616596466 
922	 0,496852668863115 
923	 0,495130937705286 
924	 0,494840937979186 
925	 0,49442477976716 
926	 0,493920898394646 
927	 0,493820735453491 
928	 0,49383359932894 
929	 0,49364015356572 
930	 0,492412453729836 
931	 0,49141819130016 
932	 0,491262458435686 
933	 0,490468358590595 
934	 0,489466076405324 
935	 0,488984071702256 
936	 0,48784553405692 
937	 0,486364968048802 
938	 0,486211912472802 
939	 0,485910458049796 
940	 0,484736035086962 
941	 0,482048637842815 
942	 0,48006499023923 
943	 0,480534234021795 
944	 0,480161451242699 
945	 0,478682945378976 
946	 0,476681940145148 
947	 0,474893058202429 
948	 0,473613510414121 
949	 0,472938133988374 
950	 0,471430390330915 
951	 0,468585351392981 
952	 0,466882385651641 
953	 0,465981169426117 
954	 0,465086490705574 
955	 0,462920794068305 
956	 0,460172018110265 
957	 0,459350723878872 
958	 0,458778282457999 
959	 0,457675211946324 
960	 0,455243417707301 
961	 0,453356983221401 
962	 0,453173880115221 
963	 0,451506881854134 
964	 0,449827800173241 
965	 0,450979532087172 
966	 0,450798198435731 
967	 0,449257638479369 
968	 0,449721373844466 
969	 0,44985133174246 
970	 0,448823098854567 
971	 0,447652525083429 
972	 0,447464070517664 
973	 0,448943240017845 
974	 0,448663030309123 
975	 0,447526265194185 
976	 0,44820381930637 
977	 0,449172500082002 
978	 0,449488473306511 
979	 0,44728163693057 
980	 0,445689429003144 
981	 0,446410148992829 
982	 0,449121405149185 
983	 0,450929478856413 
984	 0,449139382491593 
985	 0,447198273574753 
986	 0,446264549871525 
987	 0,447170021220692 
988	 0,449036413144221 
989	 0,450665300605162 
990	 0,449130693703859 
991	 0,447578700902511 
992	 0,447609338641895 
993	 0,447323550296509 
994	 0,448209003021307 
995	 0,451578676872686 
996	 0,452903720885476 
997	 0,452383777661366 
998	 0,452152494954951 
999	 0,451857038403876 
1000	 0,451525151545756 
1001	 0,451035376404444 
1002	 0,451607104001905 
1003	 0,453542806278102 
1004	 0,454783350310208 
1005	 0,4559013473415 
1006	 0,457456214696227 
1007	 0,45768265699267 
1008	 0,45728488269607 
1009	 0,458048813934295 
1010	 0,457367771415802 
1011	 0,455833919102685 
1012	 0,457866491379347 
1013	 0,457990562538272 
1014	 0,455432447931307 
1015	 0,459498309941071 
1016	 0,463234452531046 
1017	 0,46093662132348 
1018	 0,459737210620946 
1019	 0,460862644565778 
1020	 0,464366625038451 
1021	 0,46538979738169 
1022	 0,464274198534343 
1023	 0,465716100875702 
1024	 0,465607599082869 
1025	 0,463891969063934 
1026	 0,466595940577445 
1027	 0,468298676578618 
1028	 0,466651927180725 
1029	 0,47345213559281 
1030	 0,478665865092097 
1031	 0,470491977503846 
1032	 0,46738880184614 
1033	 0,4696286378354 
1034	 0,470357006247609 
1035	 0,468114884961222 
1036	 0,465007807567814 
1037	 0,470403427654913 
1038	 0,475516521425144 
1039	 0,475827885516251 
1040	 0,471732953051162 
1041	 0,466863489994846 
1042	 0,464795980578361 
1043	 0,467277363919054 
1044	 0,471897136087102 
1045	 0,474683809595813 
1046	 0,47072468702247 
1047	 0,464517442585595 
1048	 0,468984198157113 
1049	 0,470999490492908 
1050	 0,469178902174125 
1051	 0,474909637543208 
1052	 0,479817350250302 
1053	 0,479357227897731 
1054	 0,47377303227418 
1055	 0,471102725352673 
1056	 0,476381328711719 
1057	 0,470706190231771 
1058	 0,461693440138398 
1059	 0,463654917056893 
1060	 0,467308117768524 
1061	 0,470007405972133 
1062	 0,471181874915253 
1063	 0,466036711404921 
1064	 0,45857760420197 
1065	 0,468442686787033 
1066	 0,471495353915841 
1067	 0,461927011833861 
1068	 0,470421541944422 
1069	 0,479711785583913 
1070	 0,476081648632899 
1071	 0,471634803570114 
1072	 0,469122296546664 
1073	 0,470052145361081 
1074	 0,472187888298527 
1075	 0,471574130685575 
