Wavelength	OSM-GIL00104.asd
325	 0,512882764709276 
326	 0,367678749001609 
327	 0,279616718786656 
328	 0,305474880355983 
329	 0,31140212001406 
330	 0,28449011173797 
331	 0,245389168706748 
332	 0,253638762375017 
333	 0,264581216713799 
334	 0,200652481890863 
335	 0,149023408048679 
336	 0,184713782090809 
337	 0,260222597450344 
338	 0,290281083609647 
339	 0,231645058152694 
340	 0,215892951734621 
341	 0,241185526588652 
342	 0,255090405603518 
343	 0,275951891759072 
344	 0,297224636074337 
345	 0,288025634995296 
346	 0,270000526615852 
347	 0,268859366169808 
348	 0,285706317006868 
349	 0,3012859730101 
350	 0,27039643960291 
351	 0,246837453350744 
352	 0,252251650068839 
353	 0,270380211259518 
354	 0,286573510835841 
355	 0,289367793506061 
356	 0,27577717633355 
357	 0,253505867408745 
358	 0,245747996189658 
359	 0,262725886110017 
360	 0,298852443220678 
361	 0,299015254286913 
362	 0,278842784810843 
363	 0,266079687253597 
364	 0,283465454673572 
365	 0,317313691802961 
366	 0,310725691681598 
367	 0,294606589321954 
368	 0,290958414288373 
369	 0,299079611423904 
370	 0,30638784584084 
371	 0,290129972638333 
372	 0,294495468923596 
373	 0,321580288479229 
374	 0,325721715807977 
375	 0,322296420208627 
376	 0,323208541430307 
377	 0,308757037023861 
378	 0,292041176804255 
379	 0,307748107779766 
380	 0,321526562278253 
381	 0,322527755302858 
382	 0,316287130425965 
383	 0,310363385429116 
384	 0,310462456152887 
385	 0,30953419903736 
386	 0,307000739982326 
387	 0,303489437465616 
388	 0,303600797951706 
389	 0,310559277570844 
390	 0,330505420894602 
391	 0,348910064494753 
392	 0,348277922678003 
393	 0,339592621186324 
394	 0,327526840933132 
395	 0,316995986603111 
396	 0,310198851571394 
397	 0,309054445892563 
398	 0,317824732937372 
399	 0,329430433727308 
400	 0,334096070771491 
401	 0,334528553262905 
402	 0,333956511410713 
403	 0,343367752550749 
404	 0,34506085936496 
405	 0,328948010844582 
406	 0,319940443401907 
407	 0,320110153176763 
408	 0,325675023370358 
409	 0,33100875485645 
410	 0,333267163067921 
411	 0,330405300797323 
412	 0,328836209575282 
413	 0,333793744472371 
414	 0,331293400592805 
415	 0,323938022687434 
416	 0,324622246947676 
417	 0,325489129314094 
418	 0,324582967800103 
419	 0,331120394330517 
420	 0,335362853655243 
421	 0,32448473579314 
422	 0,320911334039856 
423	 0,326288478538454 
424	 0,328805632125449 
425	 0,327861513637007 
426	 0,3239332975275 
427	 0,324354819248519 
428	 0,327395744892753 
429	 0,327905206721452 
430	 0,33156306723597 
431	 0,337083074937933 
432	 0,332212142662963 
433	 0,326508612336153 
434	 0,328487921955801 
435	 0,329137309880242 
436	 0,328183521008264 
437	 0,329060905532378 
438	 0,330481528429608 
439	 0,331718349222693 
440	 0,33160623615053 
441	 0,330852026398398 
442	 0,330479888754199 
443	 0,330455522829389 
444	 0,330857662520796 
445	 0,332269269177111 
446	 0,331702638525791 
447	 0,328010933364179 
448	 0,328326640144743 
449	 0,331597322092237 
450	 0,334263641234736 
451	 0,334857629919946 
452	 0,333586290653778 
453	 0,334655921198486 
454	 0,335573299570166 
455	 0,334166169068011 
456	 0,335832174272656 
457	 0,339136954209149 
458	 0,337567564743163 
459	 0,335684229613279 
460	 0,335946115180468 
461	 0,340881465813551 
462	 0,345258182935618 
463	 0,342264759469252 
464	 0,337285948263856 
465	 0,333476426496923 
466	 0,3357910917555 
467	 0,339013593385305 
468	 0,339747247621742 
469	 0,342130030043638 
470	 0,343645306838617 
471	 0,337954403358342 
472	 0,3344589266805 
473	 0,335823811894183 
474	 0,338048959858002 
475	 0,339825999633951 
476	 0,340118255738313 
477	 0,340581964204033 
478	 0,341118996623917 
479	 0,340597571423492 
480	 0,339167692566965 
481	 0,337492887619812 
482	 0,339583878901635 
483	 0,341921970323097 
484	 0,338834536261848 
485	 0,337538343856121 
486	 0,338863663183712 
487	 0,337892340497128 
488	 0,337347822860233 
489	 0,339113375918484 
490	 0,339932413230187 
491	 0,339515025700019 
492	 0,338279279715876 
493	 0,33791540098002 
494	 0,338818853065576 
495	 0,339123470505149 
496	 0,339462136272999 
497	 0,340675810161732 
498	 0,340457773386856 
499	 0,339133811060121 
500	 0,339197387773653 
501	 0,340027059994913 
502	 0,341112566759582 
503	 0,341234516452652 
504	 0,340944297257846 
505	 0,341437505391627 
506	 0,342784035821062 
507	 0,344277037991482 
508	 0,342653752086277 
509	 0,341409776271034 
510	 0,343623759751092 
511	 0,344941940111674 
512	 0,344965499737417 
513	 0,345026256279124 
514	 0,344621738774489 
515	 0,343819048059892 
516	 0,344163511480215 
517	 0,344774864842848 
518	 0,344229013944282 
519	 0,343973388237096 
520	 0,34423034630871 
521	 0,344408953457264 
522	 0,344529326784166 
523	 0,344566641679147 
524	 0,343980388378122 
525	 0,343313034688386 
526	 0,343992755607343 
527	 0,344493737357476 
528	 0,34426963794143 
529	 0,343521050953038 
530	 0,342921638795158 
531	 0,343197833572274 
532	 0,343252909651916 
533	 0,342910902963325 
534	 0,34240579919174 
535	 0,342186738900571 
536	 0,342514804431288 
537	 0,343163695386078 
538	 0,343567653351445 
539	 0,342749059978827 
540	 0,342204734777607 
541	 0,342469953661622 
542	 0,343480288693424 
543	 0,344614289348055 
544	 0,34526018452054 
545	 0,345446830955393 
546	 0,345488349203904 
547	 0,346292143872111 
548	 0,346788916757612 
549	 0,34662858119485 
550	 0,34741688962367 
551	 0,348149169775712 
552	 0,346973800996816 
553	 0,34634027305798 
554	 0,346648720819632 
555	 0,346358877154099 
556	 0,346264882476901 
557	 0,346913119229718 
558	 0,346146399232814 
559	 0,344605123439611 
560	 0,34478479068623 
561	 0,345440865174253 
562	 0,345896750762918 
563	 0,345120392397164 
564	 0,344145204099653 
565	 0,344438025767618 
566	 0,344724714036793 
567	 0,344736365225869 
568	 0,344609392564388 
569	 0,344988105354652 
570	 0,346220475959437 
571	 0,347054306245821 
572	 0,347379938742951 
573	 0,347299501990295 
574	 0,348140327081812 
575	 0,350012963713057 
576	 0,350624822019798 
577	 0,350915645296815 
578	 0,352102126843823 
579	 0,352792787420725 
580	 0,35335610180734 
581	 0,35593942276676 
582	 0,358306238485816 
583	 0,359332482504021 
584	 0,361178125890267 
585	 0,363266708891858 
586	 0,364064617774605 
587	 0,365280365948691 
588	 0,367069801675389 
589	 0,36765647724906 
590	 0,368127968395585 
591	 0,36951544254646 
592	 0,370632077280596 
593	 0,37128053109805 
594	 0,371596014484976 
595	 0,371716768009027 
596	 0,371755525153026 
597	 0,371806389188672 
598	 0,371960507946108 
599	 0,372347271209429 
600	 0,372212858765597 
601	 0,371535836692341 
602	 0,371082168416448 
603	 0,370870617945944 
604	 0,370861107299538 
605	 0,370596846965767 
606	 0,369887387152325 
607	 0,368332126176717 
608	 0,367549839828192 
609	 0,367861047835991 
610	 0,366961265419825 
611	 0,365851934389349 
612	 0,365999650230289 
613	 0,365639712318239 
614	 0,364672836464229 
615	 0,364261776020775 
616	 0,36387139739092 
617	 0,363194280363865 
618	 0,362645194714213 
619	 0,362290201405071 
620	 0,362138018412654 
621	 0,362006693459289 
622	 0,361878667302877 
623	 0,362046762265818 
624	 0,36220166370905 
625	 0,362032714671346 
626	 0,362204733082826 
627	 0,362628572017655 
628	 0,362666513186022 
629	 0,362465895818335 
630	 0,362204031838643 
631	 0,362594876295712 
632	 0,363265717178025 
633	 0,363471946926498 
634	 0,363796851965682 
635	 0,364286303665789 
636	 0,364431274823036 
637	 0,364626802358339 
638	 0,365220469753803 
639	 0,366122682467438 
640	 0,366995557615307 
641	 0,367015224059922 
642	 0,367217070081873 
643	 0,36798083519495 
644	 0,36884495435031 
645	 0,369448366376815 
646	 0,369404785985958 
647	 0,368780518238006 
648	 0,367708491768134 
649	 0,3663811746103 
650	 0,365634277010281 
651	 0,365853583243586 
652	 0,365036323929224 
653	 0,363510092177076 
654	 0,362483500822638 
655	 0,36217550242506 
656	 0,362355897558119 
657	 0,361414792991378 
658	 0,359921907125931 
659	 0,358575333013902 
660	 0,357141159216881 
661	 0,355655570250551 
662	 0,354218176848044 
663	 0,352983547579587 
664	 0,352058696500875 
665	 0,351532586239226 
666	 0,351122732991445 
667	 0,350390862511531 
668	 0,349671586953215 
669	 0,349154867191077 
670	 0,349163922828054 
671	 0,349297067914223 
672	 0,349201860812595 
673	 0,348760199514577 
674	 0,348303140686295 
675	 0,34869771572323 
676	 0,349019798497655 
677	 0,34898104239519 
678	 0,34911716923411 
679	 0,349176145163887 
680	 0,348825902156303 
681	 0,349004379750332 
682	 0,349821533916819 
683	 0,350912830064949 
684	 0,351717874554264 
685	 0,352032178059249 
686	 0,353160541635883 
687	 0,354800871561624 
688	 0,356021457286678 
689	 0,358064440229931 
690	 0,361211371546885 
691	 0,36481214214905 
692	 0,368910791348542 
693	 0,373597260039397 
694	 0,379281488185704 
695	 0,385905515680428 
696	 0,393057778201404 
697	 0,401011491424794 
698	 0,409876372999832 
699	 0,419551052727174 
700	 0,429845691451425 
701	 0,440546553657642 
702	 0,451348028249499 
703	 0,462164265313024 
704	 0,473082205455156 
705	 0,484174807380985 
706	 0,4953958982662 
707	 0,505880427253966 
708	 0,51593631633536 
709	 0,52638888718152 
710	 0,53630321728495 
711	 0,545415557626723 
712	 0,553859705492438 
713	 0,561990258901936 
714	 0,570120442945006 
715	 0,577994672887848 
716	 0,585384063853984 
717	 0,591934224720025 
718	 0,597707395194874 
719	 0,602834111962896 
720	 0,607988865982498 
721	 0,612832801436428 
722	 0,616838625690814 
723	 0,620598645644795 
724	 0,624199444164009 
725	 0,627393767540237 
726	 0,630155012794412 
727	 0,63253925685672 
728	 0,635083246443027 
729	 0,637608437138059 
730	 0,639669428729149 
731	 0,641345639070973 
732	 0,642725705629364 
733	 0,644124333853417 
734	 0,645266017186895 
735	 0,645945487176212 
736	 0,646887533078203 
737	 0,647994543920842 
738	 0,648667755506425 
739	 0,649283437358303 
740	 0,649931902476481 
741	 0,650335937137669 
742	 0,65060441259217 
743	 0,650889912658719 
744	 0,65132840543289 
745	 0,651890000292936 
746	 0,652388485887866 
747	 0,652779994634645 
748	 0,653021914878174 
749	 0,65307019903279 
750	 0,653023516112313 
751	 0,653029983773472 
752	 0,653117875159827 
753	 0,653189766357072 
754	 0,652803080138914 
755	 0,652541189178795 
756	 0,65279696520788 
757	 0,653003471082959 
758	 0,653032817525752 
759	 0,652781468512747 
760	 0,652885858795387 
761	 0,653344129284958 
762	 0,653088758682541 
763	 0,652591143456207 
764	 0,652343812289587 
765	 0,652057659960799 
766	 0,651850412398496 
767	 0,652151106687964 
768	 0,652473439127915 
769	 0,65251538101526 
770	 0,651880997185456 
771	 0,651114787302236 
772	 0,650889159671341 
773	 0,651114448971115 
774	 0,651440002712583 
775	 0,650832316477428 
776	 0,650401965323056 
777	 0,650665196746327 
778	 0,650876704232461 
779	 0,650858317469363 
780	 0,650482358354469 
781	 0,6502632992404 
782	 0,650247474056939 
783	 0,650054173302425 
784	 0,649700793646074 
785	 0,649277516017596 
786	 0,649464442713505 
787	 0,649790543831201 
788	 0,649244918145786 
789	 0,648752544933351 
790	 0,648604261871636 
791	 0,64875948715139 
792	 0,648860517624701 
793	 0,648640782835737 
794	 0,648531860514197 
795	 0,648425527615467 
796	 0,647899818524381 
797	 0,647636215497205 
798	 0,647726662406286 
799	 0,647382169688858 
800	 0,647065284005861 
801	 0,647210056432957 
802	 0,647165349605123 
803	 0,646998636549884 
804	 0,647312394587004 
805	 0,647014804551827 
806	 0,645973549059016 
807	 0,645764968174808 
808	 0,646023031059247 
809	 0,646222206122879 
810	 0,646327429233571 
811	 0,646336521707127 
812	 0,646375900220416 
813	 0,646199720450298 
814	 0,645786276794425 
815	 0,645622909298536 
816	 0,645636587105903 
817	 0,645677439310351 
818	 0,645489762036525 
819	 0,64516585554991 
820	 0,645171824356457 
821	 0,645248557757976 
822	 0,645224617063484 
823	 0,644857671153597 
824	 0,644446692698401 
825	 0,644395091454547 
826	 0,643825789514937 
827	 0,6430795945596 
828	 0,64393749804877 
829	 0,644535172292212 
830	 0,644053002395099 
831	 0,644186051267937 
832	 0,644388771796349 
833	 0,643699835981897 
834	 0,643208558752115 
835	 0,643007713034791 
836	 0,642409968601371 
837	 0,64197997544906 
838	 0,642007742301525 
839	 0,642219238997937 
840	 0,642401110874762 
841	 0,642311525373191 
842	 0,642327437282107 
843	 0,642492378599224 
844	 0,64271288393292 
845	 0,64244412947988 
846	 0,641531586196736 
847	 0,641111589278697 
848	 0,641173127881984 
849	 0,641488228126327 
850	 0,641767712484923 
851	 0,641784471045066 
852	 0,641139481050404 
853	 0,64061804916485 
854	 0,640645233951459 
855	 0,640841671682791 
856	 0,640989066131011 
857	 0,640860028665786 
858	 0,64046355019152 
859	 0,640068990464236 
860	 0,640551666930185 
861	 0,64071592494048 
862	 0,640114118421224 
863	 0,640290637623816 
864	 0,640695144601169 
865	 0,640414768488345 
866	 0,639557818197234 
867	 0,638713526300318 
868	 0,639682295965398 
869	 0,639982048778891 
870	 0,638724563910988 
871	 0,638385563949289 
872	 0,638797489879026 
873	 0,639431133665059 
874	 0,639113153341151 
875	 0,638100357760871 
876	 0,637913481350834 
877	 0,638106296541817 
878	 0,638411476932571 
879	 0,638354048075253 
880	 0,637955094316167 
881	 0,637328337376638 
882	 0,637124181113211 
883	 0,637274319963868 
884	 0,637243142673218 
885	 0,63699106017103 
886	 0,636625502934548 
887	 0,636909901963467 
888	 0,637125382048778 
889	 0,63659974706474 
890	 0,636116282292026 
891	 0,635832837581147 
892	 0,63576450778428 
893	 0,635701361081449 
894	 0,635563244200291 
895	 0,635400077402393 
896	 0,635146201271475 
897	 0,634825601710445 
898	 0,635156458107636 
899	 0,63575191139938 
900	 0,635769106736749 
901	 0,635221189505102 
902	 0,634377880633154 
903	 0,634262811435652 
904	 0,634126006192044 
905	 0,633624119803588 
906	 0,633968602447973 
907	 0,634469615997212 
908	 0,633975307952118 
909	 0,633706039656755 
910	 0,633843471161417 
911	 0,633985482533076 
912	 0,634091147337054 
913	 0,634013656780747 
914	 0,633150396465515 
915	 0,632284978536904 
916	 0,632275881802374 
917	 0,63187315821216 
918	 0,631276531554145 
919	 0,631680245411851 
920	 0,631783928104481 
921	 0,631218458034719 
922	 0,63061221291954 
923	 0,630006927890786 
924	 0,629489870213955 
925	 0,629728299661923 
926	 0,630211536177376 
927	 0,629862647827719 
928	 0,629334078955684 
929	 0,628906134120788 
930	 0,628976495593209 
931	 0,628662287621334 
932	 0,627567812111619 
933	 0,626718443929333 
934	 0,626437596950711 
935	 0,626936919557041 
936	 0,627287524216363 
937	 0,627300378007707 
938	 0,627478786937186 
939	 0,625736154438041 
940	 0,622266629280321 
941	 0,622199836003573 
942	 0,622872537212667 
943	 0,621715896508137 
944	 0,62030497967746 
945	 0,619219400116746 
946	 0,619064730675141 
947	 0,618918457848648 
948	 0,618377635361979 
949	 0,617107414541451 
950	 0,61596332337809 
951	 0,615391359424471 
952	 0,614694794165984 
953	 0,614043276182404 
954	 0,613681356166018 
955	 0,612475925960624 
956	 0,610587032332733 
957	 0,608971339511599 
958	 0,607798740885778 
959	 0,607310423007673 
960	 0,608230395258102 
961	 0,608297046078514 
962	 0,606030468626837 
963	 0,604361214793576 
964	 0,603379436372673 
965	 0,602519231080149 
966	 0,603212141982661 
967	 0,604815643045232 
968	 0,604531275652602 
969	 0,603420048773906 
970	 0,602211594010187 
971	 0,602173474375714 
972	 0,602431647918351 
973	 0,602163009410359 
974	 0,602431266385743 
975	 0,603016077305964 
976	 0,603276530613191 
977	 0,60246760528538 
978	 0,601067872842783 
979	 0,6013655087067 
980	 0,602029684148205 
981	 0,602441487140179 
982	 0,603379763065976 
983	 0,603516843918224 
984	 0,601732286380866 
985	 0,601598165381314 
986	 0,602628828460349 
987	 0,6025571379608 
988	 0,602520928947621 
989	 0,602761362670587 
990	 0,603245783399163 
991	 0,602809544416974 
992	 0,60132948432195 
993	 0,60178410503979 
994	 0,603147347541262 
995	 0,604052553716624 
996	 0,604803213775117 
997	 0,605108998860206 
998	 0,604434422212111 
999	 0,603644229456723 
1000	 0,602974450556719 
1001	 0,602082828343766 
1002	 0,601388086055081 
1003	 0,601492380611833 
1004	 0,604567748994537 
1005	 0,606792219105473 
1006	 0,604711962786376 
1007	 0,604510769619386 
1008	 0,605123190589205 
1009	 0,602752298078597 
1010	 0,601514692129572 
1011	 0,602640832302806 
1012	 0,606661062725762 
1013	 0,607735686303757 
1014	 0,604777801779648 
1015	 0,607454454276476 
1016	 0,608971899836277 
1017	 0,604204072340075 
1018	 0,604176459470456 
1019	 0,606697915171267 
1020	 0,606109283281192 
1021	 0,607849724753666 
1022	 0,610831415696607 
1023	 0,608569380075407 
1024	 0,607354582730589 
1025	 0,609242529895454 
1026	 0,613501071870547 
1027	 0,613029616640038 
1028	 0,605759483791452 
1029	 0,612128598670594 
1030	 0,61997064098914 
1031	 0,613625910597475 
1032	 0,609262274950023 
1033	 0,609115374764422 
1034	 0,611416549789621 
1035	 0,611548418523883 
1036	 0,609393666821972 
1037	 0,609961490776927 
1038	 0,611539305912923 
1039	 0,612736462984679 
1040	 0,610792229764696 
1041	 0,608211428158288 
1042	 0,607016417166645 
1043	 0,604065960146858 
1044	 0,601660034692888 
1045	 0,603388598347475 
1046	 0,606991028271735 
1047	 0,609278936421953 
1048	 0,603944759440614 
1049	 0,606079850135182 
1050	 0,616394724338172 
1051	 0,618394934705912 
1052	 0,614237190628037 
1053	 0,606715144919841 
1054	 0,604543175527447 
1055	 0,602049561413166 
1056	 0,595232001927245 
1057	 0,595724861892027 
1058	 0,601573860234368 
1059	 0,607469802881641 
1060	 0,610716510439059 
1061	 0,610631264035552 
1062	 0,607909920249775 
1063	 0,606970996868216 
1064	 0,608746390173414 
1065	 0,611926139668644 
1066	 0,605172291584394 
1067	 0,589271268695322 
1068	 0,595245386490147 
1069	 0,608359419288124 
1070	 0,614755801887884 
1071	 0,613678201456414 
1072	 0,611738410345991 
1073	 0,615864300949382 
1074	 0,604668131016075 
1075	 0,588492874789397 
