Wavelength	PENFOUL00159.asd
325	 0,38461561695804 
326	 0,524427875192033 
327	 0,611072363566526 
328	 0,553368475387527 
329	 0,587076009072633 
330	 0,596002275831993 
331	 0,516848540273778 
332	 0,482510794226811 
333	 0,472331305403517 
334	 0,490694749455386 
335	 0,488347102446786 
336	 0,444467083762815 
337	 0,320938369336643 
338	 0,274944144102428 
339	 0,427878415615795 
340	 0,439973211644526 
341	 0,376954465820532 
342	 0,449720596728384 
343	 0,460699684937498 
344	 0,372358479477329 
345	 0,408912692152545 
346	 0,418237409943457 
347	 0,265064741824168 
348	 0,247509630543156 
349	 0,332532552412798 
350	 0,350342310108877 
351	 0,341632517169199 
352	 0,322339495786292 
353	 0,314356681077222 
354	 0,310145566169496 
355	 0,297149751426836 
356	 0,284431745622781 
357	 0,278753418841123 
358	 0,297602862803127 
359	 0,300122955198313 
360	 0,276493467732819 
361	 0,287176229924797 
362	 0,319175983087083 
363	 0,340408346071402 
364	 0,332274817115424 
365	 0,305771479710029 
366	 0,318631101392543 
367	 0,324302026472711 
368	 0,299434822096672 
369	 0,295986653484923 
370	 0,310164266545269 
371	 0,325076176722252 
372	 0,319896302757184 
373	 0,300145249508283 
374	 0,32338143570623 
375	 0,340061144330255 
376	 0,320045828440852 
377	 0,324552321133154 
378	 0,34047019887655 
379	 0,319444170682579 
380	 0,306999183558511 
381	 0,315083678202738 
382	 0,314169554230649 
383	 0,31934362743037 
384	 0,343377110193628 
385	 0,332885885987647 
386	 0,300658894795208 
387	 0,304310881649127 
388	 0,314258768454878 
389	 0,320385974440864 
390	 0,335790485497001 
391	 0,346847290595041 
392	 0,336583622142681 
393	 0,315892250235988 
394	 0,298485959264336 
395	 0,315707192855666 
396	 0,331994982430373 
397	 0,328133565683006 
398	 0,313781189906464 
399	 0,302923824325649 
400	 0,313715613824268 
401	 0,318217726952567 
402	 0,313450928628036 
403	 0,317307700152318 
404	 0,319341367419951 
405	 0,314050277839055 
406	 0,318741039617533 
407	 0,327576470629385 
408	 0,32345293497661 
409	 0,319083507856414 
410	 0,317993181884545 
411	 0,318041209317183 
412	 0,317081466251355 
413	 0,313495920607538 
414	 0,31208464525901 
415	 0,312819947445836 
416	 0,312884424992048 
417	 0,31542881159899 
418	 0,320183379375369 
419	 0,318584064967247 
420	 0,314851483476712 
421	 0,31486730094474 
422	 0,315959693579222 
423	 0,316746089820486 
424	 0,314893734761302 
425	 0,311894912501385 
426	 0,309134578440501 
427	 0,310277779397988 
428	 0,312474369578736 
429	 0,309846942735102 
430	 0,307078920021419 
431	 0,305916691972605 
432	 0,307208962066437 
433	 0,309216943086259 
434	 0,310436160633463 
435	 0,311636197430534 
436	 0,312996609816098 
437	 0,314763475731425 
438	 0,316414277632691 
439	 0,317509444086035 
440	 0,31750497407805 
441	 0,315712137091999 
442	 0,311367329658568 
443	 0,310883019225638 
444	 0,31418718055658 
445	 0,315783030974162 
446	 0,315095603005729 
447	 0,312414980611732 
448	 0,313717656947105 
449	 0,316797255320135 
450	 0,315872242991428 
451	 0,315115003148031 
452	 0,315878898598595 
453	 0,318648002246303 
454	 0,319931319993714 
455	 0,316852654658687 
456	 0,316116856957019 
457	 0,317487526788245 
458	 0,316411858130479 
459	 0,316810605461335 
460	 0,319503999948195 
461	 0,318865086394341 
462	 0,317702756696517 
463	 0,320397695269578 
464	 0,320778158890093 
465	 0,319121691615984 
466	 0,322295455936952 
467	 0,324141541990041 
468	 0,321152019700804 
469	 0,320307901910843 
470	 0,321302774287075 
471	 0,321277338367308 
472	 0,32261743315369 
473	 0,325269217904069 
474	 0,326086397027407 
475	 0,325070078927347 
476	 0,322539072638411 
477	 0,320799218570079 
478	 0,320350748991757 
479	 0,320786900094984 
480	 0,322055643240643 
481	 0,323593475354493 
482	 0,322259381290211 
483	 0,320276813472241 
484	 0,321315195299108 
485	 0,322088703546839 
486	 0,322157991069764 
487	 0,323511386685055 
488	 0,324245478766612 
489	 0,323096703426407 
490	 0,323018456568524 
491	 0,323648859718886 
492	 0,323128971753971 
493	 0,321983388797538 
494	 0,32064883782754 
495	 0,320417511400866 
496	 0,320737301304561 
497	 0,320869854525347 
498	 0,321489563445169 
499	 0,322234460322274 
500	 0,321411067931052 
501	 0,32172181393728 
502	 0,324272070630062 
503	 0,324887629848609 
504	 0,324236910421378 
505	 0,324378869636797 
506	 0,325032191088385 
507	 0,326190286635852 
508	 0,327952414826662 
509	 0,329314053353324 
510	 0,329482164577816 
511	 0,329880076195174 
512	 0,330771049542415 
513	 0,332051453410034 
514	 0,333434113494717 
515	 0,334692091228403 
516	 0,335516379706459 
517	 0,336124585854428 
518	 0,336877155338778 
519	 0,337098424462173 
520	 0,336914520567573 
521	 0,337284949344768 
522	 0,33799591062577 
523	 0,338840821958357 
524	 0,339581865171499 
525	 0,340037335095076 
526	 0,339949831194504 
527	 0,339608728142629 
528	 0,339237426230773 
529	 0,339288835869981 
530	 0,339420617167438 
531	 0,33920991543723 
532	 0,339149164926828 
533	 0,339334642628158 
534	 0,339748449011889 
535	 0,340038102385897 
536	 0,339928532951702 
537	 0,338970384410797 
538	 0,338131164132567 
539	 0,339306781068684 
540	 0,34016050777078 
541	 0,340005235876787 
542	 0,339301655675785 
543	 0,339167460341326 
544	 0,340560006947867 
545	 0,341030521729918 
546	 0,340772425626134 
547	 0,341983299643278 
548	 0,342408369052299 
549	 0,341318707023302 
550	 0,341764064314327 
551	 0,342946095856448 
552	 0,343132231578378 
553	 0,342967576260978 
554	 0,342520367906577 
555	 0,341318725438848 
556	 0,340712603207219 
557	 0,341644322165197 
558	 0,341222736759627 
559	 0,339800068850123 
560	 0,339737230592 
561	 0,339012020991174 
562	 0,337297809882241 
563	 0,33756689553112 
564	 0,338367138020278 
565	 0,337464375447444 
566	 0,336671402617972 
567	 0,336609848662824 
568	 0,337712287543202 
569	 0,33901540186468 
570	 0,339852531393949 
571	 0,340764257729186 
572	 0,341974050219486 
573	 0,343831277972339 
574	 0,345560695058414 
575	 0,347000323478387 
576	 0,348944356442058 
577	 0,350930196911623 
578	 0,352414148805907 
579	 0,354493691036615 
580	 0,356885114103983 
581	 0,357903039726533 
582	 0,358873321723499 
583	 0,360549327231375 
584	 0,362499146919473 
585	 0,36410837610508 
586	 0,364359013579466 
587	 0,365259849570766 
588	 0,36709488358983 
589	 0,368103998841423 
590	 0,368810416745148 
591	 0,369753053193841 
592	 0,370531064156749 
593	 0,37106779461863 
594	 0,371350082585513 
595	 0,37140944779195 
596	 0,371425618938112 
597	 0,372441361743091 
598	 0,373425369084175 
599	 0,372676081460424 
600	 0,372485674851512 
601	 0,373035893051235 
602	 0,37239953169911 
603	 0,371517207073783 
604	 0,371117053841402 
605	 0,370258971285833 
606	 0,369216574024038 
607	 0,369068764884531 
608	 0,368604717082366 
609	 0,367592467202153 
610	 0,367682275532454 
611	 0,36746969078505 
612	 0,365106903094533 
613	 0,363476265618211 
614	 0,363035484276971 
615	 0,36267829826265 
616	 0,362354677849342 
617	 0,362033848026077 
618	 0,361968965553625 
619	 0,362050337621578 
620	 0,362096339943102 
621	 0,361393487352405 
622	 0,360064788700875 
623	 0,359910952157443 
624	 0,36005697688797 
625	 0,359554328893486 
626	 0,360444613663555 
627	 0,362087858132818 
628	 0,361387918202024 
629	 0,360762089476528 
630	 0,361431098024724 
631	 0,362466125284051 
632	 0,363645099295324 
633	 0,364841613823725 
634	 0,365295226339935 
635	 0,365273949207951 
636	 0,366842925159121 
637	 0,368662111039778 
638	 0,369565250825809 
639	 0,370384754288791 
640	 0,371323324801523 
641	 0,372534805871647 
642	 0,373738582643872 
643	 0,374721369521101 
644	 0,375059512033834 
645	 0,375274201540754 
646	 0,376085412331266 
647	 0,37623688832317 
648	 0,375641375179209 
649	 0,375226974830291 
650	 0,374491200231874 
651	 0,373131927477845 
652	 0,371580785108081 
653	 0,369986114882516 
654	 0,36843820109662 
655	 0,367240073540395 
656	 0,366137253004501 
657	 0,36339340298177 
658	 0,360467358731616 
659	 0,358915354153124 
660	 0,356714780474457 
661	 0,35383737692481 
662	 0,351428179006566 
663	 0,349326133329494 
664	 0,347377830368074 
665	 0,344993730492249 
666	 0,342390870692791 
667	 0,339942108262182 
668	 0,338643354801399 
669	 0,338466706708173 
670	 0,338117786480171 
671	 0,337397108628828 
672	 0,336209004434821 
673	 0,335167417253591 
674	 0,334342012961825 
675	 0,33347748718758 
676	 0,333190658863659 
677	 0,333554123547972 
678	 0,333542581403214 
679	 0,333591441267044 
680	 0,334307065511426 
681	 0,334792333889515 
682	 0,335184127820903 
683	 0,336494752880407 
684	 0,33839161513423 
685	 0,340689832872342 
686	 0,343408034927285 
687	 0,346696517409373 
688	 0,350836314011486 
689	 0,355400084095054 
690	 0,360427511570635 
691	 0,36663059959638 
692	 0,373621373788341 
693	 0,381038827425794 
694	 0,389192705747012 
695	 0,397929773079148 
696	 0,406824155362782 
697	 0,416138794129542 
698	 0,425847656698894 
699	 0,435378113719833 
700	 0,444949849501056 
701	 0,454920770899419 
702	 0,464166937510105 
703	 0,472531748350922 
704	 0,480660778470256 
705	 0,488303510093504 
706	 0,495320392952111 
707	 0,501819441750827 
708	 0,507961892271931 
709	 0,514045717971029 
710	 0,519332046277638 
711	 0,523743112936938 
712	 0,528047182995753 
713	 0,532197236291747 
714	 0,53608117653118 
715	 0,539382363092969 
716	 0,542226895595968 
717	 0,545093159935579 
718	 0,547765175538371 
719	 0,55014618876777 
720	 0,552168089056845 
721	 0,554048010933906 
722	 0,55606769288501 
723	 0,557845120429542 
724	 0,559294027243515 
725	 0,560480537968908 
726	 0,561444944767461 
727	 0,562271814016786 
728	 0,563350530440001 
729	 0,564434467300826 
730	 0,564980901088616 
731	 0,565538492932532 
732	 0,566240335171846 
733	 0,566858933782719 
734	 0,567488846259434 
735	 0,568201138684083 
736	 0,568787329435591 
737	 0,569228280751007 
738	 0,569612160059996 
739	 0,569758768241701 
740	 0,569727518469722 
741	 0,570214180644095 
742	 0,57074908217231 
743	 0,570736203068749 
744	 0,570814338256716 
745	 0,571137849590893 
746	 0,571737931922086 
747	 0,572191464986662 
748	 0,572272617139357 
749	 0,572237240929124 
750	 0,572224588483764 
751	 0,572380978380925 
752	 0,572736759211195 
753	 0,573194896496865 
754	 0,573402317511748 
755	 0,573486163499033 
756	 0,573550857680722 
757	 0,57360891433377 
758	 0,57371395441354 
759	 0,573982215108371 
760	 0,574037592049312 
761	 0,573863024702204 
762	 0,574033536004227 
763	 0,574188779360859 
764	 0,573998645423853 
765	 0,574146585577268 
766	 0,5745224844876 
767	 0,574496995253321 
768	 0,574476059591671 
769	 0,574589209519234 
770	 0,574631272317897 
771	 0,574672148050469 
772	 0,574803706911247 
773	 0,574583603956766 
774	 0,57413183519412 
775	 0,574084390248974 
776	 0,57420548288931 
777	 0,574364982037722 
778	 0,574526045747093 
779	 0,574651916262706 
780	 0,574709022174233 
781	 0,574748111480301 
782	 0,574733433069648 
783	 0,574435024380376 
784	 0,574343850060896 
785	 0,574727163610078 
786	 0,574934034731634 
787	 0,574865925062945 
788	 0,574514424133701 
789	 0,574336136778349 
790	 0,574428695658969 
791	 0,57454554176658 
792	 0,574398208707091 
793	 0,573837317676488 
794	 0,573764523647032 
795	 0,574068001064875 
796	 0,574169669382101 
797	 0,574293351163423 
798	 0,574440903181745 
799	 0,574445999453811 
800	 0,574120397807827 
801	 0,573367645580628 
802	 0,57314622241336 
803	 0,573507418321873 
804	 0,574147677109844 
805	 0,574453114180298 
806	 0,574274917200711 
807	 0,574418537178019 
808	 0,574667325093035 
809	 0,574729791355305 
810	 0,574724623654532 
811	 0,574632160456377 
812	 0,574269196027766 
813	 0,574264382613776 
814	 0,574756227229549 
815	 0,574827025758458 
816	 0,574559501223303 
817	 0,574166904799105 
818	 0,573907583590899 
819	 0,573956985963555 
820	 0,574643325789517 
821	 0,57504593180146 
822	 0,574807731265512 
823	 0,574877223334585 
824	 0,575092168152488 
825	 0,57512518316796 
826	 0,575444093279935 
827	 0,575829982292699 
828	 0,575239375712873 
829	 0,574725465325722 
830	 0,574856857963655 
831	 0,575378398660904 
832	 0,575879380560804 
833	 0,575853273740758 
834	 0,575364818095886 
835	 0,574762119296282 
836	 0,575060558884653 
837	 0,575482113825855 
838	 0,575589843188031 
839	 0,575608302529845 
840	 0,575490619100293 
841	 0,575150976471672 
842	 0,575101559392299 
843	 0,575367760266332 
844	 0,575557982265194 
845	 0,575696733299299 
846	 0,57576176805462 
847	 0,575564344846825 
848	 0,575400371395547 
849	 0,57569972396465 
850	 0,575726439235584 
851	 0,575404097248359 
852	 0,575111130603282 
853	 0,574990898264597 
854	 0,57504433607243 
855	 0,574526195556596 
856	 0,574224526860005 
857	 0,575289596082201 
858	 0,575382078835095 
859	 0,574557222084483 
860	 0,575051678553319 
861	 0,5750879627267 
862	 0,574063467345898 
863	 0,574377456203008 
864	 0,575170800652244 
865	 0,575020769115129 
866	 0,574764923432102 
867	 0,574729538956205 
868	 0,575410588691805 
869	 0,57562928576747 
870	 0,574986466362145 
871	 0,574797102485046 
872	 0,575132828084838 
873	 0,575883650688793 
874	 0,576047949453919 
875	 0,575728384202324 
876	 0,575989661033765 
877	 0,57601070878713 
878	 0,575619584076737 
879	 0,575840275852512 
880	 0,576176972603501 
881	 0,576030889250812 
882	 0,575939345983608 
883	 0,57595456338468 
884	 0,575851166500113 
885	 0,576221922274808 
886	 0,577056616129189 
887	 0,57715509617989 
888	 0,57705788489593 
889	 0,577314491748357 
890	 0,577435036560334 
891	 0,577292990777411 
892	 0,576742918806313 
893	 0,576666957360032 
894	 0,57706824462021 
895	 0,576398478446673 
896	 0,576228568974203 
897	 0,577574546196753 
898	 0,577444541841378 
899	 0,576690130504379 
900	 0,577686268001342 
901	 0,577895866980308 
902	 0,577005228343126 
903	 0,57662507535624 
904	 0,576534794964342 
905	 0,576560878801179 
906	 0,576401451386849 
907	 0,576279315932978 
908	 0,576561793907965 
909	 0,576715021247019 
910	 0,576770939887824 
911	 0,577299787149129 
912	 0,577674250309871 
913	 0,577656103066986 
914	 0,577831275763021 
915	 0,577816070422257 
916	 0,577205058258377 
917	 0,577463613599183 
918	 0,578187747626872 
919	 0,57761996132335 
920	 0,576836331230067 
921	 0,576253618257679 
922	 0,575886468036696 
923	 0,575941371800877 
924	 0,576499250538392 
925	 0,576854366898272 
926	 0,576608506857364 
927	 0,575276786435986 
928	 0,574792466907319 
929	 0,575248243531357 
930	 0,574484327670065 
931	 0,57462921378998 
932	 0,576524232902943 
933	 0,577096647149138 
934	 0,576182143198265 
935	 0,574140400219589 
936	 0,573371118595 
937	 0,573871094570478 
938	 0,573789826838689 
939	 0,574125131394355 
940	 0,574793552635828 
941	 0,573857150783631 
942	 0,572209690901315 
943	 0,570929265331267 
944	 0,571460813040669 
945	 0,572693462683184 
946	 0,572116639384356 
947	 0,57181753971769 
948	 0,571791069981665 
949	 0,569681136428504 
950	 0,568540078685543 
951	 0,569617531858007 
952	 0,568578874048234 
953	 0,567123366921916 
954	 0,567717089252286 
955	 0,567269049481525 
956	 0,565844939156175 
957	 0,565264333765191 
958	 0,564878077707115 
959	 0,564583526353942 
960	 0,564855230270614 
961	 0,564571496349894 
962	 0,563155101342658 
963	 0,563326938483632 
964	 0,564299757688076 
965	 0,564305605956929 
966	 0,562955165056012 
967	 0,561436802050472 
968	 0,563917507046052 
969	 0,565541393439817 
970	 0,564449731495395 
971	 0,563069209132101 
972	 0,561911116975288 
973	 0,561482450707852 
974	 0,563745447839062 
975	 0,565980347599306 
976	 0,562936082392659 
977	 0,560663531672083 
978	 0,560736889448978 
979	 0,562055742372761 
980	 0,56412566511309 
981	 0,565969154754773 
982	 0,564286037860065 
983	 0,562573970181856 
984	 0,564390214982269 
985	 0,565489016513637 
986	 0,565457581720403 
987	 0,565056219885765 
988	 0,564395008676917 
989	 0,563748215159302 
990	 0,563640406544198 
991	 0,563762337652605 
992	 0,564081354484083 
993	 0,56538273155606 
994	 0,567021194266537 
995	 0,568198766660826 
996	 0,568484930842475 
997	 0,568478137502483 
998	 0,569532678428393 
999	 0,569744643379086 
1000	 0,56922036409204 
1001	 0,570200731838445 
1002	 0,571893898246731 
1003	 0,573533582675085 
1004	 0,573417311715353 
1005	 0,572531497298398 
1006	 0,57198629305084 
1007	 0,571413629574542 
1008	 0,570710814135343 
1009	 0,569691337450533 
1010	 0,570165335168718 
1011	 0,571753952186807 
1012	 0,571623417720391 
1013	 0,571100317120217 
1014	 0,570831721761107 
1015	 0,570781946921375 
1016	 0,571953898538573 
1017	 0,574745237809613 
1018	 0,575120953513738 
1019	 0,574310661692575 
1020	 0,575053210784146 
1021	 0,575958054871425 
1022	 0,5752881437981 
1023	 0,568400420641783 
1024	 0,567231144139524 
1025	 0,573523259939939 
1026	 0,5746579510568 
1027	 0,574380236149664 
1028	 0,575530796272656 
1029	 0,578862132196348 
1030	 0,580996619365226 
1031	 0,578316222103754 
1032	 0,577827597124019 
1033	 0,579299782988804 
1034	 0,579426578975265 
1035	 0,578152651964566 
1036	 0,576087964069893 
1037	 0,575994002491002 
1038	 0,574452793694932 
1039	 0,571624466789737 
1040	 0,576374243424507 
1041	 0,58110880180752 
1042	 0,580169027342962 
1043	 0,585118748740954 
1044	 0,589762045766734 
1045	 0,58432454768346 
1046	 0,583652575394279 
1047	 0,586304202702096 
1048	 0,580395793746998 
1049	 0,581358671409648 
1050	 0,588496726106414 
1051	 0,579067851289989 
1052	 0,578541184494088 
1053	 0,594488501120783 
1054	 0,594902363883422 
1055	 0,589460424527308 
1056	 0,588152886275389 
1057	 0,585234508264187 
1058	 0,584258258565811 
1059	 0,590111741752394 
1060	 0,592629101116186 
1061	 0,590764561881214 
1062	 0,587638444679115 
1063	 0,589057480210645 
1064	 0,593398839583592 
1065	 0,586444681851429 
1066	 0,585953773125653 
1067	 0,595969315074106 
1068	 0,592874151138984 
1069	 0,58347287962621 
1070	 0,576300413282029 
1071	 0,592467487644315 
1072	 0,603857270647134 
1073	 0,577365675524951 
1074	 0,587360411027291 
1075	 0,61173225537986 
