Wavelength	PENFOUL00334.asd
325	 0,356646208121398 
326	 0,262127854002225 
327	 0,191281465533217 
328	 0,209976380785534 
329	 0,219431413990412 
330	 0,239525541015518 
331	 0,266721867263163 
332	 0,265559627033388 
333	 0,25002091231973 
334	 0,257013905562005 
335	 0,26032266999319 
336	 0,24848782670534 
337	 0,20669367996629 
338	 0,165105788561793 
339	 0,159979095684752 
340	 0,185614472919585 
341	 0,207799465079112 
342	 0,165077360028059 
343	 0,120561822176943 
344	 0,102343278476783 
345	 0,139538140176615 
346	 0,162235724006387 
347	 0,11211996496449 
348	 9,99186677642093E-02 
349	 0,123818999323028 
350	 0,148748725730023 
351	 0,144797706287167 
352	 0,10895617582626 
353	 0,117238626898822 
354	 0,139329006430604 
355	 0,13985342312201 
356	 0,152968835766055 
357	 0,173630257846792 
358	 0,167406965932592 
359	 0,151907314596901 
360	 0,136092338738859 
361	 0,125866058448382 
362	 0,133965505549402 
363	 0,174809374623986 
364	 0,177923693863056 
365	 0,146072758587445 
366	 0,145117049539323 
367	 0,156747206098667 
368	 0,16605843520648 
369	 0,151243697478992 
370	 0,137254525200659 
371	 0,175750442347676 
372	 0,181269564374667 
373	 0,149427207461857 
374	 0,179241409468572 
375	 0,200659897963805 
376	 0,168575506832444 
377	 0,146762246621993 
378	 0,146817064432243 
379	 0,166175502930836 
380	 0,161074098351861 
381	 0,128424195864166 
382	 0,134847455333025 
383	 0,158559677332164 
384	 0,176498488523674 
385	 0,169841611655785 
386	 0,149006394046544 
387	 0,149102272798272 
388	 0,160568664277738 
389	 0,175594901254039 
390	 0,173530176772854 
391	 0,169739108658845 
392	 0,183716775088537 
393	 0,174905376403069 
394	 0,150943971484758 
395	 0,159782466135822 
396	 0,168260172686884 
397	 0,159822330198407 
398	 0,147286886204714 
399	 0,143484950790152 
400	 0,165180916437006 
401	 0,169313230459472 
402	 0,153949981970988 
403	 0,156414876371531 
404	 0,160860622789023 
405	 0,157182657151025 
406	 0,158510091194552 
407	 0,162754752717056 
408	 0,162593539974424 
409	 0,158250480124813 
410	 0,152063501912576 
411	 0,152965614136549 
412	 0,156778816816489 
413	 0,158981945849846 
414	 0,156498347729381 
415	 0,153029097853825 
416	 0,160898394082251 
417	 0,162448727672999 
418	 0,154122390186993 
419	 0,159990475182559 
420	 0,169273198197461 
421	 0,166722086130373 
422	 0,162415333983653 
423	 0,159557536779792 
424	 0,160653750643825 
425	 0,161248938926761 
426	 0,159076588208593 
427	 0,159558726679527 
428	 0,160473246556283 
429	 0,15635793141281 
430	 0,154334845197415 
431	 0,156497029533486 
432	 0,161988089586181 
433	 0,166228491583222 
434	 0,165512562293348 
435	 0,162222447843341 
436	 0,159356403641397 
437	 0,163152687341365 
438	 0,166514892085546 
439	 0,166358300501568 
440	 0,163272750251631 
441	 0,160783580797002 
442	 0,163172212006208 
443	 0,163269641539884 
444	 0,161126553799774 
445	 0,162994375571712 
446	 0,165187266667811 
447	 0,165561970814672 
448	 0,166988701461429 
449	 0,167852621344114 
450	 0,164270595415084 
451	 0,162206521990178 
452	 0,1633198889066 
453	 0,166012392300349 
454	 0,167215049405491 
455	 0,164458319644617 
456	 0,163378589765394 
457	 0,16361061456198 
458	 0,160803496669262 
459	 0,159217225964297 
460	 0,160528521384823 
461	 0,162870272727575 
462	 0,164902120597077 
463	 0,165162099778414 
464	 0,164904775673488 
465	 0,164484652957922 
466	 0,163767337611512 
467	 0,1635353186356 
468	 0,164209325785552 
469	 0,164657066247456 
470	 0,164867397525823 
471	 0,165061541008308 
472	 0,166435275526068 
473	 0,168538258321422 
474	 0,167595886947351 
475	 0,165561788321356 
476	 0,164541394414095 
477	 0,163340382421081 
478	 0,1622649886324 
479	 0,162370168580844 
480	 0,16400440759856 
481	 0,166747218639075 
482	 0,166948367399146 
483	 0,165457613933303 
484	 0,164062000650436 
485	 0,163943485154536 
486	 0,164920745776376 
487	 0,164512474614762 
488	 0,164684338908045 
489	 0,166664578607038 
490	 0,16684795690818 
491	 0,16532781189386 
492	 0,163412540444679 
493	 0,162489824758743 
494	 0,163125410729876 
495	 0,164816928342177 
496	 0,165848897592889 
497	 0,164444095853396 
498	 0,163341077046849 
499	 0,163199784071006 
500	 0,163685220334599 
501	 0,164952052894102 
502	 0,166698327534349 
503	 0,166161137744432 
504	 0,164697259147743 
505	 0,165278089901826 
506	 0,165868568792523 
507	 0,165710285211841 
508	 0,164061387009951 
509	 0,162960346996724 
510	 0,164139467350215 
511	 0,165620376257267 
512	 0,166623255872387 
513	 0,166187313433159 
514	 0,166320883255554 
515	 0,167598603521099 
516	 0,167468785050052 
517	 0,166882684141469 
518	 0,167514889110232 
519	 0,167463891156494 
520	 0,166771621826099 
521	 0,167396764457022 
522	 0,167975031137078 
523	 0,167549136746867 
524	 0,167082091806881 
525	 0,167067401280996 
526	 0,168443751919206 
527	 0,16886511966006 
528	 0,167852825672661 
529	 0,167870177472471 
530	 0,167976390363525 
531	 0,16692036116657 
532	 0,166815221993238 
533	 0,167587639273689 
534	 0,167396672308682 
535	 0,167410174600515 
536	 0,168179740386178 
537	 0,16829657317825 
538	 0,168060488985431 
539	 0,168402634449614 
540	 0,168498616026539 
541	 0,16809241974158 
542	 0,167078460805927 
543	 0,166641312410699 
544	 0,16781897585681 
545	 0,168039700400985 
546	 0,167418749500208 
547	 0,167874773781095 
548	 0,168217487291274 
549	 0,168010113911455 
550	 0,168437920341558 
551	 0,168904454836244 
552	 0,168307629016798 
553	 0,167548192774709 
554	 0,167116197238505 
555	 0,167731231010522 
556	 0,168612570631019 
557	 0,169047389543126 
558	 0,168801391006249 
559	 0,168197360753075 
560	 0,16811368829699 
561	 0,168246232860029 
562	 0,168449117341581 
563	 0,168592225491714 
564	 0,168350525755814 
565	 0,167333738788241 
566	 0,166578537448858 
567	 0,166450967780576 
568	 0,167070818368409 
569	 0,167817295278895 
570	 0,168254111007907 
571	 0,168757688667088 
572	 0,169307681347518 
573	 0,169742744790079 
574	 0,17022752494097 
575	 0,170812895303544 
576	 0,171374723562645 
577	 0,172043396472476 
578	 0,172979786692696 
579	 0,174636218034299 
580	 0,176326944883961 
581	 0,175581466365135 
582	 0,175174976124937 
583	 0,176515135923892 
584	 0,177135613461044 
585	 0,177048164129638 
586	 0,176784067603024 
587	 0,177257558964059 
588	 0,178382447515933 
589	 0,178182542048614 
590	 0,178196789697356 
591	 0,179817334974107 
592	 0,1804902487511 
593	 0,18020319026328 
594	 0,180427542310418 
595	 0,180228930276234 
596	 0,179435987204507 
597	 0,179687960101504 
598	 0,180409391076696 
599	 0,180490196119005 
600	 0,180423416930872 
601	 0,180267974895249 
602	 0,179753798873864 
603	 0,179425033913128 
604	 0,179660996215034 
605	 0,179653210234628 
606	 0,179296795817112 
607	 0,178735655802164 
608	 0,17783761669707 
609	 0,176898375071182 
610	 0,177808358745766 
611	 0,17866467941728 
612	 0,176988012275242 
613	 0,175937846761961 
614	 0,175978640101653 
615	 0,175861182318193 
616	 0,175736617142689 
617	 0,175667852861954 
618	 0,17545321528314 
619	 0,175286216109599 
620	 0,175660194223138 
621	 0,17562177554838 
622	 0,174958674966569 
623	 0,174271416010857 
624	 0,173902115520814 
625	 0,174155752841135 
626	 0,174918959002311 
627	 0,175733741205205 
628	 0,175418907153389 
629	 0,175184931774207 
630	 0,17561688344325 
631	 0,175967325377448 
632	 0,176335130079669 
633	 0,177049398739889 
634	 0,177306682700545 
635	 0,177124346672431 
636	 0,177597943355453 
637	 0,178225595115033 
638	 0,178574901966887 
639	 0,179116223869481 
640	 0,179803483795414 
641	 0,180304058913031 
642	 0,180966175216043 
643	 0,181751919414721 
644	 0,181649477171473 
645	 0,181234776948977 
646	 0,181362189705869 
647	 0,1817186984524 
648	 0,182041197677056 
649	 0,181650415210281 
650	 0,181410012888894 
651	 0,181758039569828 
652	 0,181066664291948 
653	 0,179688637100349 
654	 0,178752992724714 
655	 0,178271866815515 
656	 0,178123437738293 
657	 0,177476202031555 
658	 0,176667081755311 
659	 0,176083366425453 
660	 0,175084358647643 
661	 0,17378329107687 
662	 0,172811527423744 
663	 0,172188913543187 
664	 0,171874101811966 
665	 0,171484151372371 
666	 0,170756780003537 
667	 0,169334173342849 
668	 0,168668329499865 
669	 0,168917708626791 
670	 0,16890501700108 
671	 0,168607343742741 
672	 0,168057462072164 
673	 0,167625864218927 
674	 0,167427919679303 
675	 0,167542929467272 
676	 0,167723483406362 
677	 0,167847723307071 
678	 0,167912853213738 
679	 0,167924848999727 
680	 0,167896322093008 
681	 0,167961559952059 
682	 0,16818002168561 
683	 0,168563249623855 
684	 0,169164524072185 
685	 0,170017270943048 
686	 0,171095617132225 
687	 0,172334763213984 
688	 0,173614015807354 
689	 0,175264184703833 
690	 0,177425292486796 
691	 0,180069140993666 
692	 0,183292690766137 
693	 0,187182487296725 
694	 0,191699162752554 
695	 0,196725822707275 
696	 0,202002610830885 
697	 0,2078459219207 
698	 0,214422651273754 
699	 0,22195777963331 
700	 0,229847760459327 
701	 0,237316221515547 
702	 0,245123391460544 
703	 0,253309859549789 
704	 0,26150554390866 
705	 0,269463774272411 
706	 0,277055550371399 
707	 0,284684467789483 
708	 0,292225494435692 
709	 0,299398711991851 
710	 0,305886854965107 
711	 0,311638848608205 
712	 0,316927235529796 
713	 0,32231227581271 
714	 0,328202093976323 
715	 0,333297600052475 
716	 0,337520778595652 
717	 0,341348737124551 
718	 0,345041597440708 
719	 0,348726858822326 
720	 0,352250148429264 
721	 0,355466043206556 
722	 0,358224171549586 
723	 0,360834838449089 
724	 0,363311706726629 
725	 0,365416574202778 
726	 0,36724173115404 
727	 0,368907138275936 
728	 0,370833876132753 
729	 0,372725659090176 
730	 0,373942014400491 
731	 0,375200961466923 
732	 0,376618316155866 
733	 0,377682892472104 
734	 0,378634614855598 
735	 0,37968559109439 
736	 0,380644626511972 
737	 0,381451152257025 
738	 0,382020439351991 
739	 0,382611404893327 
740	 0,383341313121117 
741	 0,38422421350591 
742	 0,384955357403817 
743	 0,385200267793906 
744	 0,385746139582562 
745	 0,386584267364508 
746	 0,387123097129924 
747	 0,387464714462108 
748	 0,387709898828019 
749	 0,388220967928085 
750	 0,388848796758729 
751	 0,389295817372549 
752	 0,389690059958309 
753	 0,39005188293549 
754	 0,39033456846818 
755	 0,390653122063145 
756	 0,391080589068489 
757	 0,391464239699405 
758	 0,391800121984504 
759	 0,392154558772647 
760	 0,392304776378301 
761	 0,392297571874621 
762	 0,392705338019843 
763	 0,393121127223956 
764	 0,393159411863929 
765	 0,393331181944081 
766	 0,393640705051219 
767	 0,393796837337362 
768	 0,39418286044298 
769	 0,394843211910866 
770	 0,395145343591182 
771	 0,395267386630069 
772	 0,395480194228649 
773	 0,395432443932499 
774	 0,395294259955526 
775	 0,395787095897991 
776	 0,396327350379907 
777	 0,396567888844793 
778	 0,396400199790054 
779	 0,396226784923036 
780	 0,396645264001441 
781	 0,396908605140028 
782	 0,396961673820914 
783	 0,397318595087176 
784	 0,397933782178183 
785	 0,398654399702869 
786	 0,398526717874086 
787	 0,398002041552959 
788	 0,39812229890946 
789	 0,398235796469091 
790	 0,398236466581305 
791	 0,39846879748826 
792	 0,398663483606105 
793	 0,398618564462269 
794	 0,398606834290957 
795	 0,398775234237333 
796	 0,399348104968787 
797	 0,399844539321037 
798	 0,400076924920264 
799	 0,400112994474552 
800	 0,400073569224877 
801	 0,400093942779935 
802	 0,400431439663661 
803	 0,400986109571381 
804	 0,401399230919681 
805	 0,401709798997527 
806	 0,401929843710331 
807	 0,40217794312759 
808	 0,402302036562844 
809	 0,402153964721264 
810	 0,402197844372425 
811	 0,402492643951413 
812	 0,402950355908733 
813	 0,403144227049685 
814	 0,403000554438366 
815	 0,403341375098784 
816	 0,403857513815765 
817	 0,40409929146177 
818	 0,404269217939419 
819	 0,404435447937371 
820	 0,404632146240446 
821	 0,405109534153956 
822	 0,405824333701827 
823	 0,405715832430078 
824	 0,405348518732144 
825	 0,405577638423493 
826	 0,406320872183945 
827	 0,407183158388877 
828	 0,406951690609457 
829	 0,40684329502743 
830	 0,407388475423137 
831	 0,407531503114467 
832	 0,407481166741364 
833	 0,407668705233364 
834	 0,407857856707147 
835	 0,408044600230482 
836	 0,408400588159704 
837	 0,408668030162321 
838	 0,408756234114995 
839	 0,409099786694554 
840	 0,409519363395548 
841	 0,409696920435109 
842	 0,410053245343315 
843	 0,410517821843461 
844	 0,410503583668544 
845	 0,410492620379062 
846	 0,410754172451791 
847	 0,411177915511134 
848	 0,411453769048316 
849	 0,411180557219329 
850	 0,411100811063977 
851	 0,411342543454678 
852	 0,411689064889373 
853	 0,411717525226014 
854	 0,411338932440778 
855	 0,411695920095355 
856	 0,412290431202815 
857	 0,412275642711241 
858	 0,412336253740753 
859	 0,412573459649129 
860	 0,412775155866216 
861	 0,412961123302295 
862	 0,413162210424032 
863	 0,413528508943169 
864	 0,413975354398161 
865	 0,41436899804869 
866	 0,414479671560408 
867	 0,414395287041011 
868	 0,414592976396915 
869	 0,414597203303194 
870	 0,414312621477041 
871	 0,414554052074131 
872	 0,415080150711197 
873	 0,415498523137146 
874	 0,415680974189215 
875	 0,415713399623874 
876	 0,41591984675713 
877	 0,416358179640191 
878	 0,416966812396024 
879	 0,417259578328142 
880	 0,417328567426128 
881	 0,417317694482987 
882	 0,416974140455667 
883	 0,416828643729169 
884	 0,418492842058076 
885	 0,419435314507644 
886	 0,418945619559462 
887	 0,418695536918327 
888	 0,418719214124186 
889	 0,418946595444392 
890	 0,419242189575117 
891	 0,419346985661247 
892	 0,418694544223169 
893	 0,418872104704872 
894	 0,419977061947857 
895	 0,419907931102205 
896	 0,419751624433481 
897	 0,420313521267244 
898	 0,420189690896915 
899	 0,419940898910318 
900	 0,420936284689361 
901	 0,421520144410321 
902	 0,421340316363116 
903	 0,421038428557962 
904	 0,420742128547245 
905	 0,420553290863735 
906	 0,420372041548554 
907	 0,420496316519988 
908	 0,421334794483247 
909	 0,421958934084857 
910	 0,422197400428266 
911	 0,422314308119641 
912	 0,422643615870045 
913	 0,4231938295339 
914	 0,422847573941583 
915	 0,422640440284404 
916	 0,423704838357426 
917	 0,42352231898155 
918	 0,422565173940601 
919	 0,423405623113949 
920	 0,423755208170213 
921	 0,423189250738967 
922	 0,423736224949187 
923	 0,423906839801063 
924	 0,422637886646378 
925	 0,422825944686727 
926	 0,423837902520816 
927	 0,423740523570172 
928	 0,422859503229299 
929	 0,421760273118837 
930	 0,42220481648527 
931	 0,422810641962347 
932	 0,42284777273415 
933	 0,423533262360503 
934	 0,42403058938457 
935	 0,423173841635985 
936	 0,421924789024455 
937	 0,420880130235858 
938	 0,420908612431868 
939	 0,421574957179865 
940	 0,422321631600123 
941	 0,421483411029632 
942	 0,420195880729319 
943	 0,419614278815617 
944	 0,419744989981256 
945	 0,420161392416383 
946	 0,420071039959315 
947	 0,419714502314484 
948	 0,419152294432226 
949	 0,418421162748458 
950	 0,41764020306555 
951	 0,416861669567709 
952	 0,41574295124605 
953	 0,415041386924111 
954	 0,415607309568824 
955	 0,415507220696724 
956	 0,414574018603608 
957	 0,413513369032948 
958	 0,412505829342923 
959	 0,411867718652198 
960	 0,412606836937301 
961	 0,41232915224044 
962	 0,409727761992785 
963	 0,410031575521046 
964	 0,411897967478691 
965	 0,412170826955979 
966	 0,411631380665684 
967	 0,410699764130392 
968	 0,410224146194573 
969	 0,409916585397983 
970	 0,409757634188205 
971	 0,410243944170604 
972	 0,410419627362157 
973	 0,409667115375809 
974	 0,41147672889048 
975	 0,413729322824505 
976	 0,41170592614638 
977	 0,410601189405281 
978	 0,411308514420369 
979	 0,411335779175331 
980	 0,412795259386854 
981	 0,415770409112866 
982	 0,414954588114905 
983	 0,412524678958145 
984	 0,411190184818781 
985	 0,410418921065387 
986	 0,410720378401375 
987	 0,413068619034528 
988	 0,415211180611026 
989	 0,416068078174406 
990	 0,414574815416399 
991	 0,414191017214632 
992	 0,416211897247083 
993	 0,416182508076919 
994	 0,415877533926801 
995	 0,417359592593971 
996	 0,418068143745876 
997	 0,418005846928217 
998	 0,418095126502173 
999	 0,417808651226609 
1000	 0,417896482683839 
1001	 0,421636833129145 
1002	 0,423440039539172 
1003	 0,421308982147632 
1004	 0,421697019146819 
1005	 0,422585355463892 
1006	 0,421713669115288 
1007	 0,421760789934429 
1008	 0,422151521351309 
1009	 0,421074918144448 
1010	 0,421700292206615 
1011	 0,424060935129127 
1012	 0,425514836772865 
1013	 0,425945290169091 
1014	 0,425813597008856 
1015	 0,428337223913381 
1016	 0,429955736124867 
1017	 0,428295650417027 
1018	 0,43167172181389 
1019	 0,43554200518241 
1020	 0,431765315626785 
1021	 0,429361058127221 
1022	 0,429153204550838 
1023	 0,426790325238985 
1024	 0,426243265900155 
1025	 0,428357591610192 
1026	 0,430527396685608 
1027	 0,432975862053552 
1028	 0,435552612144302 
1029	 0,436337509421168 
1030	 0,435514227440208 
1031	 0,433908401077517 
1032	 0,436089895064306 
1033	 0,439590316650806 
1034	 0,437524185247432 
1035	 0,436778826464173 
1036	 0,437727567110311 
1037	 0,434531697019385 
1038	 0,4318548462711 
1039	 0,432528067248248 
1040	 0,438964839068781 
1041	 0,443156606683333 
1042	 0,439601208489016 
1043	 0,441559022589171 
1044	 0,445689579203146 
1045	 0,444969985286123 
1046	 0,438133447774886 
1047	 0,430909731163571 
1048	 0,437997771259579 
1049	 0,439902654747637 
1050	 0,434457213541847 
1051	 0,437541916702765 
1052	 0,440827358248418 
1053	 0,440724141806401 
1054	 0,442052349826633 
1055	 0,444340212052866 
1056	 0,44608709176009 
1057	 0,439948545291836 
1058	 0,434918521592968 
1059	 0,44319831204919 
1060	 0,441624304354932 
1061	 0,434370966533854 
1062	 0,442929575646445 
1063	 0,451247391779552 
1064	 0,453909605141256 
1065	 0,448331947156079 
1066	 0,449080357740703 
1067	 0,457802173907476 
1068	 0,444884738248755 
1069	 0,43134441389605 
1070	 0,433168217088549 
1071	 0,446292471422535 
1072	 0,449942962724722 
1073	 0,423948651627827 
1074	 0,431838318256067 
1075	 0,456245672683531 
