Wavelength	PENFOUL00048.asd
325	 1,47670021384818E-02 
326	 0,176699819886635 
327	 0,272526643148592 
328	 0,202383820055998 
329	 0,198212536728697 
330	 0,220137647401999 
331	 0,220367784272773 
332	 0,201813666258644 
333	 0,166570583035474 
334	 0,15697007209394 
335	 0,126435656554508 
336	 7,34992129507555E-02 
337	 5,52161696365986E-02 
338	 7,08742846779266E-02 
339	 0,109481260774546 
340	 0,149888657143586 
341	 0,168570102645497 
342	 0,116804808004198 
343	 8,69695596719998E-02 
344	 0,104138079496875 
345	 0,100204517367276 
346	 8,84604989468847E-02 
347	 0,08782938128555 
348	 0,103728596197743 
349	 0,124416720534779 
350	 0,124348832198335 
351	 7,78652815606881E-02 
352	-3,59245334328056E-03 
353	 5,12822419651238E-02 
354	 0,121827456662509 
355	 8,66255372916791E-02 
356	 6,02770838701005E-02 
357	 6,37910260934777E-02 
358	 9,47478612747813E-02 
359	 9,04496345447972E-02 
360	 3,55726402584796E-02 
361	 2,77457488777855E-02 
362	 4,67930773156812E-02 
363	 4,45663411960266E-02 
364	 4,00746132316869E-02 
365	 3,96882848641026E-02 
366	 5,51646422508941E-02 
367	 6,62965482953522E-02 
368	 0,061710209241286 
369	 5,21700444883836E-02 
370	 4,47300054343301E-02 
371	 5,04663525385143E-02 
372	 3,88898580219993E-02 
373	 1,69042994344332E-02 
374	 5,83723445879077E-02 
375	 8,50133074439463E-02 
376	 5,00165707612196E-02 
377	 4,73541626496848E-02 
378	 6,62421394044724E-02 
379	 4,86493241902928E-02 
380	 0,040454508114959 
381	 5,32335973181396E-02 
382	 6,26708667125876E-02 
383	 6,63674190777658E-02 
384	 6,38707133768063E-02 
385	 5,97779451454331E-02 
386	 5,40883415526244E-02 
387	 4,05707577590941E-02 
388	 4,22972460288414E-02 
389	 6,14710722762662E-02 
390	 5,84999613445341E-02 
391	 4,83053003498867E-02 
392	 5,20732723519497E-02 
393	 4,38394095853247E-02 
394	 2,80986558644306E-02 
395	 3,34008179109214E-02 
396	 4,03328744476777E-02 
397	 3,93663079939984E-02 
398	 4,16106058774384E-02 
399	 0,04447112192625 
400	 4,28927741359832E-02 
401	 3,57196538712277E-02 
402	 2,75577147996659E-02 
403	 3,65770084578239E-02 
404	 4,61841554686843E-02 
405	 4,58447735762525E-02 
406	 4,47542395753637E-02 
407	 4,44777891744469E-02 
408	 0,045998128277737 
409	 4,42808925018751E-02 
410	 0,039607179704305 
411	 3,99887390018295E-02 
412	 4,07113525415084E-02 
413	 0,037203671220943 
414	 3,15408411279883E-02 
415	 0,027563956492388 
416	 3,47584652517388E-02 
417	 3,95250987975318E-02 
418	 3,73259207489994E-02 
419	 3,77541104044468E-02 
420	 3,82332917921933E-02 
421	 3,45417858133774E-02 
422	 3,49099264340082E-02 
423	 3,86501225378781E-02 
424	 3,67269072314825E-02 
425	 3,44405874818405E-02 
426	 3,48743783250563E-02 
427	 0,035749316457455 
428	 3,62266513554021E-02 
429	 3,54857172200516E-02 
430	 3,31932285377465E-02 
431	 3,07220875098103E-02 
432	 3,44783639028363E-02 
433	 3,70145745024356E-02 
434	 3,22971059201311E-02 
435	 3,16747126660072E-02 
436	 0,034801041298617 
437	 3,54846645757347E-02 
438	 3,52512019624013E-02 
439	 0,034954938041353 
440	 3,71733132168786E-02 
441	 3,84353464746464E-02 
442	 3,41769230759052E-02 
443	 3,28986906120157E-02 
444	 3,47317788644547E-02 
445	 3,23481053282015E-02 
446	 3,17640183721577E-02 
447	 3,58420225988012E-02 
448	 3,57911884127992E-02 
449	 3,31915470878867E-02 
450	 3,30823104586931E-02 
451	 3,49132179384045E-02 
452	 3,78974038548538E-02 
453	 3,90830643986876E-02 
454	 0,038786176010892 
455	 3,74763720854938E-02 
456	 3,51908454083738E-02 
457	 3,27349571612627E-02 
458	 3,14228028766357E-02 
459	 3,31774121349792E-02 
460	 3,75042409326143E-02 
461	 3,60957299013814E-02 
462	 3,29813234010147E-02 
463	 3,45201710080425E-02 
464	 3,47837102169357E-02 
465	 3,34054957619012E-02 
466	 0,034153096026439 
467	 0,035692409988104 
468	 3,69409469164394E-02 
469	 3,64042846833998E-02 
470	 3,54859207923612E-02 
471	 3,74904783187482E-02 
472	 3,86242962555087E-02 
473	 3,81539384475659E-02 
474	 3,91175817116339E-02 
475	 3,94026532955452E-02 
476	 3,69265543390388E-02 
477	 3,46934818664833E-02 
478	 3,36761335471197E-02 
479	 3,46754219227003E-02 
480	 0,03540485949434 
481	 3,49434456305856E-02 
482	 3,52714946780045E-02 
483	 3,62900597414292E-02 
484	 3,76321716391722E-02 
485	 3,72783823114181E-02 
486	 3,57761226869001E-02 
487	 3,76278047092261E-02 
488	 3,86764502818356E-02 
489	 3,60574791163815E-02 
490	 3,48390723346442E-02 
491	 3,54214712965368E-02 
492	 0,036991238165313 
493	 3,72818436800803E-02 
494	 3,59920849992963E-02 
495	 3,69749763774274E-02 
496	 3,79410131535214E-02 
497	 3,60740852253262E-02 
498	 3,50785714551475E-02 
499	 0,0354376033512 
500	 3,57334604371707E-02 
501	 3,65589312201284E-02 
502	 3,79886829975086E-02 
503	 3,82805186320715E-02 
504	 3,76336954073873E-02 
505	 3,67344053005818E-02 
506	 3,62169286041487E-02 
507	 3,65320382961416E-02 
508	 0,038696363528636 
509	 3,96011072398353E-02 
510	 3,68066007325663E-02 
511	 3,71329962657344E-02 
512	 3,96154400559655E-02 
513	 3,79705020548576E-02 
514	 3,76987673104852E-02 
515	 4,04721768279123E-02 
516	 4,10196663968161E-02 
517	 4,01647901156204E-02 
518	 3,97708802571999E-02 
519	 3,98261271634446E-02 
520	 4,03523998250023E-02 
521	 4,13515426892382E-02 
522	 4,14754307390701E-02 
523	 4,00597873479336E-02 
524	 4,10586818184767E-02 
525	 0,043220185327467 
526	 4,22436420773172E-02 
527	 4,16824168624513E-02 
528	 4,24092237563696E-02 
529	 4,23006884453998E-02 
530	 4,17752094412117E-02 
531	 4,14783253400706E-02 
532	 4,12220951047965E-02 
533	 4,10091341898304E-02 
534	 4,08435054805445E-02 
535	 4,10448912656947E-02 
536	 0,041652672983426 
537	 4,12421594505505E-02 
538	 4,07232826373855E-02 
539	 4,22225506157103E-02 
540	 4,28627579011753E-02 
541	 4,20524912434764E-02 
542	 0,041486307132265 
543	 4,14751036088484E-02 
544	 4,21690088241292E-02 
545	 4,21217048763496E-02 
546	 4,15887287279168E-02 
547	 0,042229423922102 
548	 4,26086029717713E-02 
549	 4,22464653290363E-02 
550	 4,29703717827203E-02 
551	 4,40857989403218E-02 
552	 4,42777279253573E-02 
553	 4,35662141859649E-02 
554	 4,24663320991722E-02 
555	 4,29505153292984E-02 
556	 4,38960166729628E-02 
557	 4,42718239460958E-02 
558	 4,38010107005161E-02 
559	 0,043040186391947 
560	 4,36002482915434E-02 
561	 0,04385992951644 
562	 4,32786378732224E-02 
563	 4,28594147035374E-02 
564	 4,25080768516494E-02 
565	 4,19712375912559E-02 
566	 4,20719493448254E-02 
567	 4,27889197986217E-02 
568	 0,043338182476736 
569	 4,35828453726737E-02 
570	 4,34992232274029E-02 
571	 4,38611374668958E-02 
572	 4,46209088117969E-02 
573	 4,55112332762422E-02 
574	 4,55670820122073E-02 
575	 4,48705339701524E-02 
576	 4,58989217272569E-02 
577	 4,74090497023492E-02 
578	 4,78283122090386E-02 
579	 4,83518848596645E-02 
580	 4,89997813946119E-02 
581	 0,048989932768956 
582	 4,90469496095725E-02 
583	 4,96313524563118E-02 
584	 5,09013559923377E-02 
585	 5,19689825622355E-02 
586	 5,11909370372716E-02 
587	 5,14122334954645E-02 
588	 5,29115501934995E-02 
589	 5,26570786311311E-02 
590	 5,23124587074761E-02 
591	 5,34496200500497E-02 
592	 5,38195703723634E-02 
593	 5,34423987364561E-02 
594	 5,36090094219517E-02 
595	 5,36508855674675E-02 
596	 5,34441117119513E-02 
597	 5,42522480348489E-02 
598	 5,49889744987716E-02 
599	 5,38270395834359E-02 
600	 0,053667337690495 
601	 0,054621933913408 
602	 5,36440383316915E-02 
603	 5,29631342836837E-02 
604	 5,41716582434288E-02 
605	 0,053942951917472 
606	 5,26526396258208E-02 
607	 5,26492562681189E-02 
608	 5,24404518461978E-02 
609	 5,17316857332508E-02 
610	 5,20002484249656E-02 
611	 5,23291641501158E-02 
612	 5,14684008590238E-02 
613	 0,05083937790005 
614	 5,07117784460941E-02 
615	 5,07242549789993E-02 
616	 5,07589555655109E-02 
617	 5,07503113421992E-02 
618	 5,09750064880561E-02 
619	 5,12018451540623E-02 
620	 5,09278363210511E-02 
621	 5,04623312561808E-02 
622	 0,050019505643361 
623	 5,01344240883433E-02 
624	 0,050000028231537 
625	 4,88399356946224E-02 
626	 4,89655251974147E-02 
627	 0,050236664814396 
628	 5,08285200522093E-02 
629	 5,10152308562361E-02 
630	 5,09583553242362E-02 
631	 5,10781651026997E-02 
632	 5,14335707916223E-02 
633	 5,20204915641797E-02 
634	 5,25559721434794E-02 
635	 5,28724632408693E-02 
636	 5,26119213016627E-02 
637	 5,28792305488152E-02 
638	 5,44723061882815E-02 
639	 5,50031015104699E-02 
640	 5,46859845433212E-02 
641	 5,52324043233242E-02 
642	 5,58240419480927E-02 
643	 5,60954561386667E-02 
644	 5,57503833933345E-02 
645	 5,53601291319964E-02 
646	 5,56867292116604E-02 
647	 5,61773119461802E-02 
648	 5,64861290656472E-02 
649	 0,055905821425862 
650	 5,56094999410163E-02 
651	 5,62326860746876E-02 
652	 5,58969660216844E-02 
653	 5,48259652908407E-02 
654	 5,39756800604889E-02 
655	 5,36959105002127E-02 
656	 5,37698849628271E-02 
657	 5,21885297197885E-02 
658	 5,08628828270877E-02 
659	 5,17720829823883E-02 
660	 5,15776955735633E-02 
661	 5,00933731529209E-02 
662	 4,88380267951973E-02 
663	 4,82543644147953E-02 
664	 4,83979640275126E-02 
665	 4,75761554772402E-02 
666	 4,62518091734048E-02 
667	 4,54415297821261E-02 
668	 4,49769975814213E-02 
669	 4,48289281145672E-02 
670	 0,045026172071697 
671	 4,48987199234226E-02 
672	 4,40102116806536E-02 
673	 4,38280112760644E-02 
674	 4,42276982205911E-02 
675	 4,42879166887553E-02 
676	 4,42814499614457E-02 
677	 4,43071998282929E-02 
678	 4,44934477310053E-02 
679	 4,48107523801223E-02 
680	 4,52026536020815E-02 
681	 4,48693950684288E-02 
682	 4,41867811442279E-02 
683	 4,49200914329812E-02 
684	 4,58611480711038E-02 
685	 4,63507175938362E-02 
686	 0,047179545857952 
687	 4,83830330536229E-02 
688	 4,98667087055072E-02 
689	 0,05131538172733 
690	 5,27313141453922E-02 
691	 5,45452557163449E-02 
692	 5,68499474610292E-02 
693	 5,96990707825793E-02 
694	 6,29117996995265E-02 
695	 6,62817210812447E-02 
696	 0,069421779566464 
697	 7,27881129940601E-02 
698	 7,66467070996023E-02 
699	 0,081327464153136 
700	 0,086264638053674 
701	 9,07123651710502E-02 
702	 9,50811579221132E-02 
703	 9,94837270427453E-02 
704	 0,104030833166422 
705	 0,108451121201591 
706	 0,112567232945243 
707	 0,116448905605771 
708	 0,120221212975955 
709	 0,124122827683917 
710	 0,127645846740163 
711	 0,130681247202058 
712	 0,133549273992185 
713	 0,136351652560559 
714	 0,13913130516676 
715	 0,141423537098583 
716	 0,143301320251659 
717	 0,145125402870738 
718	 0,147150161922823 
719	 0,149356982718322 
720	 0,150885549720566 
721	 0,151991765780197 
722	 0,1531114958509 
723	 0,154344506487404 
724	 0,155719051092451 
725	 0,157233302759895 
726	 0,158368553271789 
727	 0,158901379747912 
728	 0,159869272531251 
729	 0,161000296745478 
730	 0,161568699376294 
731	 0,161810954272681 
732	 0,161940733931851 
733	 0,162537823546447 
734	 0,163204052680126 
735	 0,163584813092962 
736	 0,164025144538814 
737	 0,16454155968719 
738	 0,165021434720099 
739	 0,165549914601748 
740	 0,166097926937461 
741	 0,166383318022564 
742	 0,166490419044714 
743	 0,16655155709998 
744	 0,166860822680589 
745	 0,167335058548374 
746	 0,167520467148362 
747	 0,167465921076677 
748	 0,167334339665202 
749	 0,168164629959837 
750	 0,169055532026046 
751	 0,16843385940341 
752	 0,168306979855993 
753	 0,168954744714874 
754	 0,169230250466476 
755	 0,169164549950784 
756	 0,168872077268732 
757	 0,169144523690155 
758	 0,169813276500541 
759	 0,17033303892256 
760	 0,170310043507187 
761	 0,169851491189836 
762	 0,170230069021886 
763	 0,170704674550529 
764	 0,170545214758544 
765	 0,170390256196862 
766	 0,170469895057591 
767	 0,171119288330833 
768	 0,171475286889191 
769	 0,171248578993022 
770	 0,171029156649989 
771	 0,171064561367594 
772	 0,171561372214184 
773	 0,171701948895589 
774	 0,171502441519409 
775	 0,171615146394978 
776	 0,171916294841417 
777	 0,172262248396825 
778	 0,172037637009329 
779	 0,171769768230719 
780	 0,172324484651905 
781	 0,172634149318505 
782	 0,172527960959466 
783	 0,172468642228716 
784	 0,172534890252049 
785	 0,17274365178093 
786	 0,172688303634329 
787	 0,172608393163956 
788	 0,173055522256632 
789	 0,173200657047697 
790	 0,172926799590534 
791	 0,172873489874738 
792	 0,172873272844982 
793	 0,172808490834556 
794	 0,173066199229181 
795	 0,173377017130534 
796	 0,173030898761238 
797	 0,172755815735757 
798	 0,172795698379657 
799	 0,173009931774977 
800	 0,173217131536678 
801	 0,17326856005442 
802	 0,173507454356169 
803	 0,173852403913544 
804	 0,173919581414217 
805	 0,174073688599058 
806	 0,17439457527619 
807	 0,174616856211145 
808	 0,174545581255175 
809	 0,174039119214167 
810	 0,173995556657446 
811	 0,174394796133782 
812	 0,174659105986723 
813	 0,17462843217092 
814	 0,174313510965209 
815	 0,174340925380337 
816	 0,174623681860605 
817	 0,174974292618169 
818	 0,175046622569897 
819	 0,174871942328318 
820	 0,174815891825804 
821	 0,174796666568198 
822	 0,174812978676623 
823	 0,175002993736059 
824	 0,175292897402427 
825	 0,175572033521282 
826	 0,176143933048436 
827	 0,176731777530021 
828	 0,176249715546704 
829	 0,175869608684155 
830	 0,176104992850133 
831	 0,175885271227193 
832	 0,175536119725503 
833	 0,175642455377773 
834	 0,175792236305388 
835	 0,175840336812268 
836	 0,175594511001777 
837	 0,1757064636031 
838	 0,176380478078694 
839	 0,176295792460611 
840	 0,176121127742943 
841	 0,176990101956189 
842	 0,177206202374834 
843	 0,176684842998101 
844	 0,176615957394791 
845	 0,176643133121759 
846	 0,176664551362241 
847	 0,177365166049809 
848	 0,177875851926668 
849	 0,176919211060195 
850	 0,176686980218946 
851	 0,177275599744227 
852	 0,177052548101773 
853	 0,176700272842354 
854	 0,176569705283435 
855	 0,176428426404211 
856	 0,176366981781049 
857	 0,176528044529618 
858	 0,176517316857493 
859	 0,176428909516254 
860	 0,176969526136222 
861	 0,17715026368129 
862	 0,176603097571355 
863	 0,176557925121281 
864	 0,17685756703178 
865	 0,177115447965635 
866	 0,176878349367094 
867	 0,176452076964575 
868	 0,177206887196558 
869	 0,177606796465641 
870	 0,177057313384754 
871	 0,176784955927824 
872	 0,176840851807958 
873	 0,177122534186433 
874	 0,176871709083188 
875	 0,176549607127217 
876	 0,178117666145412 
877	 0,179070569069428 
878	 0,178470393971902 
879	 0,177695663759434 
880	 0,177198909583023 
881	 0,177338228944322 
882	 0,177728700082302 
883	 0,178267844750734 
884	 0,179010257104977 
885	 0,179418421166334 
886	 0,179332311840197 
887	 0,17910796496223 
888	 0,179098706254765 
889	 0,179559599179874 
890	 0,179744209674191 
891	 0,179544243271707 
892	 0,178953300342058 
893	 0,17926666806257 
894	 0,180354146146452 
895	 0,179515451973093 
896	 0,178785513674333 
897	 0,179656242108152 
898	 0,179664973601633 
899	 0,179209469815764 
900	 0,179671562085371 
901	 0,179868520485392 
902	 0,179680649077125 
903	 0,179926697841363 
904	 0,180300016363298 
905	 0,180558939801398 
906	 0,180513547639056 
907	 0,180200722968748 
908	 0,179720223828231 
909	 0,179801513516564 
910	 0,180324059487294 
911	 0,180271647423734 
912	 0,180264534807987 
913	 0,180493298461364 
914	 0,180208962924649 
915	 0,180212985141543 
916	 0,181349242489967 
917	 0,181535492384757 
918	 0,180860632512731 
919	 0,180675807793071 
920	 0,1803885029579 
921	 0,180054710079924 
922	 0,180766473233891 
923	 0,181187965630929 
924	 0,180322912576609 
925	 0,180217504656764 
926	 0,180487610885797 
927	 0,179832467695657 
928	 0,179607323025401 
929	 0,179781684224953 
930	 0,178656599524849 
931	 0,17824808659628 
932	 0,179521898436939 
933	 0,180483997267751 
934	 0,180480591597704 
935	 0,179073576885657 
936	 0,178270790343924 
937	 0,17835421660379 
938	 0,178652244041625 
939	 0,179025779200603 
940	 0,17907269188927 
941	 0,177191974869785 
942	 0,17634004497754 
943	 0,17877864773458 
944	 0,178985135341452 
945	 0,177460420329431 
946	 0,176802839832527 
947	 0,177983559305083 
948	 0,180105842021421 
949	 0,178643259741983 
950	 0,177089768595486 
951	 0,177133173079351 
952	 0,175241381555112 
953	 0,17408532397775 
954	 0,1769668113256 
955	 0,177006716031766 
956	 0,174590946169763 
957	 0,17473923210223 
958	 0,174201169872835 
959	 0,172589157981685 
960	 0,173083306438052 
961	 0,173253600322846 
962	 0,171632715518805 
963	 0,172837897621998 
964	 0,175306062592885 
965	 0,175755484971315 
966	 0,174222781858934 
967	 0,171997002140737 
968	 0,17320560311922 
969	 0,173938236744588 
970	 0,172741996200128 
971	 0,171457057671445 
972	 0,170888669159871 
973	 0,171690815889914 
974	 0,17408449182971 
975	 0,176316186122841 
976	 0,175444770368709 
977	 0,173415752109849 
978	 0,171585222823925 
979	 0,172119822453716 
980	 0,174255071957758 
981	 0,176707439149437 
982	 0,174766031907109 
983	 0,173086530413366 
984	 0,176196208355828 
985	 0,175201533480913 
986	 0,172044392202378 
987	 0,173557400830128 
988	 0,174862164382852 
989	 0,174963845686274 
990	 0,175520529122014 
991	 0,175609465620101 
992	 0,175131462571492 
993	 0,176615827038775 
994	 0,177394737071895 
995	 0,174881507379307 
996	 0,174752170901598 
997	 0,176592299323647 
998	 0,177595743877085 
999	 0,177026886132189 
1000	 0,175937490162673 
1001	 0,179526646863162 
1002	 0,18040144868289 
1003	 0,176583709093995 
1004	 0,180215282710742 
1005	 0,183531116855246 
1006	 0,178954157959375 
1007	 0,178276954019807 
1008	 0,179960079696112 
1009	 0,177638619054868 
1010	 0,178670502092289 
1011	 0,182332040630546 
1012	 0,179795485054992 
1013	 0,177577317946894 
1014	 0,178537984143178 
1015	 0,181619260965237 
1016	 0,183047705066951 
1017	 0,180560795140051 
1018	 0,183698718766859 
1019	 0,187484556052666 
1020	 0,182846786401839 
1021	 0,178532159125033 
1022	 0,177548182311716 
1023	 0,182129860311576 
1024	 0,184995729242182 
1025	 0,183825256694773 
1026	 0,180737888035925 
1027	 0,181700981390119 
1028	 0,188911064362815 
1029	 0,190275260885513 
1030	 0,185553797378267 
1031	 0,177250150981437 
1032	 0,179336799071317 
1033	 0,187021546313666 
1034	 0,184559017653543 
1035	 0,185006820031125 
1036	 0,18897175886006 
1037	 0,185668902815302 
1038	 0,182854586417421 
1039	 0,184123890169783 
1040	 0,188564241723348 
1041	 0,188451279677543 
1042	 0,18004276238878 
1043	 0,187346697014068 
1044	 0,19775449295529 
1045	 0,190424468573734 
1046	 0,18221680637198 
1047	 0,178773438041721 
1048	 0,184356561101886 
1049	 0,190114562588424 
1050	 0,193113185866848 
1051	 0,193819349991973 
1052	 0,192049592727753 
1053	 0,188967387200994 
1054	 0,189865738137632 
1055	 0,191553129149891 
1056	 0,191621334431559 
1057	 0,198526939161282 
1058	 0,202611225953786 
1059	 0,190680612214733 
1060	 0,181000467347331 
1061	 0,179982288569052 
1062	 0,192095705226933 
1063	 0,198498410227536 
1064	 0,193568593981167 
1065	 0,1785560504548 
1066	 0,178816513113962 
1067	 0,200613028033019 
1068	 0,210149192685868 
1069	 0,205077834939663 
1070	 0,188602802061987 
1071	 0,185855431087848 
1072	 0,188799643147306 
1073	 0,183898852284083 
1074	 0,184940008724226 
1075	 0,186617804415786 
